Data from NiCl2@0.0625M.TitratingCurve.Agarose3%dH2O.NegLispCup.LampEnergy10.LIBS07252019_HRD10591_18-35-39-577.txt Node
Date: Thu Jul 25 18:35:39 EDT 2019
User: cochatt
Spectrometer: HR+D1059
Trigger mode: 1
Integration Time (sec): 1.000000E-1
Scans to average: 1
Electric dark correction enabled: true
Nonlinearity correction enabled: false
Boxcar width: 0
XAxis mode: Wavelengths
Number of Pixels in Spectrum: 2048
>>>>>Begin Spectral Data<<<<<
223.165	-9.31
223.4	-9.31
223.635	-9.31
223.869	-24.31
224.104	-22.31
224.338	-3.31
224.573	-22.31
224.808	-3.31
225.042	-16.31
225.277	1.69
225.511	1.69
225.746	-0.31
225.98	5.69
226.215	17.69
226.449	24.69
226.683	6.69
226.918	15.69
227.152	27.69
227.387	21.69
227.621	42.69
227.856	33.69
228.09	54.69
228.324	47.69
228.559	59.69
228.793	73.69
229.027	117.69
229.262	117.69
229.496	130.69
229.73	122.69
229.964	124.69
230.199	139.69
230.433	138.69
230.667	148.69
230.901	140.69
231.136	149.69
231.37	137.69
231.604	147.69
231.838	148.69
232.072	168.69
232.306	154.69
232.541	145.69
232.775	155.69
233.009	162.69
233.243	151.69
233.477	162.69
233.711	152.69
233.945	166.69
234.179	169.69
234.413	176.69
234.647	194.69
234.881	163.69
235.115	178.69
235.349	157.69
235.583	180.69
235.817	179.69
236.051	164.69
236.285	179.69
236.519	178.69
236.753	187.69
236.987	191.69
237.221	199.69
237.455	179.69
237.689	179.69
237.922	176.69
238.156	193.69
238.39	175.69
238.624	181.69
238.858	182.69
239.091	171.69
239.325	212.69
239.559	192.69
239.793	211.69
240.027	200.69
240.26	204.69
240.494	217.69
240.728	217.69
240.961	191.69
241.195	224.69
241.429	215.69
241.662	217.69
241.896	224.69
242.13	222.69
242.363	208.69
242.597	222.69
242.83	218.69
243.064	225.69
243.298	256.69
243.531	233.69
243.765	226.69
243.998	236.69
244.232	234.69
244.465	231.69
244.699	251.69
244.932	258.69
245.166	267.69
245.399	261.69
245.633	284.69
245.866	258.69
246.099	242.69
246.333	252.69
246.566	256.69
246.8	256.69
247.033	263.69
247.266	263.69
247.5	268.69
247.733	275.69
247.966	269.69
248.2	288.69
248.433	280.69
248.666	270.69
248.899	296.69
249.133	297.69
249.366	293.69
249.599	306.69
249.832	321.69
250.066	299.69
250.299	303.69
250.532	280.69
250.765	296.69
250.998	294.69
251.231	305.69
251.465	297.69
251.698	311.69
251.931	323.69
252.164	310.69
252.397	326.69
252.63	321.69
252.863	307.69
253.096	321.69
253.329	324.69
253.562	335.69
253.795	331.69
254.028	331.69
254.261	319.69
254.494	320.69
254.727	343.69
254.96	325.69
255.193	331.69
255.426	350.69
255.659	345.69
255.892	337.69
256.124	351.69
256.357	336.69
256.59	355.69
256.823	367.69
257.056	351.69
257.289	352.69
257.521	375.69
257.754	356.69
257.987	355.69
258.22	353.69
258.452	373.69
258.685	367.69
258.918	375.69
259.151	381.69
259.383	378.69
259.616	386.69
259.849	358.69
260.081	389.69
260.314	384.69
260.547	390.69
260.779	380.69
261.012	375.69
261.244	385.69
261.477	402.69
261.71	399.69
261.942	384.69
262.175	388.69
262.407	416.69
262.64	415.69
262.872	413.69
263.105	409.69
263.337	408.69
263.57	402.69
263.802	405.69
264.035	428.69
264.267	419.69
264.499	408.69
264.732	410.69
264.964	437.69
265.197	422.69
265.429	431.69
265.661	440.69
265.894	421.69
266.126	446.69
266.358	417.69
266.591	450.69
266.823	435.69
267.055	441.69
267.287	432.69
267.52	450.69
267.752	423.69
267.984	449.69
268.216	467.69
268.448	458.69
268.681	454.69
268.913	449.69
269.145	453.69
269.377	475.69
269.609	475.69
269.841	454.69
270.073	448.69
270.306	467.69
270.538	467.69
270.77	476.69
271.002	481.69
271.234	466.69
271.466	466.69
271.698	474.69
271.93	470.69
272.162	483.69
272.394	479.69
272.626	482.69
272.858	477.69
273.09	476.69
273.322	488.69
273.553	489.69
273.785	498.69
274.017	507.69
274.249	510.69
274.481	496.69
274.713	482.69
274.945	539.69
275.176	499.69
275.408	489.69
275.64	520.69
275.872	531.69
276.104	508.69
276.335	503.69
276.567	507.69
276.799	510.69
277.031	528.69
277.262	520.69
277.494	535.69
277.726	535.69
277.957	534.69
278.189	542.69
278.421	548.69
278.652	548.69
278.884	542.69
279.115	540.69
279.347	562.69
279.579	540.69
279.81	546.69
280.042	542.69
280.273	548.69
280.505	539.69
280.736	547.69
280.968	546.69
281.199	566.69
281.431	556.69
281.662	554.69
281.894	563.69
282.125	574.69
282.356	575.69
282.588	611.69
282.819	571.69
283.051	598.69
283.282	594.69
283.513	582.69
283.745	576.69
283.976	594.69
284.207	587.69
284.439	578.69
284.67	583.69
284.901	588.69
285.132	608.69
285.364	559.69
285.595	587.69
285.826	590.69
286.057	594.69
286.288	591.69
286.52	612.69
286.751	611.69
286.982	630.69
287.213	585.69
287.444	613.69
287.675	642.69
287.906	628.69
288.138	615.69
288.369	608.69
288.6	594.69
288.831	631.69
289.062	638.69
289.293	603.69
289.524	615.69
289.755	672.69
289.986	619.69
290.217	601.69
290.448	624.69
290.679	622.69
290.91	617.69
291.141	622.69
291.371	662.69
291.602	647.69
291.833	630.69
292.064	640.69
292.295	634.69
292.526	633.69
292.757	633.69
292.987	639.69
293.218	608.69
293.449	653.69
293.68	634.69
293.91	665.69
294.141	647.69
294.372	625.69
294.603	649.69
294.833	635.69
295.064	623.69
295.295	660.69
295.525	649.69
295.756	651.69
295.987	635.69
296.217	666.69
296.448	649.69
296.679	675.69
296.909	650.69
297.14	670.69
297.37	672.69
297.601	673.69
297.831	690.69
298.062	702.69
298.292	679.69
298.523	659.69
298.753	675.69
298.984	707.69
299.214	706.69
299.445	690.69
299.675	676.69
299.905	680.69
300.136	668.69
300.366	712.69
300.597	714.69
300.827	706.69
301.057	697.69
301.288	710.69
301.518	701.69
301.748	721.69
301.979	744.69
302.209	716.69
302.439	712.69
302.669	714.69
302.9	710.69
303.13	699.69
303.36	712.69
303.59	719.69
303.82	724.69
304.051	739.69
304.281	724.69
304.511	715.69
304.741	731.69
304.971	740.69
305.201	730.69
305.431	714.69
305.661	701.69
305.891	732.69
306.121	736.69
306.352	750.69
306.582	693.69
306.812	716.69
307.042	727.69
307.272	734.69
307.502	713.69
307.731	724.69
307.961	714.69
308.191	721.69
308.421	714.69
308.651	718.69
308.881	686.69
309.111	704.69
309.341	724.69
309.571	730.69
309.8	723.69
310.03	713.69
310.26	715.69
310.49	729.69
310.72	724.69
310.949	749.69
311.179	734.69
311.409	739.69
311.639	734.69
311.868	721.69
312.098	744.69
312.328	776.69
312.557	743.69
312.787	727.69
313.017	747.69
313.246	739.69
313.476	730.69
313.706	772.69
313.935	764.69
314.165	780.69
314.394	768.69
314.624	780.69
314.853	764.69
315.083	780.69
315.312	783.69
315.542	783.69
315.771	752.69
316.001	772.69
316.23	787.69
316.46	746.69
316.689	772.69
316.919	744.69
317.148	776.69
317.377	798.69
317.607	761.69
317.836	762.69
318.065	754.69
318.295	791.69
318.524	777.69
318.753	777.69
318.983	783.69
319.212	766.69
319.441	753.69
319.67	768.69
319.9	780.69
320.129	772.69
320.358	750.69
320.587	763.69
320.816	773.69
321.046	751.69
321.275	814.69
321.504	796.69
321.733	777.69
321.962	779.69
322.191	801.69
322.42	763.69
322.649	790.69
322.878	793.69
323.108	780.69
323.337	784.69
323.566	809.69
323.795	804.69
324.024	812.69
324.253	826.69
324.482	789.69
324.71	786.69
324.939	793.69
325.168	802.69
325.397	811.69
325.626	810.69
325.855	817.69
326.084	842.69
326.313	818.69
326.542	826.69
326.77	856.69
326.999	820.69
327.228	841.69
327.457	826.69
327.686	847.69
327.914	839.69
328.143	824.69
328.372	842.69
328.6	831.69
328.829	820.69
329.058	818.69
329.287	827.69
329.515	813.69
329.744	839.69
329.972	836.69
330.201	849.69
330.43	848.69
330.658	868.69
330.887	871.69
331.115	861.69
331.344	873.69
331.572	883.69
331.801	887.69
332.03	912.69
332.258	911.69
332.486	899.69
332.715	932.69
332.943	938.69
333.172	968.69
333.4	1001.69
333.629	985.69
333.857	1030.69
334.085	1017.69
334.314	1009.69
334.542	1025.69
334.771	1048.69
334.999	977.69
335.227	983.69
335.455	1025.69
335.684	1010.69
335.912	1008.69
336.14	999.69
336.369	990.69
336.597	984.69
336.825	966.69
337.053	976.69
337.281	967.69
337.51	982.69
337.738	940.69
337.966	924.69
338.194	935.69
338.422	909.69
338.65	911.69
338.878	935.69
339.106	897.69
339.334	923.69
339.562	934.69
339.79	880.69
340.018	902.69
340.246	888.69
340.474	872.69
340.702	879.69
340.93	874.69
341.158	865.69
341.386	887.69
341.614	890.69
341.842	874.69
342.07	866.69
342.298	873.69
342.526	865.69
342.754	876.69
342.981	862.69
343.209	888.69
343.437	888.69
343.665	944.69
343.893	972.69
344.12	992.69
344.348	975.69
344.576	939.69
344.804	934.69
345.031	912.69
345.259	900.69
345.487	899.69
345.714	870.69
345.942	876.69
346.17	866.69
346.397	827.69
346.625	854.69
346.853	825.69
347.08	838.69
347.308	865.69
347.535	830.69
347.763	863.69
347.99	833.69
348.218	815.69
348.445	816.69
348.673	822.69
348.9	840.69
349.128	808.69
349.355	822.69
349.583	816.69
349.81	822.69
350.037	793.69
350.265	844.69
350.492	834.69
350.72	803.69
350.947	835.69
351.174	826.69
351.402	820.69
351.629	826.69
351.856	806.69
352.083	798.69
352.311	787.69
352.538	781.69
352.765	822.69
352.992	805.69
353.22	814.69
353.447	774.69
353.674	804.69
353.901	821.69
354.128	798.69
354.355	811.69
354.583	788.69
354.81	794.69
355.037	790.69
355.264	822.69
355.491	822.69
355.718	822.69
355.945	816.69
356.172	806.69
356.399	803.69
356.626	822.69
356.853	808.69
357.08	807.69
357.307	836.69
357.534	807.69
357.761	825.69
357.988	819.69
358.215	834.69
358.441	810.69
358.668	787.69
358.895	811.69
359.122	792.69
359.349	806.69
359.576	821.69
359.802	809.69
360.029	802.69
360.256	816.69
360.483	812.69
360.709	842.69
360.936	814.69
361.163	802.69
361.39	841.69
361.616	811.69
361.843	807.69
362.07	803.69
362.296	801.69
362.523	809.69
362.749	796.69
362.976	790.69
363.203	792.69
363.429	802.69
363.656	821.69
363.882	827.69
364.109	803.69
364.335	823.69
364.562	818.69
364.788	805.69
365.015	816.69
365.241	814.69
365.468	817.69
365.694	809.69
365.92	826.69
366.147	816.69
366.373	796.69
366.599	801.69
366.826	829.69
367.052	786.69
367.278	807.69
367.505	813.69
367.731	818.69
367.957	826.69
368.184	812.69
368.41	850.69
368.636	814.69
368.862	821.69
369.089	854.69
369.315	823.69
369.541	846.69
369.767	840.69
369.993	841.69
370.219	844.69
370.445	864.69
370.672	859.69
370.898	844.69
371.124	875.69
371.35	896.69
371.576	870.69
371.802	879.69
372.028	890.69
372.254	890.69
372.48	885.69
372.706	907.69
372.932	905.69
373.158	929.69
373.384	874.69
373.61	894.69
373.835	881.69
374.061	880.69
374.287	855.69
374.513	900.69
374.739	897.69
374.965	931.69
375.191	959.69
375.416	955.69
375.642	914.69
375.868	890.69
376.094	902.69
376.319	931.69
376.545	885.69
376.771	876.69
376.997	871.69
377.222	883.69
377.448	881.69
377.674	873.69
377.899	869.69
378.125	878.69
378.35	846.69
378.576	845.69
378.802	858.69
379.027	882.69
379.253	881.69
379.478	836.69
379.704	852.69
379.929	898.69
380.155	852.69
380.38	863.69
380.606	859.69
380.831	849.69
381.057	876.69
381.282	881.69
381.507	852.69
381.733	891.69
381.958	891.69
382.184	873.69
382.409	898.69
382.634	884.69
382.86	901.69
383.085	940.69
383.31	902.69
383.535	928.69
383.761	913.69
383.986	942.69
384.211	938.69
384.436	969.69
384.662	986.69
384.887	982.69
385.112	973.69
385.337	999.69
385.562	1009.69
385.787	1022.69
386.013	1025.69
386.238	1026.69
386.463	1040.69
386.688	1012.69
386.913	995.69
387.138	996.69
387.363	1041.69
387.588	995.69
387.813	1019.69
388.038	978.69
388.263	1018.69
388.488	1019.69
388.713	1050.69
388.938	1038.69
389.163	1010.69
389.387	1009.69
389.612	1017.69
389.837	1000.69
390.062	992.69
390.287	1020.69
390.512	1012.69
390.736	1000.69
390.961	994.69
391.186	1058.69
391.411	1064.69
391.636	1107.69
391.86	1137.69
392.085	1116.69
392.31	1116.69
392.534	1127.69
392.759	1110.69
392.984	1087.69
393.208	1072.69
393.433	1093.69
393.658	1103.69
393.882	1042.69
394.107	1086.69
394.331	1093.69
394.556	1086.69
394.78	1090.69
395.005	1084.69
395.229	1125.69
395.454	1116.69
395.678	1137.69
395.903	1118.69
396.127	1110.69
396.352	1133.69
396.576	1114.69
396.801	1115.69
397.025	1112.69
397.249	1150.69
397.474	1178.69
397.698	1125.69
397.922	1165.69
398.147	1128.69
398.371	1139.69
398.595	1237.69
398.82	1234.69
399.044	1318.69
399.268	1397.69
399.492	1485.69
399.717	1586.69
399.941	1642.69
400.165	1552.69
400.389	1432.69
400.613	1393.69
400.837	1345.69
401.062	1298.69
401.286	1257.69
401.51	1290.69
401.734	1259.69
401.958	1279.69
402.182	1252.69
402.406	1264.69
402.63	1274.69
402.854	1260.69
403.078	1278.69
403.302	1288.69
403.526	1314.69
403.75	1292.69
403.974	1344.69
404.198	1348.69
404.422	1347.69
404.645	1334.69
404.869	1333.69
405.093	1352.69
405.317	1319.69
405.541	1340.69
405.765	1341.69
405.988	1327.69
406.212	1343.69
406.436	1358.69
406.66	1404.69
406.883	1408.69
407.107	1457.69
407.331	1520.69
407.555	1558.69
407.778	1535.69
408.002	1512.69
408.226	1493.69
408.449	1459.69
408.673	1446.69
408.896	1444.69
409.12	1403.69
409.344	1437.69
409.567	1381.69
409.791	1357.69
410.014	1400.69
410.238	1344.69
410.461	1368.69
410.685	1344.69
410.908	1338.69
411.132	1318.69
411.355	1290.69
411.578	1313.69
411.802	1307.69
412.025	1310.69
412.249	1361.69
412.472	1326.69
412.695	1293.69
412.919	1259.69
413.142	1260.69
413.365	1291.69
413.589	1274.69
413.812	1281.69
414.035	1226.69
414.258	1264.69
414.482	1265.69
414.705	1258.69
414.928	1255.69
415.151	1266.69
415.374	1220.69
415.597	1223.69
415.821	1183.69
416.044	1232.69
416.267	1199.69
416.49	1201.69
416.713	1206.69
416.936	1215.69
417.159	1220.69
417.382	1216.69
417.605	1194.69
417.828	1204.69
418.051	1224.69
418.274	1187.69
418.497	1188.69
418.72	1211.69
418.943	1217.69
419.166	1300.69
419.389	1380.69
419.611	1372.69
419.834	1306.69
420.057	1263.69
420.28	1209.69
420.503	1186.69
420.726	1166.69
420.948	1187.69
421.171	1193.69
421.394	1186.69
421.617	1172.69
421.839	1181.69
422.062	1207.69
422.285	1183.69
422.507	1220.69
422.73	1210.69
422.953	1198.69
423.175	1198.69
423.398	1210.69
423.621	1216.69
423.843	1205.69
424.066	1239.69
424.288	1245.69
424.511	1234.69
424.733	1229.69
424.956	1202.69
425.178	1229.69
425.401	1185.69
425.623	1202.69
425.846	1179.69
426.068	1160.69
426.291	1184.69
426.513	1167.69
426.735	1149.69
426.958	1158.69
427.18	1124.69
427.402	1138.69
427.625	1119.69
427.847	1118.69
428.069	1114.69
428.292	1141.69
428.514	1144.69
428.736	1123.69
428.958	1148.69
429.181	1089.69
429.403	1094.69
429.625	1080.69
429.847	1099.69
430.069	1098.69
430.292	1112.69
430.514	1116.69
430.736	1099.69
430.958	1106.69
431.18	1115.69
431.402	1095.69
431.624	1114.69
431.846	1120.69
432.068	1116.69
432.29	1146.69
432.512	1105.69
432.734	1127.69
432.956	1128.69
433.178	1135.69
433.4	1129.69
433.622	1146.69
433.844	1151.69
434.066	1146.69
434.287	1160.69
434.509	1177.69
434.731	1200.69
434.953	1221.69
435.175	1203.69
435.397	1200.69
435.618	1154.69
435.84	1181.69
436.062	1114.69
436.284	1151.69
436.505	1098.69
436.727	1128.69
436.949	1136.69
437.17	1113.69
437.392	1075.69
437.614	1072.69
437.835	1063.69
438.057	1048.69
438.278	1080.69
438.5	1068.69
438.721	1062.69
438.943	1041.69
439.165	1078.69
439.386	1084.69
439.608	1135.69
439.829	1072.69
440.05	1088.69
440.272	1072.69
440.493	1089.69
440.715	1134.69
440.936	1124.69
441.158	1130.69
441.379	1155.69
441.6	1186.69
441.822	1156.69
442.043	1228.69
442.264	1175.69
442.486	1152.69
442.707	1163.69
442.928	1162.69
443.149	1196.69
443.371	1190.69
443.592	1206.69
443.813	1177.69
444.034	1232.69
444.255	1228.69
444.476	1237.69
444.698	1274.69
444.919	1316.69
445.14	1406.69
445.361	1327.69
445.582	1268.69
445.803	1200.69
446.024	1177.69
446.245	1115.69
446.466	1111.69
446.687	1090.69
446.908	1113.69
447.129	1078.69
447.35	1067.69
447.571	1044.69
447.792	1016.69
448.013	1013.69
448.234	1001.69
448.455	1020.69
448.675	1018.69
448.896	1005.69
449.117	995.69
449.338	1028.69
449.559	981.69
449.779	979.69
450	1008.69
450.221	1024.69
450.442	1012.69
450.662	967.69
450.883	987.69
451.104	981.69
451.324	1000.69
451.545	1008.69
451.766	982.69
451.986	955.69
452.207	991.69
452.428	1018.69
452.648	984.69
452.869	969.69
453.089	960.69
453.31	990.69
453.53	984.69
453.751	944.69
453.971	947.69
454.192	975.69
454.412	954.69
454.633	956.69
454.853	980.69
455.073	946.69
455.294	955.69
455.514	931.69
455.734	978.69
455.955	944.69
456.175	938.69
456.395	932.69
456.616	953.69
456.836	942.69
457.056	944.69
457.276	914.69
457.497	971.69
457.717	991.69
457.937	960.69
458.157	951.69
458.377	959.69
458.598	1018.69
458.818	1020.69
459.038	1058.69
459.258	1047.69
459.478	1099.69
459.698	1124.69
459.918	1161.69
460.138	1151.69
460.358	1200.69
460.578	1194.69
460.798	1228.69
461.018	1238.69
461.238	1205.69
461.458	1237.69
461.678	1217.69
461.898	1232.69
462.118	1259.69
462.338	1315.69
462.558	1327.69
462.777	1361.69
462.997	1471.69
463.217	1477.69
463.437	1511.69
463.657	1429.69
463.876	1430.69
464.096	1396.69
464.316	1371.69
464.536	1409.69
464.755	1360.69
464.975	1296.69
465.195	1245.69
465.414	1175.69
465.634	1149.69
465.854	1156.69
466.073	1098.69
466.293	1081.69
466.512	1117.69
466.732	1052.69
466.951	1065.69
467.171	1042.69
467.391	1047.69
467.61	1058.69
467.829	1033.69
468.049	1034.69
468.268	1037.69
468.488	996.69
468.707	1006.69
468.927	1028.69
469.146	1044.69
469.365	1033.69
469.585	1023.69
469.804	1042.69
470.023	1042.69
470.243	1072.69
470.462	1064.69
470.681	1093.69
470.901	1084.69
471.12	1073.69
471.339	1065.69
471.558	1073.69
471.777	1020.69
471.997	1043.69
472.216	1046.69
472.435	1010.69
472.654	1021.69
472.873	1027.69
473.092	1034.69
473.311	1018.69
473.53	1027.69
473.749	1015.69
473.968	1023.69
474.187	1008.69
474.406	987.69
474.625	1014.69
474.844	985.69
475.063	1026.69
475.282	1021.69
475.501	1014.69
475.72	1025.69
475.939	1000.69
476.158	1039.69
476.377	1077.69
476.596	1087.69
476.814	1092.69
477.033	1059.69
477.252	1086.69
477.471	1096.69
477.69	1123.69
477.908	1161.69
478.127	1183.69
478.346	1166.69
478.564	1216.69
478.783	1172.69
479.002	1235.69
479.22	1242.69
479.439	1279.69
479.658	1272.69
479.876	1245.69
480.095	1263.69
480.313	1266.69
480.532	1326.69
480.751	1317.69
480.969	1269.69
481.188	1266.69
481.406	1266.69
481.624	1223.69
481.843	1193.69
482.061	1211.69
482.28	1201.69
482.498	1180.69
482.717	1202.69
482.935	1211.69
483.153	1209.69
483.372	1198.69
483.59	1191.69
483.808	1239.69
484.027	1210.69
484.245	1238.69
484.463	1247.69
484.681	1258.69
484.9	1271.69
485.118	1262.69
485.336	1266.69
485.554	1266.69
485.772	1273.69
485.99	1279.69
486.209	1275.69
486.427	1269.69
486.645	1284.69
486.863	1265.69
487.081	1280.69
487.299	1263.69
487.517	1252.69
487.735	1253.69
487.953	1273.69
488.171	1286.69
488.389	1237.69
488.607	1224.69
488.825	1249.69
489.043	1249.69
489.261	1205.69
489.479	1237.69
489.696	1252.69
489.914	1231.69
490.132	1232.69
490.35	1211.69
490.568	1232.69
490.786	1266.69
491.003	1273.69
491.221	1216.69
491.439	1250.69
491.657	1242.69
491.874	1262.69
492.092	1250.69
492.31	1221.69
492.527	1236.69
492.745	1260.69
492.963	1223.69
493.18	1247.69
493.398	1258.69
493.615	1270.69
493.833	1260.69
494.05	1274.69
494.268	1304.69
494.485	1332.69
494.703	1312.69
494.92	1297.69
495.138	1285.69
495.355	1285.69
495.573	1316.69
495.79	1300.69
496.008	1313.69
496.225	1298.69
496.442	1314.69
496.66	1349.69
496.877	1375.69
497.094	1355.69
497.312	1384.69
497.529	1417.69
497.746	1437.69
497.963	1474.69
498.181	1545.69
498.398	1575.69
498.615	1681.69
498.832	1755.69
499.049	1790.69
499.267	1953.69
499.484	2082.69
499.701	2220.69
499.918	2433.69
500.135	2612.69
500.352	2835.69
500.569	2888.69
500.786	2906.69
501.003	2762.69
501.22	2598.69
501.437	2401.69
501.654	2200.69
501.871	2036.69
502.088	1904.69
502.305	1848.69
502.522	1767.69
502.739	1707.69
502.956	1596.69
503.172	1564.69
503.389	1516.69
503.606	1454.69
503.823	1411.69
504.04	1426.69
504.256	1426.69
504.473	1430.69
504.69	1436.69
504.907	1372.69
505.123	1346.69
505.34	1300.69
505.557	1242.69
505.773	1234.69
505.99	1182.69
506.207	1154.69
506.423	1167.69
506.64	1152.69
506.856	1128.69
507.073	1109.69
507.289	1126.69
507.506	1106.69
507.722	1112.69
507.939	1099.69
508.155	1062.69
508.372	1078.69
508.588	1072.69
508.805	1071.69
509.021	1058.69
509.238	1038.69
509.454	1032.69
509.67	1032.69
509.887	1014.69
510.103	1020.69
510.319	1027.69
510.536	1025.69
510.752	1007.69
510.968	1008.69
511.184	966.69
511.401	1002.69
511.617	1023.69
511.833	1026.69
512.049	1007.69
512.265	980.69
512.481	1011.69
512.698	993.69
512.914	988.69
513.13	994.69
513.346	999.69
513.562	1023.69
513.778	1008.69
513.994	1023.69
514.21	1010.69
514.426	1006.69
514.642	1006.69
514.858	1007.69
515.074	1047.69
515.29	1042.69
515.506	1038.69
515.721	1065.69
515.937	1091.69
516.153	1064.69
516.369	1098.69
516.585	1137.69
516.801	1129.69
517.016	1182.69
517.232	1223.69
517.448	1252.69
517.664	1241.69
517.879	1256.69
518.095	1215.69
518.311	1239.69
518.527	1205.69
518.742	1185.69
518.958	1188.69
519.173	1137.69
519.389	1092.69
519.605	1069.69
519.82	1080.69
520.036	1054.69
520.251	1005.69
520.467	984.69
520.682	1040.69
520.898	1015.69
521.113	992.69
521.329	1009.69
521.544	977.69
521.76	967.69
521.975	946.69
522.19	963.69
522.406	964.69
522.621	943.69
522.836	928.69
523.052	909.69
523.267	946.69
523.482	933.69
523.698	908.69
523.913	940.69
524.128	936.69
524.343	907.69
524.559	909.69
524.774	918.69
524.989	915.69
525.204	881.69
525.419	896.69
525.634	896.69
525.849	904.69
526.064	909.69
526.28	879.69
526.495	914.69
526.71	880.69
526.925	886.69
527.14	890.69
527.355	900.69
527.57	902.69
527.785	882.69
527.999	898.69
528.214	885.69
528.429	875.69
528.644	867.69
528.859	897.69
529.074	881.69
529.289	881.69
529.503	890.69
529.718	885.69
529.933	859.69
530.148	858.69
530.363	879.69
530.577	866.69
530.792	873.69
531.007	866.69
531.221	890.69
531.436	856.69
531.651	875.69
531.865	856.69
532.08	869.69
532.295	871.69
532.509	862.69
532.724	874.69
532.938	855.69
533.153	853.69
533.367	851.69
533.582	858.69
533.796	871.69
534.011	885.69
534.225	846.69
534.44	837.69
534.654	830.69
534.868	869.69
535.083	832.69
535.297	850.69
535.511	871.69
535.726	846.69
535.94	831.69
536.154	820.69
536.369	816.69
536.583	819.69
536.797	839.69
537.011	799.69
537.225	828.69
537.44	828.69
537.654	810.69
537.868	787.69
538.082	786.69
538.296	797.69
538.51	795.69
538.724	804.69
538.938	803.69
539.153	806.69
539.367	800.69
539.581	779.69
539.795	801.69
540.009	816.69
540.222	791.69
540.436	777.69
540.65	785.69
540.864	783.69
541.078	794.69
541.292	786.69
541.506	770.69
541.72	765.69
541.934	776.69
542.147	766.69
542.361	766.69
542.575	772.69
542.789	781.69
543.002	784.69
543.216	760.69
543.43	782.69
543.644	775.69
543.857	776.69
544.071	766.69
544.285	780.69
544.498	778.69
544.712	757.69
544.925	794.69
545.139	777.69
545.352	761.69
545.566	767.69
545.779	768.69
545.993	788.69
546.206	777.69
546.42	779.69
546.633	796.69
546.847	766.69
547.06	770.69
547.274	792.69
547.487	784.69
547.7	775.69
547.914	810.69
548.127	760.69
548.34	781.69
548.554	800.69
548.767	779.69
548.98	791.69
549.193	767.69
549.407	795.69
549.62	793.69
549.833	789.69
550.046	779.69
550.259	795.69
550.473	767.69
550.686	784.69
550.899	771.69
551.112	776.69
551.325	791.69
551.538	758.69
551.751	769.69
551.964	802.69
552.177	798.69
552.39	788.69
552.603	807.69
552.816	826.69
553.029	804.69
553.242	810.69
553.455	846.69
553.667	821.69
553.88	782.69
554.093	787.69
554.306	774.69
554.519	781.69
554.732	802.69
554.944	761.69
555.157	750.69
555.37	724.69
555.583	742.69
555.795	728.69
556.008	707.69
556.221	720.69
556.433	702.69
556.646	700.69
556.859	704.69
557.071	681.69
557.284	702.69
557.496	694.69
557.709	686.69
557.921	678.69
558.134	669.69
558.346	684.69
558.559	651.69
558.771	651.69
558.984	666.69
559.196	646.69
559.409	660.69
559.621	670.69
559.833	662.69
560.046	644.69
560.258	644.69
560.47	669.69
560.683	636.69
560.895	634.69
561.107	641.69
561.32	633.69
561.532	654.69
561.744	649.69
561.956	649.69
562.168	664.69
562.381	647.69
562.593	642.69
562.805	654.69
563.017	658.69
563.229	647.69
563.441	649.69
563.653	666.69
563.865	661.69
564.077	681.69
564.289	670.69
564.501	684.69
564.713	698.69
564.925	696.69
565.137	718.69
565.349	723.69
565.561	739.69
565.773	754.69
565.985	786.69
566.197	814.69
566.408	831.69
566.62	881.69
566.832	922.69
567.044	938.69
567.255	967.69
567.467	982.69
567.679	1026.69
567.891	1078.69
568.102	1052.69
568.314	978.69
568.526	932.69
568.737	870.69
568.949	850.69
569.161	804.69
569.372	754.69
569.584	736.69
569.795	699.69
570.007	697.69
570.218	678.69
570.43	666.69
570.641	676.69
570.853	629.69
571.064	664.69
571.276	618.69
571.487	635.69
571.698	626.69
571.91	601.69
572.121	606.69
572.333	599.69
572.544	586.69
572.755	579.69
572.966	567.69
573.178	583.69
573.389	555.69
573.6	524.69
573.811	538.69
574.023	539.69
574.234	572.69
574.445	534.69
574.656	536.69
574.867	500.69
575.078	535.69
575.289	542.69
575.501	530.69
575.712	521.69
575.923	522.69
576.134	511.69
576.345	517.69
576.556	516.69
576.767	496.69
576.978	517.69
577.188	506.69
577.399	489.69
577.61	500.69
577.821	486.69
578.032	497.69
578.243	506.69
578.454	496.69
578.665	496.69
578.875	467.69
579.086	493.69
579.297	470.69
579.508	492.69
579.718	501.69
579.929	482.69
580.14	473.69
580.35	467.69
580.561	483.69
580.772	467.69
580.982	444.69
581.193	469.69
581.403	473.69
581.614	468.69
581.825	485.69
582.035	453.69
582.246	447.69
582.456	439.69
582.667	448.69
582.877	448.69
583.087	439.69
583.298	458.69
583.508	455.69
583.719	464.69
583.929	463.69
584.139	448.69
584.35	446.69
584.56	441.69
584.77	451.69
584.981	448.69
585.191	428.69
585.401	430.69
585.611	437.69
585.821	449.69
586.032	456.69
586.242	446.69
586.452	447.69
586.662	426.69
586.872	439.69
587.082	443.69
587.292	453.69
587.502	431.69
587.713	432.69
587.923	434.69
588.133	437.69
588.343	453.69
588.553	420.69
588.762	426.69
588.972	440.69
589.182	450.69
589.392	440.69
589.602	438.69
589.812	424.69
590.022	438.69
590.232	420.69
590.441	436.69
590.651	430.69
590.861	432.69
591.071	427.69
591.281	428.69
591.49	446.69
591.7	446.69
591.91	442.69
592.119	466.69
592.329	462.69
592.539	488.69
592.748	487.69
592.958	490.69
593.167	496.69
593.377	508.69
593.587	494.69
593.796	500.69
594.006	521.69
594.215	513.69
594.424	494.69
594.634	491.69
594.843	496.69
595.053	479.69
595.262	450.69
595.472	466.69
595.681	456.69
595.89	443.69
596.1	439.69
596.309	404.69
596.518	411.69
596.727	415.69
596.937	417.69
597.146	403.69
597.355	389.69
597.564	397.69
597.774	388.69
597.983	393.69
598.192	369.69
598.401	386.69
598.61	363.69
598.819	368.69
599.028	355.69
599.237	368.69
599.446	376.69
599.655	375.69
599.864	355.69
600.073	353.69
600.282	360.69
600.491	378.69
600.7	386.69
600.909	354.69
601.118	339.69
601.327	374.69
601.536	324.69
601.745	346.69
601.953	348.69
602.162	364.69
602.371	336.69
602.58	349.69
602.789	334.69
602.997	344.69
603.206	359.69
603.415	343.69
603.623	362.69
603.832	353.69
604.041	332.69
604.249	339.69
604.458	335.69
604.666	348.69
604.875	331.69
605.084	316.69
605.292	332.69
605.501	345.69
605.709	342.69
605.918	331.69
606.126	325.69
606.334	310.69
606.543	320.69
606.751	322.69
606.96	337.69
607.168	320.69
607.376	302.69
607.585	337.69
607.793	332.69
608.001	342.69
608.21	322.69
608.418	315.69
608.626	328.69
608.834	318.69
609.043	329.69
609.251	320.69
609.459	317.69
609.667	312.69
609.875	321.69
610.083	316.69
610.291	318.69
610.499	331.69
610.707	319.69
610.916	302.69
611.124	311.69
611.332	306.69
611.54	331.69
611.748	313.69
611.955	314.69
612.163	317.69
612.371	327.69
612.579	297.69
612.787	308.69
612.995	318.69
613.203	316.69
613.411	302.69
613.618	304.69
613.826	318.69
614.034	313.69
614.242	299.69
614.449	307.69
614.657	299.69
614.865	290.69
615.072	293.69
615.28	316.69
615.488	314.69
615.695	304.69
615.903	304.69
616.111	320.69
616.318	332.69
616.526	323.69
616.733	304.69
616.941	312.69
617.148	294.69
617.356	306.69
617.563	310.69
617.771	297.69
617.978	307.69
618.185	297.69
618.393	315.69
618.6	302.69
618.807	279.69
619.015	301.69
619.222	300.69
619.429	292.69
619.637	288.69
619.844	287.69
620.051	294.69
620.258	282.69
620.466	285.69
620.673	261.69
620.88	287.69
621.087	300.69
621.294	281.69
621.501	290.69
621.708	280.69
621.915	268.69
622.122	276.69
622.329	293.69
622.536	284.69
622.743	288.69
622.95	260.69
623.157	275.69
623.364	274.69
623.571	265.69
623.778	282.69
623.985	270.69
624.192	274.69
624.399	287.69
624.606	291.69
624.812	268.69
625.019	273.69
625.226	275.69
625.433	267.69
625.639	247.69
625.846	281.69
626.053	258.69
626.259	266.69
626.466	251.69
626.673	259.69
626.879	252.69
627.086	273.69
627.293	274.69
627.499	253.69
627.706	255.69
627.912	233.69
628.119	270.69
628.325	270.69
628.532	241.69
628.738	262.69
628.945	249.69
629.151	264.69
629.357	249.69
629.564	246.69
629.77	239.69
629.976	243.69
630.183	235.69
630.389	246.69
630.595	244.69
630.802	232.69
631.008	226.69
631.214	251.69
631.42	231.69
631.627	260.69
631.833	243.69
632.039	246.69
632.245	246.69
632.451	242.69
632.657	228.69
632.863	251.69
633.069	254.69
633.275	253.69
633.481	235.69
633.688	218.69
633.893	223.69
634.099	216.69
634.305	219.69
634.511	216.69
634.717	243.69
634.923	234.69
635.129	230.69
635.335	226.69
635.541	222.69
635.747	217.69
635.952	212.69
636.158	229.69
636.364	238.69
636.57	242.69
636.775	221.69
636.981	226.69
637.187	225.69
637.392	220.69
637.598	235.69
637.804	218.69
638.009	226.69
638.215	223.69
638.421	219.69
638.626	213.69
638.832	208.69
639.037	214.69
639.243	237.69
639.448	212.69
639.654	233.69
639.859	218.69
640.065	210.69
640.27	219.69
640.475	218.69
640.681	224.69
640.886	227.69
641.091	214.69
641.297	230.69
641.502	223.69
641.707	203.69
641.913	218.69
642.118	213.69
642.323	212.69
642.528	211.69
642.733	210.69
642.939	202.69
643.144	200.69
643.349	219.69
643.554	214.69
643.759	202.69
643.964	210.69
644.169	200.69
644.374	214.69
644.579	224.69
644.784	204.69
644.989	188.69
645.194	203.69
645.399	227.69
645.604	225.69
645.809	221.69
646.014	203.69
646.219	232.69
646.423	216.69
646.628	219.69
646.833	204.69
647.038	222.69
647.243	216.69
647.447	222.69
647.652	203.69
647.857	227.69
648.062	231.69
648.266	224.69
648.471	214.69
648.676	199.69
648.88	229.69
649.085	233.69
649.289	235.69
649.494	238.69
649.698	232.69
649.903	230.69
650.107	221.69
650.312	221.69
650.516	223.69
650.721	203.69
650.925	226.69
651.13	198.69
651.334	215.69
651.539	210.69
651.743	210.69
651.947	207.69
652.152	216.69
652.356	204.69
652.56	190.69
652.764	222.69
652.969	209.69
653.173	200.69
653.377	194.69
653.581	206.69
653.785	199.69
653.99	208.69
654.194	201.69
654.398	192.69
654.602	215.69
654.806	196.69
655.01	203.69
655.214	215.69
655.418	219.69
655.622	211.69
655.826	224.69
656.03	210.69
656.234	230.69
656.438	243.69
656.642	244.69
656.846	210.69
657.049	217.69
657.253	199.69
657.457	178.69
657.661	194.69
657.865	169.69
658.068	162.69
658.272	146.69
658.476	140.69
658.68	126.69
658.883	137.69
659.087	142.69
659.291	130.69
659.494	132.69
659.698	111.69
659.901	117.69
660.105	106.69
660.309	93.69
660.512	111.69
660.716	97.69
660.919	105.69
661.123	96.69
661.326	87.69
661.53	100.69
661.733	93.69
661.936	85.69
662.14	93.69
662.343	91.69
662.546	82.69
662.75	95.69
662.953	95.69
663.156	80.69
663.36	84.69
663.563	92.69
663.766	67.69
663.969	72.69
664.173	84.69
664.376	73.69
664.579	95.69
664.782	90.69
664.985	82.69
665.188	89.69
665.391	90.69
665.594	85.69
665.797	80.69
666	71.69
666.203	76.69
666.406	85.69
666.609	83.69
666.812	87.69
667.015	78.69
667.218	71.69
667.421	73.69
667.624	78.69
667.827	68.69
668.03	84.69
668.232	69.69
668.435	82.69
668.638	76.69
668.841	77.69
669.043	77.69
669.246	81.69
669.449	84.69
669.651	73.69
669.854	72.69
670.057	94.69
670.259	73.69
670.462	84.69
670.665	86.69
670.867	90.69
671.07	82.69
671.272	77.69
671.475	80.69
671.677	81.69
671.88	80.69
672.082	82.69
672.284	82.69
672.487	71.69
672.689	83.69
672.892	88.69
