Data from NiCl2@0.0625M.TitratingCurve.Agarose3%dH2O.NegLispCup.LampEnergy10.LIBS07252019_HRD10591_18-35-31-577.txt Node
Date: Thu Jul 25 18:35:31 EDT 2019
User: cochatt
Spectrometer: HR+D1059
Trigger mode: 1
Integration Time (sec): 1.000000E-1
Scans to average: 1
Electric dark correction enabled: true
Nonlinearity correction enabled: false
Boxcar width: 0
XAxis mode: Wavelengths
Number of Pixels in Spectrum: 2048
>>>>>Begin Spectral Data<<<<<
223.165	-21.75
223.4	-21.75
223.635	-21.75
223.869	-4.75
224.104	-25.75
224.338	-19.75
224.573	-20.75
224.808	-15.75
225.042	2.25
225.277	-12.75
225.511	-0.75
225.746	0.25
225.98	3.25
226.215	13.25
226.449	15.25
226.683	30.25
226.918	25.25
227.152	32.25
227.387	19.25
227.621	28.25
227.856	30.25
228.09	45.25
228.324	35.25
228.559	67.25
228.793	76.25
229.027	131.25
229.262	144.25
229.496	145.25
229.73	165.25
229.964	185.25
230.199	175.25
230.433	176.25
230.667	186.25
230.901	171.25
231.136	155.25
231.37	192.25
231.604	182.25
231.838	181.25
232.072	197.25
232.306	197.25
232.541	198.25
232.775	202.25
233.009	209.25
233.243	198.25
233.477	197.25
233.711	204.25
233.945	201.25
234.179	216.25
234.413	206.25
234.647	222.25
234.881	226.25
235.115	200.25
235.349	204.25
235.583	223.25
235.817	205.25
236.051	205.25
236.285	231.25
236.519	231.25
236.753	206.25
236.987	223.25
237.221	240.25
237.455	225.25
237.689	237.25
237.922	227.25
238.156	237.25
238.39	248.25
238.624	237.25
238.858	229.25
239.091	230.25
239.325	254.25
239.559	240.25
239.793	255.25
240.027	267.25
240.26	261.25
240.494	288.25
240.728	286.25
240.961	268.25
241.195	280.25
241.429	277.25
241.662	282.25
241.896	285.25
242.13	301.25
242.363	299.25
242.597	285.25
242.83	289.25
243.064	300.25
243.298	318.25
243.531	323.25
243.765	307.25
243.998	321.25
244.232	334.25
244.465	318.25
244.699	316.25
244.932	322.25
245.166	329.25
245.399	337.25
245.633	340.25
245.866	347.25
246.099	344.25
246.333	331.25
246.566	345.25
246.8	349.25
247.033	353.25
247.266	340.25
247.5	342.25
247.733	368.25
247.966	349.25
248.2	366.25
248.433	369.25
248.666	363.25
248.899	366.25
249.133	391.25
249.366	387.25
249.599	377.25
249.832	375.25
250.066	384.25
250.299	385.25
250.532	379.25
250.765	403.25
250.998	388.25
251.231	417.25
251.465	410.25
251.698	415.25
251.931	416.25
252.164	425.25
252.397	422.25
252.63	398.25
252.863	422.25
253.096	431.25
253.329	418.25
253.562	395.25
253.795	448.25
254.028	451.25
254.261	447.25
254.494	444.25
254.727	437.25
254.96	444.25
255.193	486.25
255.426	449.25
255.659	467.25
255.892	475.25
256.124	475.25
256.357	474.25
256.59	466.25
256.823	474.25
257.056	471.25
257.289	471.25
257.521	484.25
257.754	500.25
257.987	489.25
258.22	500.25
258.452	469.25
258.685	498.25
258.918	482.25
259.151	475.25
259.383	511.25
259.616	499.25
259.849	497.25
260.081	512.25
260.314	498.25
260.547	520.25
260.779	522.25
261.012	537.25
261.244	537.25
261.477	520.25
261.71	498.25
261.942	537.25
262.175	533.25
262.407	535.25
262.64	518.25
262.872	557.25
263.105	549.25
263.337	551.25
263.57	534.25
263.802	556.25
264.035	580.25
264.267	560.25
264.499	548.25
264.732	564.25
264.964	588.25
265.197	562.25
265.429	579.25
265.661	569.25
265.894	576.25
266.126	595.25
266.358	592.25
266.591	598.25
266.823	580.25
267.055	593.25
267.287	601.25
267.52	597.25
267.752	610.25
267.984	592.25
268.216	597.25
268.448	626.25
268.681	599.25
268.913	631.25
269.145	613.25
269.377	621.25
269.609	634.25
269.841	612.25
270.073	620.25
270.306	642.25
270.538	618.25
270.77	632.25
271.002	637.25
271.234	630.25
271.466	656.25
271.698	651.25
271.93	641.25
272.162	650.25
272.394	639.25
272.626	654.25
272.858	637.25
273.09	673.25
273.322	673.25
273.553	665.25
273.785	681.25
274.017	670.25
274.249	655.25
274.481	677.25
274.713	673.25
274.945	684.25
275.176	710.25
275.408	698.25
275.64	695.25
275.872	711.25
276.104	716.25
276.335	709.25
276.567	715.25
276.799	708.25
277.031	742.25
277.262	727.25
277.494	704.25
277.726	728.25
277.957	716.25
278.189	739.25
278.421	725.25
278.652	722.25
278.884	758.25
279.115	718.25
279.347	727.25
279.579	757.25
279.81	756.25
280.042	741.25
280.273	760.25
280.505	743.25
280.736	741.25
280.968	779.25
281.199	753.25
281.431	784.25
281.662	807.25
281.894	789.25
282.125	812.25
282.356	787.25
282.588	801.25
282.819	791.25
283.051	829.25
283.282	820.25
283.513	819.25
283.745	812.25
283.976	780.25
284.207	803.25
284.439	812.25
284.67	818.25
284.901	845.25
285.132	827.25
285.364	827.25
285.595	819.25
285.826	819.25
286.057	803.25
286.288	839.25
286.52	874.25
286.751	821.25
286.982	868.25
287.213	833.25
287.444	855.25
287.675	842.25
287.906	858.25
288.138	881.25
288.369	849.25
288.6	864.25
288.831	858.25
289.062	867.25
289.293	853.25
289.524	850.25
289.755	887.25
289.986	873.25
290.217	867.25
290.448	865.25
290.679	904.25
290.91	894.25
291.141	894.25
291.371	883.25
291.602	881.25
291.833	891.25
292.064	904.25
292.295	895.25
292.526	887.25
292.757	876.25
292.987	869.25
293.218	853.25
293.449	873.25
293.68	906.25
293.91	890.25
294.141	872.25
294.372	881.25
294.603	904.25
294.833	908.25
295.064	895.25
295.295	900.25
295.525	926.25
295.756	916.25
295.987	886.25
296.217	904.25
296.448	940.25
296.679	914.25
296.909	946.25
297.14	924.25
297.37	941.25
297.601	963.25
297.831	949.25
298.062	953.25
298.292	975.25
298.523	979.25
298.753	992.25
298.984	948.25
299.214	966.25
299.445	956.25
299.675	945.25
299.905	972.25
300.136	969.25
300.366	961.25
300.597	962.25
300.827	1008.25
301.057	994.25
301.288	1039.25
301.518	1014.25
301.748	1051.25
301.979	1029.25
302.209	1038.25
302.439	1015.25
302.669	1017.25
302.9	1016.25
303.13	996.25
303.36	1010.25
303.59	1013.25
303.82	1034.25
304.051	1001.25
304.281	1003.25
304.511	980.25
304.741	994.25
304.971	1019.25
305.201	1011.25
305.431	1010.25
305.661	1025.25
305.891	1017.25
306.121	1016.25
306.352	1022.25
306.582	1017.25
306.812	986.25
307.042	1025.25
307.272	1013.25
307.502	987.25
307.731	1036.25
307.961	1018.25
308.191	999.25
308.421	982.25
308.651	981.25
308.881	979.25
309.111	990.25
309.341	995.25
309.571	1013.25
309.8	996.25
310.03	1012.25
310.26	1012.25
310.49	1051.25
310.72	1037.25
310.949	1026.25
311.179	1007.25
311.409	1040.25
311.639	1015.25
311.868	1023.25
312.098	1032.25
312.328	1042.25
312.557	1069.25
312.787	1056.25
313.017	1059.25
313.246	1065.25
313.476	1064.25
313.706	1084.25
313.935	1115.25
314.165	1107.25
314.394	1082.25
314.624	1097.25
314.853	1077.25
315.083	1091.25
315.312	1095.25
315.542	1084.25
315.771	1086.25
316.001	1065.25
316.23	1063.25
316.46	1092.25
316.689	1074.25
316.919	1072.25
317.148	1075.25
317.377	1067.25
317.607	1084.25
317.836	1061.25
318.065	1018.25
318.295	1086.25
318.524	1075.25
318.753	1049.25
318.983	1084.25
319.212	1059.25
319.441	1088.25
319.67	1073.25
319.9	1060.25
320.129	1077.25
320.358	1103.25
320.587	1095.25
320.816	1072.25
321.046	1079.25
321.275	1073.25
321.504	1086.25
321.733	1093.25
321.962	1099.25
322.191	1095.25
322.42	1068.25
322.649	1064.25
322.878	1067.25
323.108	1083.25
323.337	1095.25
323.566	1111.25
323.795	1121.25
324.024	1125.25
324.253	1106.25
324.482	1114.25
324.71	1107.25
324.939	1109.25
325.168	1109.25
325.397	1142.25
325.626	1138.25
325.855	1154.25
326.084	1179.25
326.313	1131.25
326.542	1182.25
326.77	1178.25
326.999	1138.25
327.228	1191.25
327.457	1150.25
327.686	1137.25
327.914	1195.25
328.143	1161.25
328.372	1170.25
328.6	1161.25
328.829	1135.25
329.058	1160.25
329.287	1185.25
329.515	1183.25
329.744	1164.25
329.972	1192.25
330.201	1188.25
330.43	1196.25
330.658	1166.25
330.887	1206.25
331.115	1220.25
331.344	1231.25
331.572	1237.25
331.801	1273.25
332.03	1272.25
332.258	1287.25
332.486	1309.25
332.715	1360.25
332.943	1386.25
333.172	1443.25
333.4	1455.25
333.629	1503.25
333.857	1533.25
334.085	1511.25
334.314	1527.25
334.542	1528.25
334.771	1482.25
334.999	1485.25
335.227	1472.25
335.455	1460.25
335.684	1446.25
335.912	1427.25
336.14	1406.25
336.369	1425.25
336.597	1418.25
336.825	1414.25
337.053	1414.25
337.281	1386.25
337.51	1355.25
337.738	1338.25
337.966	1315.25
338.194	1311.25
338.422	1266.25
338.65	1285.25
338.878	1285.25
339.106	1333.25
339.334	1297.25
339.562	1272.25
339.79	1241.25
340.018	1263.25
340.246	1221.25
340.474	1226.25
340.702	1252.25
340.93	1215.25
341.158	1258.25
341.386	1214.25
341.614	1243.25
341.842	1239.25
342.07	1229.25
342.298	1210.25
342.526	1236.25
342.754	1219.25
342.981	1232.25
343.209	1260.25
343.437	1301.25
343.665	1343.25
343.893	1447.25
344.12	1455.25
344.348	1421.25
344.576	1369.25
344.804	1344.25
345.031	1281.25
345.259	1299.25
345.487	1238.25
345.714	1258.25
345.942	1202.25
346.17	1218.25
346.397	1206.25
346.625	1220.25
346.853	1185.25
347.08	1182.25
347.308	1149.25
347.535	1182.25
347.763	1209.25
347.99	1166.25
348.218	1183.25
348.445	1154.25
348.673	1161.25
348.9	1164.25
349.128	1177.25
349.355	1182.25
349.583	1144.25
349.81	1147.25
350.037	1165.25
350.265	1123.25
350.492	1146.25
350.72	1167.25
350.947	1129.25
351.174	1135.25
351.402	1140.25
351.629	1126.25
351.856	1114.25
352.083	1135.25
352.311	1148.25
352.538	1127.25
352.765	1165.25
352.992	1101.25
353.22	1122.25
353.447	1089.25
353.674	1113.25
353.901	1139.25
354.128	1116.25
354.355	1135.25
354.583	1149.25
354.81	1132.25
355.037	1153.25
355.264	1146.25
355.491	1170.25
355.718	1141.25
355.945	1138.25
356.172	1144.25
356.399	1124.25
356.626	1160.25
356.853	1175.25
357.08	1137.25
357.307	1160.25
357.534	1138.25
357.761	1125.25
357.988	1157.25
358.215	1142.25
358.441	1127.25
358.668	1122.25
358.895	1128.25
359.122	1121.25
359.349	1137.25
359.576	1111.25
359.802	1142.25
360.029	1132.25
360.256	1145.25
360.483	1135.25
360.709	1164.25
360.936	1122.25
361.163	1108.25
361.39	1159.25
361.616	1135.25
361.843	1145.25
362.07	1156.25
362.296	1120.25
362.523	1128.25
362.749	1136.25
362.976	1137.25
363.203	1121.25
363.429	1129.25
363.656	1126.25
363.882	1122.25
364.109	1123.25
364.335	1148.25
364.562	1151.25
364.788	1125.25
365.015	1136.25
365.241	1169.25
365.468	1126.25
365.694	1148.25
365.92	1144.25
366.147	1142.25
366.373	1150.25
366.599	1161.25
366.826	1146.25
367.052	1117.25
367.278	1116.25
367.505	1155.25
367.731	1162.25
367.957	1147.25
368.184	1137.25
368.41	1133.25
368.636	1163.25
368.862	1171.25
369.089	1165.25
369.315	1139.25
369.541	1165.25
369.767	1172.25
369.993	1212.25
370.219	1216.25
370.445	1201.25
370.672	1186.25
370.898	1199.25
371.124	1225.25
371.35	1237.25
371.576	1245.25
371.802	1244.25
372.028	1227.25
372.254	1239.25
372.48	1244.25
372.706	1266.25
372.932	1291.25
373.158	1321.25
373.384	1277.25
373.61	1238.25
373.835	1228.25
374.061	1265.25
374.287	1291.25
374.513	1284.25
374.739	1291.25
374.965	1343.25
375.191	1355.25
375.416	1330.25
375.642	1334.25
375.868	1296.25
376.094	1282.25
376.319	1239.25
376.545	1255.25
376.771	1252.25
376.997	1229.25
377.222	1223.25
377.448	1212.25
377.674	1237.25
377.899	1201.25
378.125	1242.25
378.35	1225.25
378.576	1211.25
378.802	1212.25
379.027	1192.25
379.253	1240.25
379.478	1200.25
379.704	1216.25
379.929	1215.25
380.155	1210.25
380.38	1235.25
380.606	1238.25
380.831	1205.25
381.057	1240.25
381.282	1232.25
381.507	1241.25
381.733	1224.25
381.958	1241.25
382.184	1253.25
382.409	1270.25
382.634	1301.25
382.86	1297.25
383.085	1330.25
383.31	1334.25
383.535	1357.25
383.761	1350.25
383.986	1340.25
384.211	1401.25
384.436	1380.25
384.662	1410.25
384.887	1452.25
385.112	1445.25
385.337	1456.25
385.562	1489.25
385.787	1469.25
386.013	1504.25
386.238	1474.25
386.463	1484.25
386.688	1508.25
386.913	1482.25
387.138	1469.25
387.363	1482.25
387.588	1442.25
387.813	1460.25
388.038	1449.25
388.263	1485.25
388.488	1521.25
388.713	1463.25
388.938	1475.25
389.163	1443.25
389.387	1450.25
389.612	1450.25
389.837	1468.25
390.062	1451.25
390.287	1451.25
390.512	1493.25
390.736	1511.25
390.961	1485.25
391.186	1497.25
391.411	1547.25
391.636	1563.25
391.86	1655.25
392.085	1647.25
392.31	1688.25
392.534	1647.25
392.759	1581.25
392.984	1595.25
393.208	1558.25
393.433	1545.25
393.658	1549.25
393.882	1545.25
394.107	1560.25
394.331	1560.25
394.556	1604.25
394.78	1597.25
395.005	1613.25
395.229	1588.25
395.454	1645.25
395.678	1663.25
395.903	1695.25
396.127	1638.25
396.352	1600.25
396.576	1561.25
396.801	1579.25
397.025	1627.25
397.249	1642.25
397.474	1665.25
397.698	1656.25
397.922	1681.25
398.147	1672.25
398.371	1717.25
398.595	1743.25
398.82	1804.25
399.044	1953.25
399.268	2079.25
399.492	2364.25
399.717	2599.25
399.941	2619.25
400.165	2449.25
400.389	2231.25
400.613	2103.25
400.837	1966.25
401.062	1906.25
401.286	1898.25
401.51	1881.25
401.734	1836.25
401.958	1904.25
402.182	1859.25
402.406	1929.25
402.63	1894.25
402.854	1927.25
403.078	1917.25
403.302	1967.25
403.526	1935.25
403.75	2016.25
403.974	2041.25
404.198	2020.25
404.422	2037.25
404.645	2023.25
404.869	2022.25
405.093	2017.25
405.317	2015.25
405.541	2020.25
405.765	1991.25
405.988	2000.25
406.212	1991.25
406.436	2043.25
406.66	2065.25
406.883	2095.25
407.107	2199.25
407.331	2269.25
407.555	2357.25
407.778	2354.25
408.002	2307.25
408.226	2243.25
408.449	2204.25
408.673	2102.25
408.896	2098.25
409.12	2107.25
409.344	2082.25
409.567	2030.25
409.791	2061.25
410.014	2057.25
410.238	2063.25
410.461	2023.25
410.685	2032.25
410.908	1992.25
411.132	1979.25
411.355	1933.25
411.578	1947.25
411.802	1937.25
412.025	1941.25
412.249	1938.25
412.472	1921.25
412.695	1892.25
412.919	1831.25
413.142	1871.25
413.365	1862.25
413.589	1916.25
413.812	1832.25
414.035	1817.25
414.258	1814.25
414.482	1850.25
414.705	1857.25
414.928	1874.25
415.151	1894.25
415.374	1856.25
415.597	1831.25
415.821	1819.25
416.044	1791.25
416.267	1754.25
416.49	1778.25
416.713	1797.25
416.936	1789.25
417.159	1815.25
417.382	1749.25
417.605	1777.25
417.828	1811.25
418.051	1730.25
418.274	1775.25
418.497	1781.25
418.72	1815.25
418.943	1802.25
419.166	1927.25
419.389	2083.25
419.611	1988.25
419.834	1965.25
420.057	1867.25
420.28	1817.25
420.503	1764.25
420.726	1785.25
420.948	1757.25
421.171	1782.25
421.394	1792.25
421.617	1765.25
421.839	1752.25
422.062	1776.25
422.285	1768.25
422.507	1799.25
422.73	1820.25
422.953	1850.25
423.175	1822.25
423.398	1861.25
423.621	1831.25
423.843	1891.25
424.066	1876.25
424.288	1815.25
424.511	1843.25
424.733	1827.25
424.956	1836.25
425.178	1761.25
425.401	1793.25
425.623	1776.25
425.846	1741.25
426.068	1750.25
426.291	1700.25
426.513	1679.25
426.735	1708.25
426.958	1701.25
427.18	1645.25
427.402	1635.25
427.625	1665.25
427.847	1607.25
428.069	1616.25
428.292	1644.25
428.514	1595.25
428.736	1600.25
428.958	1613.25
429.181	1610.25
429.403	1587.25
429.625	1567.25
429.847	1588.25
430.069	1599.25
430.292	1590.25
430.514	1544.25
430.736	1576.25
430.958	1574.25
431.18	1584.25
431.402	1621.25
431.624	1624.25
431.846	1667.25
432.068	1651.25
432.29	1699.25
432.512	1624.25
432.734	1647.25
432.956	1623.25
433.178	1649.25
433.4	1651.25
433.622	1668.25
433.844	1676.25
434.066	1662.25
434.287	1686.25
434.509	1737.25
434.731	1819.25
434.953	1793.25
435.175	1846.25
435.397	1791.25
435.618	1722.25
435.84	1658.25
436.062	1665.25
436.284	1611.25
436.505	1612.25
436.727	1606.25
436.949	1611.25
437.17	1635.25
437.392	1597.25
437.614	1596.25
437.835	1577.25
438.057	1561.25
438.278	1526.25
438.5	1573.25
438.721	1555.25
438.943	1556.25
439.165	1561.25
439.386	1535.25
439.608	1575.25
439.829	1591.25
440.05	1560.25
440.272	1608.25
440.493	1594.25
440.715	1663.25
440.936	1668.25
441.158	1680.25
441.379	1718.25
441.6	1769.25
441.822	1777.25
442.043	1789.25
442.264	1744.25
442.486	1719.25
442.707	1729.25
442.928	1749.25
443.149	1721.25
443.371	1723.25
443.592	1746.25
443.813	1756.25
444.034	1784.25
444.255	1820.25
444.476	1866.25
444.698	1984.25
444.919	2045.25
445.14	2070.25
445.361	1988.25
445.582	1820.25
445.803	1741.25
446.024	1703.25
446.245	1712.25
446.466	1626.25
446.687	1597.25
446.908	1591.25
447.129	1543.25
447.35	1551.25
447.571	1538.25
447.792	1500.25
448.013	1492.25
448.234	1447.25
448.455	1456.25
448.675	1487.25
448.896	1434.25
449.117	1465.25
449.338	1456.25
449.559	1461.25
449.779	1441.25
450	1433.25
450.221	1456.25
450.442	1448.25
450.662	1421.25
450.883	1427.25
451.104	1444.25
451.324	1469.25
451.545	1464.25
451.766	1452.25
451.986	1437.25
452.207	1439.25
452.428	1435.25
452.648	1411.25
452.869	1417.25
453.089	1389.25
453.31	1411.25
453.53	1393.25
453.751	1360.25
453.971	1385.25
454.192	1407.25
454.412	1393.25
454.633	1368.25
454.853	1363.25
455.073	1365.25
455.294	1340.25
455.514	1340.25
455.734	1356.25
455.955	1333.25
456.175	1350.25
456.395	1337.25
456.616	1325.25
456.836	1359.25
457.056	1398.25
457.276	1348.25
457.497	1374.25
457.717	1356.25
457.937	1349.25
458.157	1401.25
458.377	1394.25
458.598	1446.25
458.818	1481.25
459.038	1500.25
459.258	1538.25
459.478	1593.25
459.698	1595.25
459.918	1615.25
460.138	1725.25
460.358	1813.25
460.578	1852.25
460.798	1793.25
461.018	1891.25
461.238	1773.25
461.458	1868.25
461.678	1847.25
461.898	1871.25
462.118	1858.25
462.338	1997.25
462.558	2004.25
462.777	2057.25
462.997	2180.25
463.217	2323.25
463.437	2359.25
463.657	2187.25
463.876	2157.25
464.096	2152.25
464.316	2165.25
464.536	2137.25
464.755	2007.25
464.975	1969.25
465.195	1915.25
465.414	1805.25
465.634	1691.25
465.854	1651.25
466.073	1622.25
466.293	1613.25
466.512	1578.25
466.732	1559.25
466.951	1523.25
467.171	1534.25
467.391	1525.25
467.61	1486.25
467.829	1491.25
468.049	1443.25
468.268	1451.25
468.488	1462.25
468.707	1473.25
468.927	1473.25
469.146	1460.25
469.365	1490.25
469.585	1483.25
469.804	1499.25
470.023	1510.25
470.243	1523.25
470.462	1574.25
470.681	1575.25
470.901	1531.25
471.12	1526.25
471.339	1539.25
471.558	1500.25
471.777	1494.25
471.997	1452.25
472.216	1482.25
472.435	1473.25
472.654	1444.25
472.873	1377.25
473.092	1461.25
473.311	1452.25
473.53	1450.25
473.749	1434.25
473.968	1480.25
474.187	1439.25
474.406	1456.25
474.625	1447.25
474.844	1428.25
475.063	1459.25
475.282	1489.25
475.501	1447.25
475.72	1474.25
475.939	1487.25
476.158	1461.25
476.377	1528.25
476.596	1521.25
476.814	1545.25
477.033	1568.25
477.252	1529.25
477.471	1605.25
477.69	1622.25
477.908	1687.25
478.127	1711.25
478.346	1720.25
478.564	1754.25
478.783	1743.25
479.002	1842.25
479.22	1849.25
479.439	1791.25
479.658	1841.25
479.876	1832.25
480.095	1787.25
480.313	1899.25
480.532	1942.25
480.751	1937.25
480.969	1899.25
481.188	1820.25
481.406	1813.25
481.624	1781.25
481.843	1748.25
482.061	1708.25
482.28	1759.25
482.498	1744.25
482.717	1719.25
482.935	1735.25
483.153	1748.25
483.372	1752.25
483.59	1762.25
483.808	1791.25
484.027	1762.25
484.245	1846.25
484.463	1808.25
484.681	1818.25
484.9	1867.25
485.118	1910.25
485.336	1885.25
485.554	1885.25
485.772	1929.25
485.99	1941.25
486.209	1935.25
486.427	1908.25
486.645	1907.25
486.863	1918.25
487.081	1912.25
487.299	1902.25
487.517	1863.25
487.735	1878.25
487.953	1895.25
488.171	1889.25
488.389	1818.25
488.607	1859.25
488.825	1808.25
489.043	1809.25
489.261	1824.25
489.479	1801.25
489.696	1804.25
489.914	1812.25
490.132	1863.25
490.35	1819.25
490.568	1806.25
490.786	1805.25
491.003	1791.25
491.221	1786.25
491.439	1814.25
491.657	1793.25
491.874	1829.25
492.092	1764.25
492.31	1809.25
492.527	1805.25
492.745	1798.25
492.963	1788.25
493.18	1791.25
493.398	1830.25
493.615	1800.25
493.833	1830.25
494.05	1836.25
494.268	1852.25
494.485	1894.25
494.703	1844.25
494.92	1888.25
495.138	1868.25
495.355	1844.25
495.573	1845.25
495.79	1863.25
496.008	1905.25
496.225	1861.25
496.442	1891.25
496.66	1952.25
496.877	1953.25
497.094	1996.25
497.312	2011.25
497.529	2032.25
497.746	2124.25
497.963	2184.25
498.181	2261.25
498.398	2344.25
498.615	2465.25
498.832	2631.25
499.049	2833.25
499.267	2988.25
499.484	3281.25
499.701	3577.25
499.918	3833.25
500.135	4250.25
500.352	4644.25
500.569	4805.25
500.786	4726.25
501.003	4541.25
501.22	4197.25
501.437	3808.25
501.654	3414.25
501.871	3171.25
502.088	2929.25
502.305	2803.25
502.522	2625.25
502.739	2548.25
502.956	2374.25
503.172	2294.25
503.389	2231.25
503.606	2150.25
503.823	2094.25
504.04	2081.25
504.256	2117.25
504.473	2131.25
504.69	2144.25
504.907	2059.25
505.123	1996.25
505.34	1922.25
505.557	1848.25
505.773	1795.25
505.99	1752.25
506.207	1675.25
506.423	1644.25
506.64	1637.25
506.856	1584.25
507.073	1636.25
507.289	1597.25
507.506	1558.25
507.722	1545.25
507.939	1574.25
508.155	1543.25
508.372	1517.25
508.588	1538.25
508.805	1512.25
509.021	1520.25
509.238	1457.25
509.454	1492.25
509.67	1499.25
509.887	1477.25
510.103	1490.25
510.319	1468.25
510.536	1455.25
510.752	1451.25
510.968	1453.25
511.184	1460.25
511.401	1447.25
511.617	1473.25
511.833	1459.25
512.049	1428.25
512.265	1408.25
512.481	1433.25
512.698	1402.25
512.914	1442.25
513.13	1434.25
513.346	1458.25
513.562	1463.25
513.778	1420.25
513.994	1427.25
514.21	1445.25
514.426	1441.25
514.642	1456.25
514.858	1479.25
515.074	1482.25
515.29	1505.25
515.506	1514.25
515.721	1510.25
515.937	1561.25
516.153	1554.25
516.369	1631.25
516.585	1660.25
516.801	1687.25
517.016	1747.25
517.232	1832.25
517.448	1816.25
517.664	1901.25
517.879	1907.25
518.095	1925.25
518.311	1903.25
518.527	1827.25
518.742	1763.25
518.958	1711.25
519.173	1644.25
519.389	1630.25
519.605	1596.25
519.82	1537.25
520.036	1533.25
520.251	1469.25
520.467	1492.25
520.682	1474.25
520.898	1404.25
521.113	1412.25
521.329	1413.25
521.544	1396.25
521.76	1392.25
521.975	1366.25
522.19	1388.25
522.406	1368.25
522.621	1364.25
522.836	1361.25
523.052	1337.25
523.267	1305.25
523.482	1324.25
523.698	1287.25
523.913	1289.25
524.128	1306.25
524.343	1318.25
524.559	1324.25
524.774	1304.25
524.989	1292.25
525.204	1297.25
525.419	1288.25
525.634	1222.25
525.849	1274.25
526.064	1273.25
526.28	1257.25
526.495	1286.25
526.71	1265.25
526.925	1283.25
527.14	1249.25
527.355	1263.25
527.57	1317.25
527.785	1288.25
527.999	1263.25
528.214	1290.25
528.429	1258.25
528.644	1283.25
528.859	1268.25
529.074	1239.25
529.289	1291.25
529.503	1285.25
529.718	1266.25
529.933	1237.25
530.148	1279.25
530.363	1253.25
530.577	1286.25
530.792	1249.25
531.007	1256.25
531.221	1277.25
531.436	1268.25
531.651	1250.25
531.865	1239.25
532.08	1267.25
532.295	1240.25
532.509	1276.25
532.724	1241.25
532.938	1251.25
533.153	1248.25
533.367	1267.25
533.582	1252.25
533.796	1254.25
534.011	1294.25
534.225	1207.25
534.44	1249.25
534.654	1220.25
534.868	1250.25
535.083	1211.25
535.297	1215.25
535.511	1219.25
535.726	1206.25
535.94	1201.25
536.154	1188.25
536.369	1183.25
536.583	1178.25
536.797	1171.25
537.011	1178.25
537.225	1162.25
537.44	1183.25
537.654	1148.25
537.868	1160.25
538.082	1145.25
538.296	1165.25
538.51	1151.25
538.724	1162.25
538.938	1136.25
539.153	1147.25
539.367	1176.25
539.581	1134.25
539.795	1131.25
540.009	1133.25
540.222	1117.25
540.436	1150.25
540.65	1157.25
540.864	1148.25
541.078	1123.25
541.292	1125.25
541.506	1146.25
541.72	1110.25
541.934	1121.25
542.147	1116.25
542.361	1123.25
542.575	1075.25
542.789	1114.25
543.002	1087.25
543.216	1108.25
543.43	1104.25
543.644	1110.25
543.857	1102.25
544.071	1104.25
544.285	1129.25
544.498	1111.25
544.712	1094.25
544.925	1098.25
545.139	1146.25
545.352	1121.25
545.566	1114.25
545.779	1127.25
545.993	1136.25
546.206	1156.25
546.42	1125.25
546.633	1130.25
546.847	1129.25
547.06	1132.25
547.274	1092.25
547.487	1115.25
547.7	1136.25
547.914	1119.25
548.127	1157.25
548.34	1144.25
548.554	1169.25
548.767	1129.25
548.98	1153.25
549.193	1163.25
549.407	1161.25
549.62	1177.25
549.833	1156.25
550.046	1132.25
550.259	1110.25
550.473	1128.25
550.686	1125.25
550.899	1142.25
551.112	1117.25
551.325	1146.25
551.538	1143.25
551.751	1144.25
551.964	1132.25
552.177	1095.25
552.39	1139.25
552.603	1166.25
552.816	1218.25
553.029	1192.25
553.242	1210.25
553.455	1215.25
553.667	1199.25
553.88	1195.25
554.093	1161.25
554.306	1178.25
554.519	1126.25
554.732	1128.25
554.944	1093.25
555.157	1081.25
555.37	1084.25
555.583	1077.25
555.795	1066.25
556.008	1032.25
556.221	1004.25
556.433	985.25
556.646	976.25
556.859	988.25
557.071	994.25
557.284	986.25
557.496	976.25
557.709	969.25
557.921	979.25
558.134	956.25
558.346	992.25
558.559	944.25
558.771	953.25
558.984	944.25
559.196	949.25
559.409	959.25
559.621	938.25
559.833	953.25
560.046	930.25
560.258	956.25
560.47	927.25
560.683	933.25
560.895	938.25
561.107	951.25
561.32	912.25
561.532	951.25
561.744	921.25
561.956	938.25
562.168	915.25
562.381	922.25
562.593	938.25
562.805	957.25
563.017	927.25
563.229	948.25
563.441	943.25
563.653	978.25
563.865	972.25
564.077	988.25
564.289	968.25
564.501	996.25
564.713	1012.25
564.925	997.25
565.137	1022.25
565.349	1047.25
565.561	1109.25
565.773	1128.25
565.985	1187.25
566.197	1223.25
566.408	1290.25
566.62	1406.25
566.832	1431.25
567.044	1480.25
567.255	1464.25
567.467	1532.25
567.679	1599.25
567.891	1665.25
568.102	1643.25
568.314	1607.25
568.526	1473.25
568.737	1367.25
568.949	1281.25
569.161	1205.25
569.372	1145.25
569.584	1047.25
569.795	1065.25
570.007	1005.25
570.218	979.25
570.43	921.25
570.641	932.25
570.853	948.25
571.064	964.25
571.276	952.25
571.487	927.25
571.698	908.25
571.91	866.25
572.121	853.25
572.333	840.25
572.544	821.25
572.755	830.25
572.966	807.25
573.178	807.25
573.389	806.25
573.6	776.25
573.811	798.25
574.023	756.25
574.234	787.25
574.445	760.25
574.656	763.25
574.867	760.25
575.078	794.25
575.289	771.25
575.501	745.25
575.712	741.25
575.923	769.25
576.134	719.25
576.345	721.25
576.556	706.25
576.767	724.25
576.978	740.25
577.188	726.25
577.399	711.25
577.61	704.25
577.821	724.25
578.032	709.25
578.243	698.25
578.454	698.25
578.665	649.25
578.875	663.25
579.086	653.25
579.297	651.25
579.508	665.25
579.718	679.25
579.929	659.25
580.14	681.25
580.35	636.25
580.561	651.25
580.772	646.25
580.982	662.25
581.193	631.25
581.403	665.25
581.614	705.25
581.825	639.25
582.035	655.25
582.246	632.25
582.456	624.25
582.667	637.25
582.877	641.25
583.087	623.25
583.298	631.25
583.508	648.25
583.719	616.25
583.929	630.25
584.139	606.25
584.35	629.25
584.56	623.25
584.77	620.25
584.981	601.25
585.191	592.25
585.401	613.25
585.611	583.25
585.821	601.25
586.032	595.25
586.242	609.25
586.452	599.25
586.662	618.25
586.872	599.25
587.082	588.25
587.292	585.25
587.502	624.25
587.713	596.25
587.923	609.25
588.133	619.25
588.343	590.25
588.553	595.25
588.762	621.25
588.972	611.25
589.182	609.25
589.392	616.25
589.602	608.25
589.812	632.25
590.022	613.25
590.232	620.25
590.441	616.25
590.651	614.25
590.861	588.25
591.071	628.25
591.281	621.25
591.49	627.25
591.7	632.25
591.91	655.25
592.119	635.25
592.329	668.25
592.539	673.25
592.748	695.25
592.958	709.25
593.167	695.25
593.377	736.25
593.587	738.25
593.796	730.25
594.006	759.25
594.215	737.25
594.424	747.25
594.634	701.25
594.843	729.25
595.053	687.25
595.262	671.25
595.472	636.25
595.681	637.25
595.89	601.25
596.1	629.25
596.309	600.25
596.518	565.25
596.727	587.25
596.937	565.25
597.146	567.25
597.355	554.25
597.564	549.25
597.774	558.25
597.983	533.25
598.192	513.25
598.401	528.25
598.61	523.25
598.819	531.25
599.028	520.25
599.237	513.25
599.446	513.25
599.655	514.25
599.864	522.25
600.073	520.25
600.282	514.25
600.491	497.25
600.7	493.25
600.909	483.25
601.118	501.25
601.327	481.25
601.536	480.25
601.745	490.25
601.953	485.25
602.162	477.25
602.371	471.25
602.58	486.25
602.789	471.25
602.997	479.25
603.206	461.25
603.415	484.25
603.623	458.25
603.832	466.25
604.041	450.25
604.249	477.25
604.458	490.25
604.666	457.25
604.875	462.25
605.084	485.25
605.292	474.25
605.501	475.25
605.709	462.25
605.918	436.25
606.126	452.25
606.334	472.25
606.543	452.25
606.751	468.25
606.96	454.25
607.168	447.25
607.376	442.25
607.585	446.25
607.793	468.25
608.001	461.25
608.21	458.25
608.418	455.25
608.626	435.25
608.834	447.25
609.043	458.25
609.251	448.25
609.459	436.25
609.667	424.25
609.875	424.25
610.083	439.25
610.291	444.25
610.499	427.25
610.707	433.25
610.916	437.25
611.124	426.25
611.332	422.25
611.54	444.25
611.748	426.25
611.955	424.25
612.163	444.25
612.371	423.25
612.579	437.25
612.787	421.25
612.995	432.25
613.203	442.25
613.411	417.25
613.618	415.25
613.826	423.25
614.034	415.25
614.242	418.25
614.449	400.25
614.657	410.25
614.865	410.25
615.072	428.25
615.28	435.25
615.488	427.25
615.695	432.25
615.903	436.25
616.111	431.25
616.318	439.25
616.526	427.25
616.733	439.25
616.941	429.25
617.148	423.25
617.356	401.25
617.563	421.25
617.771	418.25
617.978	412.25
618.185	415.25
618.393	410.25
618.6	427.25
618.807	411.25
619.015	422.25
619.222	410.25
619.429	406.25
619.637	391.25
619.844	414.25
620.051	404.25
620.258	405.25
620.466	379.25
620.673	370.25
620.88	373.25
621.087	407.25
621.294	385.25
621.501	387.25
621.708	393.25
621.915	396.25
622.122	371.25
622.329	366.25
622.536	387.25
622.743	389.25
622.95	397.25
623.157	381.25
623.364	369.25
623.571	376.25
623.778	364.25
623.985	384.25
624.192	387.25
624.399	363.25
624.606	371.25
624.812	357.25
625.019	353.25
625.226	353.25
625.433	367.25
625.639	347.25
625.846	358.25
626.053	359.25
626.259	371.25
626.466	353.25
626.673	365.25
626.879	344.25
627.086	334.25
627.293	341.25
627.499	353.25
627.706	321.25
627.912	354.25
628.119	336.25
628.325	367.25
628.532	326.25
628.738	332.25
628.945	319.25
629.151	339.25
629.357	347.25
629.564	330.25
629.77	338.25
629.976	331.25
630.183	332.25
630.389	328.25
630.595	337.25
630.802	304.25
631.008	333.25
631.214	336.25
631.42	310.25
631.627	325.25
631.833	327.25
632.039	297.25
632.245	299.25
632.451	311.25
632.657	315.25
632.863	305.25
633.069	329.25
633.275	306.25
633.481	310.25
633.688	315.25
633.893	290.25
634.099	307.25
634.305	300.25
634.511	287.25
634.717	317.25
634.923	307.25
635.129	319.25
635.335	294.25
635.541	296.25
635.747	313.25
635.952	287.25
636.158	290.25
636.364	308.25
636.57	290.25
636.775	299.25
636.981	292.25
637.187	296.25
637.392	299.25
637.598	294.25
637.804	290.25
638.009	297.25
638.215	288.25
638.421	303.25
638.626	291.25
638.832	305.25
639.037	273.25
639.243	292.25
639.448	278.25
639.654	274.25
639.859	274.25
640.065	289.25
640.27	292.25
640.475	291.25
640.681	271.25
640.886	287.25
641.091	263.25
641.297	284.25
641.502	280.25
641.707	269.25
641.913	281.25
642.118	281.25
642.323	283.25
642.528	288.25
642.733	280.25
642.939	282.25
643.144	267.25
643.349	271.25
643.554	267.25
643.759	287.25
643.964	262.25
644.169	279.25
644.374	289.25
644.579	283.25
644.784	268.25
644.989	279.25
645.194	280.25
645.399	285.25
645.604	272.25
645.809	282.25
646.014	290.25
646.219	276.25
646.423	283.25
646.628	295.25
646.833	281.25
647.038	282.25
647.243	272.25
647.447	288.25
647.652	309.25
647.857	292.25
648.062	299.25
648.266	299.25
648.471	313.25
648.676	297.25
648.88	292.25
649.085	293.25
649.289	280.25
649.494	299.25
649.698	280.25
649.903	282.25
650.107	293.25
650.312	289.25
650.516	287.25
650.721	272.25
650.925	274.25
651.13	257.25
651.334	271.25
651.539	283.25
651.743	275.25
651.947	272.25
652.152	247.25
652.356	260.25
652.56	264.25
652.764	257.25
652.969	268.25
653.173	261.25
653.377	254.25
653.581	249.25
653.785	253.25
653.99	254.25
654.194	243.25
654.398	256.25
654.602	280.25
654.806	268.25
655.01	287.25
655.214	274.25
655.418	290.25
655.622	300.25
655.826	302.25
656.03	330.25
656.234	368.25
656.438	379.25
656.642	371.25
656.846	353.25
657.049	313.25
657.253	293.25
657.457	266.25
657.661	233.25
657.865	226.25
658.068	195.25
658.272	182.25
658.476	176.25
658.68	182.25
658.883	165.25
659.087	149.25
659.291	146.25
659.494	144.25
659.698	127.25
659.901	141.25
660.105	120.25
660.309	124.25
660.512	138.25
660.716	130.25
660.919	105.25
661.123	115.25
661.326	107.25
661.53	96.25
661.733	103.25
661.936	99.25
662.14	97.25
662.343	93.25
662.546	107.25
662.75	86.25
662.953	80.25
663.156	85.25
663.36	83.25
663.563	92.25
663.766	84.25
663.969	76.25
664.173	87.25
664.376	88.25
664.579	71.25
664.782	86.25
664.985	83.25
665.188	84.25
665.391	88.25
665.594	95.25
665.797	78.25
666	80.25
666.203	66.25
666.406	76.25
666.609	95.25
666.812	83.25
667.015	80.25
667.218	72.25
667.421	86.25
667.624	81.25
667.827	64.25
668.03	87.25
668.232	75.25
668.435	88.25
668.638	83.25
668.841	76.25
669.043	78.25
669.246	68.25
669.449	59.25
669.651	80.25
669.854	81.25
670.057	95.25
670.259	89.25
670.462	90.25
670.665	72.25
670.867	76.25
671.07	93.25
671.272	80.25
671.475	87.25
671.677	94.25
671.88	78.25
672.082	77.25
672.284	72.25
672.487	77.25
672.689	64.25
672.892	67.25
