Data from NiCl2@0.125M.TitratingCurve.Agarose3%dH2O.NegLispCup.LampEnergy10.LIBS07252019_HRD10591_18-27-54-574.txt Node
Date: Thu Jul 25 18:27:54 EDT 2019
User: cochatt
Spectrometer: HR+D1059
Trigger mode: 1
Integration Time (sec): 1.000000E-1
Scans to average: 1
Electric dark correction enabled: true
Nonlinearity correction enabled: false
Boxcar width: 0
XAxis mode: Wavelengths
Number of Pixels in Spectrum: 2048
>>>>>Begin Spectral Data<<<<<
223.165	-16.25
223.4	-16.25
223.635	-16.25
223.869	-20.25
224.104	-14.25
224.338	-17.25
224.573	-15.25
224.808	-2.25
225.042	13.75
225.277	-9.25
225.511	-16.25
225.746	-12.25
225.98	-2.25
226.215	17.75
226.449	19.75
226.683	18.75
226.918	28.75
227.152	26.75
227.387	19.75
227.621	39.75
227.856	69.75
228.09	62.75
228.324	65.75
228.559	56.75
228.793	71.75
229.027	107.75
229.262	115.75
229.496	122.75
229.73	113.75
229.964	133.75
230.199	119.75
230.433	138.75
230.667	141.75
230.901	143.75
231.136	138.75
231.37	143.75
231.604	133.75
231.838	147.75
232.072	145.75
232.306	152.75
232.541	159.75
232.775	157.75
233.009	155.75
233.243	176.75
233.477	145.75
233.711	154.75
233.945	162.75
234.179	144.75
234.413	146.75
234.647	161.75
234.881	156.75
235.115	154.75
235.349	153.75
235.583	156.75
235.817	157.75
236.051	158.75
236.285	159.75
236.519	161.75
236.753	173.75
236.987	157.75
237.221	155.75
237.455	182.75
237.689	168.75
237.922	161.75
238.156	167.75
238.39	152.75
238.624	161.75
238.858	173.75
239.091	178.75
239.325	174.75
239.559	180.75
239.793	198.75
240.027	179.75
240.26	188.75
240.494	181.75
240.728	184.75
240.961	190.75
241.195	187.75
241.429	198.75
241.662	189.75
241.896	199.75
242.13	211.75
242.363	189.75
242.597	202.75
242.83	200.75
243.064	192.75
243.298	219.75
243.531	208.75
243.765	207.75
243.998	216.75
244.232	203.75
244.465	205.75
244.699	204.75
244.932	218.75
245.166	234.75
245.399	227.75
245.633	232.75
245.866	236.75
246.099	226.75
246.333	208.75
246.566	217.75
246.8	223.75
247.033	231.75
247.266	237.75
247.5	219.75
247.733	226.75
247.966	244.75
248.2	237.75
248.433	245.75
248.666	235.75
248.899	233.75
249.133	249.75
249.366	244.75
249.599	246.75
249.832	242.75
250.066	247.75
250.299	239.75
250.532	243.75
250.765	247.75
250.998	276.75
251.231	245.75
251.465	251.75
251.698	263.75
251.931	267.75
252.164	273.75
252.397	281.75
252.63	265.75
252.863	282.75
253.096	279.75
253.329	281.75
253.562	272.75
253.795	297.75
254.028	275.75
254.261	286.75
254.494	278.75
254.727	274.75
254.96	275.75
255.193	275.75
255.426	280.75
255.659	289.75
255.892	286.75
256.124	283.75
256.357	286.75
256.59	291.75
256.823	301.75
257.056	304.75
257.289	280.75
257.521	306.75
257.754	305.75
257.987	298.75
258.22	309.75
258.452	305.75
258.685	301.75
258.918	296.75
259.151	303.75
259.383	325.75
259.616	297.75
259.849	307.75
260.081	343.75
260.314	341.75
260.547	320.75
260.779	316.75
261.012	313.75
261.244	320.75
261.477	309.75
261.71	313.75
261.942	304.75
262.175	315.75
262.407	333.75
262.64	333.75
262.872	318.75
263.105	328.75
263.337	325.75
263.57	348.75
263.802	347.75
264.035	365.75
264.267	336.75
264.499	344.75
264.732	358.75
264.964	355.75
265.197	345.75
265.429	331.75
265.661	356.75
265.894	352.75
266.126	379.75
266.358	363.75
266.591	353.75
266.823	356.75
267.055	347.75
267.287	348.75
267.52	369.75
267.752	366.75
267.984	358.75
268.216	335.75
268.448	366.75
268.681	378.75
268.913	362.75
269.145	370.75
269.377	370.75
269.609	366.75
269.841	378.75
270.073	374.75
270.306	375.75
270.538	377.75
270.77	367.75
271.002	383.75
271.234	401.75
271.466	370.75
271.698	389.75
271.93	384.75
272.162	379.75
272.394	392.75
272.626	388.75
272.858	390.75
273.09	388.75
273.322	392.75
273.553	400.75
273.785	400.75
274.017	412.75
274.249	387.75
274.481	397.75
274.713	401.75
274.945	416.75
275.176	390.75
275.408	412.75
275.64	419.75
275.872	412.75
276.104	406.75
276.335	420.75
276.567	411.75
276.799	416.75
277.031	411.75
277.262	419.75
277.494	426.75
277.726	418.75
277.957	413.75
278.189	422.75
278.421	407.75
278.652	454.75
278.884	443.75
279.115	407.75
279.347	433.75
279.579	432.75
279.81	446.75
280.042	462.75
280.273	462.75
280.505	462.75
280.736	444.75
280.968	463.75
281.199	455.75
281.431	450.75
281.662	448.75
281.894	462.75
282.125	450.75
282.356	466.75
282.588	470.75
282.819	475.75
283.051	478.75
283.282	449.75
283.513	473.75
283.745	445.75
283.976	458.75
284.207	466.75
284.439	478.75
284.67	485.75
284.901	496.75
285.132	479.75
285.364	492.75
285.595	482.75
285.826	505.75
286.057	502.75
286.288	484.75
286.52	487.75
286.751	468.75
286.982	491.75
287.213	506.75
287.444	488.75
287.675	488.75
287.906	503.75
288.138	505.75
288.369	483.75
288.6	497.75
288.831	501.75
289.062	496.75
289.293	520.75
289.524	519.75
289.755	505.75
289.986	505.75
290.217	491.75
290.448	506.75
290.679	521.75
290.91	521.75
291.141	508.75
291.371	532.75
291.602	524.75
291.833	494.75
292.064	523.75
292.295	530.75
292.526	534.75
292.757	513.75
292.987	496.75
293.218	490.75
293.449	520.75
293.68	527.75
293.91	531.75
294.141	522.75
294.372	527.75
294.603	522.75
294.833	529.75
295.064	524.75
295.295	524.75
295.525	539.75
295.756	536.75
295.987	516.75
296.217	538.75
296.448	556.75
296.679	547.75
296.909	542.75
297.14	554.75
297.37	563.75
297.601	565.75
297.831	553.75
298.062	547.75
298.292	576.75
298.523	584.75
298.753	558.75
298.984	592.75
299.214	580.75
299.445	559.75
299.675	560.75
299.905	559.75
300.136	567.75
300.366	576.75
300.597	589.75
300.827	586.75
301.057	573.75
301.288	593.75
301.518	584.75
301.748	575.75
301.979	613.75
302.209	598.75
302.439	584.75
302.669	573.75
302.9	587.75
303.13	574.75
303.36	602.75
303.59	601.75
303.82	592.75
304.051	571.75
304.281	589.75
304.511	603.75
304.741	601.75
304.971	574.75
305.201	603.75
305.431	583.75
305.661	608.75
305.891	571.75
306.121	572.75
306.352	579.75
306.582	571.75
306.812	581.75
307.042	575.75
307.272	559.75
307.502	592.75
307.731	583.75
307.961	571.75
308.191	569.75
308.421	584.75
308.651	585.75
308.881	588.75
309.111	543.75
309.341	603.75
309.571	566.75
309.8	594.75
310.03	588.75
310.26	607.75
310.49	575.75
310.72	589.75
310.949	565.75
311.179	569.75
311.409	576.75
311.639	595.75
311.868	585.75
312.098	601.75
312.328	595.75
312.557	603.75
312.787	596.75
313.017	600.75
313.246	624.75
313.476	606.75
313.706	613.75
313.935	616.75
314.165	627.75
314.394	633.75
314.624	629.75
314.853	612.75
315.083	618.75
315.312	627.75
315.542	631.75
315.771	589.75
316.001	617.75
316.23	624.75
316.46	589.75
316.689	605.75
316.919	618.75
317.148	616.75
317.377	617.75
317.607	615.75
317.836	602.75
318.065	608.75
318.295	595.75
318.524	617.75
318.753	602.75
318.983	588.75
319.212	580.75
319.441	601.75
319.67	602.75
319.9	601.75
320.129	624.75
320.358	592.75
320.587	602.75
320.816	623.75
321.046	623.75
321.275	605.75
321.504	605.75
321.733	586.75
321.962	591.75
322.191	635.75
322.42	606.75
322.649	597.75
322.878	614.75
323.108	619.75
323.337	619.75
323.566	611.75
323.795	623.75
324.024	641.75
324.253	629.75
324.482	622.75
324.71	630.75
324.939	631.75
325.168	670.75
325.397	642.75
325.626	638.75
325.855	656.75
326.084	676.75
326.313	672.75
326.542	674.75
326.77	695.75
326.999	668.75
327.228	658.75
327.457	643.75
327.686	642.75
327.914	684.75
328.143	685.75
328.372	671.75
328.6	668.75
328.829	661.75
329.058	681.75
329.287	667.75
329.515	673.75
329.744	670.75
329.972	687.75
330.201	688.75
330.43	694.75
330.658	688.75
330.887	680.75
331.115	712.75
331.344	712.75
331.572	706.75
331.801	699.75
332.03	739.75
332.258	746.75
332.486	742.75
332.715	782.75
332.943	808.75
333.172	819.75
333.4	897.75
333.629	897.75
333.857	938.75
334.085	925.75
334.314	874.75
334.542	864.75
334.771	869.75
334.999	837.75
335.227	841.75
335.455	846.75
335.684	837.75
335.912	852.75
336.14	823.75
336.369	797.75
336.597	816.75
336.825	786.75
337.053	783.75
337.281	796.75
337.51	783.75
337.738	751.75
337.966	771.75
338.194	758.75
338.422	710.75
338.65	747.75
338.878	746.75
339.106	722.75
339.334	712.75
339.562	741.75
339.79	689.75
340.018	698.75
340.246	718.75
340.474	710.75
340.702	714.75
340.93	701.75
341.158	701.75
341.386	733.75
341.614	686.75
341.842	720.75
342.07	704.75
342.298	684.75
342.526	697.75
342.754	687.75
342.981	694.75
343.209	725.75
343.437	735.75
343.665	782.75
343.893	841.75
344.12	854.75
344.348	826.75
344.576	742.75
344.804	776.75
345.031	739.75
345.259	725.75
345.487	694.75
345.714	719.75
345.942	707.75
346.17	713.75
346.397	670.75
346.625	699.75
346.853	668.75
347.08	659.75
347.308	697.75
347.535	688.75
347.763	688.75
347.99	674.75
348.218	674.75
348.445	685.75
348.673	666.75
348.9	660.75
349.128	687.75
349.355	663.75
349.583	655.75
349.81	663.75
350.037	635.75
350.265	654.75
350.492	657.75
350.72	652.75
350.947	636.75
351.174	653.75
351.402	641.75
351.629	642.75
351.856	657.75
352.083	630.75
352.311	649.75
352.538	647.75
352.765	634.75
352.992	641.75
353.22	664.75
353.447	675.75
353.674	627.75
353.901	649.75
354.128	665.75
354.355	650.75
354.583	640.75
354.81	620.75
355.037	629.75
355.264	659.75
355.491	625.75
355.718	647.75
355.945	641.75
356.172	653.75
356.399	671.75
356.626	653.75
356.853	657.75
357.08	636.75
357.307	677.75
357.534	663.75
357.761	659.75
357.988	647.75
358.215	657.75
358.441	660.75
358.668	631.75
358.895	650.75
359.122	654.75
359.349	657.75
359.576	671.75
359.802	638.75
360.029	668.75
360.256	661.75
360.483	653.75
360.709	649.75
360.936	654.75
361.163	651.75
361.39	660.75
361.616	657.75
361.843	623.75
362.07	645.75
362.296	651.75
362.523	609.75
362.749	659.75
362.976	634.75
363.203	632.75
363.429	631.75
363.656	661.75
363.882	650.75
364.109	651.75
364.335	672.75
364.562	629.75
364.788	638.75
365.015	655.75
365.241	647.75
365.468	627.75
365.694	626.75
365.92	667.75
366.147	659.75
366.373	631.75
366.599	654.75
366.826	651.75
367.052	661.75
367.278	671.75
367.505	647.75
367.731	651.75
367.957	657.75
368.184	658.75
368.41	667.75
368.636	657.75
368.862	657.75
369.089	687.75
369.315	686.75
369.541	659.75
369.767	677.75
369.993	685.75
370.219	677.75
370.445	688.75
370.672	712.75
370.898	692.75
371.124	691.75
371.35	722.75
371.576	706.75
371.802	719.75
372.028	693.75
372.254	674.75
372.48	736.75
372.706	727.75
372.932	741.75
373.158	741.75
373.384	734.75
373.61	725.75
373.835	718.75
374.061	705.75
374.287	728.75
374.513	737.75
374.739	748.75
374.965	769.75
375.191	789.75
375.416	806.75
375.642	779.75
375.868	768.75
376.094	731.75
376.319	726.75
376.545	729.75
376.771	743.75
376.997	710.75
377.222	730.75
377.448	701.75
377.674	721.75
377.899	711.75
378.125	710.75
378.35	691.75
378.576	717.75
378.802	713.75
379.027	702.75
379.253	713.75
379.478	712.75
379.704	697.75
379.929	693.75
380.155	703.75
380.38	709.75
380.606	713.75
380.831	697.75
381.057	714.75
381.282	687.75
381.507	720.75
381.733	734.75
381.958	691.75
382.184	745.75
382.409	711.75
382.634	736.75
382.86	759.75
383.085	737.75
383.31	784.75
383.535	774.75
383.761	778.75
383.986	812.75
384.211	823.75
384.436	817.75
384.662	840.75
384.887	855.75
385.112	865.75
385.337	874.75
385.562	853.75
385.787	845.75
386.013	875.75
386.238	881.75
386.463	855.75
386.688	854.75
386.913	847.75
387.138	829.75
387.363	838.75
387.588	817.75
387.813	855.75
388.038	837.75
388.263	849.75
388.488	852.75
388.713	856.75
388.938	846.75
389.163	823.75
389.387	821.75
389.612	834.75
389.837	856.75
390.062	839.75
390.287	845.75
390.512	831.75
390.736	855.75
390.961	849.75
391.186	855.75
391.411	897.75
391.636	929.75
391.86	921.75
392.085	976.75
392.31	975.75
392.534	945.75
392.759	899.75
392.984	903.75
393.208	909.75
393.433	906.75
393.658	882.75
393.882	904.75
394.107	915.75
394.331	922.75
394.556	907.75
394.78	908.75
395.005	938.75
395.229	915.75
395.454	971.75
395.678	945.75
395.903	965.75
396.127	966.75
396.352	900.75
396.576	896.75
396.801	901.75
397.025	907.75
397.249	942.75
397.474	957.75
397.698	933.75
397.922	953.75
398.147	977.75
398.371	1000.75
398.595	1016.75
398.82	1046.75
399.044	1137.75
399.268	1238.75
399.492	1441.75
399.717	1605.75
399.941	1586.75
400.165	1431.75
400.389	1283.75
400.613	1201.75
400.837	1127.75
401.062	1095.75
401.286	1077.75
401.51	1079.75
401.734	1087.75
401.958	1074.75
402.182	1105.75
402.406	1093.75
402.63	1124.75
402.854	1132.75
403.078	1142.75
403.302	1179.75
403.526	1185.75
403.75	1238.75
403.974	1285.75
404.198	1257.75
404.422	1230.75
404.645	1243.75
404.869	1226.75
405.093	1207.75
405.317	1197.75
405.541	1179.75
405.765	1187.75
405.988	1190.75
406.212	1172.75
406.436	1179.75
406.66	1203.75
406.883	1193.75
407.107	1323.75
407.331	1329.75
407.555	1402.75
407.778	1410.75
408.002	1363.75
408.226	1326.75
408.449	1305.75
408.673	1273.75
408.896	1226.75
409.12	1221.75
409.344	1239.75
409.567	1222.75
409.791	1262.75
410.014	1202.75
410.238	1214.75
410.461	1206.75
410.685	1202.75
410.908	1170.75
411.132	1162.75
411.355	1110.75
411.578	1132.75
411.802	1126.75
412.025	1127.75
412.249	1158.75
412.472	1142.75
412.695	1089.75
412.919	1078.75
413.142	1093.75
413.365	1090.75
413.589	1114.75
413.812	1040.75
414.035	1045.75
414.258	1057.75
414.482	1069.75
414.705	1105.75
414.928	1107.75
415.151	1105.75
415.374	1074.75
415.597	1106.75
415.821	1056.75
416.044	1047.75
416.267	1055.75
416.49	1051.75
416.713	1034.75
416.936	1071.75
417.159	1062.75
417.382	1081.75
417.605	1074.75
417.828	1069.75
418.051	1087.75
418.274	1104.75
418.497	1097.75
418.72	1099.75
418.943	1098.75
419.166	1158.75
419.389	1220.75
419.611	1196.75
419.834	1149.75
420.057	1109.75
420.28	1088.75
420.503	1046.75
420.726	1049.75
420.948	1032.75
421.171	1049.75
421.394	1061.75
421.617	1044.75
421.839	1065.75
422.062	1056.75
422.285	1057.75
422.507	1087.75
422.73	1097.75
422.953	1106.75
423.175	1128.75
423.398	1114.75
423.621	1121.75
423.843	1141.75
424.066	1155.75
424.288	1112.75
424.511	1124.75
424.733	1099.75
424.956	1077.75
425.178	1066.75
425.401	1077.75
425.623	1061.75
425.846	1033.75
426.068	1054.75
426.291	1040.75
426.513	1021.75
426.735	986.75
426.958	1015.75
427.18	1005.75
427.402	978.75
427.625	997.75
427.847	958.75
428.069	959.75
428.292	999.75
428.514	951.75
428.736	938.75
428.958	953.75
429.181	942.75
429.403	913.75
429.625	948.75
429.847	905.75
430.069	931.75
430.292	944.75
430.514	905.75
430.736	933.75
430.958	911.75
431.18	933.75
431.402	956.75
431.624	963.75
431.846	959.75
432.068	938.75
432.29	964.75
432.512	967.75
432.734	972.75
432.956	977.75
433.178	998.75
433.4	965.75
433.622	967.75
433.844	957.75
434.066	946.75
434.287	983.75
434.509	999.75
434.731	1046.75
434.953	1078.75
435.175	1065.75
435.397	1052.75
435.618	1016.75
435.84	1005.75
436.062	959.75
436.284	937.75
436.505	966.75
436.727	957.75
436.949	941.75
437.17	977.75
437.392	938.75
437.614	935.75
437.835	937.75
438.057	899.75
438.278	935.75
438.5	909.75
438.721	916.75
438.943	903.75
439.165	934.75
439.386	927.75
439.608	932.75
439.829	917.75
440.05	929.75
440.272	941.75
440.493	955.75
440.715	971.75
440.936	980.75
441.158	975.75
441.379	1031.75
441.6	1110.75
441.822	1077.75
442.043	1096.75
442.264	1045.75
442.486	1047.75
442.707	1057.75
442.928	1076.75
443.149	1021.75
443.371	1014.75
443.592	1068.75
443.813	1076.75
444.034	1046.75
444.255	1107.75
444.476	1163.75
444.698	1234.75
444.919	1323.75
445.14	1356.75
445.361	1209.75
445.582	1084.75
445.803	1038.75
446.024	1018.75
446.245	1008.75
446.466	998.75
446.687	987.75
446.908	974.75
447.129	937.75
447.35	921.75
447.571	920.75
447.792	907.75
448.013	940.75
448.234	895.75
448.455	885.75
448.675	889.75
448.896	870.75
449.117	852.75
449.338	873.75
449.559	889.75
449.779	877.75
450	863.75
450.221	879.75
450.442	854.75
450.662	888.75
450.883	891.75
451.104	915.75
451.324	906.75
451.545	897.75
451.766	901.75
451.986	890.75
452.207	879.75
452.428	893.75
452.648	866.75
452.869	858.75
453.089	849.75
453.31	845.75
453.53	844.75
453.751	842.75
453.971	831.75
454.192	830.75
454.412	827.75
454.633	843.75
454.853	851.75
455.073	790.75
455.294	852.75
455.514	832.75
455.734	844.75
455.955	817.75
456.175	806.75
456.395	807.75
456.616	800.75
456.836	805.75
457.056	807.75
457.276	795.75
457.497	811.75
457.717	811.75
457.937	803.75
458.157	837.75
458.377	808.75
458.598	866.75
458.818	867.75
459.038	897.75
459.258	934.75
459.478	968.75
459.698	965.75
459.918	987.75
460.138	1021.75
460.358	1117.75
460.578	1091.75
460.798	1155.75
461.018	1156.75
461.238	1128.75
461.458	1092.75
461.678	1101.75
461.898	1122.75
462.118	1144.75
462.338	1183.75
462.558	1217.75
462.777	1247.75
462.997	1376.75
463.217	1476.75
463.437	1480.75
463.657	1379.75
463.876	1354.75
464.096	1297.75
464.316	1293.75
464.536	1308.75
464.755	1277.75
464.975	1186.75
465.195	1153.75
465.414	1111.75
465.634	1017.75
465.854	951.75
466.073	944.75
466.293	951.75
466.512	949.75
466.732	918.75
466.951	934.75
467.171	929.75
467.391	903.75
467.61	880.75
467.829	913.75
468.049	924.75
468.268	881.75
468.488	889.75
468.707	867.75
468.927	861.75
469.146	870.75
469.365	894.75
469.585	890.75
469.804	889.75
470.023	911.75
470.243	926.75
470.462	928.75
470.681	953.75
470.901	962.75
471.12	946.75
471.339	927.75
471.558	904.75
471.777	880.75
471.997	885.75
472.216	857.75
472.435	873.75
472.654	837.75
472.873	844.75
473.092	853.75
473.311	838.75
473.53	849.75
473.749	822.75
473.968	843.75
474.187	833.75
474.406	854.75
474.625	848.75
474.844	827.75
475.063	860.75
475.282	864.75
475.501	842.75
475.72	872.75
475.939	847.75
476.158	841.75
476.377	890.75
476.596	884.75
476.814	895.75
477.033	885.75
477.252	897.75
477.471	928.75
477.69	975.75
477.908	973.75
478.127	1015.75
478.346	1029.75
478.564	1055.75
478.783	1032.75
479.002	1073.75
479.22	1063.75
479.439	1075.75
479.658	1045.75
479.876	1100.75
480.095	1065.75
480.313	1111.75
480.532	1131.75
480.751	1127.75
480.969	1091.75
481.188	1063.75
481.406	1001.75
481.624	979.75
481.843	986.75
482.061	974.75
482.28	959.75
482.498	974.75
482.717	976.75
482.935	957.75
483.153	962.75
483.372	953.75
483.59	949.75
483.808	986.75
484.027	960.75
484.245	991.75
484.463	990.75
484.681	1014.75
484.9	988.75
485.118	1006.75
485.336	994.75
485.554	1022.75
485.772	1029.75
485.99	1047.75
486.209	1055.75
486.427	1052.75
486.645	1028.75
486.863	1043.75
487.081	1037.75
487.299	1029.75
487.517	1019.75
487.735	1009.75
487.953	1015.75
488.171	1059.75
488.389	1055.75
488.607	1000.75
488.825	1001.75
489.043	1006.75
489.261	991.75
489.479	975.75
489.696	981.75
489.914	1010.75
490.132	1014.75
490.35	1011.75
490.568	1021.75
490.786	1021.75
491.003	1046.75
491.221	1017.75
491.439	1047.75
491.657	1038.75
491.874	1054.75
492.092	1047.75
492.31	1031.75
492.527	1052.75
492.745	1067.75
492.963	1051.75
493.18	1075.75
493.398	1048.75
493.615	1070.75
493.833	1050.75
494.05	1071.75
494.268	1055.75
494.485	1063.75
494.703	1098.75
494.92	1059.75
495.138	1105.75
495.355	1070.75
495.573	1089.75
495.79	1081.75
496.008	1071.75
496.225	1088.75
496.442	1100.75
496.66	1128.75
496.877	1118.75
497.094	1148.75
497.312	1163.75
497.529	1190.75
497.746	1214.75
497.963	1221.75
498.181	1277.75
498.398	1333.75
498.615	1423.75
498.832	1533.75
499.049	1665.75
499.267	1822.75
499.484	1922.75
499.701	2124.75
499.918	2331.75
500.135	2722.75
500.352	3083.75
500.569	3281.75
500.786	3199.75
501.003	2991.75
501.22	2692.75
501.437	2350.75
501.654	2029.75
501.871	1864.75
502.088	1691.75
502.305	1573.75
502.522	1529.75
502.739	1474.75
502.956	1407.75
503.172	1347.75
503.389	1256.75
503.606	1200.75
503.823	1226.75
504.04	1218.75
504.256	1234.75
504.473	1242.75
504.69	1284.75
504.907	1255.75
505.123	1194.75
505.34	1104.75
505.557	1071.75
505.773	1054.75
505.99	1014.75
506.207	989.75
506.423	997.75
506.64	963.75
506.856	950.75
507.073	979.75
507.289	939.75
507.506	961.75
507.722	949.75
507.939	930.75
508.155	936.75
508.372	904.75
508.588	909.75
508.805	889.75
509.021	897.75
509.238	891.75
509.454	865.75
509.67	859.75
509.887	856.75
510.103	845.75
510.319	858.75
510.536	866.75
510.752	861.75
510.968	857.75
511.184	837.75
511.401	855.75
511.617	890.75
511.833	818.75
512.049	839.75
512.265	821.75
512.481	869.75
512.698	839.75
512.914	857.75
513.13	845.75
513.346	870.75
513.562	871.75
513.778	857.75
513.994	869.75
514.21	867.75
514.426	863.75
514.642	881.75
514.858	893.75
515.074	865.75
515.29	869.75
515.506	892.75
515.721	923.75
515.937	910.75
516.153	949.75
516.369	939.75
516.585	988.75
516.801	1004.75
517.016	1078.75
517.232	1113.75
517.448	1163.75
517.664	1207.75
517.879	1230.75
518.095	1186.75
518.311	1195.75
518.527	1106.75
518.742	1082.75
518.958	1056.75
519.173	992.75
519.389	955.75
519.605	953.75
519.82	914.75
520.036	900.75
520.251	864.75
520.467	845.75
520.682	851.75
520.898	840.75
521.113	841.75
521.329	832.75
521.544	848.75
521.76	832.75
521.975	806.75
522.19	838.75
522.406	827.75
522.621	814.75
522.836	802.75
523.052	818.75
523.267	782.75
523.482	802.75
523.698	779.75
523.913	788.75
524.128	812.75
524.343	788.75
524.559	781.75
524.774	777.75
524.989	787.75
525.204	769.75
525.419	763.75
525.634	782.75
525.849	778.75
526.064	745.75
526.28	765.75
526.495	752.75
526.71	802.75
526.925	768.75
527.14	756.75
527.355	774.75
527.57	746.75
527.785	773.75
527.999	761.75
528.214	767.75
528.429	762.75
528.644	797.75
528.859	741.75
529.074	783.75
529.289	788.75
529.503	771.75
529.718	795.75
529.933	764.75
530.148	801.75
530.363	732.75
530.577	739.75
530.792	770.75
531.007	757.75
531.221	771.75
531.436	771.75
531.651	799.75
531.865	790.75
532.08	753.75
532.295	791.75
532.509	784.75
532.724	751.75
532.938	780.75
533.153	775.75
533.367	765.75
533.582	757.75
533.796	771.75
534.011	777.75
534.225	777.75
534.44	768.75
534.654	760.75
534.868	715.75
535.083	763.75
535.297	741.75
535.511	704.75
535.726	719.75
535.94	714.75
536.154	723.75
536.369	710.75
536.583	701.75
536.797	715.75
537.011	724.75
537.225	706.75
537.44	697.75
537.654	714.75
537.868	711.75
538.082	672.75
538.296	709.75
538.51	710.75
538.724	703.75
538.938	702.75
539.153	706.75
539.367	715.75
539.581	683.75
539.795	694.75
540.009	720.75
540.222	701.75
540.436	684.75
540.65	688.75
540.864	694.75
541.078	707.75
541.292	686.75
541.506	690.75
541.72	686.75
541.934	699.75
542.147	706.75
542.361	681.75
542.575	682.75
542.789	696.75
543.002	681.75
543.216	679.75
543.43	701.75
543.644	681.75
543.857	653.75
544.071	664.75
544.285	711.75
544.498	692.75
544.712	703.75
544.925	711.75
545.139	691.75
545.352	725.75
545.566	727.75
545.779	706.75
545.993	711.75
546.206	706.75
546.42	716.75
546.633	723.75
546.847	713.75
547.06	714.75
547.274	710.75
547.487	694.75
547.7	714.75
547.914	722.75
548.127	707.75
548.34	739.75
548.554	697.75
548.767	732.75
548.98	708.75
549.193	717.75
549.407	723.75
549.62	733.75
549.833	745.75
550.046	737.75
550.259	713.75
550.473	691.75
550.686	711.75
550.899	704.75
551.112	687.75
551.325	711.75
551.538	674.75
551.751	695.75
551.964	703.75
552.177	679.75
552.39	715.75
552.603	727.75
552.816	741.75
553.029	752.75
553.242	766.75
553.455	804.75
553.667	784.75
553.88	751.75
554.093	734.75
554.306	704.75
554.519	695.75
554.732	715.75
554.944	685.75
555.157	667.75
555.37	662.75
555.583	673.75
555.795	644.75
556.008	632.75
556.221	616.75
556.433	617.75
556.646	605.75
556.859	637.75
557.071	614.75
557.284	618.75
557.496	635.75
557.709	601.75
557.921	604.75
558.134	607.75
558.346	602.75
558.559	613.75
558.771	599.75
558.984	592.75
559.196	596.75
559.409	605.75
559.621	604.75
559.833	578.75
560.046	579.75
560.258	567.75
560.47	584.75
560.683	569.75
560.895	591.75
561.107	581.75
561.32	584.75
561.532	583.75
561.744	582.75
561.956	610.75
562.168	585.75
562.381	583.75
562.593	560.75
562.805	588.75
563.017	601.75
563.229	591.75
563.441	601.75
563.653	606.75
563.865	583.75
564.077	609.75
564.289	605.75
564.501	618.75
564.713	639.75
564.925	605.75
565.137	619.75
565.349	643.75
565.561	663.75
565.773	678.75
565.985	729.75
566.197	766.75
566.408	813.75
566.62	890.75
566.832	957.75
567.044	977.75
567.255	956.75
567.467	993.75
567.679	1017.75
567.891	1085.75
568.102	1142.75
568.314	1081.75
568.526	990.75
568.737	880.75
568.949	833.75
569.161	746.75
569.372	705.75
569.584	676.75
569.795	637.75
570.007	629.75
570.218	591.75
570.43	604.75
570.641	586.75
570.853	593.75
571.064	603.75
571.276	621.75
571.487	611.75
571.698	562.75
571.91	573.75
572.121	547.75
572.333	529.75
572.544	527.75
572.755	514.75
572.966	495.75
573.178	477.75
573.389	499.75
573.6	490.75
573.811	503.75
574.023	509.75
574.234	503.75
574.445	492.75
574.656	482.75
574.867	497.75
575.078	476.75
575.289	490.75
575.501	488.75
575.712	466.75
575.923	465.75
576.134	473.75
576.345	444.75
576.556	460.75
576.767	452.75
576.978	451.75
577.188	449.75
577.399	440.75
577.61	429.75
577.821	453.75
578.032	461.75
578.243	445.75
578.454	419.75
578.665	439.75
578.875	415.75
579.086	433.75
579.297	423.75
579.508	430.75
579.718	410.75
579.929	438.75
580.14	413.75
580.35	401.75
580.561	410.75
580.772	403.75
580.982	412.75
581.193	437.75
581.403	415.75
581.614	402.75
581.825	410.75
582.035	413.75
582.246	414.75
582.456	418.75
582.667	409.75
582.877	398.75
583.087	408.75
583.298	407.75
583.508	418.75
583.719	401.75
583.929	393.75
584.139	397.75
584.35	397.75
584.56	392.75
584.77	392.75
584.981	387.75
585.191	413.75
585.401	409.75
585.611	386.75
585.821	388.75
586.032	387.75
586.242	382.75
586.452	415.75
586.662	387.75
586.872	390.75
587.082	398.75
587.292	386.75
587.502	391.75
587.713	383.75
587.923	382.75
588.133	391.75
588.343	401.75
588.553	407.75
588.762	385.75
588.972	377.75
589.182	401.75
589.392	388.75
589.602	407.75
589.812	394.75
590.022	386.75
590.232	396.75
590.441	386.75
590.651	385.75
590.861	401.75
591.071	404.75
591.281	405.75
591.49	406.75
591.7	423.75
591.91	418.75
592.119	432.75
592.329	424.75
592.539	439.75
592.748	459.75
592.958	458.75
593.167	478.75
593.377	485.75
593.587	519.75
593.796	510.75
594.006	482.75
594.215	524.75
594.424	525.75
594.634	508.75
594.843	474.75
595.053	442.75
595.262	442.75
595.472	424.75
595.681	411.75
595.89	416.75
596.1	403.75
596.309	405.75
596.518	368.75
596.727	381.75
596.937	367.75
597.146	370.75
597.355	378.75
597.564	351.75
597.774	357.75
597.983	348.75
598.192	353.75
598.401	354.75
598.61	338.75
598.819	343.75
599.028	333.75
599.237	337.75
599.446	335.75
599.655	331.75
599.864	339.75
600.073	327.75
600.282	323.75
600.491	337.75
600.7	352.75
600.909	329.75
601.118	341.75
601.327	334.75
601.536	332.75
601.745	328.75
601.953	323.75
602.162	330.75
602.371	329.75
602.58	325.75
602.789	325.75
602.997	317.75
603.206	339.75
603.415	322.75
603.623	332.75
603.832	320.75
604.041	314.75
604.249	313.75
604.458	299.75
604.666	314.75
604.875	310.75
605.084	307.75
605.292	296.75
605.501	313.75
605.709	317.75
605.918	307.75
606.126	319.75
606.334	306.75
606.543	307.75
606.751	306.75
606.96	295.75
607.168	292.75
607.376	296.75
607.585	317.75
607.793	297.75
608.001	317.75
608.21	282.75
608.418	307.75
608.626	297.75
608.834	275.75
609.043	295.75
609.251	302.75
609.459	304.75
609.667	301.75
609.875	294.75
610.083	304.75
610.291	305.75
610.499	310.75
610.707	293.75
610.916	288.75
611.124	288.75
611.332	307.75
611.54	295.75
611.748	287.75
611.955	304.75
612.163	306.75
612.371	299.75
612.579	299.75
612.787	292.75
612.995	278.75
613.203	290.75
613.411	291.75
613.618	278.75
613.826	277.75
614.034	278.75
614.242	288.75
614.449	293.75
614.657	283.75
614.865	292.75
615.072	285.75
615.28	286.75
615.488	273.75
615.695	286.75
615.903	299.75
616.111	270.75
616.318	287.75
616.526	291.75
616.733	310.75
616.941	291.75
617.148	303.75
617.356	289.75
617.563	287.75
617.771	291.75
617.978	295.75
618.185	296.75
618.393	288.75
618.6	303.75
618.807	302.75
619.015	275.75
619.222	283.75
619.429	264.75
619.637	283.75
619.844	271.75
620.051	275.75
620.258	281.75
620.466	281.75
620.673	275.75
620.88	271.75
621.087	262.75
621.294	268.75
621.501	265.75
621.708	274.75
621.915	247.75
622.122	260.75
622.329	262.75
622.536	262.75
622.743	267.75
622.95	277.75
623.157	249.75
623.364	268.75
623.571	265.75
623.778	262.75
623.985	278.75
624.192	277.75
624.399	274.75
624.606	251.75
624.812	267.75
625.019	262.75
625.226	266.75
625.433	254.75
625.639	235.75
625.846	239.75
626.053	254.75
626.259	224.75
626.466	260.75
626.673	244.75
626.879	235.75
627.086	232.75
627.293	232.75
627.499	231.75
627.706	240.75
627.912	250.75
628.119	251.75
628.325	249.75
628.532	245.75
628.738	229.75
628.945	247.75
629.151	231.75
629.357	226.75
629.564	224.75
629.77	246.75
629.976	239.75
630.183	218.75
630.389	236.75
630.595	234.75
630.802	225.75
631.008	213.75
631.214	226.75
631.42	226.75
631.627	216.75
631.833	229.75
632.039	226.75
632.245	225.75
632.451	233.75
632.657	228.75
632.863	212.75
633.069	231.75
633.275	211.75
633.481	228.75
633.688	221.75
633.893	210.75
634.099	224.75
634.305	202.75
634.511	205.75
634.717	216.75
634.923	199.75
635.129	209.75
635.335	213.75
635.541	226.75
635.747	218.75
635.952	206.75
636.158	207.75
636.364	192.75
636.57	212.75
636.775	217.75
636.981	220.75
637.187	214.75
637.392	216.75
637.598	212.75
637.804	226.75
638.009	205.75
638.215	206.75
638.421	203.75
638.626	202.75
638.832	218.75
639.037	197.75
639.243	189.75
639.448	178.75
639.654	210.75
639.859	204.75
640.065	197.75
640.27	219.75
640.475	201.75
640.681	205.75
640.886	179.75
641.091	197.75
641.297	207.75
641.502	187.75
641.707	188.75
641.913	205.75
642.118	203.75
642.323	195.75
642.528	210.75
642.733	208.75
642.939	203.75
643.144	193.75
643.349	189.75
643.554	209.75
643.759	198.75
643.964	199.75
644.169	178.75
644.374	183.75
644.579	203.75
644.784	194.75
644.989	179.75
645.194	183.75
645.399	197.75
645.604	208.75
645.809	197.75
646.014	202.75
646.219	203.75
646.423	202.75
646.628	188.75
646.833	181.75
647.038	194.75
647.243	179.75
647.447	205.75
647.652	209.75
647.857	211.75
648.062	193.75
648.266	203.75
648.471	208.75
648.676	204.75
648.88	207.75
649.085	199.75
649.289	211.75
649.494	194.75
649.698	188.75
649.903	182.75
650.107	187.75
650.312	201.75
650.516	183.75
650.721	177.75
650.925	167.75
651.13	181.75
651.334	175.75
651.539	172.75
651.743	178.75
651.947	188.75
652.152	177.75
652.356	171.75
652.56	167.75
652.764	170.75
652.969	165.75
653.173	172.75
653.377	165.75
653.581	142.75
653.785	159.75
653.99	163.75
654.194	154.75
654.398	147.75
654.602	154.75
654.806	143.75
655.01	154.75
655.214	159.75
655.418	177.75
655.622	167.75
655.826	161.75
656.03	155.75
656.234	169.75
656.438	182.75
656.642	167.75
656.846	165.75
657.049	171.75
657.253	160.75
657.457	153.75
657.661	147.75
657.865	122.75
658.068	126.75
658.272	109.75
658.476	119.75
658.68	123.75
658.883	117.75
659.087	119.75
659.291	113.75
659.494	107.75
659.698	109.75
659.901	107.75
660.105	108.75
660.309	89.75
660.512	99.75
660.716	110.75
660.919	100.75
661.123	115.75
661.326	91.75
661.53	85.75
661.733	101.75
661.936	90.75
662.14	81.75
662.343	91.75
662.546	96.75
662.75	87.75
662.953	81.75
663.156	82.75
663.36	72.75
663.563	81.75
663.766	93.75
663.969	88.75
664.173	85.75
664.376	87.75
664.579	81.75
664.782	74.75
664.985	96.75
665.188	79.75
665.391	79.75
665.594	75.75
665.797	81.75
666	95.75
666.203	104.75
666.406	88.75
666.609	86.75
666.812	89.75
667.015	82.75
667.218	93.75
667.421	87.75
667.624	88.75
667.827	85.75
668.03	88.75
668.232	96.75
668.435	94.75
668.638	83.75
668.841	90.75
669.043	81.75
669.246	87.75
669.449	96.75
669.651	99.75
669.854	91.75
670.057	88.75
670.259	79.75
670.462	76.75
670.665	81.75
670.867	85.75
671.07	102.75
671.272	82.75
671.475	91.75
671.677	76.75
671.88	87.75
672.082	82.75
672.284	93.75
672.487	79.75
672.689	77.75
672.892	93.75
