Data from NiCl2@0.125M.TitratingCurve.Agarose3%dH2O.NegLispCup.LampEnergy10.LIBS07252019_HRD10591_18-28-34-577.txt Node
Date: Thu Jul 25 18:28:34 EDT 2019
User: cochatt
Spectrometer: HR+D1059
Trigger mode: 1
Integration Time (sec): 1.000000E-1
Scans to average: 1
Electric dark correction enabled: true
Nonlinearity correction enabled: false
Boxcar width: 0
XAxis mode: Wavelengths
Number of Pixels in Spectrum: 2048
>>>>>Begin Spectral Data<<<<<
223.165	-14.31
223.4	-14.31
223.635	-14.31
223.869	-27.31
224.104	-14.31
224.338	-19.31
224.573	-22.31
224.808	-10.31
225.042	-12.31
225.277	-8.31
225.511	-4.31
225.746	7.69
225.98	13.69
226.215	6.69
226.449	22.69
226.683	38.69
226.918	9.69
227.152	33.69
227.387	30.69
227.621	30.69
227.856	35.69
228.09	43.69
228.324	57.69
228.559	63.69
228.793	71.69
229.027	92.69
229.262	121.69
229.496	104.69
229.73	131.69
229.964	123.69
230.199	133.69
230.433	136.69
230.667	145.69
230.901	139.69
231.136	125.69
231.37	120.69
231.604	141.69
231.838	140.69
232.072	149.69
232.306	141.69
232.541	147.69
232.775	171.69
233.009	143.69
233.243	147.69
233.477	155.69
233.711	152.69
233.945	147.69
234.179	140.69
234.413	138.69
234.647	152.69
234.881	163.69
235.115	159.69
235.349	160.69
235.583	157.69
235.817	152.69
236.051	164.69
236.285	168.69
236.519	177.69
236.753	165.69
236.987	151.69
237.221	167.69
237.455	162.69
237.689	165.69
237.922	155.69
238.156	169.69
238.39	187.69
238.624	181.69
238.858	162.69
239.091	173.69
239.325	173.69
239.559	195.69
239.793	183.69
240.027	183.69
240.26	179.69
240.494	181.69
240.728	179.69
240.961	186.69
241.195	194.69
241.429	205.69
241.662	186.69
241.896	192.69
242.13	194.69
242.363	188.69
242.597	194.69
242.83	205.69
243.064	210.69
243.298	194.69
243.531	207.69
243.765	219.69
243.998	223.69
244.232	202.69
244.465	202.69
244.699	207.69
244.932	220.69
245.166	221.69
245.399	221.69
245.633	206.69
245.866	237.69
246.099	233.69
246.333	214.69
246.566	242.69
246.8	227.69
247.033	240.69
247.266	239.69
247.5	240.69
247.733	223.69
247.966	228.69
248.2	228.69
248.433	231.69
248.666	244.69
248.899	243.69
249.133	245.69
249.366	255.69
249.599	256.69
249.832	258.69
250.066	263.69
250.299	244.69
250.532	257.69
250.765	263.69
250.998	255.69
251.231	257.69
251.465	274.69
251.698	268.69
251.931	263.69
252.164	270.69
252.397	278.69
252.63	265.69
252.863	249.69
253.096	269.69
253.329	279.69
253.562	277.69
253.795	287.69
254.028	259.69
254.261	297.69
254.494	303.69
254.727	292.69
254.96	277.69
255.193	300.69
255.426	279.69
255.659	292.69
255.892	300.69
256.124	283.69
256.357	291.69
256.59	271.69
256.823	279.69
257.056	305.69
257.289	308.69
257.521	296.69
257.754	303.69
257.987	324.69
258.22	308.69
258.452	328.69
258.685	312.69
258.918	301.69
259.151	309.69
259.383	305.69
259.616	324.69
259.849	308.69
260.081	343.69
260.314	327.69
260.547	325.69
260.779	337.69
261.012	313.69
261.244	351.69
261.477	331.69
261.71	324.69
261.942	330.69
262.175	346.69
262.407	332.69
262.64	330.69
262.872	339.69
263.105	337.69
263.337	319.69
263.57	341.69
263.802	328.69
264.035	342.69
264.267	357.69
264.499	348.69
264.732	357.69
264.964	336.69
265.197	358.69
265.429	375.69
265.661	369.69
265.894	361.69
266.126	359.69
266.358	361.69
266.591	368.69
266.823	380.69
267.055	370.69
267.287	359.69
267.52	365.69
267.752	370.69
267.984	356.69
268.216	378.69
268.448	379.69
268.681	379.69
268.913	378.69
269.145	373.69
269.377	390.69
269.609	375.69
269.841	382.69
270.073	375.69
270.306	395.69
270.538	378.69
270.77	376.69
271.002	365.69
271.234	383.69
271.466	411.69
271.698	396.69
271.93	389.69
272.162	398.69
272.394	393.69
272.626	408.69
272.858	416.69
273.09	404.69
273.322	387.69
273.553	391.69
273.785	406.69
274.017	440.69
274.249	396.69
274.481	423.69
274.713	403.69
274.945	415.69
275.176	417.69
275.408	432.69
275.64	444.69
275.872	413.69
276.104	433.69
276.335	420.69
276.567	423.69
276.799	435.69
277.031	433.69
277.262	446.69
277.494	441.69
277.726	441.69
277.957	437.69
278.189	441.69
278.421	431.69
278.652	433.69
278.884	438.69
279.115	449.69
279.347	437.69
279.579	455.69
279.81	456.69
280.042	443.69
280.273	475.69
280.505	443.69
280.736	461.69
280.968	452.69
281.199	443.69
281.431	467.69
281.662	461.69
281.894	477.69
282.125	476.69
282.356	466.69
282.588	481.69
282.819	462.69
283.051	477.69
283.282	482.69
283.513	465.69
283.745	485.69
283.976	488.69
284.207	491.69
284.439	496.69
284.67	490.69
284.901	495.69
285.132	517.69
285.364	488.69
285.595	503.69
285.826	502.69
286.057	511.69
286.288	507.69
286.52	532.69
286.751	481.69
286.982	481.69
287.213	496.69
287.444	513.69
287.675	514.69
287.906	501.69
288.138	496.69
288.369	526.69
288.6	523.69
288.831	516.69
289.062	530.69
289.293	531.69
289.524	511.69
289.755	515.69
289.986	512.69
290.217	527.69
290.448	523.69
290.679	538.69
290.91	545.69
291.141	529.69
291.371	524.69
291.602	521.69
291.833	538.69
292.064	543.69
292.295	527.69
292.526	556.69
292.757	551.69
292.987	539.69
293.218	526.69
293.449	549.69
293.68	556.69
293.91	548.69
294.141	535.69
294.372	540.69
294.603	539.69
294.833	533.69
295.064	552.69
295.295	543.69
295.525	535.69
295.756	556.69
295.987	535.69
296.217	568.69
296.448	549.69
296.679	562.69
296.909	569.69
297.14	590.69
297.37	567.69
297.601	561.69
297.831	568.69
298.062	581.69
298.292	571.69
298.523	600.69
298.753	608.69
298.984	602.69
299.214	575.69
299.445	583.69
299.675	584.69
299.905	564.69
300.136	566.69
300.366	571.69
300.597	595.69
300.827	601.69
301.057	612.69
301.288	616.69
301.518	616.69
301.748	620.69
301.979	601.69
302.209	603.69
302.439	605.69
302.669	626.69
302.9	623.69
303.13	607.69
303.36	602.69
303.59	628.69
303.82	583.69
304.051	588.69
304.281	606.69
304.511	588.69
304.741	595.69
304.971	605.69
305.201	598.69
305.431	596.69
305.661	595.69
305.891	585.69
306.121	600.69
306.352	598.69
306.582	602.69
306.812	563.69
307.042	594.69
307.272	605.69
307.502	576.69
307.731	566.69
307.961	587.69
308.191	597.69
308.421	591.69
308.651	612.69
308.881	582.69
309.111	581.69
309.341	578.69
309.571	582.69
309.8	596.69
310.03	613.69
310.26	609.69
310.49	597.69
310.72	604.69
310.949	601.69
311.179	596.69
311.409	594.69
311.639	607.69
311.868	601.69
312.098	610.69
312.328	623.69
312.557	611.69
312.787	589.69
313.017	635.69
313.246	615.69
313.476	634.69
313.706	636.69
313.935	639.69
314.165	623.69
314.394	671.69
314.624	657.69
314.853	643.69
315.083	630.69
315.312	627.69
315.542	645.69
315.771	639.69
316.001	649.69
316.23	613.69
316.46	625.69
316.689	625.69
316.919	637.69
317.148	644.69
317.377	633.69
317.607	625.69
317.836	620.69
318.065	617.69
318.295	617.69
318.524	626.69
318.753	593.69
318.983	629.69
319.212	603.69
319.441	609.69
319.67	601.69
319.9	626.69
320.129	617.69
320.358	622.69
320.587	626.69
320.816	634.69
321.046	647.69
321.275	621.69
321.504	639.69
321.733	619.69
321.962	651.69
322.191	629.69
322.42	631.69
322.649	628.69
322.878	629.69
323.108	621.69
323.337	654.69
323.566	629.69
323.795	636.69
324.024	656.69
324.253	627.69
324.482	654.69
324.71	625.69
324.939	633.69
325.168	652.69
325.397	636.69
325.626	657.69
325.855	647.69
326.084	678.69
326.313	684.69
326.542	674.69
326.77	668.69
326.999	678.69
327.228	647.69
327.457	672.69
327.686	674.69
327.914	658.69
328.143	706.69
328.372	689.69
328.6	650.69
328.829	685.69
329.058	677.69
329.287	652.69
329.515	680.69
329.744	678.69
329.972	693.69
330.201	671.69
330.43	676.69
330.658	687.69
330.887	684.69
331.115	680.69
331.344	723.69
331.572	687.69
331.801	716.69
332.03	741.69
332.258	769.69
332.486	788.69
332.715	796.69
332.943	787.69
333.172	850.69
333.4	887.69
333.629	927.69
333.857	925.69
334.085	921.69
334.314	907.69
334.542	897.69
334.771	879.69
334.999	868.69
335.227	847.69
335.455	861.69
335.684	864.69
335.912	817.69
336.14	817.69
336.369	824.69
336.597	828.69
336.825	808.69
337.053	821.69
337.281	844.69
337.51	788.69
337.738	775.69
337.966	768.69
338.194	770.69
338.422	749.69
338.65	745.69
338.878	728.69
339.106	756.69
339.334	727.69
339.562	723.69
339.79	733.69
340.018	705.69
340.246	699.69
340.474	675.69
340.702	709.69
340.93	708.69
341.158	734.69
341.386	716.69
341.614	714.69
341.842	724.69
342.07	711.69
342.298	721.69
342.526	713.69
342.754	701.69
342.981	729.69
343.209	725.69
343.437	762.69
343.665	787.69
343.893	829.69
344.12	911.69
344.348	858.69
344.576	816.69
344.804	785.69
345.031	759.69
345.259	739.69
345.487	723.69
345.714	731.69
345.942	706.69
346.17	695.69
346.397	708.69
346.625	699.69
346.853	687.69
347.08	680.69
347.308	685.69
347.535	701.69
347.763	712.69
347.99	706.69
348.218	716.69
348.445	689.69
348.673	688.69
348.9	666.69
349.128	678.69
349.355	686.69
349.583	679.69
349.81	678.69
350.037	659.69
350.265	669.69
350.492	694.69
350.72	643.69
350.947	673.69
351.174	680.69
351.402	642.69
351.629	649.69
351.856	662.69
352.083	668.69
352.311	672.69
352.538	667.69
352.765	665.69
352.992	652.69
353.22	645.69
353.447	642.69
353.674	633.69
353.901	673.69
354.128	643.69
354.355	668.69
354.583	658.69
354.81	651.69
355.037	656.69
355.264	669.69
355.491	677.69
355.718	680.69
355.945	689.69
356.172	679.69
356.399	683.69
356.626	661.69
356.853	685.69
357.08	660.69
357.307	646.69
357.534	659.69
357.761	696.69
357.988	675.69
358.215	663.69
358.441	651.69
358.668	689.69
358.895	659.69
359.122	651.69
359.349	666.69
359.576	675.69
359.802	671.69
360.029	685.69
360.256	660.69
360.483	677.69
360.709	680.69
360.936	683.69
361.163	664.69
361.39	671.69
361.616	668.69
361.843	681.69
362.07	668.69
362.296	699.69
362.523	693.69
362.749	680.69
362.976	659.69
363.203	646.69
363.429	669.69
363.656	648.69
363.882	660.69
364.109	666.69
364.335	646.69
364.562	676.69
364.788	641.69
365.015	667.69
365.241	678.69
365.468	660.69
365.694	636.69
365.92	665.69
366.147	662.69
366.373	669.69
366.599	681.69
366.826	684.69
367.052	664.69
367.278	661.69
367.505	684.69
367.731	676.69
367.957	666.69
368.184	677.69
368.41	684.69
368.636	669.69
368.862	684.69
369.089	680.69
369.315	709.69
369.541	682.69
369.767	689.69
369.993	677.69
370.219	698.69
370.445	710.69
370.672	686.69
370.898	723.69
371.124	721.69
371.35	714.69
371.576	717.69
371.802	737.69
372.028	692.69
372.254	697.69
372.48	725.69
372.706	749.69
372.932	774.69
373.158	727.69
373.384	766.69
373.61	720.69
373.835	703.69
374.061	717.69
374.287	732.69
374.513	754.69
374.739	764.69
374.965	781.69
375.191	803.69
375.416	811.69
375.642	789.69
375.868	777.69
376.094	769.69
376.319	740.69
376.545	751.69
376.771	735.69
376.997	703.69
377.222	740.69
377.448	708.69
377.674	728.69
377.899	710.69
378.125	700.69
378.35	711.69
378.576	713.69
378.802	712.69
379.027	731.69
379.253	714.69
379.478	729.69
379.704	730.69
379.929	727.69
380.155	683.69
380.38	720.69
380.606	728.69
380.831	708.69
381.057	716.69
381.282	695.69
381.507	703.69
381.733	735.69
381.958	733.69
382.184	736.69
382.409	747.69
382.634	764.69
382.86	751.69
383.085	774.69
383.31	762.69
383.535	789.69
383.761	793.69
383.986	822.69
384.211	829.69
384.436	817.69
384.662	865.69
384.887	873.69
385.112	872.69
385.337	861.69
385.562	875.69
385.787	879.69
386.013	893.69
386.238	892.69
386.463	893.69
386.688	914.69
386.913	870.69
387.138	895.69
387.363	869.69
387.588	884.69
387.813	866.69
388.038	863.69
388.263	865.69
388.488	897.69
388.713	890.69
388.938	848.69
389.163	835.69
389.387	855.69
389.612	870.69
389.837	861.69
390.062	864.69
390.287	854.69
390.512	851.69
390.736	850.69
390.961	877.69
391.186	905.69
391.411	908.69
391.636	955.69
391.86	982.69
392.085	987.69
392.31	945.69
392.534	933.69
392.759	953.69
392.984	933.69
393.208	912.69
393.433	893.69
393.658	930.69
393.882	903.69
394.107	938.69
394.331	933.69
394.556	960.69
394.78	945.69
395.005	919.69
395.229	937.69
395.454	933.69
395.678	997.69
395.903	963.69
396.127	962.69
396.352	940.69
396.576	921.69
396.801	897.69
397.025	930.69
397.249	950.69
397.474	947.69
397.698	986.69
397.922	982.69
398.147	971.69
398.371	1009.69
398.595	1036.69
398.82	1094.69
399.044	1151.69
399.268	1262.69
399.492	1455.69
399.717	1656.69
399.941	1684.69
400.165	1496.69
400.389	1344.69
400.613	1246.69
400.837	1161.69
401.062	1137.69
401.286	1131.69
401.51	1076.69
401.734	1099.69
401.958	1096.69
402.182	1113.69
402.406	1135.69
402.63	1121.69
402.854	1145.69
403.078	1153.69
403.302	1194.69
403.526	1212.69
403.75	1274.69
403.974	1241.69
404.198	1246.69
404.422	1259.69
404.645	1242.69
404.869	1227.69
405.093	1248.69
405.317	1210.69
405.541	1221.69
405.765	1197.69
405.988	1215.69
406.212	1241.69
406.436	1218.69
406.66	1219.69
406.883	1269.69
407.107	1285.69
407.331	1392.69
407.555	1427.69
407.778	1380.69
408.002	1384.69
408.226	1360.69
408.449	1304.69
408.673	1267.69
408.896	1242.69
409.12	1254.69
409.344	1221.69
409.567	1243.69
409.791	1242.69
410.014	1243.69
410.238	1217.69
410.461	1234.69
410.685	1196.69
410.908	1186.69
411.132	1175.69
411.355	1108.69
411.578	1156.69
411.802	1133.69
412.025	1167.69
412.249	1171.69
412.472	1154.69
412.695	1132.69
412.919	1105.69
413.142	1086.69
413.365	1054.69
413.589	1105.69
413.812	1068.69
414.035	1084.69
414.258	1075.69
414.482	1123.69
414.705	1127.69
414.928	1119.69
415.151	1095.69
415.374	1097.69
415.597	1095.69
415.821	1097.69
416.044	1088.69
416.267	1059.69
416.49	1059.69
416.713	1046.69
416.936	1096.69
417.159	1080.69
417.382	1079.69
417.605	1067.69
417.828	1087.69
418.051	1100.69
418.274	1093.69
418.497	1070.69
418.72	1127.69
418.943	1107.69
419.166	1169.69
419.389	1272.69
419.611	1240.69
419.834	1181.69
420.057	1154.69
420.28	1120.69
420.503	1088.69
420.726	1061.69
420.948	1038.69
421.171	1076.69
421.394	1085.69
421.617	1126.69
421.839	1081.69
422.062	1105.69
422.285	1108.69
422.507	1114.69
422.73	1092.69
422.953	1132.69
423.175	1146.69
423.398	1128.69
423.621	1138.69
423.843	1128.69
424.066	1150.69
424.288	1162.69
424.511	1166.69
424.733	1145.69
424.956	1122.69
425.178	1100.69
425.401	1124.69
425.623	1111.69
425.846	1099.69
426.068	1075.69
426.291	1049.69
426.513	1055.69
426.735	1029.69
426.958	1012.69
427.18	1017.69
427.402	1027.69
427.625	990.69
427.847	985.69
428.069	977.69
428.292	995.69
428.514	958.69
428.736	964.69
428.958	977.69
429.181	971.69
429.403	935.69
429.625	943.69
429.847	965.69
430.069	962.69
430.292	970.69
430.514	926.69
430.736	948.69
430.958	929.69
431.18	963.69
431.402	956.69
431.624	991.69
431.846	1001.69
432.068	1012.69
432.29	1012.69
432.512	1006.69
432.734	963.69
432.956	947.69
433.178	967.69
433.4	970.69
433.622	1008.69
433.844	971.69
434.066	995.69
434.287	1012.69
434.509	1011.69
434.731	1054.69
434.953	1090.69
435.175	1080.69
435.397	1112.69
435.618	1064.69
435.84	1037.69
436.062	996.69
436.284	989.69
436.505	985.69
436.727	983.69
436.949	978.69
437.17	1001.69
437.392	969.69
437.614	952.69
437.835	931.69
438.057	957.69
438.278	915.69
438.5	956.69
438.721	962.69
438.943	963.69
439.165	930.69
439.386	964.69
439.608	967.69
439.829	972.69
440.05	1001.69
440.272	983.69
440.493	1001.69
440.715	1016.69
440.936	999.69
441.158	1031.69
441.379	1046.69
441.6	1096.69
441.822	1143.69
442.043	1159.69
442.264	1092.69
442.486	1089.69
442.707	1089.69
442.928	1060.69
443.149	1092.69
443.371	1082.69
443.592	1088.69
443.813	1092.69
444.034	1112.69
444.255	1156.69
444.476	1198.69
444.698	1290.69
444.919	1308.69
445.14	1419.69
445.361	1289.69
445.582	1185.69
445.803	1088.69
446.024	1081.69
446.245	1067.69
446.466	1044.69
446.687	1009.69
446.908	1025.69
447.129	984.69
447.35	974.69
447.571	978.69
447.792	920.69
448.013	955.69
448.234	937.69
448.455	917.69
448.675	929.69
448.896	944.69
449.117	917.69
449.338	932.69
449.559	898.69
449.779	861.69
450	881.69
450.221	893.69
450.442	925.69
450.662	922.69
450.883	956.69
451.104	963.69
451.324	923.69
451.545	928.69
451.766	929.69
451.986	890.69
452.207	901.69
452.428	924.69
452.648	899.69
452.869	887.69
453.089	859.69
453.31	903.69
453.53	887.69
453.751	868.69
453.971	854.69
454.192	868.69
454.412	848.69
454.633	851.69
454.853	879.69
455.073	839.69
455.294	879.69
455.514	863.69
455.734	853.69
455.955	826.69
456.175	820.69
456.395	825.69
456.616	857.69
456.836	860.69
457.056	852.69
457.276	824.69
457.497	848.69
457.717	851.69
457.937	850.69
458.157	866.69
458.377	879.69
458.598	915.69
458.818	936.69
459.038	950.69
459.258	949.69
459.478	965.69
459.698	1044.69
459.918	1023.69
460.138	1090.69
460.358	1120.69
460.578	1174.69
460.798	1194.69
461.018	1199.69
461.238	1167.69
461.458	1157.69
461.678	1151.69
461.898	1197.69
462.118	1195.69
462.338	1245.69
462.558	1284.69
462.777	1351.69
462.997	1427.69
463.217	1538.69
463.437	1572.69
463.657	1467.69
463.876	1369.69
464.096	1381.69
464.316	1382.69
464.536	1362.69
464.755	1333.69
464.975	1283.69
465.195	1236.69
465.414	1128.69
465.634	1101.69
465.854	1045.69
466.073	1023.69
466.293	1022.69
466.512	982.69
466.732	947.69
466.951	945.69
467.171	980.69
467.391	952.69
467.61	952.69
467.829	946.69
468.049	956.69
468.268	940.69
468.488	927.69
468.707	917.69
468.927	916.69
469.146	907.69
469.365	923.69
469.585	934.69
469.804	938.69
470.023	933.69
470.243	957.69
470.462	997.69
470.681	996.69
470.901	995.69
471.12	969.69
471.339	958.69
471.558	927.69
471.777	936.69
471.997	891.69
472.216	881.69
472.435	920.69
472.654	887.69
472.873	899.69
473.092	885.69
473.311	876.69
473.53	889.69
473.749	872.69
473.968	879.69
474.187	879.69
474.406	906.69
474.625	897.69
474.844	888.69
475.063	885.69
475.282	911.69
475.501	898.69
475.72	901.69
475.939	918.69
476.158	904.69
476.377	949.69
476.596	924.69
476.814	956.69
477.033	941.69
477.252	940.69
477.471	977.69
477.69	1012.69
477.908	1059.69
478.127	1091.69
478.346	1090.69
478.564	1100.69
478.783	1104.69
479.002	1131.69
479.22	1122.69
479.439	1142.69
479.658	1133.69
479.876	1107.69
480.095	1121.69
480.313	1188.69
480.532	1214.69
480.751	1219.69
480.969	1144.69
481.188	1137.69
481.406	1098.69
481.624	1072.69
481.843	1059.69
482.061	1017.69
482.28	1009.69
482.498	1005.69
482.717	1025.69
482.935	1009.69
483.153	1019.69
483.372	1019.69
483.59	1060.69
483.808	1027.69
484.027	1009.69
484.245	1058.69
484.463	1035.69
484.681	1030.69
484.9	1064.69
485.118	1063.69
485.336	1071.69
485.554	1073.69
485.772	1098.69
485.99	1067.69
486.209	1091.69
486.427	1120.69
486.645	1118.69
486.863	1104.69
487.081	1077.69
487.299	1072.69
487.517	1095.69
487.735	1053.69
487.953	1096.69
488.171	1079.69
488.389	1055.69
488.607	1038.69
488.825	1067.69
489.043	1042.69
489.261	1077.69
489.479	1058.69
489.696	1083.69
489.914	1076.69
490.132	1034.69
490.35	1109.69
490.568	1083.69
490.786	1083.69
491.003	1112.69
491.221	1083.69
491.439	1075.69
491.657	1063.69
491.874	1092.69
492.092	1119.69
492.31	1091.69
492.527	1114.69
492.745	1092.69
492.963	1119.69
493.18	1091.69
493.398	1103.69
493.615	1116.69
493.833	1136.69
494.05	1128.69
494.268	1159.69
494.485	1139.69
494.703	1135.69
494.92	1140.69
495.138	1131.69
495.355	1110.69
495.573	1132.69
495.79	1133.69
496.008	1195.69
496.225	1175.69
496.442	1159.69
496.66	1159.69
496.877	1196.69
497.094	1230.69
497.312	1210.69
497.529	1254.69
497.746	1302.69
497.963	1345.69
498.181	1396.69
498.398	1436.69
498.615	1522.69
498.832	1575.69
499.049	1758.69
499.267	1873.69
499.484	2078.69
499.701	2249.69
499.918	2517.69
500.135	2784.69
500.352	3179.69
500.569	3349.69
500.786	3332.69
501.003	3156.69
501.22	2883.69
501.437	2563.69
501.654	2205.69
501.871	2023.69
502.088	1895.69
502.305	1714.69
502.522	1636.69
502.739	1540.69
502.956	1492.69
503.172	1412.69
503.389	1430.69
503.606	1341.69
503.823	1295.69
504.04	1304.69
504.256	1323.69
504.473	1339.69
504.69	1395.69
504.907	1314.69
505.123	1263.69
505.34	1219.69
505.557	1153.69
505.773	1124.69
505.99	1099.69
506.207	1063.69
506.423	1075.69
506.64	1053.69
506.856	1031.69
507.073	1039.69
507.289	1013.69
507.506	1004.69
507.722	1028.69
507.939	982.69
508.155	990.69
508.372	971.69
508.588	953.69
508.805	959.69
509.021	941.69
509.238	956.69
509.454	919.69
509.67	948.69
509.887	913.69
510.103	963.69
510.319	933.69
510.536	924.69
510.752	911.69
510.968	948.69
511.184	899.69
511.401	938.69
511.617	924.69
511.833	950.69
512.049	909.69
512.265	943.69
512.481	911.69
512.698	918.69
512.914	887.69
513.13	894.69
513.346	895.69
513.562	906.69
513.778	936.69
513.994	911.69
514.21	902.69
514.426	933.69
514.642	928.69
514.858	939.69
515.074	954.69
515.29	987.69
515.506	943.69
515.721	966.69
515.937	972.69
516.153	989.69
516.369	994.69
516.585	1071.69
516.801	1075.69
517.016	1130.69
517.232	1163.69
517.448	1213.69
517.664	1242.69
517.879	1292.69
518.095	1290.69
518.311	1250.69
518.527	1221.69
518.742	1159.69
518.958	1114.69
519.173	1053.69
519.389	1046.69
519.605	1013.69
519.82	988.69
520.036	971.69
520.251	930.69
520.467	955.69
520.682	928.69
520.898	914.69
521.113	930.69
521.329	892.69
521.544	899.69
521.76	864.69
521.975	909.69
522.19	889.69
522.406	859.69
522.621	842.69
522.836	851.69
523.052	871.69
523.267	870.69
523.482	855.69
523.698	848.69
523.913	861.69
524.128	863.69
524.343	854.69
524.559	825.69
524.774	836.69
524.989	863.69
525.204	844.69
525.419	845.69
525.634	829.69
525.849	835.69
526.064	838.69
526.28	827.69
526.495	837.69
526.71	840.69
526.925	851.69
527.14	829.69
527.355	836.69
527.57	840.69
527.785	841.69
527.999	839.69
528.214	832.69
528.429	846.69
528.644	835.69
528.859	826.69
529.074	816.69
529.289	827.69
529.503	828.69
529.718	825.69
529.933	833.69
530.148	828.69
530.363	828.69
530.577	818.69
530.792	794.69
531.007	835.69
531.221	841.69
531.436	839.69
531.651	840.69
531.865	821.69
532.08	858.69
532.295	844.69
532.509	837.69
532.724	845.69
532.938	840.69
533.153	811.69
533.367	836.69
533.582	818.69
533.796	830.69
534.011	797.69
534.225	837.69
534.44	805.69
534.654	829.69
534.868	808.69
535.083	811.69
535.297	807.69
535.511	813.69
535.726	793.69
535.94	772.69
536.154	803.69
536.369	803.69
536.583	774.69
536.797	795.69
537.011	781.69
537.225	769.69
537.44	764.69
537.654	771.69
537.868	760.69
538.082	733.69
538.296	749.69
538.51	762.69
538.724	773.69
538.938	737.69
539.153	744.69
539.367	744.69
539.581	744.69
539.795	748.69
540.009	752.69
540.222	738.69
540.436	763.69
540.65	771.69
540.864	730.69
541.078	732.69
541.292	752.69
541.506	763.69
541.72	771.69
541.934	748.69
542.147	758.69
542.361	756.69
542.575	755.69
542.789	743.69
543.002	737.69
543.216	740.69
543.43	720.69
543.644	728.69
543.857	715.69
544.071	714.69
544.285	742.69
544.498	732.69
544.712	730.69
544.925	741.69
545.139	755.69
545.352	743.69
545.566	777.69
545.779	767.69
545.993	774.69
546.206	749.69
546.42	732.69
546.633	775.69
546.847	771.69
547.06	772.69
547.274	753.69
547.487	753.69
547.7	747.69
547.914	772.69
548.127	785.69
548.34	769.69
548.554	743.69
548.767	760.69
548.98	789.69
549.193	767.69
549.407	787.69
549.62	780.69
549.833	786.69
550.046	769.69
550.259	755.69
550.473	780.69
550.686	737.69
550.899	755.69
551.112	757.69
551.325	736.69
551.538	775.69
551.751	765.69
551.964	760.69
552.177	769.69
552.39	767.69
552.603	776.69
552.816	800.69
553.029	823.69
553.242	847.69
553.455	835.69
553.667	847.69
553.88	825.69
554.093	804.69
554.306	794.69
554.519	753.69
554.732	758.69
554.944	761.69
555.157	746.69
555.37	733.69
555.583	723.69
555.795	701.69
556.008	703.69
556.221	707.69
556.433	699.69
556.646	688.69
556.859	683.69
557.071	677.69
557.284	661.69
557.496	656.69
557.709	671.69
557.921	640.69
558.134	658.69
558.346	650.69
558.559	653.69
558.771	651.69
558.984	672.69
559.196	616.69
559.409	641.69
559.621	645.69
559.833	649.69
560.046	646.69
560.258	613.69
560.47	648.69
560.683	642.69
560.895	625.69
561.107	635.69
561.32	639.69
561.532	652.69
561.744	620.69
561.956	621.69
562.168	641.69
562.381	637.69
562.593	644.69
562.805	638.69
563.017	621.69
563.229	642.69
563.441	661.69
563.653	659.69
563.865	655.69
564.077	653.69
564.289	657.69
564.501	651.69
564.713	663.69
564.925	697.69
565.137	708.69
565.349	740.69
565.561	754.69
565.773	756.69
565.985	807.69
566.197	867.69
566.408	880.69
566.62	935.69
566.832	1041.69
567.044	1047.69
567.255	1074.69
567.467	1120.69
567.679	1106.69
567.891	1204.69
568.102	1203.69
568.314	1140.69
568.526	1051.69
568.737	952.69
568.949	893.69
569.161	835.69
569.372	771.69
569.584	728.69
569.795	727.69
570.007	687.69
570.218	663.69
570.43	650.69
570.641	647.69
570.853	669.69
571.064	665.69
571.276	672.69
571.487	640.69
571.698	629.69
571.91	629.69
572.121	589.69
572.333	570.69
572.544	584.69
572.755	581.69
572.966	576.69
573.178	553.69
573.389	534.69
573.6	538.69
573.811	545.69
574.023	519.69
574.234	534.69
574.445	533.69
574.656	533.69
574.867	531.69
575.078	533.69
575.289	539.69
575.501	529.69
575.712	514.69
575.923	497.69
576.134	500.69
576.345	499.69
576.556	504.69
576.767	492.69
576.978	506.69
577.188	480.69
577.399	495.69
577.61	496.69
577.821	480.69
578.032	480.69
578.243	497.69
578.454	478.69
578.665	471.69
578.875	470.69
579.086	477.69
579.297	493.69
579.508	471.69
579.718	465.69
579.929	475.69
580.14	466.69
580.35	470.69
580.561	483.69
580.772	469.69
580.982	449.69
581.193	459.69
581.403	471.69
581.614	469.69
581.825	433.69
582.035	456.69
582.246	450.69
582.456	434.69
582.667	443.69
582.877	435.69
583.087	433.69
583.298	464.69
583.508	452.69
583.719	465.69
583.929	441.69
584.139	453.69
584.35	435.69
584.56	445.69
584.77	448.69
584.981	431.69
585.191	447.69
585.401	425.69
585.611	422.69
585.821	446.69
586.032	436.69
586.242	443.69
586.452	434.69
586.662	439.69
586.872	428.69
587.082	442.69
587.292	434.69
587.502	418.69
587.713	413.69
587.923	426.69
588.133	414.69
588.343	428.69
588.553	412.69
588.762	407.69
588.972	443.69
589.182	451.69
589.392	430.69
589.602	425.69
589.812	421.69
590.022	425.69
590.232	435.69
590.441	433.69
590.651	444.69
590.861	410.69
591.071	459.69
591.281	441.69
591.49	455.69
591.7	466.69
591.91	471.69
592.119	465.69
592.329	466.69
592.539	475.69
592.748	496.69
592.958	524.69
593.167	521.69
593.377	545.69
593.587	551.69
593.796	524.69
594.006	555.69
594.215	563.69
594.424	559.69
594.634	555.69
594.843	525.69
595.053	497.69
595.262	471.69
595.472	469.69
595.681	462.69
595.89	437.69
596.1	433.69
596.309	419.69
596.518	414.69
596.727	447.69
596.937	404.69
597.146	389.69
597.355	406.69
597.564	413.69
597.774	400.69
597.983	385.69
598.192	377.69
598.401	382.69
598.61	391.69
598.819	365.69
599.028	399.69
599.237	383.69
599.446	389.69
599.655	373.69
599.864	362.69
600.073	357.69
600.282	358.69
600.491	367.69
600.7	371.69
600.909	351.69
601.118	372.69
601.327	353.69
601.536	351.69
601.745	356.69
601.953	351.69
602.162	356.69
602.371	355.69
602.58	351.69
602.789	350.69
602.997	344.69
603.206	360.69
603.415	357.69
603.623	359.69
603.832	335.69
604.041	357.69
604.249	330.69
604.458	346.69
604.666	333.69
604.875	328.69
605.084	339.69
605.292	335.69
605.501	320.69
605.709	347.69
605.918	338.69
606.126	323.69
606.334	327.69
606.543	330.69
606.751	348.69
606.96	329.69
607.168	327.69
607.376	333.69
607.585	343.69
607.793	345.69
608.001	344.69
608.21	331.69
608.418	321.69
608.626	324.69
608.834	325.69
609.043	321.69
609.251	319.69
609.459	309.69
609.667	321.69
609.875	315.69
610.083	319.69
610.291	311.69
610.499	329.69
610.707	323.69
610.916	319.69
611.124	319.69
611.332	332.69
611.54	316.69
611.748	325.69
611.955	313.69
612.163	313.69
612.371	315.69
612.579	315.69
612.787	322.69
612.995	309.69
613.203	323.69
613.411	318.69
613.618	310.69
613.826	315.69
614.034	306.69
614.242	300.69
614.449	309.69
614.657	309.69
614.865	321.69
615.072	304.69
615.28	307.69
615.488	315.69
615.695	304.69
615.903	307.69
616.111	309.69
616.318	330.69
616.526	332.69
616.733	325.69
616.941	311.69
617.148	318.69
617.356	323.69
617.563	325.69
617.771	307.69
617.978	299.69
618.185	311.69
618.393	312.69
618.6	312.69
618.807	311.69
619.015	307.69
619.222	332.69
619.429	321.69
619.637	308.69
619.844	284.69
620.051	295.69
620.258	307.69
620.466	301.69
620.673	287.69
620.88	288.69
621.087	280.69
621.294	294.69
621.501	287.69
621.708	307.69
621.915	286.69
622.122	299.69
622.329	300.69
622.536	315.69
622.743	311.69
622.95	277.69
623.157	296.69
623.364	297.69
623.571	294.69
623.778	280.69
623.985	298.69
624.192	281.69
624.399	283.69
624.606	283.69
624.812	282.69
625.019	294.69
625.226	267.69
625.433	291.69
625.639	259.69
625.846	263.69
626.053	284.69
626.259	271.69
626.466	275.69
626.673	267.69
626.879	249.69
627.086	272.69
627.293	247.69
627.499	265.69
627.706	263.69
627.912	262.69
628.119	255.69
628.325	236.69
628.532	261.69
628.738	255.69
628.945	256.69
629.151	239.69
629.357	244.69
629.564	248.69
629.77	235.69
629.976	258.69
630.183	259.69
630.389	260.69
630.595	264.69
630.802	228.69
631.008	264.69
631.214	246.69
631.42	268.69
631.627	244.69
631.833	244.69
632.039	228.69
632.245	228.69
632.451	232.69
632.657	230.69
632.863	236.69
633.069	235.69
633.275	230.69
633.481	247.69
633.688	231.69
633.893	230.69
634.099	242.69
634.305	224.69
634.511	240.69
634.717	219.69
634.923	230.69
635.129	209.69
635.335	225.69
635.541	228.69
635.747	236.69
635.952	229.69
636.158	227.69
636.364	211.69
636.57	231.69
636.775	239.69
636.981	230.69
637.187	232.69
637.392	227.69
637.598	224.69
637.804	230.69
638.009	224.69
638.215	218.69
638.421	217.69
638.626	218.69
638.832	215.69
639.037	217.69
639.243	220.69
639.448	220.69
639.654	221.69
639.859	213.69
640.065	218.69
640.27	216.69
640.475	209.69
640.681	223.69
640.886	213.69
641.091	213.69
641.297	209.69
641.502	213.69
641.707	223.69
641.913	209.69
642.118	219.69
642.323	244.69
642.528	220.69
642.733	214.69
642.939	216.69
643.144	205.69
643.349	205.69
643.554	199.69
643.759	201.69
643.964	211.69
644.169	200.69
644.374	203.69
644.579	214.69
644.784	201.69
644.989	197.69
645.194	196.69
645.399	220.69
645.604	211.69
645.809	201.69
646.014	212.69
646.219	216.69
646.423	215.69
646.628	204.69
646.833	218.69
647.038	208.69
647.243	216.69
647.447	203.69
647.652	223.69
647.857	218.69
648.062	227.69
648.266	225.69
648.471	223.69
648.676	220.69
648.88	212.69
649.085	224.69
649.289	207.69
649.494	205.69
649.698	207.69
649.903	203.69
650.107	192.69
650.312	211.69
650.516	202.69
650.721	192.69
650.925	181.69
651.13	173.69
651.334	198.69
651.539	203.69
651.743	194.69
651.947	187.69
652.152	189.69
652.356	175.69
652.56	188.69
652.764	170.69
652.969	156.69
653.173	178.69
653.377	176.69
653.581	160.69
653.785	169.69
653.99	186.69
654.194	167.69
654.398	165.69
654.602	161.69
654.806	153.69
655.01	156.69
655.214	162.69
655.418	154.69
655.622	153.69
655.826	151.69
656.03	168.69
656.234	167.69
656.438	158.69
656.642	156.69
656.846	156.69
657.049	148.69
657.253	145.69
657.457	141.69
657.661	137.69
657.865	134.69
658.068	112.69
658.272	119.69
658.476	127.69
658.68	114.69
658.883	108.69
659.087	117.69
659.291	106.69
659.494	109.69
659.698	101.69
659.901	98.69
660.105	92.69
660.309	93.69
660.512	100.69
660.716	88.69
660.919	91.69
661.123	91.69
661.326	90.69
661.53	89.69
661.733	77.69
661.936	95.69
662.14	90.69
662.343	91.69
662.546	84.69
662.75	75.69
662.953	74.69
663.156	87.69
663.36	100.69
663.563	86.69
663.766	81.69
663.969	82.69
664.173	73.69
664.376	81.69
664.579	71.69
664.782	68.69
664.985	87.69
665.188	66.69
665.391	87.69
665.594	76.69
665.797	75.69
666	85.69
666.203	64.69
666.406	75.69
666.609	70.69
666.812	81.69
667.015	75.69
667.218	80.69
667.421	72.69
667.624	84.69
667.827	92.69
668.03	83.69
668.232	74.69
668.435	72.69
668.638	76.69
668.841	90.69
669.043	73.69
669.246	93.69
669.449	90.69
669.651	74.69
669.854	79.69
670.057	82.69
670.259	80.69
670.462	76.69
670.665	68.69
670.867	79.69
671.07	75.69
671.272	82.69
671.475	91.69
671.677	94.69
671.88	83.69
672.082	90.69
672.284	78.69
672.487	77.69
672.689	85.69
672.892	84.69
