Data from NiCl2@0.0625M.TitratingCurve.Agarose3%dH2O.NegLispCup.LampEnergy10.LIBS07252019_HRD10591_18-35-40-577.txt Node
Date: Thu Jul 25 18:35:40 EDT 2019
User: cochatt
Spectrometer: HR+D1059
Trigger mode: 1
Integration Time (sec): 1.000000E-1
Scans to average: 1
Electric dark correction enabled: true
Nonlinearity correction enabled: false
Boxcar width: 0
XAxis mode: Wavelengths
Number of Pixels in Spectrum: 2048
>>>>>Begin Spectral Data<<<<<
223.165	-9.12
223.4	-9.12
223.635	-9.12
223.869	-16.12
224.104	-17.12
224.338	-11.12
224.573	-12.12
224.808	-7.12
225.042	-12.12
225.277	-5.12
225.511	-11.12
225.746	1.88
225.98	8.88
226.215	1.88
226.449	24.88
226.683	20.88
226.918	20.88
227.152	21.88
227.387	23.88
227.621	34.88
227.856	41.88
228.09	51.88
228.324	50.88
228.559	35.88
228.793	74.88
229.027	135.88
229.262	124.88
229.496	156.88
229.73	148.88
229.964	155.88
230.199	155.88
230.433	163.88
230.667	166.88
230.901	175.88
231.136	171.88
231.37	169.88
231.604	193.88
231.838	162.88
232.072	177.88
232.306	202.88
232.541	191.88
232.775	190.88
233.009	184.88
233.243	184.88
233.477	191.88
233.711	204.88
233.945	197.88
234.179	185.88
234.413	184.88
234.647	199.88
234.881	200.88
235.115	205.88
235.349	201.88
235.583	197.88
235.817	193.88
236.051	191.88
236.285	184.88
236.519	221.88
236.753	207.88
236.987	203.88
237.221	212.88
237.455	209.88
237.689	217.88
237.922	229.88
238.156	216.88
238.39	224.88
238.624	228.88
238.858	220.88
239.091	233.88
239.325	228.88
239.559	235.88
239.793	232.88
240.027	242.88
240.26	225.88
240.494	239.88
240.728	234.88
240.961	252.88
241.195	254.88
241.429	256.88
241.662	268.88
241.896	259.88
242.13	274.88
242.363	268.88
242.597	263.88
242.83	259.88
243.064	276.88
243.298	273.88
243.531	282.88
243.765	279.88
243.998	290.88
244.232	293.88
244.465	285.88
244.699	297.88
244.932	295.88
245.166	307.88
245.399	293.88
245.633	278.88
245.866	305.88
246.099	319.88
246.333	309.88
246.566	320.88
246.8	326.88
247.033	308.88
247.266	320.88
247.5	310.88
247.733	326.88
247.966	329.88
248.2	336.88
248.433	320.88
248.666	336.88
248.899	347.88
249.133	339.88
249.366	329.88
249.599	357.88
249.832	345.88
250.066	348.88
250.299	330.88
250.532	335.88
250.765	370.88
250.998	367.88
251.231	356.88
251.465	386.88
251.698	368.88
251.931	363.88
252.164	368.88
252.397	382.88
252.63	376.88
252.863	378.88
253.096	380.88
253.329	410.88
253.562	389.88
253.795	392.88
254.028	394.88
254.261	396.88
254.494	407.88
254.727	407.88
254.96	401.88
255.193	400.88
255.426	400.88
255.659	402.88
255.892	432.88
256.124	409.88
256.357	410.88
256.59	409.88
256.823	428.88
257.056	424.88
257.289	430.88
257.521	426.88
257.754	438.88
257.987	422.88
258.22	423.88
258.452	443.88
258.685	456.88
258.918	439.88
259.151	434.88
259.383	443.88
259.616	427.88
259.849	431.88
260.081	459.88
260.314	424.88
260.547	451.88
260.779	471.88
261.012	449.88
261.244	475.88
261.477	480.88
261.71	472.88
261.942	489.88
262.175	504.88
262.407	475.88
262.64	481.88
262.872	475.88
263.105	496.88
263.337	501.88
263.57	484.88
263.802	479.88
264.035	491.88
264.267	480.88
264.499	501.88
264.732	501.88
264.964	483.88
265.197	504.88
265.429	511.88
265.661	514.88
265.894	538.88
266.126	512.88
266.358	516.88
266.591	533.88
266.823	516.88
267.055	536.88
267.287	542.88
267.52	518.88
267.752	551.88
267.984	542.88
268.216	539.88
268.448	558.88
268.681	546.88
268.913	548.88
269.145	544.88
269.377	550.88
269.609	546.88
269.841	551.88
270.073	558.88
270.306	548.88
270.538	548.88
270.77	533.88
271.002	561.88
271.234	561.88
271.466	566.88
271.698	570.88
271.93	586.88
272.162	585.88
272.394	564.88
272.626	557.88
272.858	583.88
273.09	589.88
273.322	596.88
273.553	578.88
273.785	602.88
274.017	587.88
274.249	588.88
274.481	590.88
274.713	613.88
274.945	619.88
275.176	597.88
275.408	620.88
275.64	599.88
275.872	608.88
276.104	622.88
276.335	628.88
276.567	622.88
276.799	603.88
277.031	624.88
277.262	626.88
277.494	629.88
277.726	617.88
277.957	634.88
278.189	644.88
278.421	651.88
278.652	638.88
278.884	632.88
279.115	644.88
279.347	640.88
279.579	634.88
279.81	654.88
280.042	667.88
280.273	658.88
280.505	660.88
280.736	661.88
280.968	676.88
281.199	667.88
281.431	667.88
281.662	696.88
281.894	697.88
282.125	679.88
282.356	694.88
282.588	697.88
282.819	700.88
283.051	699.88
283.282	699.88
283.513	719.88
283.745	709.88
283.976	697.88
284.207	700.88
284.439	714.88
284.67	711.88
284.901	729.88
285.132	727.88
285.364	736.88
285.595	722.88
285.826	723.88
286.057	753.88
286.288	738.88
286.52	736.88
286.751	733.88
286.982	735.88
287.213	759.88
287.444	761.88
287.675	728.88
287.906	746.88
288.138	758.88
288.369	729.88
288.6	768.88
288.831	762.88
289.062	754.88
289.293	730.88
289.524	780.88
289.755	752.88
289.986	751.88
290.217	798.88
290.448	812.88
290.679	781.88
290.91	782.88
291.141	753.88
291.371	766.88
291.602	776.88
291.833	790.88
292.064	775.88
292.295	776.88
292.526	793.88
292.757	761.88
292.987	760.88
293.218	763.88
293.449	794.88
293.68	781.88
293.91	767.88
294.141	760.88
294.372	783.88
294.603	771.88
294.833	791.88
295.064	795.88
295.295	769.88
295.525	757.88
295.756	789.88
295.987	782.88
296.217	800.88
296.448	783.88
296.679	814.88
296.909	836.88
297.14	817.88
297.37	800.88
297.601	839.88
297.831	843.88
298.062	833.88
298.292	831.88
298.523	844.88
298.753	846.88
298.984	826.88
299.214	825.88
299.445	821.88
299.675	825.88
299.905	823.88
300.136	848.88
300.366	854.88
300.597	871.88
300.827	889.88
301.057	862.88
301.288	859.88
301.518	890.88
301.748	885.88
301.979	907.88
302.209	899.88
302.439	900.88
302.669	870.88
302.9	883.88
303.13	882.88
303.36	894.88
303.59	874.88
303.82	863.88
304.051	882.88
304.281	873.88
304.511	868.88
304.741	920.88
304.971	899.88
305.201	886.88
305.431	879.88
305.661	836.88
305.891	883.88
306.121	844.88
306.352	853.88
306.582	875.88
306.812	852.88
307.042	869.88
307.272	873.88
307.502	869.88
307.731	868.88
307.961	873.88
308.191	851.88
308.421	858.88
308.651	880.88
308.881	871.88
309.111	849.88
309.341	869.88
309.571	878.88
309.8	892.88
310.03	883.88
310.26	887.88
310.49	895.88
310.72	884.88
310.949	906.88
311.179	905.88
311.409	908.88
311.639	899.88
311.868	894.88
312.098	909.88
312.328	923.88
312.557	908.88
312.787	913.88
313.017	923.88
313.246	940.88
313.476	926.88
313.706	930.88
313.935	945.88
314.165	946.88
314.394	929.88
314.624	934.88
314.853	939.88
315.083	937.88
315.312	943.88
315.542	950.88
315.771	903.88
316.001	934.88
316.23	907.88
316.46	930.88
316.689	932.88
316.919	923.88
317.148	926.88
317.377	919.88
317.607	926.88
317.836	910.88
318.065	928.88
318.295	948.88
318.524	932.88
318.753	926.88
318.983	938.88
319.212	930.88
319.441	932.88
319.67	935.88
319.9	909.88
320.129	942.88
320.358	930.88
320.587	910.88
320.816	928.88
321.046	946.88
321.275	920.88
321.504	928.88
321.733	931.88
321.962	949.88
322.191	950.88
322.42	954.88
322.649	959.88
322.878	956.88
323.108	933.88
323.337	962.88
323.566	971.88
323.795	938.88
324.024	972.88
324.253	975.88
324.482	985.88
324.71	984.88
324.939	974.88
325.168	977.88
325.397	965.88
325.626	1002.88
325.855	994.88
326.084	1044.88
326.313	1025.88
326.542	1026.88
326.77	1024.88
326.999	998.88
327.228	980.88
327.457	999.88
327.686	1027.88
327.914	1040.88
328.143	1033.88
328.372	1004.88
328.6	991.88
328.829	1010.88
329.058	1000.88
329.287	1030.88
329.515	1028.88
329.744	1017.88
329.972	1040.88
330.201	1030.88
330.43	1054.88
330.658	1052.88
330.887	1065.88
331.115	1068.88
331.344	1061.88
331.572	1075.88
331.801	1106.88
332.03	1136.88
332.258	1150.88
332.486	1163.88
332.715	1178.88
332.943	1209.88
333.172	1203.88
333.4	1242.88
333.629	1254.88
333.857	1317.88
334.085	1291.88
334.314	1318.88
334.542	1264.88
334.771	1243.88
334.999	1249.88
335.227	1247.88
335.455	1258.88
335.684	1265.88
335.912	1254.88
336.14	1182.88
336.369	1228.88
336.597	1222.88
336.825	1208.88
337.053	1174.88
337.281	1158.88
337.51	1129.88
337.738	1170.88
337.966	1131.88
338.194	1107.88
338.422	1106.88
338.65	1124.88
338.878	1135.88
339.106	1102.88
339.334	1120.88
339.562	1093.88
339.79	1061.88
340.018	1075.88
340.246	1114.88
340.474	1068.88
340.702	1050.88
340.93	1106.88
341.158	1056.88
341.386	1058.88
341.614	1048.88
341.842	1071.88
342.07	1055.88
342.298	1058.88
342.526	1040.88
342.754	1029.88
342.981	1085.88
343.209	1074.88
343.437	1126.88
343.665	1184.88
343.893	1176.88
344.12	1254.88
344.348	1234.88
344.576	1165.88
344.804	1152.88
345.031	1117.88
345.259	1108.88
345.487	1087.88
345.714	1051.88
345.942	1059.88
346.17	1028.88
346.397	1039.88
346.625	1047.88
346.853	1019.88
347.08	1034.88
347.308	1024.88
347.535	1033.88
347.763	1034.88
347.99	1016.88
348.218	1013.88
348.445	1027.88
348.673	990.88
348.9	1006.88
349.128	1012.88
349.355	1006.88
349.583	992.88
349.81	1023.88
350.037	984.88
350.265	988.88
350.492	1004.88
350.72	966.88
350.947	951.88
351.174	1003.88
351.402	982.88
351.629	958.88
351.856	979.88
352.083	961.88
352.311	968.88
352.538	997.88
352.765	1026.88
352.992	972.88
353.22	998.88
353.447	977.88
353.674	960.88
353.901	979.88
354.128	979.88
354.355	975.88
354.583	975.88
354.81	1007.88
355.037	976.88
355.264	973.88
355.491	1006.88
355.718	1002.88
355.945	977.88
356.172	977.88
356.399	999.88
356.626	974.88
356.853	949.88
357.08	991.88
357.307	991.88
357.534	991.88
357.761	985.88
357.988	985.88
358.215	1012.88
358.441	973.88
358.668	954.88
358.895	954.88
359.122	973.88
359.349	992.88
359.576	948.88
359.802	982.88
360.029	978.88
360.256	981.88
360.483	979.88
360.709	990.88
360.936	981.88
361.163	980.88
361.39	972.88
361.616	998.88
361.843	993.88
362.07	999.88
362.296	999.88
362.523	975.88
362.749	1015.88
362.976	1022.88
363.203	983.88
363.429	948.88
363.656	960.88
363.882	973.88
364.109	981.88
364.335	997.88
364.562	968.88
364.788	966.88
365.015	986.88
365.241	960.88
365.468	967.88
365.694	982.88
365.92	984.88
366.147	950.88
366.373	994.88
366.599	1008.88
366.826	982.88
367.052	979.88
367.278	991.88
367.505	1002.88
367.731	987.88
367.957	1018.88
368.184	986.88
368.41	995.88
368.636	1010.88
368.862	1036.88
369.089	1015.88
369.315	1011.88
369.541	1008.88
369.767	1022.88
369.993	1034.88
370.219	1027.88
370.445	994.88
370.672	1031.88
370.898	1048.88
371.124	1035.88
371.35	1080.88
371.576	1087.88
371.802	1088.88
372.028	1091.88
372.254	1072.88
372.48	1095.88
372.706	1084.88
372.932	1086.88
373.158	1075.88
373.384	1091.88
373.61	1055.88
373.835	1072.88
374.061	1075.88
374.287	1114.88
374.513	1130.88
374.739	1133.88
374.965	1130.88
375.191	1176.88
375.416	1173.88
375.642	1153.88
375.868	1084.88
376.094	1119.88
376.319	1080.88
376.545	1081.88
376.771	1070.88
376.997	1072.88
377.222	1082.88
377.448	1059.88
377.674	1088.88
377.899	1080.88
378.125	1070.88
378.35	1030.88
378.576	1038.88
378.802	1072.88
379.027	1101.88
379.253	1072.88
379.478	1059.88
379.704	1067.88
379.929	1065.88
380.155	1042.88
380.38	1076.88
380.606	1080.88
380.831	1045.88
381.057	1062.88
381.282	1067.88
381.507	1044.88
381.733	1073.88
381.958	1079.88
382.184	1114.88
382.409	1106.88
382.634	1067.88
382.86	1084.88
383.085	1116.88
383.31	1148.88
383.535	1134.88
383.761	1154.88
383.986	1170.88
384.211	1151.88
384.436	1216.88
384.662	1228.88
384.887	1263.88
385.112	1218.88
385.337	1248.88
385.562	1264.88
385.787	1245.88
386.013	1278.88
386.238	1262.88
386.463	1279.88
386.688	1272.88
386.913	1223.88
387.138	1270.88
387.363	1255.88
387.588	1234.88
387.813	1247.88
388.038	1264.88
388.263	1274.88
388.488	1270.88
388.713	1270.88
388.938	1284.88
389.163	1259.88
389.387	1254.88
389.612	1232.88
389.837	1271.88
390.062	1253.88
390.287	1286.88
390.512	1256.88
390.736	1293.88
390.961	1318.88
391.186	1285.88
391.411	1296.88
391.636	1354.88
391.86	1365.88
392.085	1384.88
392.31	1399.88
392.534	1353.88
392.759	1376.88
392.984	1350.88
393.208	1333.88
393.433	1333.88
393.658	1332.88
393.882	1288.88
394.107	1305.88
394.331	1337.88
394.556	1328.88
394.78	1324.88
395.005	1364.88
395.229	1392.88
395.454	1411.88
395.678	1404.88
395.903	1407.88
396.127	1363.88
396.352	1359.88
396.576	1367.88
396.801	1336.88
397.025	1382.88
397.249	1371.88
397.474	1399.88
397.698	1424.88
397.922	1458.88
398.147	1415.88
398.371	1469.88
398.595	1471.88
398.82	1546.88
399.044	1664.88
399.268	1804.88
399.492	1980.88
399.717	2173.88
399.941	2175.88
400.165	1992.88
400.389	1856.88
400.613	1754.88
400.837	1676.88
401.062	1623.88
401.286	1594.88
401.51	1588.88
401.734	1594.88
401.958	1571.88
402.182	1604.88
402.406	1605.88
402.63	1601.88
402.854	1623.88
403.078	1646.88
403.302	1668.88
403.526	1687.88
403.75	1669.88
403.974	1744.88
404.198	1694.88
404.422	1746.88
404.645	1701.88
404.869	1694.88
405.093	1736.88
405.317	1718.88
405.541	1712.88
405.765	1696.88
405.988	1716.88
406.212	1728.88
406.436	1700.88
406.66	1794.88
406.883	1783.88
407.107	1857.88
407.331	1925.88
407.555	1990.88
407.778	2007.88
408.002	1926.88
408.226	1908.88
408.449	1851.88
408.673	1802.88
408.896	1764.88
409.12	1744.88
409.344	1705.88
409.567	1730.88
409.791	1755.88
410.014	1698.88
410.238	1724.88
410.461	1741.88
410.685	1688.88
410.908	1668.88
411.132	1662.88
411.355	1626.88
411.578	1637.88
411.802	1687.88
412.025	1665.88
412.249	1638.88
412.472	1655.88
412.695	1634.88
412.919	1574.88
413.142	1613.88
413.365	1629.88
413.589	1604.88
413.812	1527.88
414.035	1560.88
414.258	1557.88
414.482	1557.88
414.705	1560.88
414.928	1572.88
415.151	1546.88
415.374	1564.88
415.597	1542.88
415.821	1520.88
416.044	1541.88
416.267	1541.88
416.49	1506.88
416.713	1495.88
416.936	1546.88
417.159	1518.88
417.382	1500.88
417.605	1496.88
417.828	1478.88
418.051	1504.88
418.274	1540.88
418.497	1540.88
418.72	1554.88
418.943	1555.88
419.166	1602.88
419.389	1753.88
419.611	1720.88
419.834	1659.88
420.057	1601.88
420.28	1569.88
420.503	1520.88
420.726	1479.88
420.948	1460.88
421.171	1506.88
421.394	1500.88
421.617	1534.88
421.839	1508.88
422.062	1497.88
422.285	1510.88
422.507	1539.88
422.73	1540.88
422.953	1519.88
423.175	1562.88
423.398	1558.88
423.621	1536.88
423.843	1541.88
424.066	1620.88
424.288	1552.88
424.511	1531.88
424.733	1531.88
424.956	1496.88
425.178	1503.88
425.401	1513.88
425.623	1508.88
425.846	1484.88
426.068	1484.88
426.291	1441.88
426.513	1464.88
426.735	1442.88
426.958	1431.88
427.18	1435.88
427.402	1393.88
427.625	1406.88
427.847	1384.88
428.069	1400.88
428.292	1392.88
428.514	1361.88
428.736	1345.88
428.958	1398.88
429.181	1374.88
429.403	1352.88
429.625	1370.88
429.847	1354.88
430.069	1375.88
430.292	1386.88
430.514	1370.88
430.736	1372.88
430.958	1363.88
431.18	1402.88
431.402	1376.88
431.624	1357.88
431.846	1394.88
432.068	1406.88
432.29	1416.88
432.512	1386.88
432.734	1385.88
432.956	1372.88
433.178	1388.88
433.4	1394.88
433.622	1436.88
433.844	1438.88
434.066	1450.88
434.287	1457.88
434.509	1452.88
434.731	1531.88
434.953	1545.88
435.175	1537.88
435.397	1505.88
435.618	1457.88
435.84	1401.88
436.062	1397.88
436.284	1414.88
436.505	1395.88
436.727	1411.88
436.949	1390.88
437.17	1394.88
437.392	1365.88
437.614	1349.88
437.835	1299.88
438.057	1328.88
438.278	1312.88
438.5	1312.88
438.721	1342.88
438.943	1327.88
439.165	1332.88
439.386	1346.88
439.608	1326.88
439.829	1362.88
440.05	1381.88
440.272	1374.88
440.493	1367.88
440.715	1408.88
440.936	1398.88
441.158	1426.88
441.379	1470.88
441.6	1538.88
441.822	1500.88
442.043	1554.88
442.264	1484.88
442.486	1448.88
442.707	1456.88
442.928	1467.88
443.149	1458.88
443.371	1459.88
443.592	1495.88
443.813	1483.88
444.034	1527.88
444.255	1567.88
444.476	1573.88
444.698	1654.88
444.919	1668.88
445.14	1767.88
445.361	1640.88
445.582	1553.88
445.803	1506.88
446.024	1447.88
446.245	1432.88
446.466	1378.88
446.687	1367.88
446.908	1397.88
447.129	1361.88
447.35	1320.88
447.571	1317.88
447.792	1288.88
448.013	1315.88
448.234	1275.88
448.455	1235.88
448.675	1242.88
448.896	1232.88
449.117	1236.88
449.338	1251.88
449.559	1253.88
449.779	1225.88
450	1203.88
450.221	1221.88
450.442	1239.88
450.662	1232.88
450.883	1234.88
451.104	1216.88
451.324	1253.88
451.545	1224.88
451.766	1234.88
451.986	1227.88
452.207	1233.88
452.428	1212.88
452.648	1215.88
452.869	1180.88
453.089	1208.88
453.31	1185.88
453.53	1192.88
453.751	1162.88
453.971	1165.88
454.192	1198.88
454.412	1179.88
454.633	1182.88
454.853	1161.88
455.073	1166.88
455.294	1159.88
455.514	1153.88
455.734	1180.88
455.955	1140.88
456.175	1140.88
456.395	1163.88
456.616	1146.88
456.836	1168.88
457.056	1153.88
457.276	1172.88
457.497	1180.88
457.717	1172.88
457.937	1199.88
458.157	1200.88
458.377	1195.88
458.598	1242.88
458.818	1247.88
459.038	1261.88
459.258	1316.88
459.478	1339.88
459.698	1399.88
459.918	1398.88
460.138	1435.88
460.358	1490.88
460.578	1523.88
460.798	1552.88
461.018	1552.88
461.238	1558.88
461.458	1534.88
461.678	1535.88
461.898	1580.88
462.118	1568.88
462.338	1626.88
462.558	1654.88
462.777	1732.88
462.997	1867.88
463.217	1934.88
463.437	1982.88
463.657	1825.88
463.876	1816.88
464.096	1800.88
464.316	1765.88
464.536	1773.88
464.755	1711.88
464.975	1693.88
465.195	1589.88
465.414	1560.88
465.634	1440.88
465.854	1381.88
466.073	1404.88
466.293	1354.88
466.512	1338.88
466.732	1316.88
466.951	1305.88
467.171	1305.88
467.391	1301.88
467.61	1298.88
467.829	1266.88
468.049	1272.88
468.268	1268.88
468.488	1251.88
468.707	1250.88
468.927	1275.88
469.146	1227.88
469.365	1277.88
469.585	1253.88
469.804	1295.88
470.023	1313.88
470.243	1304.88
470.462	1348.88
470.681	1329.88
470.901	1320.88
471.12	1278.88
471.339	1302.88
471.558	1308.88
471.777	1273.88
471.997	1242.88
472.216	1305.88
472.435	1244.88
472.654	1222.88
472.873	1238.88
473.092	1236.88
473.311	1230.88
473.53	1255.88
473.749	1235.88
473.968	1230.88
474.187	1247.88
474.406	1217.88
474.625	1233.88
474.844	1241.88
475.063	1256.88
475.282	1249.88
475.501	1263.88
475.72	1268.88
475.939	1244.88
476.158	1297.88
476.377	1284.88
476.596	1306.88
476.814	1314.88
477.033	1328.88
477.252	1375.88
477.471	1379.88
477.69	1406.88
477.908	1387.88
478.127	1456.88
478.346	1476.88
478.564	1432.88
478.783	1527.88
479.002	1554.88
479.22	1532.88
479.439	1562.88
479.658	1582.88
479.876	1542.88
480.095	1610.88
480.313	1656.88
480.532	1639.88
480.751	1647.88
480.969	1596.88
481.188	1557.88
481.406	1516.88
481.624	1539.88
481.843	1481.88
482.061	1472.88
482.28	1534.88
482.498	1479.88
482.717	1465.88
482.935	1482.88
483.153	1511.88
483.372	1519.88
483.59	1515.88
483.808	1539.88
484.027	1520.88
484.245	1603.88
484.463	1577.88
484.681	1570.88
484.9	1592.88
485.118	1638.88
485.336	1641.88
485.554	1627.88
485.772	1624.88
485.99	1659.88
486.209	1674.88
486.427	1616.88
486.645	1639.88
486.863	1618.88
487.081	1648.88
487.299	1610.88
487.517	1599.88
487.735	1615.88
487.953	1588.88
488.171	1605.88
488.389	1595.88
488.607	1605.88
488.825	1550.88
489.043	1566.88
489.261	1568.88
489.479	1553.88
489.696	1547.88
489.914	1556.88
490.132	1595.88
490.35	1586.88
490.568	1572.88
490.786	1556.88
491.003	1566.88
491.221	1559.88
491.439	1550.88
491.657	1567.88
491.874	1555.88
492.092	1534.88
492.31	1548.88
492.527	1574.88
492.745	1546.88
492.963	1573.88
493.18	1528.88
493.398	1592.88
493.615	1552.88
493.833	1566.88
494.05	1583.88
494.268	1618.88
494.485	1601.88
494.703	1600.88
494.92	1592.88
495.138	1592.88
495.355	1576.88
495.573	1611.88
495.79	1596.88
496.008	1615.88
496.225	1624.88
496.442	1634.88
496.66	1676.88
496.877	1660.88
497.094	1687.88
497.312	1739.88
497.529	1752.88
497.746	1793.88
497.963	1846.88
498.181	1958.88
498.398	1993.88
498.615	2101.88
498.832	2219.88
499.049	2326.88
499.267	2473.88
499.484	2724.88
499.701	2899.88
499.918	3154.88
500.135	3511.88
500.352	3838.88
500.569	3979.88
500.786	3892.88
501.003	3738.88
501.22	3451.88
501.437	3163.88
501.654	2838.88
501.871	2648.88
502.088	2462.88
502.305	2347.88
502.522	2222.88
502.739	2128.88
502.956	2041.88
503.172	1932.88
503.389	1896.88
503.606	1812.88
503.823	1757.88
504.04	1775.88
504.256	1791.88
504.473	1759.88
504.69	1782.88
504.907	1787.88
505.123	1694.88
505.34	1603.88
505.557	1586.88
505.773	1533.88
505.99	1522.88
506.207	1459.88
506.423	1454.88
506.64	1420.88
506.856	1415.88
507.073	1393.88
507.289	1355.88
507.506	1356.88
507.722	1370.88
507.939	1332.88
508.155	1328.88
508.372	1296.88
508.588	1292.88
508.805	1286.88
509.021	1301.88
509.238	1278.88
509.454	1325.88
509.67	1293.88
509.887	1279.88
510.103	1247.88
510.319	1259.88
510.536	1278.88
510.752	1255.88
510.968	1278.88
511.184	1216.88
511.401	1252.88
511.617	1232.88
511.833	1210.88
512.049	1266.88
512.265	1239.88
512.481	1238.88
512.698	1207.88
512.914	1202.88
513.13	1221.88
513.346	1222.88
513.562	1211.88
513.778	1233.88
513.994	1241.88
514.21	1241.88
514.426	1233.88
514.642	1261.88
514.858	1290.88
515.074	1244.88
515.29	1307.88
515.506	1274.88
515.721	1296.88
515.937	1329.88
516.153	1342.88
516.369	1386.88
516.585	1421.88
516.801	1432.88
517.016	1477.88
517.232	1505.88
517.448	1554.88
517.664	1585.88
517.879	1626.88
518.095	1599.88
518.311	1607.88
518.527	1554.88
518.742	1500.88
518.958	1439.88
519.173	1434.88
519.389	1355.88
519.605	1350.88
519.82	1325.88
520.036	1292.88
520.251	1264.88
520.467	1257.88
520.682	1219.88
520.898	1231.88
521.113	1232.88
521.329	1223.88
521.544	1201.88
521.76	1175.88
521.975	1184.88
522.19	1170.88
522.406	1147.88
522.621	1151.88
522.836	1150.88
523.052	1154.88
523.267	1161.88
523.482	1128.88
523.698	1117.88
523.913	1114.88
524.128	1132.88
524.343	1161.88
524.559	1129.88
524.774	1107.88
524.989	1096.88
525.204	1094.88
525.419	1131.88
525.634	1101.88
525.849	1139.88
526.064	1101.88
526.28	1113.88
526.495	1081.88
526.71	1107.88
526.925	1102.88
527.14	1051.88
527.355	1099.88
527.57	1093.88
527.785	1103.88
527.999	1092.88
528.214	1110.88
528.429	1079.88
528.644	1074.88
528.859	1077.88
529.074	1090.88
529.289	1098.88
529.503	1072.88
529.718	1090.88
529.933	1079.88
530.148	1060.88
530.363	1069.88
530.577	1092.88
530.792	1087.88
531.007	1082.88
531.221	1067.88
531.436	1082.88
531.651	1067.88
531.865	1078.88
532.08	1091.88
532.295	1087.88
532.509	1081.88
532.724	1042.88
532.938	1097.88
533.153	1066.88
533.367	1079.88
533.582	1065.88
533.796	1079.88
534.011	1079.88
534.225	1056.88
534.44	1064.88
534.654	1047.88
534.868	1073.88
535.083	1060.88
535.297	1044.88
535.511	1031.88
535.726	1027.88
535.94	999.88
536.154	1020.88
536.369	1025.88
536.583	987.88
536.797	992.88
537.011	979.88
537.225	979.88
537.44	970.88
537.654	992.88
537.868	1012.88
538.082	972.88
538.296	955.88
538.51	985.88
538.724	1007.88
538.938	982.88
539.153	972.88
539.367	986.88
539.581	984.88
539.795	966.88
540.009	990.88
540.222	984.88
540.436	953.88
540.65	952.88
540.864	945.88
541.078	968.88
541.292	955.88
541.506	993.88
541.72	948.88
541.934	955.88
542.147	971.88
542.361	940.88
542.575	975.88
542.789	940.88
543.002	912.88
543.216	923.88
543.43	942.88
543.644	915.88
543.857	946.88
544.071	950.88
544.285	914.88
544.498	921.88
544.712	964.88
544.925	951.88
545.139	956.88
545.352	953.88
545.566	964.88
545.779	942.88
545.993	984.88
546.206	975.88
546.42	965.88
546.633	957.88
546.847	975.88
547.06	986.88
547.274	940.88
547.487	952.88
547.7	957.88
547.914	964.88
548.127	982.88
548.34	959.88
548.554	968.88
548.767	962.88
548.98	962.88
549.193	981.88
549.407	979.88
549.62	1009.88
549.833	1011.88
550.046	1001.88
550.259	969.88
550.473	968.88
550.686	975.88
550.899	983.88
551.112	943.88
551.325	951.88
551.538	940.88
551.751	928.88
551.964	949.88
552.177	963.88
552.39	968.88
552.603	995.88
552.816	1015.88
553.029	1024.88
553.242	1046.88
553.455	1059.88
553.667	1044.88
553.88	1049.88
554.093	1009.88
554.306	980.88
554.519	973.88
554.732	949.88
554.944	935.88
555.157	932.88
555.37	911.88
555.583	896.88
555.795	893.88
556.008	866.88
556.221	874.88
556.433	876.88
556.646	878.88
556.859	854.88
557.071	836.88
557.284	854.88
557.496	842.88
557.709	818.88
557.921	839.88
558.134	809.88
558.346	828.88
558.559	833.88
558.771	822.88
558.984	831.88
559.196	812.88
559.409	788.88
559.621	810.88
559.833	795.88
560.046	815.88
560.258	785.88
560.47	812.88
560.683	794.88
560.895	808.88
561.107	777.88
561.32	814.88
561.532	801.88
561.744	807.88
561.956	797.88
562.168	800.88
562.381	835.88
562.593	798.88
562.805	806.88
563.017	791.88
563.229	809.88
563.441	790.88
563.653	812.88
563.865	792.88
564.077	819.88
564.289	837.88
564.501	855.88
564.713	871.88
564.925	871.88
565.137	869.88
565.349	906.88
565.561	930.88
565.773	982.88
565.985	981.88
566.197	1034.88
566.408	1124.88
566.62	1148.88
566.832	1211.88
567.044	1230.88
567.255	1259.88
567.467	1273.88
567.679	1322.88
567.891	1392.88
568.102	1364.88
568.314	1321.88
568.526	1224.88
568.737	1155.88
568.949	1074.88
569.161	1002.88
569.372	958.88
569.584	903.88
569.795	870.88
570.007	879.88
570.218	842.88
570.43	818.88
570.641	855.88
570.853	842.88
571.064	839.88
571.276	814.88
571.487	770.88
571.698	780.88
571.91	743.88
572.121	731.88
572.333	752.88
572.544	694.88
572.755	694.88
572.966	699.88
573.178	696.88
573.389	674.88
573.6	667.88
573.811	688.88
574.023	656.88
574.234	653.88
574.445	687.88
574.656	664.88
574.867	666.88
575.078	650.88
575.289	658.88
575.501	626.88
575.712	646.88
575.923	623.88
576.134	646.88
576.345	634.88
576.556	626.88
576.767	622.88
576.978	598.88
577.188	610.88
577.399	620.88
577.61	616.88
577.821	606.88
578.032	575.88
578.243	584.88
578.454	594.88
578.665	598.88
578.875	575.88
579.086	579.88
579.297	587.88
579.508	572.88
579.718	563.88
579.929	588.88
580.14	582.88
580.35	571.88
580.561	552.88
580.772	540.88
580.982	569.88
581.193	564.88
581.403	555.88
581.614	557.88
581.825	558.88
582.035	558.88
582.246	547.88
582.456	542.88
582.667	534.88
582.877	540.88
583.087	544.88
583.298	514.88
583.508	537.88
583.719	560.88
583.929	555.88
584.139	564.88
584.35	563.88
584.56	512.88
584.77	541.88
584.981	530.88
585.191	540.88
585.401	505.88
585.611	529.88
585.821	527.88
586.032	546.88
586.242	513.88
586.452	516.88
586.662	524.88
586.872	514.88
587.082	513.88
587.292	527.88
587.502	537.88
587.713	544.88
587.923	515.88
588.133	512.88
588.343	528.88
588.553	502.88
588.762	524.88
588.972	519.88
589.182	523.88
589.392	499.88
589.602	540.88
589.812	536.88
590.022	534.88
590.232	528.88
590.441	540.88
590.651	528.88
590.861	535.88
591.071	538.88
591.281	552.88
591.49	550.88
591.7	561.88
591.91	557.88
592.119	544.88
592.329	558.88
592.539	562.88
592.748	593.88
592.958	584.88
593.167	602.88
593.377	610.88
593.587	635.88
593.796	609.88
594.006	646.88
594.215	616.88
594.424	636.88
594.634	594.88
594.843	620.88
595.053	596.88
595.262	575.88
595.472	562.88
595.681	539.88
595.89	532.88
596.1	515.88
596.309	514.88
596.518	506.88
596.727	514.88
596.937	487.88
597.146	500.88
597.355	484.88
597.564	464.88
597.774	448.88
597.983	466.88
598.192	484.88
598.401	441.88
598.61	451.88
598.819	472.88
599.028	438.88
599.237	436.88
599.446	454.88
599.655	448.88
599.864	433.88
600.073	428.88
600.282	438.88
600.491	450.88
600.7	446.88
600.909	444.88
601.118	441.88
601.327	446.88
601.536	416.88
601.745	424.88
601.953	442.88
602.162	430.88
602.371	400.88
602.58	428.88
602.789	430.88
602.997	442.88
603.206	404.88
603.415	419.88
603.623	414.88
603.832	431.88
604.041	419.88
604.249	410.88
604.458	401.88
604.666	408.88
604.875	378.88
605.084	409.88
605.292	397.88
605.501	399.88
605.709	388.88
605.918	390.88
606.126	395.88
606.334	402.88
606.543	396.88
606.751	384.88
606.96	403.88
607.168	407.88
607.376	402.88
607.585	374.88
607.793	370.88
608.001	388.88
608.21	380.88
608.418	378.88
608.626	384.88
608.834	383.88
609.043	382.88
609.251	386.88
609.459	381.88
609.667	389.88
609.875	377.88
610.083	376.88
610.291	374.88
610.499	384.88
610.707	377.88
610.916	376.88
611.124	361.88
611.332	370.88
611.54	375.88
611.748	359.88
611.955	378.88
612.163	376.88
612.371	377.88
612.579	368.88
612.787	383.88
612.995	387.88
613.203	382.88
613.411	378.88
613.618	379.88
613.826	374.88
614.034	342.88
614.242	382.88
614.449	360.88
614.657	370.88
614.865	390.88
615.072	386.88
615.28	356.88
615.488	356.88
615.695	355.88
615.903	366.88
616.111	344.88
616.318	384.88
616.526	376.88
616.733	377.88
616.941	374.88
617.148	365.88
617.356	348.88
617.563	373.88
617.771	366.88
617.978	343.88
618.185	368.88
618.393	364.88
618.6	359.88
618.807	350.88
619.015	356.88
619.222	339.88
619.429	350.88
619.637	359.88
619.844	353.88
620.051	367.88
620.258	350.88
620.466	338.88
620.673	359.88
620.88	348.88
621.087	327.88
621.294	337.88
621.501	344.88
621.708	351.88
621.915	343.88
622.122	351.88
622.329	351.88
622.536	342.88
622.743	335.88
622.95	346.88
623.157	329.88
623.364	332.88
623.571	337.88
623.778	340.88
623.985	320.88
624.192	337.88
624.399	337.88
624.606	321.88
624.812	310.88
625.019	309.88
625.226	319.88
625.433	309.88
625.639	310.88
625.846	306.88
626.053	309.88
626.259	296.88
626.466	313.88
626.673	316.88
626.879	314.88
627.086	305.88
627.293	288.88
627.499	312.88
627.706	302.88
627.912	308.88
628.119	307.88
628.325	300.88
628.532	311.88
628.738	314.88
628.945	305.88
629.151	295.88
629.357	313.88
629.564	295.88
629.77	302.88
629.976	278.88
630.183	279.88
630.389	297.88
630.595	276.88
630.802	297.88
631.008	278.88
631.214	284.88
631.42	292.88
631.627	283.88
631.833	274.88
632.039	274.88
632.245	271.88
632.451	270.88
632.657	278.88
632.863	273.88
633.069	283.88
633.275	272.88
633.481	263.88
633.688	254.88
633.893	270.88
634.099	267.88
634.305	278.88
634.511	263.88
634.717	258.88
634.923	274.88
635.129	268.88
635.335	273.88
635.541	284.88
635.747	267.88
635.952	261.88
636.158	257.88
636.364	264.88
636.57	277.88
636.775	271.88
636.981	279.88
637.187	278.88
637.392	267.88
637.598	273.88
637.804	254.88
638.009	253.88
638.215	274.88
638.421	260.88
638.626	255.88
638.832	262.88
639.037	241.88
639.243	280.88
639.448	264.88
639.654	267.88
639.859	260.88
640.065	247.88
640.27	249.88
640.475	246.88
640.681	255.88
640.886	264.88
641.091	246.88
641.297	241.88
641.502	238.88
641.707	247.88
641.913	268.88
642.118	258.88
642.323	253.88
642.528	248.88
642.733	244.88
642.939	246.88
643.144	237.88
643.349	230.88
643.554	254.88
643.759	238.88
643.964	239.88
644.169	258.88
644.374	240.88
644.579	239.88
644.784	267.88
644.989	245.88
645.194	238.88
645.399	259.88
645.604	244.88
645.809	262.88
646.014	235.88
646.219	232.88
646.423	246.88
646.628	250.88
646.833	244.88
647.038	240.88
647.243	260.88
647.447	251.88
647.652	253.88
647.857	240.88
648.062	255.88
648.266	262.88
648.471	278.88
648.676	266.88
648.88	264.88
649.085	277.88
649.289	284.88
649.494	266.88
649.698	268.88
649.903	251.88
650.107	263.88
650.312	256.88
650.516	255.88
650.721	249.88
650.925	246.88
651.13	239.88
651.334	248.88
651.539	250.88
651.743	227.88
651.947	239.88
652.152	233.88
652.356	242.88
652.56	233.88
652.764	249.88
652.969	249.88
653.173	233.88
653.377	230.88
653.581	224.88
653.785	235.88
653.99	246.88
654.194	236.88
654.398	234.88
654.602	239.88
654.806	263.88
655.01	264.88
655.214	246.88
655.418	271.88
655.622	267.88
655.826	286.88
656.03	288.88
656.234	313.88
656.438	320.88
656.642	328.88
656.846	320.88
657.049	291.88
657.253	276.88
657.457	215.88
657.661	207.88
657.865	216.88
658.068	197.88
658.272	193.88
658.476	172.88
658.68	170.88
658.883	148.88
659.087	144.88
659.291	132.88
659.494	120.88
659.698	130.88
659.901	144.88
660.105	125.88
660.309	112.88
660.512	113.88
660.716	108.88
660.919	110.88
661.123	110.88
661.326	104.88
661.53	101.88
661.733	96.88
661.936	88.88
662.14	89.88
662.343	92.88
662.546	91.88
662.75	86.88
662.953	88.88
663.156	83.88
663.36	92.88
663.563	91.88
663.766	76.88
663.969	89.88
664.173	97.88
664.376	95.88
664.579	81.88
664.782	85.88
664.985	82.88
665.188	75.88
665.391	88.88
665.594	85.88
665.797	66.88
666	79.88
666.203	89.88
666.406	84.88
666.609	83.88
666.812	84.88
667.015	75.88
667.218	80.88
667.421	72.88
667.624	76.88
667.827	67.88
668.03	84.88
668.232	93.88
668.435	81.88
668.638	82.88
668.841	80.88
669.043	88.88
669.246	84.88
669.449	74.88
669.651	89.88
669.854	83.88
670.057	86.88
670.259	79.88
670.462	90.88
670.665	87.88
670.867	68.88
671.07	66.88
671.272	77.88
671.475	82.88
671.677	70.88
671.88	75.88
672.082	86.88
672.284	82.88
672.487	79.88
672.689	80.88
672.892	80.88
