Data from NiCl2@0.25M.TitratingCurve.Agarose3%dH2O.NegLispCup.LampEnergy10.LIBS07252019_HRD10591_18-23-17-572.txt Node
Date: Thu Jul 25 18:23:17 EDT 2019
User: cochatt
Spectrometer: HR+D1059
Trigger mode: 1
Integration Time (sec): 1.000000E-1
Scans to average: 1
Electric dark correction enabled: true
Nonlinearity correction enabled: false
Boxcar width: 0
XAxis mode: Wavelengths
Number of Pixels in Spectrum: 2048
>>>>>Begin Spectral Data<<<<<
223.165	-16.88
223.4	-16.88
223.635	-16.88
223.869	-15.88
224.104	-15.88
224.338	-7.88
224.573	-18.88
224.808	-2.88
225.042	-22.88
225.277	-11.88
225.511	-5.88
225.746	13.12
225.98	7.12
226.215	9.12
226.449	25.12
226.683	14.12
226.918	18.12
227.152	32.12
227.387	29.12
227.621	36.12
227.856	48.12
228.09	62.12
228.324	52.12
228.559	64.12
228.793	78.12
229.027	111.12
229.262	116.12
229.496	128.12
229.73	117.12
229.964	137.12
230.199	148.12
230.433	134.12
230.667	147.12
230.901	146.12
231.136	137.12
231.37	153.12
231.604	146.12
231.838	159.12
232.072	170.12
232.306	158.12
232.541	156.12
232.775	164.12
233.009	175.12
233.243	157.12
233.477	137.12
233.711	160.12
233.945	148.12
234.179	160.12
234.413	168.12
234.647	185.12
234.881	163.12
235.115	158.12
235.349	165.12
235.583	172.12
235.817	164.12
236.051	143.12
236.285	162.12
236.519	171.12
236.753	163.12
236.987	167.12
237.221	164.12
237.455	194.12
237.689	190.12
237.922	184.12
238.156	180.12
238.39	175.12
238.624	186.12
238.858	172.12
239.091	194.12
239.325	191.12
239.559	180.12
239.793	197.12
240.027	196.12
240.26	199.12
240.494	196.12
240.728	204.12
240.961	197.12
241.195	214.12
241.429	199.12
241.662	212.12
241.896	200.12
242.13	220.12
242.363	212.12
242.597	231.12
242.83	208.12
243.064	201.12
243.298	210.12
243.531	220.12
243.765	236.12
243.998	232.12
244.232	208.12
244.465	217.12
244.699	215.12
244.932	227.12
245.166	231.12
245.399	214.12
245.633	246.12
245.866	231.12
246.099	230.12
246.333	222.12
246.566	253.12
246.8	246.12
247.033	229.12
247.266	258.12
247.5	237.12
247.733	257.12
247.966	260.12
248.2	270.12
248.433	266.12
248.666	255.12
248.899	263.12
249.133	263.12
249.366	265.12
249.599	256.12
249.832	261.12
250.066	267.12
250.299	276.12
250.532	282.12
250.765	279.12
250.998	287.12
251.231	287.12
251.465	294.12
251.698	296.12
251.931	290.12
252.164	280.12
252.397	288.12
252.63	291.12
252.863	296.12
253.096	292.12
253.329	303.12
253.562	302.12
253.795	287.12
254.028	301.12
254.261	310.12
254.494	301.12
254.727	306.12
254.96	304.12
255.193	300.12
255.426	320.12
255.659	316.12
255.892	310.12
256.124	303.12
256.357	317.12
256.59	314.12
256.823	312.12
257.056	333.12
257.289	327.12
257.521	323.12
257.754	322.12
257.987	318.12
258.22	335.12
258.452	333.12
258.685	339.12
258.918	341.12
259.151	325.12
259.383	331.12
259.616	330.12
259.849	357.12
260.081	340.12
260.314	356.12
260.547	330.12
260.779	342.12
261.012	352.12
261.244	355.12
261.477	348.12
261.71	358.12
261.942	335.12
262.175	343.12
262.407	340.12
262.64	359.12
262.872	343.12
263.105	371.12
263.337	374.12
263.57	377.12
263.802	364.12
264.035	392.12
264.267	390.12
264.499	376.12
264.732	382.12
264.964	378.12
265.197	387.12
265.429	403.12
265.661	386.12
265.894	372.12
266.126	399.12
266.358	380.12
266.591	365.12
266.823	409.12
267.055	380.12
267.287	394.12
267.52	404.12
267.752	386.12
267.984	401.12
268.216	397.12
268.448	405.12
268.681	407.12
268.913	412.12
269.145	419.12
269.377	419.12
269.609	395.12
269.841	424.12
270.073	403.12
270.306	412.12
270.538	421.12
270.77	413.12
271.002	427.12
271.234	428.12
271.466	416.12
271.698	422.12
271.93	413.12
272.162	422.12
272.394	456.12
272.626	444.12
272.858	419.12
273.09	435.12
273.322	460.12
273.553	446.12
273.785	442.12
274.017	437.12
274.249	434.12
274.481	451.12
274.713	421.12
274.945	461.12
275.176	453.12
275.408	462.12
275.64	451.12
275.872	458.12
276.104	450.12
276.335	449.12
276.567	448.12
276.799	470.12
277.031	440.12
277.262	455.12
277.494	474.12
277.726	484.12
277.957	470.12
278.189	475.12
278.421	465.12
278.652	483.12
278.884	477.12
279.115	496.12
279.347	485.12
279.579	489.12
279.81	482.12
280.042	480.12
280.273	495.12
280.505	504.12
280.736	502.12
280.968	487.12
281.199	502.12
281.431	528.12
281.662	529.12
281.894	495.12
282.125	509.12
282.356	517.12
282.588	511.12
282.819	517.12
283.051	543.12
283.282	523.12
283.513	532.12
283.745	541.12
283.976	518.12
284.207	538.12
284.439	511.12
284.67	524.12
284.901	528.12
285.132	542.12
285.364	538.12
285.595	558.12
285.826	555.12
286.057	564.12
286.288	557.12
286.52	552.12
286.751	554.12
286.982	542.12
287.213	523.12
287.444	547.12
287.675	543.12
287.906	550.12
288.138	576.12
288.369	576.12
288.6	579.12
288.831	566.12
289.062	583.12
289.293	569.12
289.524	553.12
289.755	556.12
289.986	567.12
290.217	565.12
290.448	565.12
290.679	584.12
290.91	560.12
291.141	565.12
291.371	574.12
291.602	580.12
291.833	582.12
292.064	569.12
292.295	580.12
292.526	572.12
292.757	579.12
292.987	580.12
293.218	580.12
293.449	592.12
293.68	591.12
293.91	586.12
294.141	590.12
294.372	592.12
294.603	590.12
294.833	592.12
295.064	585.12
295.295	592.12
295.525	600.12
295.756	598.12
295.987	592.12
296.217	638.12
296.448	627.12
296.679	622.12
296.909	593.12
297.14	616.12
297.37	627.12
297.601	636.12
297.831	611.12
298.062	601.12
298.292	634.12
298.523	636.12
298.753	644.12
298.984	622.12
299.214	619.12
299.445	631.12
299.675	624.12
299.905	665.12
300.136	637.12
300.366	642.12
300.597	664.12
300.827	645.12
301.057	664.12
301.288	661.12
301.518	653.12
301.748	666.12
301.979	695.12
302.209	638.12
302.439	672.12
302.669	679.12
302.9	652.12
303.13	638.12
303.36	672.12
303.59	664.12
303.82	655.12
304.051	655.12
304.281	673.12
304.511	657.12
304.741	651.12
304.971	677.12
305.201	674.12
305.431	640.12
305.661	681.12
305.891	676.12
306.121	631.12
306.352	664.12
306.582	638.12
306.812	675.12
307.042	663.12
307.272	656.12
307.502	652.12
307.731	673.12
307.961	638.12
308.191	668.12
308.421	634.12
308.651	649.12
308.881	640.12
309.111	662.12
309.341	671.12
309.571	660.12
309.8	655.12
310.03	672.12
310.26	662.12
310.49	651.12
310.72	659.12
310.949	681.12
311.179	653.12
311.409	678.12
311.639	674.12
311.868	665.12
312.098	667.12
312.328	679.12
312.557	688.12
312.787	686.12
313.017	668.12
313.246	702.12
313.476	715.12
313.706	708.12
313.935	720.12
314.165	713.12
314.394	709.12
314.624	698.12
314.853	699.12
315.083	697.12
315.312	702.12
315.542	685.12
315.771	685.12
316.001	712.12
316.23	690.12
316.46	679.12
316.689	680.12
316.919	707.12
317.148	692.12
317.377	680.12
317.607	696.12
317.836	689.12
318.065	711.12
318.295	683.12
318.524	704.12
318.753	670.12
318.983	677.12
319.212	662.12
319.441	677.12
319.67	691.12
319.9	697.12
320.129	687.12
320.358	683.12
320.587	703.12
320.816	676.12
321.046	713.12
321.275	688.12
321.504	697.12
321.733	666.12
321.962	712.12
322.191	707.12
322.42	696.12
322.649	700.12
322.878	713.12
323.108	700.12
323.337	742.12
323.566	704.12
323.795	726.12
324.024	720.12
324.253	727.12
324.482	714.12
324.71	702.12
324.939	734.12
325.168	712.12
325.397	696.12
325.626	724.12
325.855	733.12
326.084	773.12
326.313	765.12
326.542	727.12
326.77	773.12
326.999	735.12
327.228	755.12
327.457	762.12
327.686	741.12
327.914	763.12
328.143	754.12
328.372	772.12
328.6	772.12
328.829	733.12
329.058	748.12
329.287	780.12
329.515	763.12
329.744	762.12
329.972	773.12
330.201	729.12
330.43	754.12
330.658	774.12
330.887	772.12
331.115	802.12
331.344	790.12
331.572	802.12
331.801	829.12
332.03	836.12
332.258	844.12
332.486	871.12
332.715	884.12
332.943	929.12
333.172	958.12
333.4	1002.12
333.629	1017.12
333.857	999.12
334.085	1006.12
334.314	991.12
334.542	974.12
334.771	971.12
334.999	941.12
335.227	951.12
335.455	936.12
335.684	943.12
335.912	898.12
336.14	920.12
336.369	920.12
336.597	929.12
336.825	901.12
337.053	901.12
337.281	921.12
337.51	904.12
337.738	868.12
337.966	867.12
338.194	848.12
338.422	840.12
338.65	838.12
338.878	826.12
339.106	833.12
339.334	829.12
339.562	845.12
339.79	810.12
340.018	811.12
340.246	792.12
340.474	791.12
340.702	796.12
340.93	803.12
341.158	806.12
341.386	808.12
341.614	832.12
341.842	812.12
342.07	804.12
342.298	778.12
342.526	784.12
342.754	787.12
342.981	779.12
343.209	816.12
343.437	864.12
343.665	890.12
343.893	954.12
344.12	987.12
344.348	927.12
344.576	903.12
344.804	873.12
345.031	852.12
345.259	806.12
345.487	811.12
345.714	802.12
345.942	827.12
346.17	818.12
346.397	802.12
346.625	769.12
346.853	759.12
347.08	760.12
347.308	762.12
347.535	772.12
347.763	764.12
347.99	782.12
348.218	775.12
348.445	756.12
348.673	743.12
348.9	764.12
349.128	781.12
349.355	777.12
349.583	773.12
349.81	780.12
350.037	741.12
350.265	740.12
350.492	741.12
350.72	756.12
350.947	731.12
351.174	780.12
351.402	763.12
351.629	771.12
351.856	751.12
352.083	733.12
352.311	787.12
352.538	754.12
352.765	773.12
352.992	726.12
353.22	716.12
353.447	734.12
353.674	725.12
353.901	735.12
354.128	750.12
354.355	731.12
354.583	758.12
354.81	715.12
355.037	736.12
355.264	726.12
355.491	725.12
355.718	746.12
355.945	755.12
356.172	757.12
356.399	730.12
356.626	756.12
356.853	762.12
357.08	719.12
357.307	749.12
357.534	730.12
357.761	710.12
357.988	752.12
358.215	743.12
358.441	741.12
358.668	719.12
358.895	756.12
359.122	717.12
359.349	754.12
359.576	725.12
359.802	739.12
360.029	727.12
360.256	759.12
360.483	741.12
360.709	749.12
360.936	751.12
361.163	777.12
361.39	733.12
361.616	734.12
361.843	735.12
362.07	766.12
362.296	750.12
362.523	725.12
362.749	757.12
362.976	739.12
363.203	729.12
363.429	741.12
363.656	745.12
363.882	740.12
364.109	732.12
364.335	722.12
364.562	758.12
364.788	772.12
365.015	744.12
365.241	751.12
365.468	741.12
365.694	750.12
365.92	758.12
366.147	745.12
366.373	756.12
366.599	746.12
366.826	726.12
367.052	734.12
367.278	718.12
367.505	728.12
367.731	747.12
367.957	732.12
368.184	739.12
368.41	764.12
368.636	742.12
368.862	758.12
369.089	774.12
369.315	747.12
369.541	770.12
369.767	770.12
369.993	760.12
370.219	751.12
370.445	794.12
370.672	794.12
370.898	768.12
371.124	810.12
371.35	787.12
371.576	834.12
371.802	791.12
372.028	809.12
372.254	804.12
372.48	792.12
372.706	802.12
372.932	848.12
373.158	842.12
373.384	825.12
373.61	825.12
373.835	792.12
374.061	820.12
374.287	816.12
374.513	800.12
374.739	847.12
374.965	840.12
375.191	907.12
375.416	844.12
375.642	836.12
375.868	847.12
376.094	849.12
376.319	808.12
376.545	804.12
376.771	821.12
376.997	819.12
377.222	811.12
377.448	791.12
377.674	794.12
377.899	801.12
378.125	788.12
378.35	774.12
378.576	816.12
378.802	783.12
379.027	744.12
379.253	765.12
379.478	789.12
379.704	787.12
379.929	776.12
380.155	797.12
380.38	800.12
380.606	810.12
380.831	794.12
381.057	800.12
381.282	799.12
381.507	782.12
381.733	790.12
381.958	804.12
382.184	808.12
382.409	799.12
382.634	842.12
382.86	833.12
383.085	843.12
383.31	857.12
383.535	875.12
383.761	864.12
383.986	904.12
384.211	886.12
384.436	922.12
384.662	913.12
384.887	959.12
385.112	918.12
385.337	950.12
385.562	975.12
385.787	942.12
386.013	979.12
386.238	965.12
386.463	947.12
386.688	958.12
386.913	920.12
387.138	947.12
387.363	958.12
387.588	917.12
387.813	935.12
388.038	931.12
388.263	919.12
388.488	939.12
388.713	944.12
388.938	913.12
389.163	895.12
389.387	925.12
389.612	906.12
389.837	932.12
390.062	925.12
390.287	953.12
390.512	905.12
390.736	943.12
390.961	948.12
391.186	984.12
391.411	985.12
391.636	1016.12
391.86	1060.12
392.085	1094.12
392.31	1047.12
392.534	1048.12
392.759	1027.12
392.984	1004.12
393.208	1007.12
393.433	1028.12
393.658	1010.12
393.882	992.12
394.107	1005.12
394.331	1000.12
394.556	1007.12
394.78	1000.12
395.005	1028.12
395.229	1007.12
395.454	1056.12
395.678	1062.12
395.903	1051.12
396.127	1055.12
396.352	1027.12
396.576	1002.12
396.801	994.12
397.025	1002.12
397.249	1034.12
397.474	1081.12
397.698	1065.12
397.922	1046.12
398.147	1044.12
398.371	1094.12
398.595	1123.12
398.82	1192.12
399.044	1270.12
399.268	1376.12
399.492	1590.12
399.717	1738.12
399.941	1750.12
400.165	1594.12
400.389	1427.12
400.613	1322.12
400.837	1248.12
401.062	1217.12
401.286	1210.12
401.51	1208.12
401.734	1198.12
401.958	1234.12
402.182	1206.12
402.406	1244.12
402.63	1247.12
402.854	1268.12
403.078	1247.12
403.302	1311.12
403.526	1315.12
403.75	1310.12
403.974	1354.12
404.198	1328.12
404.422	1348.12
404.645	1354.12
404.869	1315.12
405.093	1320.12
405.317	1320.12
405.541	1308.12
405.765	1258.12
405.988	1259.12
406.212	1300.12
406.436	1306.12
406.66	1317.12
406.883	1336.12
407.107	1423.12
407.331	1432.12
407.555	1507.12
407.778	1501.12
408.002	1434.12
408.226	1450.12
408.449	1391.12
408.673	1342.12
408.896	1335.12
409.12	1336.12
409.344	1337.12
409.567	1285.12
409.791	1324.12
410.014	1325.12
410.238	1298.12
410.461	1287.12
410.685	1297.12
410.908	1272.12
411.132	1290.12
411.355	1203.12
411.578	1206.12
411.802	1200.12
412.025	1229.12
412.249	1256.12
412.472	1230.12
412.695	1210.12
412.919	1158.12
413.142	1214.12
413.365	1179.12
413.589	1188.12
413.812	1163.12
414.035	1168.12
414.258	1167.12
414.482	1188.12
414.705	1216.12
414.928	1178.12
415.151	1220.12
415.374	1187.12
415.597	1158.12
415.821	1176.12
416.044	1136.12
416.267	1143.12
416.49	1168.12
416.713	1185.12
416.936	1189.12
417.159	1144.12
417.382	1155.12
417.605	1147.12
417.828	1158.12
418.051	1178.12
418.274	1150.12
418.497	1146.12
418.72	1188.12
418.943	1193.12
419.166	1256.12
419.389	1307.12
419.611	1295.12
419.834	1249.12
420.057	1243.12
420.28	1160.12
420.503	1151.12
420.726	1145.12
420.948	1131.12
421.171	1164.12
421.394	1151.12
421.617	1142.12
421.839	1165.12
422.062	1173.12
422.285	1162.12
422.507	1147.12
422.73	1177.12
422.953	1181.12
423.175	1206.12
423.398	1192.12
423.621	1204.12
423.843	1229.12
424.066	1264.12
424.288	1220.12
424.511	1222.12
424.733	1171.12
424.956	1182.12
425.178	1180.12
425.401	1159.12
425.623	1171.12
425.846	1121.12
426.068	1113.12
426.291	1132.12
426.513	1109.12
426.735	1096.12
426.958	1103.12
427.18	1081.12
427.402	1092.12
427.625	1059.12
427.847	1060.12
428.069	1060.12
428.292	1022.12
428.514	1033.12
428.736	1058.12
428.958	1007.12
429.181	986.12
429.403	1020.12
429.625	1033.12
429.847	984.12
430.069	989.12
430.292	995.12
430.514	997.12
430.736	1017.12
430.958	1024.12
431.18	995.12
431.402	1012.12
431.624	1023.12
431.846	1029.12
432.068	1053.12
432.29	1064.12
432.512	1024.12
432.734	1031.12
432.956	1033.12
433.178	1014.12
433.4	1037.12
433.622	1068.12
433.844	1081.12
434.066	1062.12
434.287	1065.12
434.509	1099.12
434.731	1117.12
434.953	1151.12
435.175	1161.12
435.397	1174.12
435.618	1078.12
435.84	1076.12
436.062	1045.12
436.284	1043.12
436.505	1071.12
436.727	1025.12
436.949	1034.12
437.17	1066.12
437.392	1022.12
437.614	1022.12
437.835	989.12
438.057	989.12
438.278	967.12
438.5	1001.12
438.721	989.12
438.943	1004.12
439.165	1010.12
439.386	1010.12
439.608	1045.12
439.829	1055.12
440.05	1037.12
440.272	1047.12
440.493	1015.12
440.715	1049.12
440.936	1050.12
441.158	1076.12
441.379	1108.12
441.6	1179.12
441.822	1172.12
442.043	1166.12
442.264	1154.12
442.486	1114.12
442.707	1140.12
442.928	1131.12
443.149	1111.12
443.371	1148.12
443.592	1159.12
443.813	1164.12
444.034	1156.12
444.255	1208.12
444.476	1253.12
444.698	1327.12
444.919	1338.12
445.14	1463.12
445.361	1337.12
445.582	1188.12
445.803	1105.12
446.024	1076.12
446.245	1065.12
446.466	1074.12
446.687	1022.12
446.908	1011.12
447.129	1005.12
447.35	992.12
447.571	996.12
447.792	965.12
448.013	984.12
448.234	963.12
448.455	950.12
448.675	957.12
448.896	942.12
449.117	957.12
449.338	936.12
449.559	939.12
449.779	915.12
450	907.12
450.221	927.12
450.442	947.12
450.662	967.12
450.883	952.12
451.104	975.12
451.324	968.12
451.545	949.12
451.766	945.12
451.986	916.12
452.207	932.12
452.428	925.12
452.648	934.12
452.869	928.12
453.089	909.12
453.31	933.12
453.53	924.12
453.751	894.12
453.971	898.12
454.192	925.12
454.412	912.12
454.633	901.12
454.853	908.12
455.073	891.12
455.294	880.12
455.514	889.12
455.734	900.12
455.955	884.12
456.175	897.12
456.395	870.12
456.616	882.12
456.836	863.12
457.056	893.12
457.276	896.12
457.497	906.12
457.717	900.12
457.937	906.12
458.157	932.12
458.377	882.12
458.598	922.12
458.818	953.12
459.038	953.12
459.258	1018.12
459.478	1051.12
459.698	1081.12
459.918	1136.12
460.138	1192.12
460.358	1183.12
460.578	1213.12
460.798	1232.12
461.018	1246.12
461.238	1212.12
461.458	1209.12
461.678	1251.12
461.898	1259.12
462.118	1233.12
462.338	1332.12
462.558	1318.12
462.777	1394.12
462.997	1480.12
463.217	1571.12
463.437	1599.12
463.657	1487.12
463.876	1454.12
464.096	1418.12
464.316	1387.12
464.536	1422.12
464.755	1367.12
464.975	1296.12
465.195	1240.12
465.414	1182.12
465.634	1143.12
465.854	1075.12
466.073	1078.12
466.293	1035.12
466.512	1024.12
466.732	1038.12
466.951	1004.12
467.171	997.12
467.391	984.12
467.61	971.12
467.829	1011.12
468.049	975.12
468.268	979.12
468.488	960.12
468.707	971.12
468.927	974.12
469.146	960.12
469.365	994.12
469.585	954.12
469.804	996.12
470.023	1012.12
470.243	978.12
470.462	992.12
470.681	1044.12
470.901	1034.12
471.12	1006.12
471.339	974.12
471.558	1010.12
471.777	1005.12
471.997	968.12
472.216	984.12
472.435	955.12
472.654	997.12
472.873	971.12
473.092	971.12
473.311	948.12
473.53	952.12
473.749	921.12
473.968	941.12
474.187	922.12
474.406	953.12
474.625	939.12
474.844	927.12
475.063	957.12
475.282	965.12
475.501	968.12
475.72	990.12
475.939	973.12
476.158	985.12
476.377	982.12
476.596	1011.12
476.814	999.12
477.033	1018.12
477.252	991.12
477.471	1047.12
477.69	1052.12
477.908	1083.12
478.127	1104.12
478.346	1127.12
478.564	1150.12
478.783	1138.12
479.002	1180.12
479.22	1193.12
479.439	1212.12
479.658	1206.12
479.876	1192.12
480.095	1185.12
480.313	1247.12
480.532	1278.12
480.751	1252.12
480.969	1228.12
481.188	1166.12
481.406	1126.12
481.624	1131.12
481.843	1076.12
482.061	1092.12
482.28	1124.12
482.498	1100.12
482.717	1112.12
482.935	1090.12
483.153	1070.12
483.372	1101.12
483.59	1108.12
483.808	1100.12
484.027	1098.12
484.245	1084.12
484.463	1100.12
484.681	1116.12
484.9	1127.12
485.118	1136.12
485.336	1100.12
485.554	1117.12
485.772	1133.12
485.99	1156.12
486.209	1128.12
486.427	1146.12
486.645	1160.12
486.863	1156.12
487.081	1130.12
487.299	1098.12
487.517	1091.12
487.735	1150.12
487.953	1135.12
488.171	1146.12
488.389	1127.12
488.607	1130.12
488.825	1107.12
489.043	1097.12
489.261	1099.12
489.479	1113.12
489.696	1140.12
489.914	1140.12
490.132	1175.12
490.35	1135.12
490.568	1133.12
490.786	1125.12
491.003	1168.12
491.221	1148.12
491.439	1156.12
491.657	1119.12
491.874	1131.12
492.092	1173.12
492.31	1166.12
492.527	1173.12
492.745	1159.12
492.963	1172.12
493.18	1194.12
493.398	1185.12
493.615	1176.12
493.833	1182.12
494.05	1214.12
494.268	1198.12
494.485	1214.12
494.703	1221.12
494.92	1180.12
495.138	1174.12
495.355	1190.12
495.573	1214.12
495.79	1267.12
496.008	1224.12
496.225	1211.12
496.442	1238.12
496.66	1277.12
496.877	1292.12
497.094	1282.12
497.312	1340.12
497.529	1343.12
497.746	1380.12
497.963	1437.12
498.181	1499.12
498.398	1576.12
498.615	1650.12
498.832	1694.12
499.049	1882.12
499.267	2004.12
499.484	2212.12
499.701	2408.12
499.918	2663.12
500.135	3008.12
500.352	3351.12
500.569	3564.12
500.786	3474.12
501.003	3183.12
501.22	2961.12
501.437	2635.12
501.654	2325.12
501.871	2168.12
502.088	1943.12
502.305	1837.12
502.522	1759.12
502.739	1666.12
502.956	1578.12
503.172	1540.12
503.389	1467.12
503.606	1438.12
503.823	1397.12
504.04	1380.12
504.256	1410.12
504.473	1448.12
504.69	1452.12
504.907	1421.12
505.123	1332.12
505.34	1266.12
505.557	1203.12
505.773	1213.12
505.99	1152.12
506.207	1134.12
506.423	1135.12
506.64	1111.12
506.856	1102.12
507.073	1077.12
507.289	1080.12
507.506	1075.12
507.722	1105.12
507.939	1066.12
508.155	1041.12
508.372	1016.12
508.588	1040.12
508.805	1036.12
509.021	1021.12
509.238	1022.12
509.454	1007.12
509.67	999.12
509.887	1014.12
510.103	996.12
510.319	1000.12
510.536	1003.12
510.752	995.12
510.968	986.12
511.184	970.12
511.401	989.12
511.617	993.12
511.833	983.12
512.049	961.12
512.265	974.12
512.481	983.12
512.698	967.12
512.914	978.12
513.13	983.12
513.346	972.12
513.562	990.12
513.778	976.12
513.994	1011.12
514.21	980.12
514.426	1015.12
514.642	1013.12
514.858	1032.12
515.074	1053.12
515.29	1010.12
515.506	1005.12
515.721	1030.12
515.937	1004.12
516.153	1055.12
516.369	1107.12
516.585	1122.12
516.801	1152.12
517.016	1202.12
517.232	1243.12
517.448	1301.12
517.664	1326.12
517.879	1316.12
518.095	1337.12
518.311	1314.12
518.527	1245.12
518.742	1223.12
518.958	1181.12
519.173	1131.12
519.389	1096.12
519.605	1088.12
519.82	1035.12
520.036	1018.12
520.251	1020.12
520.467	1000.12
520.682	993.12
520.898	989.12
521.113	964.12
521.329	952.12
521.544	949.12
521.76	987.12
521.975	920.12
522.19	926.12
522.406	940.12
522.621	914.12
522.836	902.12
523.052	923.12
523.267	915.12
523.482	925.12
523.698	916.12
523.913	915.12
524.128	903.12
524.343	907.12
524.559	916.12
524.774	900.12
524.989	913.12
525.204	902.12
525.419	884.12
525.634	888.12
525.849	879.12
526.064	901.12
526.28	890.12
526.495	869.12
526.71	868.12
526.925	893.12
527.14	892.12
527.355	895.12
527.57	850.12
527.785	889.12
527.999	887.12
528.214	884.12
528.429	857.12
528.644	918.12
528.859	888.12
529.074	870.12
529.289	898.12
529.503	877.12
529.718	857.12
529.933	871.12
530.148	904.12
530.363	863.12
530.577	848.12
530.792	863.12
531.007	863.12
531.221	878.12
531.436	866.12
531.651	854.12
531.865	882.12
532.08	898.12
532.295	872.12
532.509	858.12
532.724	855.12
532.938	876.12
533.153	858.12
533.367	896.12
533.582	880.12
533.796	844.12
534.011	876.12
534.225	872.12
534.44	856.12
534.654	840.12
534.868	842.12
535.083	841.12
535.297	851.12
535.511	831.12
535.726	844.12
535.94	826.12
536.154	852.12
536.369	807.12
536.583	807.12
536.797	797.12
537.011	816.12
537.225	800.12
537.44	828.12
537.654	810.12
537.868	807.12
538.082	805.12
538.296	795.12
538.51	807.12
538.724	805.12
538.938	786.12
539.153	776.12
539.367	781.12
539.581	813.12
539.795	801.12
540.009	798.12
540.222	810.12
540.436	777.12
540.65	779.12
540.864	777.12
541.078	795.12
541.292	779.12
541.506	774.12
541.72	780.12
541.934	778.12
542.147	815.12
542.361	771.12
542.575	764.12
542.789	783.12
543.002	766.12
543.216	757.12
543.43	794.12
543.644	784.12
543.857	787.12
544.071	779.12
544.285	794.12
544.498	798.12
544.712	751.12
544.925	790.12
545.139	804.12
545.352	843.12
545.566	795.12
545.779	807.12
545.993	785.12
546.206	823.12
546.42	808.12
546.633	820.12
546.847	820.12
547.06	803.12
547.274	794.12
547.487	813.12
547.7	818.12
547.914	813.12
548.127	824.12
548.34	834.12
548.554	796.12
548.767	814.12
548.98	795.12
549.193	797.12
549.407	834.12
549.62	816.12
549.833	848.12
550.046	819.12
550.259	816.12
550.473	797.12
550.686	786.12
550.899	786.12
551.112	768.12
551.325	777.12
551.538	779.12
551.751	792.12
551.964	753.12
552.177	775.12
552.39	779.12
552.603	799.12
552.816	831.12
553.029	848.12
553.242	874.12
553.455	860.12
553.667	879.12
553.88	864.12
554.093	837.12
554.306	836.12
554.519	790.12
554.732	804.12
554.944	782.12
555.157	742.12
555.37	755.12
555.583	755.12
555.795	748.12
556.008	711.12
556.221	713.12
556.433	693.12
556.646	696.12
556.859	711.12
557.071	680.12
557.284	692.12
557.496	669.12
557.709	704.12
557.921	667.12
558.134	674.12
558.346	678.12
558.559	677.12
558.771	667.12
558.984	664.12
559.196	667.12
559.409	657.12
559.621	665.12
559.833	667.12
560.046	652.12
560.258	646.12
560.47	649.12
560.683	667.12
560.895	658.12
561.107	651.12
561.32	658.12
561.532	656.12
561.744	654.12
561.956	654.12
562.168	645.12
562.381	652.12
562.593	666.12
562.805	657.12
563.017	673.12
563.229	643.12
563.441	664.12
563.653	662.12
563.865	651.12
564.077	692.12
564.289	684.12
564.501	696.12
564.713	692.12
564.925	686.12
565.137	711.12
565.349	724.12
565.561	758.12
565.773	756.12
565.985	802.12
566.197	860.12
566.408	930.12
566.62	977.12
566.832	1042.12
567.044	1059.12
567.255	1093.12
567.467	1094.12
567.679	1141.12
567.891	1226.12
568.102	1229.12
568.314	1168.12
568.526	1091.12
568.737	1009.12
568.949	891.12
569.161	847.12
569.372	783.12
569.584	748.12
569.795	733.12
570.007	686.12
570.218	688.12
570.43	676.12
570.641	672.12
570.853	653.12
571.064	695.12
571.276	679.12
571.487	639.12
571.698	640.12
571.91	641.12
572.121	621.12
572.333	570.12
572.544	594.12
572.755	575.12
572.966	566.12
573.178	576.12
573.389	550.12
573.6	558.12
573.811	550.12
574.023	522.12
574.234	528.12
574.445	534.12
574.656	549.12
574.867	552.12
575.078	554.12
575.289	535.12
575.501	532.12
575.712	503.12
575.923	526.12
576.134	510.12
576.345	521.12
576.556	532.12
576.767	516.12
576.978	524.12
577.188	487.12
577.399	494.12
577.61	494.12
577.821	494.12
578.032	498.12
578.243	488.12
578.454	503.12
578.665	483.12
578.875	473.12
579.086	482.12
579.297	456.12
579.508	477.12
579.718	471.12
579.929	491.12
580.14	499.12
580.35	472.12
580.561	464.12
580.772	471.12
580.982	453.12
581.193	457.12
581.403	451.12
581.614	462.12
581.825	473.12
582.035	457.12
582.246	449.12
582.456	428.12
582.667	463.12
582.877	456.12
583.087	455.12
583.298	456.12
583.508	456.12
583.719	451.12
583.929	462.12
584.139	442.12
584.35	436.12
584.56	431.12
584.77	444.12
584.981	450.12
585.191	419.12
585.401	418.12
585.611	403.12
585.821	435.12
586.032	429.12
586.242	424.12
586.452	439.12
586.662	443.12
586.872	414.12
587.082	448.12
587.292	434.12
587.502	432.12
587.713	422.12
587.923	426.12
588.133	441.12
588.343	426.12
588.553	424.12
588.762	430.12
588.972	431.12
589.182	482.12
589.392	471.12
589.602	431.12
589.812	466.12
590.022	466.12
590.232	427.12
590.441	421.12
590.651	440.12
590.861	436.12
591.071	439.12
591.281	455.12
591.49	458.12
591.7	446.12
591.91	440.12
592.119	469.12
592.329	467.12
592.539	486.12
592.748	486.12
592.958	499.12
593.167	530.12
593.377	516.12
593.587	529.12
593.796	558.12
594.006	540.12
594.215	542.12
594.424	554.12
594.634	544.12
594.843	517.12
595.053	494.12
595.262	475.12
595.472	488.12
595.681	440.12
595.89	454.12
596.1	435.12
596.309	422.12
596.518	416.12
596.727	415.12
596.937	393.12
597.146	404.12
597.355	399.12
597.564	396.12
597.774	399.12
597.983	394.12
598.192	372.12
598.401	382.12
598.61	376.12
598.819	393.12
599.028	382.12
599.237	368.12
599.446	374.12
599.655	358.12
599.864	388.12
600.073	374.12
600.282	372.12
600.491	372.12
600.7	379.12
600.909	365.12
601.118	373.12
601.327	362.12
601.536	359.12
601.745	358.12
601.953	358.12
602.162	356.12
602.371	364.12
602.58	339.12
602.789	347.12
602.997	357.12
603.206	362.12
603.415	357.12
603.623	349.12
603.832	355.12
604.041	334.12
604.249	343.12
604.458	325.12
604.666	342.12
604.875	329.12
605.084	330.12
605.292	347.12
605.501	347.12
605.709	335.12
605.918	339.12
606.126	327.12
606.334	343.12
606.543	347.12
606.751	342.12
606.96	314.12
607.168	339.12
607.376	333.12
607.585	322.12
607.793	356.12
608.001	325.12
608.21	334.12
608.418	328.12
608.626	330.12
608.834	333.12
609.043	332.12
609.251	317.12
609.459	325.12
609.667	326.12
609.875	311.12
610.083	326.12
610.291	336.12
610.499	324.12
610.707	303.12
610.916	301.12
611.124	335.12
611.332	316.12
611.54	326.12
611.748	333.12
611.955	316.12
612.163	302.12
612.371	322.12
612.579	334.12
612.787	300.12
612.995	298.12
613.203	319.12
613.411	314.12
613.618	308.12
613.826	313.12
614.034	295.12
614.242	308.12
614.449	306.12
614.657	302.12
614.865	286.12
615.072	293.12
615.28	314.12
615.488	297.12
615.695	303.12
615.903	308.12
616.111	303.12
616.318	319.12
616.526	316.12
616.733	327.12
616.941	324.12
617.148	302.12
617.356	323.12
617.563	311.12
617.771	317.12
617.978	311.12
618.185	315.12
618.393	296.12
618.6	306.12
618.807	278.12
619.015	306.12
619.222	302.12
619.429	292.12
619.637	301.12
619.844	294.12
620.051	295.12
620.258	304.12
620.466	286.12
620.673	284.12
620.88	279.12
621.087	278.12
621.294	278.12
621.501	284.12
621.708	279.12
621.915	269.12
622.122	284.12
622.329	286.12
622.536	280.12
622.743	271.12
622.95	282.12
623.157	268.12
623.364	275.12
623.571	298.12
623.778	264.12
623.985	284.12
624.192	280.12
624.399	286.12
624.606	264.12
624.812	276.12
625.019	265.12
625.226	275.12
625.433	277.12
625.639	281.12
625.846	261.12
626.053	267.12
626.259	254.12
626.466	265.12
626.673	271.12
626.879	270.12
627.086	252.12
627.293	253.12
627.499	259.12
627.706	260.12
627.912	265.12
628.119	248.12
628.325	262.12
628.532	259.12
628.738	270.12
628.945	252.12
629.151	250.12
629.357	270.12
629.564	248.12
629.77	267.12
629.976	248.12
630.183	238.12
630.389	242.12
630.595	240.12
630.802	254.12
631.008	253.12
631.214	242.12
631.42	255.12
631.627	254.12
631.833	230.12
632.039	247.12
632.245	237.12
632.451	232.12
632.657	243.12
632.863	244.12
633.069	231.12
633.275	244.12
633.481	220.12
633.688	230.12
633.893	247.12
634.099	228.12
634.305	218.12
634.511	225.12
634.717	237.12
634.923	227.12
635.129	219.12
635.335	225.12
635.541	222.12
635.747	214.12
635.952	208.12
636.158	220.12
636.364	214.12
636.57	223.12
636.775	224.12
636.981	220.12
637.187	240.12
637.392	229.12
637.598	211.12
637.804	211.12
638.009	206.12
638.215	224.12
638.421	226.12
638.626	218.12
638.832	228.12
639.037	220.12
639.243	212.12
639.448	215.12
639.654	219.12
639.859	197.12
640.065	207.12
640.27	220.12
640.475	220.12
640.681	222.12
640.886	209.12
641.091	208.12
641.297	218.12
641.502	202.12
641.707	215.12
641.913	218.12
642.118	209.12
642.323	197.12
642.528	204.12
642.733	213.12
642.939	207.12
643.144	202.12
643.349	198.12
643.554	204.12
643.759	208.12
643.964	203.12
644.169	199.12
644.374	217.12
644.579	212.12
644.784	191.12
644.989	206.12
645.194	204.12
645.399	209.12
645.604	210.12
645.809	195.12
646.014	209.12
646.219	203.12
646.423	206.12
646.628	201.12
646.833	207.12
647.038	193.12
647.243	188.12
647.447	219.12
647.652	216.12
647.857	205.12
648.062	214.12
648.266	217.12
648.471	225.12
648.676	228.12
648.88	219.12
649.085	202.12
649.289	206.12
649.494	202.12
649.698	195.12
649.903	194.12
650.107	185.12
650.312	191.12
650.516	199.12
650.721	199.12
650.925	192.12
651.13	194.12
651.334	185.12
651.539	176.12
651.743	179.12
651.947	188.12
652.152	186.12
652.356	160.12
652.56	176.12
652.764	185.12
652.969	170.12
653.173	158.12
653.377	144.12
653.581	173.12
653.785	157.12
653.99	149.12
654.194	149.12
654.398	167.12
654.602	164.12
654.806	178.12
655.01	158.12
655.214	157.12
655.418	160.12
655.622	155.12
655.826	151.12
656.03	155.12
656.234	166.12
656.438	168.12
656.642	148.12
656.846	147.12
657.049	125.12
657.253	136.12
657.457	128.12
657.661	127.12
657.865	145.12
658.068	122.12
658.272	123.12
658.476	116.12
658.68	124.12
658.883	113.12
659.087	105.12
659.291	118.12
659.494	118.12
659.698	111.12
659.901	98.12
660.105	126.12
660.309	116.12
660.512	105.12
660.716	101.12
660.919	98.12
661.123	101.12
661.326	88.12
661.53	93.12
661.733	95.12
661.936	100.12
662.14	85.12
662.343	91.12
662.546	87.12
662.75	93.12
662.953	98.12
663.156	102.12
663.36	101.12
663.563	91.12
663.766	83.12
663.969	79.12
664.173	81.12
664.376	98.12
664.579	83.12
664.782	83.12
664.985	88.12
665.188	90.12
665.391	82.12
665.594	75.12
665.797	86.12
666	77.12
666.203	68.12
666.406	87.12
666.609	80.12
666.812	80.12
667.015	83.12
667.218	80.12
667.421	90.12
667.624	86.12
667.827	92.12
668.03	83.12
668.232	77.12
668.435	86.12
668.638	96.12
668.841	93.12
669.043	83.12
669.246	81.12
669.449	93.12
669.651	77.12
669.854	99.12
670.057	101.12
670.259	89.12
670.462	90.12
670.665	91.12
670.867	86.12
671.07	88.12
671.272	86.12
671.475	82.12
671.677	79.12
671.88	83.12
672.082	88.12
672.284	87.12
672.487	91.12
672.689	94.12
672.892	74.12
