Data from NiCl2@0.5M.TitratingCurve.Agarose3%dH2O.NegLispCup.LampEnergy10.LIBS07252019_HRD10591_18-19-16-572.txt Node
Date: Thu Jul 25 18:19:16 EDT 2019
User: cochatt
Spectrometer: HR+D1059
Trigger mode: 1
Integration Time (sec): 1.000000E-1
Scans to average: 1
Electric dark correction enabled: true
Nonlinearity correction enabled: false
Boxcar width: 0
XAxis mode: Wavelengths
Number of Pixels in Spectrum: 2048
>>>>>Begin Spectral Data<<<<<
223.165	-9.25
223.4	-9.25
223.635	-9.25
223.869	-14.25
224.104	-12.25
224.338	-21.25
224.573	-21.25
224.808	-20.25
225.042	-8.25
225.277	-26.25
225.511	-0.25
225.746	5.75
225.98	4.75
226.215	10.75
226.449	27.75
226.683	24.75
226.918	33.75
227.152	25.75
227.387	36.75
227.621	48.75
227.856	52.75
228.09	41.75
228.324	57.75
228.559	39.75
228.793	50.75
229.027	88.75
229.262	95.75
229.496	104.75
229.73	123.75
229.964	121.75
230.199	139.75
230.433	141.75
230.667	134.75
230.901	130.75
231.136	146.75
231.37	122.75
231.604	133.75
231.838	147.75
232.072	143.75
232.306	150.75
232.541	136.75
232.775	128.75
233.009	120.75
233.243	143.75
233.477	138.75
233.711	141.75
233.945	138.75
234.179	136.75
234.413	148.75
234.647	145.75
234.881	133.75
235.115	139.75
235.349	156.75
235.583	135.75
235.817	147.75
236.051	145.75
236.285	155.75
236.519	151.75
236.753	146.75
236.987	135.75
237.221	154.75
237.455	147.75
237.689	151.75
237.922	153.75
238.156	146.75
238.39	148.75
238.624	152.75
238.858	153.75
239.091	157.75
239.325	168.75
239.559	161.75
239.793	166.75
240.027	178.75
240.26	177.75
240.494	155.75
240.728	177.75
240.961	171.75
241.195	165.75
241.429	173.75
241.662	167.75
241.896	170.75
242.13	193.75
242.363	186.75
242.597	190.75
242.83	186.75
243.064	181.75
243.298	177.75
243.531	183.75
243.765	191.75
243.998	181.75
244.232	184.75
244.465	197.75
244.699	193.75
244.932	190.75
245.166	208.75
245.399	198.75
245.633	236.75
245.866	193.75
246.099	195.75
246.333	195.75
246.566	212.75
246.8	190.75
247.033	208.75
247.266	209.75
247.5	236.75
247.733	199.75
247.966	194.75
248.2	241.75
248.433	221.75
248.666	205.75
248.899	223.75
249.133	215.75
249.366	215.75
249.599	213.75
249.832	221.75
250.066	229.75
250.299	232.75
250.532	221.75
250.765	223.75
250.998	230.75
251.231	231.75
251.465	254.75
251.698	221.75
251.931	234.75
252.164	237.75
252.397	228.75
252.63	252.75
252.863	256.75
253.096	241.75
253.329	255.75
253.562	251.75
253.795	253.75
254.028	253.75
254.261	276.75
254.494	261.75
254.727	256.75
254.96	257.75
255.193	262.75
255.426	247.75
255.659	265.75
255.892	278.75
256.124	265.75
256.357	276.75
256.59	271.75
256.823	269.75
257.056	277.75
257.289	283.75
257.521	292.75
257.754	274.75
257.987	287.75
258.22	292.75
258.452	278.75
258.685	291.75
258.918	281.75
259.151	268.75
259.383	290.75
259.616	276.75
259.849	277.75
260.081	286.75
260.314	293.75
260.547	288.75
260.779	303.75
261.012	297.75
261.244	305.75
261.477	302.75
261.71	295.75
261.942	299.75
262.175	312.75
262.407	309.75
262.64	290.75
262.872	312.75
263.105	292.75
263.337	295.75
263.57	311.75
263.802	325.75
264.035	320.75
264.267	303.75
264.499	308.75
264.732	310.75
264.964	311.75
265.197	340.75
265.429	325.75
265.661	332.75
265.894	313.75
266.126	319.75
266.358	319.75
266.591	333.75
266.823	328.75
267.055	308.75
267.287	342.75
267.52	324.75
267.752	333.75
267.984	314.75
268.216	342.75
268.448	346.75
268.681	333.75
268.913	341.75
269.145	345.75
269.377	347.75
269.609	344.75
269.841	338.75
270.073	347.75
270.306	344.75
270.538	348.75
270.77	346.75
271.002	361.75
271.234	341.75
271.466	358.75
271.698	345.75
271.93	363.75
272.162	348.75
272.394	363.75
272.626	353.75
272.858	359.75
273.09	367.75
273.322	377.75
273.553	374.75
273.785	367.75
274.017	357.75
274.249	350.75
274.481	362.75
274.713	356.75
274.945	385.75
275.176	362.75
275.408	357.75
275.64	374.75
275.872	383.75
276.104	383.75
276.335	384.75
276.567	393.75
276.799	363.75
277.031	387.75
277.262	387.75
277.494	407.75
277.726	387.75
277.957	380.75
278.189	423.75
278.421	421.75
278.652	378.75
278.884	395.75
279.115	407.75
279.347	418.75
279.579	416.75
279.81	413.75
280.042	410.75
280.273	414.75
280.505	419.75
280.736	406.75
280.968	417.75
281.199	401.75
281.431	401.75
281.662	421.75
281.894	414.75
282.125	426.75
282.356	425.75
282.588	435.75
282.819	435.75
283.051	443.75
283.282	427.75
283.513	447.75
283.745	436.75
283.976	424.75
284.207	439.75
284.439	455.75
284.67	458.75
284.901	434.75
285.132	448.75
285.364	435.75
285.595	427.75
285.826	443.75
286.057	437.75
286.288	427.75
286.52	441.75
286.751	466.75
286.982	474.75
287.213	461.75
287.444	465.75
287.675	457.75
287.906	483.75
288.138	451.75
288.369	474.75
288.6	452.75
288.831	478.75
289.062	476.75
289.293	463.75
289.524	460.75
289.755	469.75
289.986	473.75
290.217	472.75
290.448	473.75
290.679	476.75
290.91	480.75
291.141	481.75
291.371	500.75
291.602	490.75
291.833	472.75
292.064	489.75
292.295	493.75
292.526	492.75
292.757	492.75
292.987	496.75
293.218	477.75
293.449	483.75
293.68	471.75
293.91	478.75
294.141	475.75
294.372	493.75
294.603	490.75
294.833	486.75
295.064	491.75
295.295	516.75
295.525	503.75
295.756	513.75
295.987	496.75
296.217	506.75
296.448	521.75
296.679	500.75
296.909	500.75
297.14	522.75
297.37	523.75
297.601	525.75
297.831	510.75
298.062	536.75
298.292	509.75
298.523	548.75
298.753	532.75
298.984	521.75
299.214	529.75
299.445	543.75
299.675	533.75
299.905	529.75
300.136	516.75
300.366	522.75
300.597	532.75
300.827	541.75
301.057	555.75
301.288	553.75
301.518	539.75
301.748	573.75
301.979	553.75
302.209	549.75
302.439	551.75
302.669	561.75
302.9	531.75
303.13	552.75
303.36	534.75
303.59	543.75
303.82	553.75
304.051	567.75
304.281	559.75
304.511	547.75
304.741	581.75
304.971	548.75
305.201	561.75
305.431	569.75
305.661	537.75
305.891	569.75
306.121	572.75
306.352	553.75
306.582	532.75
306.812	544.75
307.042	551.75
307.272	551.75
307.502	537.75
307.731	551.75
307.961	556.75
308.191	546.75
308.421	551.75
308.651	563.75
308.881	559.75
309.111	539.75
309.341	560.75
309.571	561.75
309.8	559.75
310.03	573.75
310.26	565.75
310.49	543.75
310.72	551.75
310.949	569.75
311.179	561.75
311.409	562.75
311.639	582.75
311.868	556.75
312.098	574.75
312.328	548.75
312.557	578.75
312.787	588.75
313.017	566.75
313.246	592.75
313.476	572.75
313.706	610.75
313.935	581.75
314.165	585.75
314.394	599.75
314.624	600.75
314.853	578.75
315.083	597.75
315.312	595.75
315.542	591.75
315.771	588.75
316.001	609.75
316.23	583.75
316.46	612.75
316.689	609.75
316.919	580.75
317.148	599.75
317.377	627.75
317.607	604.75
317.836	598.75
318.065	593.75
318.295	583.75
318.524	605.75
318.753	604.75
318.983	618.75
319.212	589.75
319.441	595.75
319.67	599.75
319.9	603.75
320.129	616.75
320.358	596.75
320.587	580.75
320.816	598.75
321.046	593.75
321.275	628.75
321.504	588.75
321.733	627.75
321.962	617.75
322.191	615.75
322.42	602.75
322.649	639.75
322.878	611.75
323.108	620.75
323.337	634.75
323.566	611.75
323.795	644.75
324.024	628.75
324.253	629.75
324.482	638.75
324.71	611.75
324.939	635.75
325.168	656.75
325.397	636.75
325.626	641.75
325.855	653.75
326.084	651.75
326.313	642.75
326.542	675.75
326.77	682.75
326.999	645.75
327.228	627.75
327.457	619.75
327.686	647.75
327.914	635.75
328.143	668.75
328.372	644.75
328.6	661.75
328.829	661.75
329.058	658.75
329.287	651.75
329.515	655.75
329.744	649.75
329.972	661.75
330.201	673.75
330.43	657.75
330.658	665.75
330.887	665.75
331.115	683.75
331.344	668.75
331.572	676.75
331.801	694.75
332.03	709.75
332.258	726.75
332.486	732.75
332.715	740.75
332.943	779.75
333.172	799.75
333.4	811.75
333.629	825.75
333.857	815.75
334.085	811.75
334.314	839.75
334.542	810.75
334.771	810.75
334.999	786.75
335.227	780.75
335.455	773.75
335.684	777.75
335.912	792.75
336.14	756.75
336.369	770.75
336.597	765.75
336.825	787.75
337.053	764.75
337.281	759.75
337.51	758.75
337.738	725.75
337.966	716.75
338.194	760.75
338.422	740.75
338.65	699.75
338.878	725.75
339.106	703.75
339.334	723.75
339.562	715.75
339.79	691.75
340.018	656.75
340.246	651.75
340.474	703.75
340.702	682.75
340.93	671.75
341.158	669.75
341.386	714.75
341.614	703.75
341.842	714.75
342.07	660.75
342.298	682.75
342.526	697.75
342.754	699.75
342.981	702.75
343.209	689.75
343.437	736.75
343.665	777.75
343.893	808.75
344.12	810.75
344.348	777.75
344.576	773.75
344.804	749.75
345.031	718.75
345.259	714.75
345.487	676.75
345.714	701.75
345.942	695.75
346.17	696.75
346.397	661.75
346.625	678.75
346.853	653.75
347.08	655.75
347.308	648.75
347.535	643.75
347.763	653.75
347.99	652.75
348.218	656.75
348.445	653.75
348.673	657.75
348.9	653.75
349.128	646.75
349.355	656.75
349.583	653.75
349.81	685.75
350.037	641.75
350.265	666.75
350.492	647.75
350.72	641.75
350.947	642.75
351.174	647.75
351.402	654.75
351.629	667.75
351.856	653.75
352.083	646.75
352.311	641.75
352.538	640.75
352.765	638.75
352.992	636.75
353.22	629.75
353.447	635.75
353.674	627.75
353.901	634.75
354.128	625.75
354.355	633.75
354.583	641.75
354.81	647.75
355.037	632.75
355.264	652.75
355.491	627.75
355.718	645.75
355.945	635.75
356.172	637.75
356.399	633.75
356.626	660.75
356.853	643.75
357.08	635.75
357.307	632.75
357.534	641.75
357.761	650.75
357.988	628.75
358.215	623.75
358.441	619.75
358.668	615.75
358.895	616.75
359.122	617.75
359.349	636.75
359.576	623.75
359.802	610.75
360.029	641.75
360.256	612.75
360.483	623.75
360.709	628.75
360.936	642.75
361.163	627.75
361.39	645.75
361.616	637.75
361.843	637.75
362.07	627.75
362.296	643.75
362.523	619.75
362.749	622.75
362.976	631.75
363.203	609.75
363.429	611.75
363.656	619.75
363.882	599.75
364.109	616.75
364.335	632.75
364.562	627.75
364.788	606.75
365.015	604.75
365.241	635.75
365.468	626.75
365.694	629.75
365.92	612.75
366.147	628.75
366.373	615.75
366.599	641.75
366.826	615.75
367.052	601.75
367.278	619.75
367.505	627.75
367.731	628.75
367.957	636.75
368.184	616.75
368.41	627.75
368.636	663.75
368.862	642.75
369.089	627.75
369.315	643.75
369.541	631.75
369.767	621.75
369.993	636.75
370.219	633.75
370.445	644.75
370.672	663.75
370.898	653.75
371.124	666.75
371.35	665.75
371.576	664.75
371.802	673.75
372.028	649.75
372.254	676.75
372.48	654.75
372.706	663.75
372.932	707.75
373.158	680.75
373.384	683.75
373.61	667.75
373.835	653.75
374.061	676.75
374.287	679.75
374.513	659.75
374.739	684.75
374.965	699.75
375.191	707.75
375.416	705.75
375.642	708.75
375.868	704.75
376.094	704.75
376.319	669.75
376.545	679.75
376.771	652.75
376.997	641.75
377.222	640.75
377.448	626.75
377.674	667.75
377.899	643.75
378.125	637.75
378.35	659.75
378.576	659.75
378.802	648.75
379.027	642.75
379.253	641.75
379.478	667.75
379.704	650.75
379.929	658.75
380.155	647.75
380.38	649.75
380.606	652.75
380.831	658.75
381.057	656.75
381.282	654.75
381.507	650.75
381.733	666.75
381.958	690.75
382.184	680.75
382.409	663.75
382.634	681.75
382.86	692.75
383.085	704.75
383.31	704.75
383.535	719.75
383.761	709.75
383.986	717.75
384.211	762.75
384.436	748.75
384.662	744.75
384.887	759.75
385.112	748.75
385.337	767.75
385.562	740.75
385.787	758.75
386.013	755.75
386.238	758.75
386.463	776.75
386.688	778.75
386.913	753.75
387.138	767.75
387.363	776.75
387.588	753.75
387.813	755.75
388.038	786.75
388.263	761.75
388.488	750.75
388.713	761.75
388.938	748.75
389.163	748.75
389.387	773.75
389.612	760.75
389.837	749.75
390.062	752.75
390.287	775.75
390.512	763.75
390.736	759.75
390.961	772.75
391.186	785.75
391.411	798.75
391.636	829.75
391.86	843.75
392.085	853.75
392.31	840.75
392.534	817.75
392.759	828.75
392.984	776.75
393.208	800.75
393.433	797.75
393.658	787.75
393.882	808.75
394.107	796.75
394.331	782.75
394.556	803.75
394.78	832.75
395.005	817.75
395.229	845.75
395.454	855.75
395.678	849.75
395.903	827.75
396.127	834.75
396.352	817.75
396.576	856.75
396.801	817.75
397.025	828.75
397.249	815.75
397.474	843.75
397.698	843.75
397.922	846.75
398.147	837.75
398.371	887.75
398.595	894.75
398.82	935.75
399.044	984.75
399.268	1078.75
399.492	1215.75
399.717	1298.75
399.941	1293.75
400.165	1183.75
400.389	1085.75
400.613	1009.75
400.837	977.75
401.062	946.75
401.286	944.75
401.51	946.75
401.734	934.75
401.958	954.75
402.182	963.75
402.406	955.75
402.63	969.75
402.854	1003.75
403.078	1002.75
403.302	1015.75
403.526	1039.75
403.75	1068.75
403.974	1072.75
404.198	1031.75
404.422	1043.75
404.645	1033.75
404.869	1057.75
405.093	1038.75
405.317	1040.75
405.541	1039.75
405.765	1041.75
405.988	1023.75
406.212	1002.75
406.436	1020.75
406.66	1053.75
406.883	1053.75
407.107	1107.75
407.331	1153.75
407.555	1184.75
407.778	1190.75
408.002	1169.75
408.226	1108.75
408.449	1107.75
408.673	1059.75
408.896	1045.75
409.12	1048.75
409.344	1046.75
409.567	1042.75
409.791	1037.75
410.014	1033.75
410.238	1056.75
410.461	1048.75
410.685	1051.75
410.908	1028.75
411.132	994.75
411.355	962.75
411.578	1012.75
411.802	998.75
412.025	989.75
412.249	979.75
412.472	973.75
412.695	963.75
412.919	928.75
413.142	943.75
413.365	970.75
413.589	963.75
413.812	939.75
414.035	909.75
414.258	945.75
414.482	971.75
414.705	996.75
414.928	943.75
415.151	954.75
415.374	960.75
415.597	939.75
415.821	940.75
416.044	931.75
416.267	936.75
416.49	925.75
416.713	940.75
416.936	929.75
417.159	964.75
417.382	939.75
417.605	936.75
417.828	956.75
418.051	943.75
418.274	939.75
418.497	936.75
418.72	978.75
418.943	983.75
419.166	1018.75
419.389	1081.75
419.611	1060.75
419.834	1036.75
420.057	983.75
420.28	945.75
420.503	933.75
420.726	939.75
420.948	905.75
421.171	928.75
421.394	954.75
421.617	943.75
421.839	974.75
422.062	943.75
422.285	928.75
422.507	975.75
422.73	992.75
422.953	949.75
423.175	1005.75
423.398	964.75
423.621	979.75
423.843	989.75
424.066	995.75
424.288	965.75
424.511	1006.75
424.733	978.75
424.956	955.75
425.178	944.75
425.401	963.75
425.623	937.75
425.846	919.75
426.068	926.75
426.291	923.75
426.513	911.75
426.735	905.75
426.958	905.75
427.18	912.75
427.402	909.75
427.625	869.75
427.847	891.75
428.069	909.75
428.292	884.75
428.514	881.75
428.736	861.75
428.958	858.75
429.181	865.75
429.403	858.75
429.625	866.75
429.847	813.75
430.069	871.75
430.292	868.75
430.514	857.75
430.736	851.75
430.958	867.75
431.18	874.75
431.402	879.75
431.624	894.75
431.846	870.75
432.068	872.75
432.29	883.75
432.512	879.75
432.734	872.75
432.956	882.75
433.178	869.75
433.4	881.75
433.622	869.75
433.844	888.75
434.066	869.75
434.287	898.75
434.509	929.75
434.731	949.75
434.953	950.75
435.175	986.75
435.397	962.75
435.618	936.75
435.84	888.75
436.062	907.75
436.284	890.75
436.505	874.75
436.727	871.75
436.949	865.75
437.17	861.75
437.392	860.75
437.614	859.75
437.835	881.75
438.057	871.75
438.278	875.75
438.5	855.75
438.721	848.75
438.943	882.75
439.165	833.75
439.386	859.75
439.608	858.75
439.829	899.75
440.05	875.75
440.272	877.75
440.493	893.75
440.715	927.75
440.936	906.75
441.158	933.75
441.379	952.75
441.6	981.75
441.822	966.75
442.043	981.75
442.264	989.75
442.486	927.75
442.707	950.75
442.928	989.75
443.149	959.75
443.371	970.75
443.592	978.75
443.813	974.75
444.034	991.75
444.255	1019.75
444.476	1051.75
444.698	1105.75
444.919	1147.75
445.14	1183.75
445.361	1066.75
445.582	1021.75
445.803	939.75
446.024	922.75
446.245	916.75
446.466	916.75
446.687	889.75
446.908	894.75
447.129	899.75
447.35	870.75
447.571	866.75
447.792	831.75
448.013	882.75
448.234	838.75
448.455	842.75
448.675	841.75
448.896	799.75
449.117	813.75
449.338	807.75
449.559	804.75
449.779	803.75
450	812.75
450.221	810.75
450.442	842.75
450.662	809.75
450.883	789.75
451.104	824.75
451.324	825.75
451.545	848.75
451.766	827.75
451.986	819.75
452.207	813.75
452.428	825.75
452.648	811.75
452.869	790.75
453.089	804.75
453.31	825.75
453.53	792.75
453.751	801.75
453.971	811.75
454.192	787.75
454.412	787.75
454.633	780.75
454.853	775.75
455.073	788.75
455.294	778.75
455.514	793.75
455.734	793.75
455.955	756.75
456.175	776.75
456.395	760.75
456.616	768.75
456.836	743.75
457.056	787.75
457.276	755.75
457.497	769.75
457.717	771.75
457.937	821.75
458.157	812.75
458.377	785.75
458.598	818.75
458.818	826.75
459.038	850.75
459.258	862.75
459.478	903.75
459.698	919.75
459.918	958.75
460.138	971.75
460.358	1028.75
460.578	1002.75
460.798	1007.75
461.018	1018.75
461.238	1019.75
461.458	1034.75
461.678	1027.75
461.898	1038.75
462.118	1047.75
462.338	1104.75
462.558	1109.75
462.777	1118.75
462.997	1216.75
463.217	1313.75
463.437	1320.75
463.657	1212.75
463.876	1186.75
464.096	1151.75
464.316	1151.75
464.536	1163.75
464.755	1148.75
464.975	1065.75
465.195	1065.75
465.414	1000.75
465.634	956.75
465.854	931.75
466.073	916.75
466.293	916.75
466.512	889.75
466.732	882.75
466.951	874.75
467.171	858.75
467.391	892.75
467.61	881.75
467.829	836.75
468.049	887.75
468.268	850.75
468.488	835.75
468.707	843.75
468.927	851.75
469.146	852.75
469.365	874.75
469.585	859.75
469.804	882.75
470.023	895.75
470.243	887.75
470.462	864.75
470.681	915.75
470.901	893.75
471.12	892.75
471.339	911.75
471.558	876.75
471.777	858.75
471.997	840.75
472.216	830.75
472.435	851.75
472.654	847.75
472.873	817.75
473.092	843.75
473.311	858.75
473.53	829.75
473.749	833.75
473.968	827.75
474.187	808.75
474.406	823.75
474.625	829.75
474.844	825.75
475.063	858.75
475.282	881.75
475.501	859.75
475.72	855.75
475.939	866.75
476.158	844.75
476.377	852.75
476.596	883.75
476.814	881.75
477.033	873.75
477.252	897.75
477.471	916.75
477.69	913.75
477.908	940.75
478.127	956.75
478.346	1001.75
478.564	961.75
478.783	1001.75
479.002	1045.75
479.22	1048.75
479.439	1005.75
479.658	1001.75
479.876	1011.75
480.095	1044.75
480.313	1054.75
480.532	1076.75
480.751	1104.75
480.969	1009.75
481.188	1007.75
481.406	996.75
481.624	1004.75
481.843	965.75
482.061	967.75
482.28	958.75
482.498	987.75
482.717	939.75
482.935	955.75
483.153	959.75
483.372	970.75
483.59	973.75
483.808	956.75
484.027	939.75
484.245	956.75
484.463	981.75
484.681	993.75
484.9	994.75
485.118	987.75
485.336	975.75
485.554	998.75
485.772	982.75
485.99	1001.75
486.209	1006.75
486.427	1021.75
486.645	986.75
486.863	1011.75
487.081	1021.75
487.299	1037.75
487.517	988.75
487.735	1009.75
487.953	1065.75
488.171	1017.75
488.389	988.75
488.607	996.75
488.825	988.75
489.043	1020.75
489.261	1014.75
489.479	1004.75
489.696	963.75
489.914	1012.75
490.132	1040.75
490.35	985.75
490.568	991.75
490.786	1051.75
491.003	1027.75
491.221	1008.75
491.439	1033.75
491.657	1047.75
491.874	1029.75
492.092	1065.75
492.31	1096.75
492.527	1088.75
492.745	1066.75
492.963	1051.75
493.18	1076.75
493.398	1047.75
493.615	1063.75
493.833	1083.75
494.05	1076.75
494.268	1099.75
494.485	1068.75
494.703	1093.75
494.92	1077.75
495.138	1083.75
495.355	1092.75
495.573	1099.75
495.79	1057.75
496.008	1112.75
496.225	1117.75
496.442	1115.75
496.66	1127.75
496.877	1161.75
497.094	1163.75
497.312	1153.75
497.529	1196.75
497.746	1221.75
497.963	1268.75
498.181	1304.75
498.398	1321.75
498.615	1361.75
498.832	1455.75
499.049	1547.75
499.267	1641.75
499.484	1772.75
499.701	1951.75
499.918	2119.75
500.135	2352.75
500.352	2584.75
500.569	2732.75
500.786	2652.75
501.003	2516.75
501.22	2264.75
501.437	2061.75
501.654	1864.75
501.871	1751.75
502.088	1619.75
502.305	1486.75
502.522	1425.75
502.739	1413.75
502.956	1343.75
503.172	1265.75
503.389	1222.75
503.606	1207.75
503.823	1203.75
504.04	1177.75
504.256	1188.75
504.473	1193.75
504.69	1240.75
504.907	1187.75
505.123	1132.75
505.34	1118.75
505.557	1043.75
505.773	1023.75
505.99	1011.75
506.207	988.75
506.423	972.75
506.64	978.75
506.856	984.75
507.073	926.75
507.289	936.75
507.506	934.75
507.722	952.75
507.939	922.75
508.155	920.75
508.372	909.75
508.588	925.75
508.805	922.75
509.021	912.75
509.238	923.75
509.454	863.75
509.67	881.75
509.887	867.75
510.103	861.75
510.319	855.75
510.536	860.75
510.752	864.75
510.968	835.75
511.184	843.75
511.401	872.75
511.617	840.75
511.833	868.75
512.049	819.75
512.265	863.75
512.481	840.75
512.698	839.75
512.914	852.75
513.13	845.75
513.346	873.75
513.562	849.75
513.778	860.75
513.994	854.75
514.21	873.75
514.426	867.75
514.642	859.75
514.858	888.75
515.074	903.75
515.29	915.75
515.506	889.75
515.721	922.75
515.937	907.75
516.153	935.75
516.369	937.75
516.585	988.75
516.801	992.75
517.016	1010.75
517.232	1043.75
517.448	1063.75
517.664	1086.75
517.879	1116.75
518.095	1084.75
518.311	1084.75
518.527	1042.75
518.742	1014.75
518.958	1002.75
519.173	982.75
519.389	947.75
519.605	901.75
519.82	901.75
520.036	911.75
520.251	884.75
520.467	852.75
520.682	839.75
520.898	851.75
521.113	825.75
521.329	839.75
521.544	812.75
521.76	813.75
521.975	812.75
522.19	804.75
522.406	797.75
522.621	812.75
522.836	808.75
523.052	810.75
523.267	795.75
523.482	787.75
523.698	772.75
523.913	782.75
524.128	811.75
524.343	766.75
524.559	788.75
524.774	776.75
524.989	811.75
525.204	794.75
525.419	763.75
525.634	752.75
525.849	753.75
526.064	776.75
526.28	783.75
526.495	752.75
526.71	759.75
526.925	768.75
527.14	751.75
527.355	757.75
527.57	752.75
527.785	763.75
527.999	764.75
528.214	764.75
528.429	776.75
528.644	785.75
528.859	788.75
529.074	765.75
529.289	785.75
529.503	793.75
529.718	798.75
529.933	751.75
530.148	774.75
530.363	788.75
530.577	753.75
530.792	757.75
531.007	722.75
531.221	750.75
531.436	761.75
531.651	773.75
531.865	759.75
532.08	793.75
532.295	731.75
532.509	745.75
532.724	741.75
532.938	809.75
533.153	758.75
533.367	740.75
533.582	744.75
533.796	740.75
534.011	745.75
534.225	736.75
534.44	759.75
534.654	715.75
534.868	740.75
535.083	771.75
535.297	720.75
535.511	717.75
535.726	732.75
535.94	709.75
536.154	709.75
536.369	728.75
536.583	713.75
536.797	721.75
537.011	706.75
537.225	691.75
537.44	713.75
537.654	671.75
537.868	698.75
538.082	704.75
538.296	699.75
538.51	688.75
538.724	691.75
538.938	716.75
539.153	721.75
539.367	694.75
539.581	675.75
539.795	691.75
540.009	678.75
540.222	684.75
540.436	700.75
540.65	675.75
540.864	654.75
541.078	687.75
541.292	694.75
541.506	682.75
541.72	686.75
541.934	699.75
542.147	711.75
542.361	696.75
542.575	679.75
542.789	690.75
543.002	684.75
543.216	666.75
543.43	649.75
543.644	671.75
543.857	680.75
544.071	681.75
544.285	705.75
544.498	712.75
544.712	689.75
544.925	705.75
545.139	694.75
545.352	680.75
545.566	703.75
545.779	710.75
545.993	722.75
546.206	720.75
546.42	689.75
546.633	703.75
546.847	700.75
547.06	663.75
547.274	723.75
547.487	700.75
547.7	720.75
547.914	714.75
548.127	722.75
548.34	721.75
548.554	717.75
548.767	699.75
548.98	696.75
549.193	683.75
549.407	698.75
549.62	716.75
549.833	718.75
550.046	689.75
550.259	701.75
550.473	693.75
550.686	699.75
550.899	672.75
551.112	689.75
551.325	691.75
551.538	659.75
551.751	660.75
551.964	693.75
552.177	698.75
552.39	708.75
552.603	695.75
552.816	711.75
553.029	746.75
553.242	737.75
553.455	736.75
553.667	749.75
553.88	740.75
554.093	713.75
554.306	693.75
554.519	679.75
554.732	682.75
554.944	661.75
555.157	665.75
555.37	669.75
555.583	647.75
555.795	641.75
556.008	611.75
556.221	621.75
556.433	624.75
556.646	628.75
556.859	630.75
557.071	613.75
557.284	607.75
557.496	618.75
557.709	612.75
557.921	583.75
558.134	595.75
558.346	591.75
558.559	607.75
558.771	591.75
558.984	593.75
559.196	577.75
559.409	591.75
559.621	584.75
559.833	578.75
560.046	584.75
560.258	569.75
560.47	588.75
560.683	601.75
560.895	583.75
561.107	563.75
561.32	568.75
561.532	588.75
561.744	582.75
561.956	581.75
562.168	551.75
562.381	563.75
562.593	586.75
562.805	559.75
563.017	589.75
563.229	553.75
563.441	580.75
563.653	599.75
563.865	575.75
564.077	599.75
564.289	597.75
564.501	570.75
564.713	587.75
564.925	611.75
565.137	616.75
565.349	618.75
565.561	634.75
565.773	654.75
565.985	688.75
566.197	715.75
566.408	761.75
566.62	795.75
566.832	829.75
567.044	853.75
567.255	851.75
567.467	864.75
567.679	911.75
567.891	997.75
568.102	970.75
568.314	952.75
568.526	850.75
568.737	787.75
568.949	733.75
569.161	672.75
569.372	640.75
569.584	627.75
569.795	600.75
570.007	587.75
570.218	572.75
570.43	579.75
570.641	565.75
570.853	578.75
571.064	567.75
571.276	573.75
571.487	563.75
571.698	540.75
571.91	543.75
572.121	518.75
572.333	530.75
572.544	516.75
572.755	509.75
572.966	488.75
573.178	471.75
573.389	480.75
573.6	472.75
573.811	475.75
574.023	467.75
574.234	471.75
574.445	472.75
574.656	479.75
574.867	491.75
575.078	451.75
575.289	458.75
575.501	441.75
575.712	449.75
575.923	437.75
576.134	460.75
576.345	453.75
576.556	437.75
576.767	444.75
576.978	429.75
577.188	441.75
577.399	436.75
577.61	433.75
577.821	436.75
578.032	427.75
578.243	404.75
578.454	435.75
578.665	427.75
578.875	410.75
579.086	434.75
579.297	415.75
579.508	422.75
579.718	418.75
579.929	420.75
580.14	408.75
580.35	409.75
580.561	403.75
580.772	410.75
580.982	404.75
581.193	427.75
581.403	393.75
581.614	401.75
581.825	403.75
582.035	397.75
582.246	394.75
582.456	387.75
582.667	405.75
582.877	391.75
583.087	385.75
583.298	387.75
583.508	409.75
583.719	383.75
583.929	401.75
584.139	388.75
584.35	393.75
584.56	395.75
584.77	376.75
584.981	381.75
585.191	380.75
585.401	396.75
585.611	382.75
585.821	377.75
586.032	372.75
586.242	372.75
586.452	380.75
586.662	361.75
586.872	369.75
587.082	362.75
587.292	377.75
587.502	379.75
587.713	375.75
587.923	375.75
588.133	358.75
588.343	385.75
588.553	377.75
588.762	355.75
588.972	379.75
589.182	428.75
589.392	440.75
589.602	385.75
589.812	419.75
590.022	413.75
590.232	396.75
590.441	388.75
590.651	364.75
590.861	385.75
591.071	382.75
591.281	370.75
591.49	359.75
591.7	387.75
591.91	387.75
592.119	387.75
592.329	408.75
592.539	412.75
592.748	395.75
592.958	407.75
593.167	447.75
593.377	439.75
593.587	451.75
593.796	436.75
594.006	445.75
594.215	452.75
594.424	454.75
594.634	446.75
594.843	415.75
595.053	399.75
595.262	417.75
595.472	391.75
595.681	383.75
595.89	392.75
596.1	348.75
596.309	385.75
596.518	341.75
596.727	354.75
596.937	370.75
597.146	344.75
597.355	337.75
597.564	342.75
597.774	343.75
597.983	333.75
598.192	327.75
598.401	331.75
598.61	329.75
598.819	321.75
599.028	338.75
599.237	341.75
599.446	332.75
599.655	328.75
599.864	324.75
600.073	322.75
600.282	319.75
600.491	310.75
600.7	307.75
600.909	321.75
601.118	305.75
601.327	315.75
601.536	320.75
601.745	307.75
601.953	298.75
602.162	303.75
602.371	318.75
602.58	320.75
602.789	315.75
602.997	297.75
603.206	325.75
603.415	325.75
603.623	294.75
603.832	314.75
604.041	295.75
604.249	283.75
604.458	312.75
604.666	279.75
604.875	279.75
605.084	303.75
605.292	277.75
605.501	303.75
605.709	308.75
605.918	290.75
606.126	289.75
606.334	284.75
606.543	287.75
606.751	267.75
606.96	276.75
607.168	289.75
607.376	287.75
607.585	289.75
607.793	283.75
608.001	275.75
608.21	278.75
608.418	284.75
608.626	285.75
608.834	284.75
609.043	283.75
609.251	272.75
609.459	270.75
609.667	296.75
609.875	272.75
610.083	287.75
610.291	275.75
610.499	263.75
610.707	283.75
610.916	265.75
611.124	298.75
611.332	275.75
611.54	277.75
611.748	278.75
611.955	282.75
612.163	295.75
612.371	282.75
612.579	280.75
612.787	278.75
612.995	257.75
613.203	274.75
613.411	273.75
613.618	265.75
613.826	275.75
614.034	273.75
614.242	277.75
614.449	277.75
614.657	283.75
614.865	266.75
615.072	266.75
615.28	263.75
615.488	259.75
615.695	277.75
615.903	290.75
616.111	273.75
616.318	276.75
616.526	278.75
616.733	275.75
616.941	269.75
617.148	269.75
617.356	274.75
617.563	255.75
617.771	257.75
617.978	277.75
618.185	267.75
618.393	267.75
618.6	260.75
618.807	277.75
619.015	277.75
619.222	259.75
619.429	249.75
619.637	269.75
619.844	271.75
620.051	256.75
620.258	274.75
620.466	236.75
620.673	267.75
620.88	255.75
621.087	268.75
621.294	262.75
621.501	261.75
621.708	265.75
621.915	261.75
622.122	237.75
622.329	253.75
622.536	240.75
622.743	240.75
622.95	264.75
623.157	243.75
623.364	239.75
623.571	232.75
623.778	236.75
623.985	229.75
624.192	240.75
624.399	226.75
624.606	239.75
624.812	252.75
625.019	245.75
625.226	227.75
625.433	243.75
625.639	229.75
625.846	237.75
626.053	229.75
626.259	235.75
626.466	231.75
626.673	234.75
626.879	230.75
627.086	246.75
627.293	234.75
627.499	242.75
627.706	221.75
627.912	226.75
628.119	241.75
628.325	220.75
628.532	223.75
628.738	211.75
628.945	209.75
629.151	217.75
629.357	222.75
629.564	248.75
629.77	217.75
629.976	228.75
630.183	225.75
630.389	234.75
630.595	205.75
630.802	231.75
631.008	214.75
631.214	224.75
631.42	221.75
631.627	234.75
631.833	200.75
632.039	224.75
632.245	224.75
632.451	223.75
632.657	212.75
632.863	203.75
633.069	224.75
633.275	225.75
633.481	203.75
633.688	195.75
633.893	215.75
634.099	217.75
634.305	196.75
634.511	224.75
634.717	198.75
634.923	200.75
635.129	201.75
635.335	204.75
635.541	205.75
635.747	194.75
635.952	201.75
636.158	184.75
636.364	198.75
636.57	203.75
636.775	189.75
636.981	202.75
637.187	200.75
637.392	205.75
637.598	194.75
637.804	196.75
638.009	201.75
638.215	178.75
638.421	200.75
638.626	191.75
638.832	200.75
639.037	185.75
639.243	194.75
639.448	167.75
639.654	189.75
639.859	195.75
640.065	193.75
640.27	190.75
640.475	196.75
640.681	190.75
640.886	193.75
641.091	195.75
641.297	208.75
641.502	186.75
641.707	188.75
641.913	182.75
642.118	183.75
642.323	181.75
642.528	180.75
642.733	193.75
642.939	193.75
643.144	183.75
643.349	173.75
643.554	194.75
643.759	176.75
643.964	185.75
644.169	186.75
644.374	185.75
644.579	204.75
644.784	178.75
644.989	172.75
645.194	168.75
645.399	179.75
645.604	169.75
645.809	159.75
646.014	184.75
646.219	183.75
646.423	185.75
646.628	188.75
646.833	172.75
647.038	168.75
647.243	181.75
647.447	179.75
647.652	197.75
647.857	201.75
648.062	198.75
648.266	191.75
648.471	200.75
648.676	185.75
648.88	209.75
649.085	170.75
649.289	185.75
649.494	193.75
649.698	180.75
649.903	193.75
650.107	167.75
650.312	198.75
650.516	171.75
650.721	160.75
650.925	170.75
651.13	187.75
651.334	179.75
651.539	173.75
651.743	170.75
651.947	161.75
652.152	164.75
652.356	154.75
652.56	159.75
652.764	166.75
652.969	171.75
653.173	151.75
653.377	152.75
653.581	167.75
653.785	153.75
653.99	169.75
654.194	145.75
654.398	141.75
654.602	156.75
654.806	147.75
655.01	159.75
655.214	151.75
655.418	148.75
655.622	133.75
655.826	141.75
656.03	140.75
656.234	144.75
656.438	145.75
656.642	147.75
656.846	131.75
657.049	146.75
657.253	142.75
657.457	133.75
657.661	131.75
657.865	135.75
658.068	127.75
658.272	130.75
658.476	115.75
658.68	115.75
658.883	115.75
659.087	120.75
659.291	111.75
659.494	100.75
659.698	117.75
659.901	97.75
660.105	94.75
660.309	95.75
660.512	99.75
660.716	115.75
660.919	86.75
661.123	99.75
661.326	88.75
661.53	90.75
661.733	92.75
661.936	102.75
662.14	99.75
662.343	74.75
662.546	86.75
662.75	79.75
662.953	78.75
663.156	89.75
663.36	92.75
663.563	88.75
663.766	94.75
663.969	100.75
664.173	84.75
664.376	87.75
664.579	87.75
664.782	95.75
664.985	78.75
665.188	68.75
665.391	87.75
665.594	84.75
665.797	81.75
666	72.75
666.203	79.75
666.406	88.75
666.609	75.75
666.812	78.75
667.015	89.75
667.218	92.75
667.421	84.75
667.624	87.75
667.827	72.75
668.03	88.75
668.232	88.75
668.435	80.75
668.638	81.75
668.841	88.75
669.043	87.75
669.246	83.75
669.449	85.75
669.651	83.75
669.854	74.75
670.057	73.75
670.259	88.75
670.462	93.75
670.665	84.75
670.867	92.75
671.07	80.75
671.272	75.75
671.475	91.75
671.677	88.75
671.88	96.75
672.082	65.75
672.284	83.75
672.487	77.75
672.689	78.75
672.892	79.75
