Data from NiCl2@0.25M.TitratingCurve.Agarose3%dH2O.NegLispCup.LampEnergy10.LIBS07252019_HRD10591_18-23-25-572.txt Node
Date: Thu Jul 25 18:23:25 EDT 2019
User: cochatt
Spectrometer: HR+D1059
Trigger mode: 1
Integration Time (sec): 1.000000E-1
Scans to average: 1
Electric dark correction enabled: true
Nonlinearity correction enabled: false
Boxcar width: 0
XAxis mode: Wavelengths
Number of Pixels in Spectrum: 2048
>>>>>Begin Spectral Data<<<<<
223.165	-1.31
223.4	-1.31
223.635	-1.31
223.869	-22.31
224.104	-32.31
224.338	-16.31
224.573	-11.31
224.808	-20.31
225.042	-5.31
225.277	0.69
225.511	4.69
225.746	1.69
225.98	-6.31
226.215	22.69
226.449	12.69
226.683	18.69
226.918	30.69
227.152	23.69
227.387	38.69
227.621	39.69
227.856	50.69
228.09	38.69
228.324	45.69
228.559	53.69
228.793	62.69
229.027	115.69
229.262	120.69
229.496	120.69
229.73	121.69
229.964	133.69
230.199	125.69
230.433	130.69
230.667	126.69
230.901	142.69
231.136	146.69
231.37	160.69
231.604	160.69
231.838	145.69
232.072	156.69
232.306	156.69
232.541	156.69
232.775	164.69
233.009	147.69
233.243	152.69
233.477	153.69
233.711	162.69
233.945	154.69
234.179	159.69
234.413	153.69
234.647	156.69
234.881	154.69
235.115	148.69
235.349	168.69
235.583	172.69
235.817	169.69
236.051	171.69
236.285	168.69
236.519	155.69
236.753	176.69
236.987	150.69
237.221	163.69
237.455	164.69
237.689	156.69
237.922	166.69
238.156	166.69
238.39	170.69
238.624	193.69
238.858	169.69
239.091	167.69
239.325	184.69
239.559	173.69
239.793	206.69
240.027	192.69
240.26	174.69
240.494	177.69
240.728	199.69
240.961	187.69
241.195	181.69
241.429	197.69
241.662	206.69
241.896	212.69
242.13	210.69
242.363	209.69
242.597	216.69
242.83	220.69
243.064	197.69
243.298	216.69
243.531	210.69
243.765	202.69
243.998	239.69
244.232	215.69
244.465	234.69
244.699	208.69
244.932	213.69
245.166	230.69
245.399	229.69
245.633	238.69
245.866	228.69
246.099	228.69
246.333	227.69
246.566	250.69
246.8	244.69
247.033	244.69
247.266	233.69
247.5	231.69
247.733	231.69
247.966	264.69
248.2	257.69
248.433	239.69
248.666	244.69
248.899	255.69
249.133	264.69
249.366	288.69
249.599	270.69
249.832	263.69
250.066	261.69
250.299	274.69
250.532	285.69
250.765	291.69
250.998	271.69
251.231	270.69
251.465	292.69
251.698	273.69
251.931	268.69
252.164	276.69
252.397	280.69
252.63	305.69
252.863	285.69
253.096	274.69
253.329	283.69
253.562	301.69
253.795	295.69
254.028	297.69
254.261	294.69
254.494	314.69
254.727	298.69
254.96	306.69
255.193	302.69
255.426	295.69
255.659	289.69
255.892	286.69
256.124	308.69
256.357	307.69
256.59	305.69
256.823	315.69
257.056	301.69
257.289	330.69
257.521	329.69
257.754	317.69
257.987	332.69
258.22	318.69
258.452	329.69
258.685	328.69
258.918	328.69
259.151	327.69
259.383	335.69
259.616	333.69
259.849	337.69
260.081	342.69
260.314	350.69
260.547	332.69
260.779	361.69
261.012	358.69
261.244	371.69
261.477	341.69
261.71	349.69
261.942	337.69
262.175	338.69
262.407	368.69
262.64	349.69
262.872	360.69
263.105	363.69
263.337	349.69
263.57	344.69
263.802	366.69
264.035	360.69
264.267	362.69
264.499	354.69
264.732	377.69
264.964	378.69
265.197	380.69
265.429	385.69
265.661	362.69
265.894	392.69
266.126	367.69
266.358	388.69
266.591	374.69
266.823	397.69
267.055	371.69
267.287	376.69
267.52	392.69
267.752	385.69
267.984	399.69
268.216	386.69
268.448	406.69
268.681	387.69
268.913	394.69
269.145	384.69
269.377	381.69
269.609	404.69
269.841	395.69
270.073	404.69
270.306	406.69
270.538	416.69
270.77	411.69
271.002	415.69
271.234	409.69
271.466	397.69
271.698	416.69
271.93	406.69
272.162	421.69
272.394	418.69
272.626	435.69
272.858	429.69
273.09	429.69
273.322	421.69
273.553	419.69
273.785	448.69
274.017	448.69
274.249	455.69
274.481	425.69
274.713	427.69
274.945	424.69
275.176	436.69
275.408	452.69
275.64	437.69
275.872	443.69
276.104	461.69
276.335	458.69
276.567	433.69
276.799	451.69
277.031	436.69
277.262	462.69
277.494	455.69
277.726	468.69
277.957	460.69
278.189	479.69
278.421	460.69
278.652	489.69
278.884	475.69
279.115	478.69
279.347	491.69
279.579	484.69
279.81	472.69
280.042	485.69
280.273	518.69
280.505	489.69
280.736	485.69
280.968	473.69
281.199	520.69
281.431	510.69
281.662	504.69
281.894	515.69
282.125	487.69
282.356	494.69
282.588	516.69
282.819	498.69
283.051	522.69
283.282	500.69
283.513	528.69
283.745	511.69
283.976	533.69
284.207	540.69
284.439	521.69
284.67	535.69
284.901	541.69
285.132	532.69
285.364	516.69
285.595	553.69
285.826	526.69
286.057	537.69
286.288	538.69
286.52	522.69
286.751	549.69
286.982	544.69
287.213	562.69
287.444	549.69
287.675	538.69
287.906	566.69
288.138	563.69
288.369	547.69
288.6	576.69
288.831	541.69
289.062	546.69
289.293	572.69
289.524	545.69
289.755	560.69
289.986	539.69
290.217	571.69
290.448	576.69
290.679	566.69
290.91	562.69
291.141	549.69
291.371	575.69
291.602	565.69
291.833	559.69
292.064	590.69
292.295	585.69
292.526	576.69
292.757	571.69
292.987	552.69
293.218	561.69
293.449	571.69
293.68	577.69
293.91	579.69
294.141	560.69
294.372	572.69
294.603	577.69
294.833	563.69
295.064	580.69
295.295	580.69
295.525	581.69
295.756	590.69
295.987	591.69
296.217	607.69
296.448	587.69
296.679	601.69
296.909	566.69
297.14	579.69
297.37	591.69
297.601	609.69
297.831	631.69
298.062	621.69
298.292	608.69
298.523	638.69
298.753	626.69
298.984	612.69
299.214	612.69
299.445	627.69
299.675	621.69
299.905	632.69
300.136	625.69
300.366	630.69
300.597	626.69
300.827	648.69
301.057	630.69
301.288	662.69
301.518	666.69
301.748	681.69
301.979	665.69
302.209	662.69
302.439	653.69
302.669	664.69
302.9	646.69
303.13	640.69
303.36	654.69
303.59	652.69
303.82	637.69
304.051	648.69
304.281	640.69
304.511	629.69
304.741	660.69
304.971	647.69
305.201	675.69
305.431	634.69
305.661	642.69
305.891	615.69
306.121	639.69
306.352	653.69
306.582	638.69
306.812	621.69
307.042	658.69
307.272	629.69
307.502	638.69
307.731	642.69
307.961	614.69
308.191	632.69
308.421	617.69
308.651	627.69
308.881	628.69
309.111	630.69
309.341	627.69
309.571	671.69
309.8	654.69
310.03	643.69
310.26	652.69
310.49	647.69
310.72	637.69
310.949	643.69
311.179	654.69
311.409	659.69
311.639	660.69
311.868	666.69
312.098	655.69
312.328	671.69
312.557	677.69
312.787	663.69
313.017	664.69
313.246	672.69
313.476	681.69
313.706	691.69
313.935	692.69
314.165	713.69
314.394	688.69
314.624	684.69
314.853	690.69
315.083	710.69
315.312	701.69
315.542	690.69
315.771	691.69
316.001	672.69
316.23	700.69
316.46	664.69
316.689	681.69
316.919	664.69
317.148	658.69
317.377	683.69
317.607	672.69
317.836	686.69
318.065	701.69
318.295	674.69
318.524	665.69
318.753	681.69
318.983	703.69
319.212	678.69
319.441	688.69
319.67	697.69
319.9	666.69
320.129	672.69
320.358	670.69
320.587	665.69
320.816	688.69
321.046	712.69
321.275	695.69
321.504	688.69
321.733	679.69
321.962	704.69
322.191	692.69
322.42	718.69
322.649	693.69
322.878	702.69
323.108	660.69
323.337	708.69
323.566	724.69
323.795	708.69
324.024	717.69
324.253	677.69
324.482	723.69
324.71	707.69
324.939	713.69
325.168	739.69
325.397	709.69
325.626	717.69
325.855	733.69
326.084	730.69
326.313	736.69
326.542	754.69
326.77	777.69
326.999	757.69
327.228	739.69
327.457	744.69
327.686	740.69
327.914	769.69
328.143	749.69
328.372	736.69
328.6	753.69
328.829	753.69
329.058	784.69
329.287	750.69
329.515	758.69
329.744	749.69
329.972	774.69
330.201	743.69
330.43	770.69
330.658	770.69
330.887	787.69
331.115	778.69
331.344	802.69
331.572	800.69
331.801	822.69
332.03	818.69
332.258	863.69
332.486	851.69
332.715	873.69
332.943	915.69
333.172	976.69
333.4	1002.69
333.629	995.69
333.857	1000.69
334.085	1030.69
334.314	980.69
334.542	983.69
334.771	952.69
334.999	934.69
335.227	961.69
335.455	939.69
335.684	933.69
335.912	945.69
336.14	907.69
336.369	928.69
336.597	905.69
336.825	905.69
337.053	874.69
337.281	896.69
337.51	866.69
337.738	861.69
337.966	843.69
338.194	818.69
338.422	833.69
338.65	865.69
338.878	810.69
339.106	811.69
339.334	826.69
339.562	836.69
339.79	794.69
340.018	805.69
340.246	776.69
340.474	800.69
340.702	778.69
340.93	779.69
341.158	797.69
341.386	792.69
341.614	821.69
341.842	817.69
342.07	775.69
342.298	797.69
342.526	774.69
342.754	796.69
342.981	805.69
343.209	817.69
343.437	852.69
343.665	873.69
343.893	960.69
344.12	947.69
344.348	946.69
344.576	891.69
344.804	871.69
345.031	815.69
345.259	805.69
345.487	772.69
345.714	799.69
345.942	792.69
346.17	775.69
346.397	752.69
346.625	769.69
346.853	738.69
347.08	764.69
347.308	778.69
347.535	764.69
347.763	756.69
347.99	754.69
348.218	746.69
348.445	761.69
348.673	763.69
348.9	745.69
349.128	754.69
349.355	729.69
349.583	729.69
349.81	731.69
350.037	716.69
350.265	745.69
350.492	741.69
350.72	739.69
350.947	715.69
351.174	746.69
351.402	729.69
351.629	730.69
351.856	713.69
352.083	708.69
352.311	728.69
352.538	740.69
352.765	750.69
352.992	728.69
353.22	706.69
353.447	705.69
353.674	708.69
353.901	695.69
354.128	715.69
354.355	723.69
354.583	721.69
354.81	729.69
355.037	706.69
355.264	721.69
355.491	740.69
355.718	737.69
355.945	721.69
356.172	738.69
356.399	719.69
356.626	738.69
356.853	753.69
357.08	747.69
357.307	747.69
357.534	712.69
357.761	754.69
357.988	739.69
358.215	715.69
358.441	727.69
358.668	738.69
358.895	737.69
359.122	735.69
359.349	706.69
359.576	729.69
359.802	721.69
360.029	718.69
360.256	742.69
360.483	726.69
360.709	714.69
360.936	717.69
361.163	723.69
361.39	706.69
361.616	724.69
361.843	737.69
362.07	722.69
362.296	743.69
362.523	716.69
362.749	728.69
362.976	736.69
363.203	732.69
363.429	727.69
363.656	715.69
363.882	702.69
364.109	713.69
364.335	712.69
364.562	708.69
364.788	730.69
365.015	743.69
365.241	722.69
365.468	705.69
365.694	735.69
365.92	746.69
366.147	734.69
366.373	698.69
366.599	724.69
366.826	731.69
367.052	732.69
367.278	734.69
367.505	727.69
367.731	760.69
367.957	757.69
368.184	709.69
368.41	756.69
368.636	728.69
368.862	757.69
369.089	749.69
369.315	732.69
369.541	750.69
369.767	770.69
369.993	763.69
370.219	768.69
370.445	766.69
370.672	740.69
370.898	754.69
371.124	809.69
371.35	811.69
371.576	770.69
371.802	796.69
372.028	794.69
372.254	758.69
372.48	793.69
372.706	797.69
372.932	826.69
373.158	825.69
373.384	821.69
373.61	808.69
373.835	807.69
374.061	804.69
374.287	790.69
374.513	808.69
374.739	856.69
374.965	859.69
375.191	872.69
375.416	866.69
375.642	820.69
375.868	801.69
376.094	853.69
376.319	790.69
376.545	803.69
376.771	817.69
376.997	762.69
377.222	800.69
377.448	803.69
377.674	799.69
377.899	773.69
378.125	770.69
378.35	761.69
378.576	792.69
378.802	774.69
379.027	770.69
379.253	788.69
379.478	780.69
379.704	779.69
379.929	781.69
380.155	789.69
380.38	783.69
380.606	793.69
380.831	772.69
381.057	789.69
381.282	778.69
381.507	803.69
381.733	787.69
381.958	808.69
382.184	788.69
382.409	828.69
382.634	801.69
382.86	822.69
383.085	819.69
383.31	825.69
383.535	850.69
383.761	859.69
383.986	882.69
384.211	905.69
384.436	901.69
384.662	916.69
384.887	944.69
385.112	953.69
385.337	957.69
385.562	963.69
385.787	936.69
386.013	984.69
386.238	961.69
386.463	933.69
386.688	929.69
386.913	933.69
387.138	935.69
387.363	942.69
387.588	933.69
387.813	926.69
388.038	949.69
388.263	960.69
388.488	979.69
388.713	958.69
388.938	929.69
389.163	922.69
389.387	930.69
389.612	920.69
389.837	901.69
390.062	956.69
390.287	928.69
390.512	930.69
390.736	954.69
390.961	935.69
391.186	965.69
391.411	997.69
391.636	1073.69
391.86	1072.69
392.085	1093.69
392.31	1080.69
392.534	1038.69
392.759	1017.69
392.984	994.69
393.208	993.69
393.433	1001.69
393.658	1030.69
393.882	1014.69
394.107	1028.69
394.331	997.69
394.556	1026.69
394.78	1016.69
395.005	1046.69
395.229	1029.69
395.454	1049.69
395.678	1082.69
395.903	1062.69
396.127	1062.69
396.352	1014.69
396.576	981.69
396.801	1000.69
397.025	1048.69
397.249	1058.69
397.474	1063.69
397.698	1074.69
397.922	1079.69
398.147	1074.69
398.371	1115.69
398.595	1132.69
398.82	1201.69
399.044	1306.69
399.268	1457.69
399.492	1606.69
399.717	1851.69
399.941	1795.69
400.165	1633.69
400.389	1463.69
400.613	1334.69
400.837	1272.69
401.062	1228.69
401.286	1190.69
401.51	1225.69
401.734	1172.69
401.958	1202.69
402.182	1221.69
402.406	1253.69
402.63	1272.69
402.854	1296.69
403.078	1329.69
403.302	1333.69
403.526	1302.69
403.75	1392.69
403.974	1403.69
404.198	1444.69
404.422	1408.69
404.645	1385.69
404.869	1364.69
405.093	1359.69
405.317	1336.69
405.541	1326.69
405.765	1321.69
405.988	1275.69
406.212	1345.69
406.436	1295.69
406.66	1355.69
406.883	1363.69
407.107	1460.69
407.331	1508.69
407.555	1577.69
407.778	1570.69
408.002	1489.69
408.226	1441.69
408.449	1420.69
408.673	1395.69
408.896	1354.69
409.12	1350.69
409.344	1378.69
409.567	1347.69
409.791	1347.69
410.014	1329.69
410.238	1315.69
410.461	1321.69
410.685	1341.69
410.908	1270.69
411.132	1241.69
411.355	1210.69
411.578	1231.69
411.802	1255.69
412.025	1237.69
412.249	1288.69
412.472	1280.69
412.695	1222.69
412.919	1187.69
413.142	1200.69
413.365	1186.69
413.589	1216.69
413.812	1187.69
414.035	1206.69
414.258	1200.69
414.482	1183.69
414.705	1162.69
414.928	1198.69
415.151	1199.69
415.374	1181.69
415.597	1181.69
415.821	1172.69
416.044	1161.69
416.267	1150.69
416.49	1142.69
416.713	1153.69
416.936	1170.69
417.159	1193.69
417.382	1153.69
417.605	1158.69
417.828	1150.69
418.051	1185.69
418.274	1196.69
418.497	1184.69
418.72	1232.69
418.943	1238.69
419.166	1292.69
419.389	1367.69
419.611	1313.69
419.834	1270.69
420.057	1252.69
420.28	1190.69
420.503	1156.69
420.726	1146.69
420.948	1166.69
421.171	1179.69
421.394	1187.69
421.617	1154.69
421.839	1180.69
422.062	1152.69
422.285	1157.69
422.507	1198.69
422.73	1196.69
422.953	1228.69
423.175	1219.69
423.398	1271.69
423.621	1223.69
423.843	1277.69
424.066	1258.69
424.288	1256.69
424.511	1269.69
424.733	1204.69
424.956	1184.69
425.178	1205.69
425.401	1188.69
425.623	1174.69
425.846	1129.69
426.068	1156.69
426.291	1111.69
426.513	1115.69
426.735	1119.69
426.958	1100.69
427.18	1084.69
427.402	1073.69
427.625	1083.69
427.847	1035.69
428.069	1076.69
428.292	1078.69
428.514	1032.69
428.736	1046.69
428.958	1030.69
429.181	1030.69
429.403	1006.69
429.625	1033.69
429.847	1022.69
430.069	990.69
430.292	1013.69
430.514	997.69
430.736	1016.69
430.958	1024.69
431.18	1023.69
431.402	1036.69
431.624	1034.69
431.846	1033.69
432.068	1067.69
432.29	1067.69
432.512	1058.69
432.734	1028.69
432.956	1059.69
433.178	1044.69
433.4	1052.69
433.622	1045.69
433.844	1080.69
434.066	1072.69
434.287	1058.69
434.509	1131.69
434.731	1164.69
434.953	1181.69
435.175	1186.69
435.397	1189.69
435.618	1105.69
435.84	1053.69
436.062	1036.69
436.284	1014.69
436.505	1014.69
436.727	1067.69
436.949	1045.69
437.17	1061.69
437.392	1016.69
437.614	1035.69
437.835	976.69
438.057	992.69
438.278	961.69
438.5	991.69
438.721	993.69
438.943	999.69
439.165	997.69
439.386	996.69
439.608	1003.69
439.829	1038.69
440.05	994.69
440.272	1032.69
440.493	1044.69
440.715	1083.69
440.936	1086.69
441.158	1116.69
441.379	1143.69
441.6	1164.69
441.822	1204.69
442.043	1166.69
442.264	1158.69
442.486	1137.69
442.707	1172.69
442.928	1148.69
443.149	1161.69
443.371	1152.69
443.592	1136.69
443.813	1150.69
444.034	1181.69
444.255	1229.69
444.476	1291.69
444.698	1336.69
444.919	1422.69
445.14	1474.69
445.361	1331.69
445.582	1204.69
445.803	1155.69
446.024	1118.69
446.245	1080.69
446.466	1073.69
446.687	1051.69
446.908	1076.69
447.129	1015.69
447.35	987.69
447.571	982.69
447.792	1001.69
448.013	947.69
448.234	972.69
448.455	981.69
448.675	952.69
448.896	953.69
449.117	913.69
449.338	958.69
449.559	952.69
449.779	930.69
450	952.69
450.221	930.69
450.442	933.69
450.662	968.69
450.883	973.69
451.104	952.69
451.324	973.69
451.545	962.69
451.766	972.69
451.986	960.69
452.207	963.69
452.428	975.69
452.648	944.69
452.869	940.69
453.089	928.69
453.31	954.69
453.53	914.69
453.751	899.69
453.971	935.69
454.192	928.69
454.412	901.69
454.633	884.69
454.853	880.69
455.073	875.69
455.294	916.69
455.514	884.69
455.734	886.69
455.955	890.69
456.175	899.69
456.395	870.69
456.616	873.69
456.836	882.69
457.056	896.69
457.276	889.69
457.497	859.69
457.717	906.69
457.937	914.69
458.157	908.69
458.377	922.69
458.598	941.69
458.818	951.69
459.038	1002.69
459.258	1035.69
459.478	1080.69
459.698	1094.69
459.918	1085.69
460.138	1155.69
460.358	1242.69
460.578	1237.69
460.798	1255.69
461.018	1237.69
461.238	1242.69
461.458	1280.69
461.678	1218.69
461.898	1237.69
462.118	1284.69
462.338	1351.69
462.558	1339.69
462.777	1405.69
462.997	1544.69
463.217	1653.69
463.437	1650.69
463.657	1554.69
463.876	1457.69
464.096	1476.69
464.316	1450.69
464.536	1434.69
464.755	1392.69
464.975	1364.69
465.195	1293.69
465.414	1166.69
465.634	1126.69
465.854	1102.69
466.073	1075.69
466.293	1054.69
466.512	1043.69
466.732	1018.69
466.951	1002.69
467.171	1010.69
467.391	1028.69
467.61	1006.69
467.829	998.69
468.049	969.69
468.268	961.69
468.488	937.69
468.707	937.69
468.927	971.69
469.146	952.69
469.365	975.69
469.585	969.69
469.804	1012.69
470.023	997.69
470.243	1005.69
470.462	1012.69
470.681	1030.69
470.901	1042.69
471.12	1046.69
471.339	1030.69
471.558	983.69
471.777	997.69
471.997	986.69
472.216	982.69
472.435	953.69
472.654	936.69
472.873	922.69
473.092	938.69
473.311	936.69
473.53	935.69
473.749	930.69
473.968	934.69
474.187	933.69
474.406	948.69
474.625	931.69
474.844	951.69
475.063	949.69
475.282	957.69
475.501	963.69
475.72	955.69
475.939	953.69
476.158	973.69
476.377	947.69
476.596	988.69
476.814	985.69
477.033	978.69
477.252	1003.69
477.471	1050.69
477.69	1063.69
477.908	1075.69
478.127	1113.69
478.346	1140.69
478.564	1137.69
478.783	1183.69
479.002	1154.69
479.22	1187.69
479.439	1167.69
479.658	1172.69
479.876	1189.69
480.095	1142.69
480.313	1265.69
480.532	1258.69
480.751	1255.69
480.969	1226.69
481.188	1173.69
481.406	1151.69
481.624	1112.69
481.843	1109.69
482.061	1090.69
482.28	1062.69
482.498	1077.69
482.717	1080.69
482.935	1077.69
483.153	1072.69
483.372	1080.69
483.59	1078.69
483.808	1082.69
484.027	1087.69
484.245	1089.69
484.463	1081.69
484.681	1090.69
484.9	1099.69
485.118	1118.69
485.336	1114.69
485.554	1138.69
485.772	1155.69
485.99	1118.69
486.209	1123.69
486.427	1131.69
486.645	1147.69
486.863	1117.69
487.081	1148.69
487.299	1105.69
487.517	1125.69
487.735	1098.69
487.953	1136.69
488.171	1129.69
488.389	1106.69
488.607	1125.69
488.825	1099.69
489.043	1108.69
489.261	1106.69
489.479	1106.69
489.696	1115.69
489.914	1121.69
490.132	1144.69
490.35	1140.69
490.568	1111.69
490.786	1115.69
491.003	1153.69
491.221	1160.69
491.439	1136.69
491.657	1154.69
491.874	1146.69
492.092	1150.69
492.31	1179.69
492.527	1147.69
492.745	1147.69
492.963	1146.69
493.18	1143.69
493.398	1170.69
493.615	1180.69
493.833	1170.69
494.05	1171.69
494.268	1178.69
494.485	1200.69
494.703	1234.69
494.92	1217.69
495.138	1218.69
495.355	1206.69
495.573	1226.69
495.79	1212.69
496.008	1216.69
496.225	1252.69
496.442	1248.69
496.66	1267.69
496.877	1278.69
497.094	1328.69
497.312	1348.69
497.529	1372.69
497.746	1392.69
497.963	1444.69
498.181	1524.69
498.398	1582.69
498.615	1638.69
498.832	1733.69
499.049	1884.69
499.267	2022.69
499.484	2257.69
499.701	2501.69
499.918	2746.69
500.135	3164.69
500.352	3548.69
500.569	3698.69
500.786	3666.69
501.003	3431.69
501.22	3064.69
501.437	2759.69
501.654	2380.69
501.871	2176.69
502.088	2012.69
502.305	1839.69
502.522	1754.69
502.739	1699.69
502.956	1616.69
503.172	1524.69
503.389	1472.69
503.606	1439.69
503.823	1403.69
504.04	1370.69
504.256	1402.69
504.473	1484.69
504.69	1465.69
504.907	1432.69
505.123	1329.69
505.34	1210.69
505.557	1238.69
505.773	1194.69
505.99	1197.69
506.207	1131.69
506.423	1087.69
506.64	1124.69
506.856	1126.69
507.073	1077.69
507.289	1059.69
507.506	1072.69
507.722	1093.69
507.939	1065.69
508.155	1050.69
508.372	1042.69
508.588	1020.69
508.805	1010.69
509.021	987.69
509.238	1013.69
509.454	967.69
509.67	997.69
509.887	969.69
510.103	1002.69
510.319	949.69
510.536	984.69
510.752	974.69
510.968	969.69
511.184	984.69
511.401	964.69
511.617	966.69
511.833	974.69
512.049	957.69
512.265	975.69
512.481	968.69
512.698	972.69
512.914	953.69
513.13	960.69
513.346	965.69
513.562	962.69
513.778	967.69
513.994	948.69
514.21	993.69
514.426	972.69
514.642	964.69
514.858	978.69
515.074	1012.69
515.29	1029.69
515.506	1023.69
515.721	1020.69
515.937	1039.69
516.153	1069.69
516.369	1100.69
516.585	1136.69
516.801	1154.69
517.016	1206.69
517.232	1271.69
517.448	1347.69
517.664	1365.69
517.879	1382.69
518.095	1355.69
518.311	1348.69
518.527	1251.69
518.742	1222.69
518.958	1194.69
519.173	1152.69
519.389	1122.69
519.605	1074.69
519.82	1049.69
520.036	1026.69
520.251	1028.69
520.467	977.69
520.682	994.69
520.898	985.69
521.113	965.69
521.329	951.69
521.544	929.69
521.76	936.69
521.975	926.69
522.19	906.69
522.406	907.69
522.621	912.69
522.836	902.69
523.052	914.69
523.267	901.69
523.482	891.69
523.698	901.69
523.913	926.69
524.128	881.69
524.343	900.69
524.559	867.69
524.774	875.69
524.989	877.69
525.204	887.69
525.419	886.69
525.634	883.69
525.849	874.69
526.064	860.69
526.28	868.69
526.495	843.69
526.71	829.69
526.925	869.69
527.14	872.69
527.355	874.69
527.57	856.69
527.785	875.69
527.999	850.69
528.214	860.69
528.429	876.69
528.644	868.69
528.859	870.69
529.074	885.69
529.289	884.69
529.503	859.69
529.718	857.69
529.933	870.69
530.148	861.69
530.363	864.69
530.577	854.69
530.792	854.69
531.007	856.69
531.221	832.69
531.436	846.69
531.651	840.69
531.865	849.69
532.08	873.69
532.295	883.69
532.509	854.69
532.724	846.69
532.938	844.69
533.153	889.69
533.367	856.69
533.582	873.69
533.796	841.69
534.011	885.69
534.225	848.69
534.44	837.69
534.654	845.69
534.868	827.69
535.083	841.69
535.297	846.69
535.511	847.69
535.726	834.69
535.94	838.69
536.154	825.69
536.369	808.69
536.583	813.69
536.797	830.69
537.011	816.69
537.225	807.69
537.44	813.69
537.654	803.69
537.868	804.69
538.082	785.69
538.296	773.69
538.51	819.69
538.724	785.69
538.938	807.69
539.153	795.69
539.367	797.69
539.581	788.69
539.795	777.69
540.009	804.69
540.222	798.69
540.436	770.69
540.65	795.69
540.864	773.69
541.078	781.69
541.292	780.69
541.506	781.69
541.72	796.69
541.934	786.69
542.147	782.69
542.361	791.69
542.575	754.69
542.789	772.69
543.002	772.69
543.216	791.69
543.43	761.69
543.644	753.69
543.857	745.69
544.071	781.69
544.285	763.69
544.498	779.69
544.712	801.69
544.925	806.69
545.139	800.69
545.352	796.69
545.566	780.69
545.779	810.69
545.993	782.69
546.206	796.69
546.42	783.69
546.633	807.69
546.847	780.69
547.06	786.69
547.274	775.69
547.487	783.69
547.7	782.69
547.914	800.69
548.127	796.69
548.34	807.69
548.554	794.69
548.767	774.69
548.98	797.69
549.193	805.69
549.407	795.69
549.62	810.69
549.833	833.69
550.046	817.69
550.259	799.69
550.473	796.69
550.686	799.69
550.899	807.69
551.112	774.69
551.325	760.69
551.538	753.69
551.751	771.69
551.964	779.69
552.177	781.69
552.39	796.69
552.603	835.69
552.816	842.69
553.029	866.69
553.242	880.69
553.455	882.69
553.667	889.69
553.88	843.69
554.093	834.69
554.306	815.69
554.519	802.69
554.732	804.69
554.944	788.69
555.157	736.69
555.37	743.69
555.583	744.69
555.795	721.69
556.008	725.69
556.221	716.69
556.433	685.69
556.646	686.69
556.859	700.69
557.071	674.69
557.284	664.69
557.496	710.69
557.709	708.69
557.921	678.69
558.134	664.69
558.346	667.69
558.559	682.69
558.771	661.69
558.984	648.69
559.196	665.69
559.409	676.69
559.621	652.69
559.833	653.69
560.046	646.69
560.258	665.69
560.47	650.69
560.683	651.69
560.895	625.69
561.107	645.69
561.32	636.69
561.532	649.69
561.744	673.69
561.956	669.69
562.168	662.69
562.381	655.69
562.593	670.69
562.805	632.69
563.017	640.69
563.229	675.69
563.441	633.69
563.653	678.69
563.865	692.69
564.077	660.69
564.289	672.69
564.501	667.69
564.713	717.69
564.925	716.69
565.137	715.69
565.349	744.69
565.561	757.69
565.773	760.69
565.985	799.69
566.197	817.69
566.408	922.69
566.62	1020.69
566.832	1045.69
567.044	1092.69
567.255	1078.69
567.467	1120.69
567.679	1162.69
567.891	1244.69
568.102	1233.69
568.314	1238.69
568.526	1088.69
568.737	984.69
568.949	912.69
569.161	845.69
569.372	764.69
569.584	759.69
569.795	717.69
570.007	688.69
570.218	681.69
570.43	671.69
570.641	677.69
570.853	677.69
571.064	660.69
571.276	666.69
571.487	636.69
571.698	638.69
571.91	617.69
572.121	617.69
572.333	589.69
572.544	583.69
572.755	567.69
572.966	586.69
573.178	548.69
573.389	554.69
573.6	544.69
573.811	565.69
574.023	542.69
574.234	543.69
574.445	536.69
574.656	526.69
574.867	533.69
575.078	538.69
575.289	541.69
575.501	514.69
575.712	493.69
575.923	516.69
576.134	510.69
576.345	514.69
576.556	521.69
576.767	492.69
576.978	506.69
577.188	506.69
577.399	490.69
577.61	470.69
577.821	480.69
578.032	468.69
578.243	478.69
578.454	468.69
578.665	470.69
578.875	474.69
579.086	477.69
579.297	472.69
579.508	460.69
579.718	449.69
579.929	454.69
580.14	466.69
580.35	466.69
580.561	462.69
580.772	465.69
580.982	464.69
581.193	454.69
581.403	451.69
581.614	433.69
581.825	459.69
582.035	451.69
582.246	466.69
582.456	428.69
582.667	441.69
582.877	465.69
583.087	480.69
583.298	443.69
583.508	426.69
583.719	430.69
583.929	446.69
584.139	434.69
584.35	440.69
584.56	439.69
584.77	443.69
584.981	429.69
585.191	435.69
585.401	424.69
585.611	423.69
585.821	438.69
586.032	421.69
586.242	440.69
586.452	418.69
586.662	424.69
586.872	430.69
587.082	429.69
587.292	416.69
587.502	435.69
587.713	418.69
587.923	441.69
588.133	439.69
588.343	416.69
588.553	425.69
588.762	426.69
588.972	433.69
589.182	438.69
589.392	443.69
589.602	450.69
589.812	439.69
590.022	437.69
590.232	430.69
590.441	412.69
590.651	436.69
590.861	408.69
591.071	455.69
591.281	445.69
591.49	459.69
591.7	461.69
591.91	466.69
592.119	459.69
592.329	474.69
592.539	502.69
592.748	517.69
592.958	512.69
593.167	521.69
593.377	533.69
593.587	562.69
593.796	545.69
594.006	524.69
594.215	550.69
594.424	540.69
594.634	528.69
594.843	502.69
595.053	502.69
595.262	481.69
595.472	446.69
595.681	447.69
595.89	441.69
596.1	440.69
596.309	410.69
596.518	416.69
596.727	399.69
596.937	434.69
597.146	399.69
597.355	400.69
597.564	406.69
597.774	383.69
597.983	386.69
598.192	373.69
598.401	359.69
598.61	363.69
598.819	379.69
599.028	361.69
599.237	370.69
599.446	369.69
599.655	371.69
599.864	347.69
600.073	374.69
600.282	362.69
600.491	372.69
600.7	363.69
600.909	356.69
601.118	357.69
601.327	346.69
601.536	348.69
601.745	352.69
601.953	345.69
602.162	328.69
602.371	335.69
602.58	353.69
602.789	346.69
602.997	368.69
603.206	345.69
603.415	344.69
603.623	332.69
603.832	348.69
604.041	328.69
604.249	334.69
604.458	323.69
604.666	331.69
604.875	306.69
605.084	331.69
605.292	320.69
605.501	329.69
605.709	328.69
605.918	328.69
606.126	320.69
606.334	323.69
606.543	322.69
606.751	339.69
606.96	341.69
607.168	314.69
607.376	321.69
607.585	324.69
607.793	322.69
608.001	329.69
608.21	325.69
608.418	313.69
608.626	310.69
608.834	346.69
609.043	310.69
609.251	294.69
609.459	315.69
609.667	317.69
609.875	328.69
610.083	317.69
610.291	318.69
610.499	319.69
610.707	326.69
610.916	316.69
611.124	300.69
611.332	314.69
611.54	311.69
611.748	316.69
611.955	312.69
612.163	305.69
612.371	316.69
612.579	306.69
612.787	296.69
612.995	299.69
613.203	304.69
613.411	312.69
613.618	300.69
613.826	294.69
614.034	306.69
614.242	295.69
614.449	320.69
614.657	299.69
614.865	302.69
615.072	307.69
615.28	294.69
615.488	306.69
615.695	300.69
615.903	304.69
616.111	302.69
616.318	315.69
616.526	307.69
616.733	323.69
616.941	308.69
617.148	297.69
617.356	299.69
617.563	315.69
617.771	304.69
617.978	291.69
618.185	296.69
618.393	305.69
618.6	309.69
618.807	293.69
619.015	295.69
619.222	298.69
619.429	296.69
619.637	261.69
619.844	301.69
620.051	292.69
620.258	276.69
620.466	269.69
620.673	274.69
620.88	274.69
621.087	285.69
621.294	283.69
621.501	297.69
621.708	279.69
621.915	293.69
622.122	272.69
622.329	266.69
622.536	282.69
622.743	282.69
622.95	275.69
623.157	270.69
623.364	288.69
623.571	262.69
623.778	280.69
623.985	265.69
624.192	272.69
624.399	253.69
624.606	276.69
624.812	278.69
625.019	259.69
625.226	261.69
625.433	277.69
625.639	265.69
625.846	262.69
626.053	258.69
626.259	265.69
626.466	248.69
626.673	271.69
626.879	261.69
627.086	244.69
627.293	264.69
627.499	261.69
627.706	260.69
627.912	258.69
628.119	250.69
628.325	275.69
628.532	251.69
628.738	254.69
628.945	263.69
629.151	244.69
629.357	240.69
629.564	244.69
629.77	244.69
629.976	246.69
630.183	234.69
630.389	233.69
630.595	250.69
630.802	234.69
631.008	231.69
631.214	236.69
631.42	241.69
631.627	227.69
631.833	238.69
632.039	220.69
632.245	237.69
632.451	227.69
632.657	222.69
632.863	224.69
633.069	231.69
633.275	247.69
633.481	214.69
633.688	220.69
633.893	231.69
634.099	234.69
634.305	236.69
634.511	222.69
634.717	231.69
634.923	223.69
635.129	229.69
635.335	229.69
635.541	221.69
635.747	221.69
635.952	220.69
636.158	224.69
636.364	214.69
636.57	220.69
636.775	232.69
636.981	225.69
637.187	213.69
637.392	225.69
637.598	225.69
637.804	229.69
638.009	224.69
638.215	222.69
638.421	230.69
638.626	214.69
638.832	237.69
639.037	202.69
639.243	205.69
639.448	209.69
639.654	211.69
639.859	199.69
640.065	211.69
640.27	221.69
640.475	192.69
640.681	219.69
640.886	207.69
641.091	196.69
641.297	231.69
641.502	194.69
641.707	211.69
641.913	202.69
642.118	192.69
642.323	198.69
642.528	207.69
642.733	207.69
642.939	214.69
643.144	215.69
643.349	217.69
643.554	199.69
643.759	197.69
643.964	192.69
644.169	179.69
644.374	188.69
644.579	188.69
644.784	209.69
644.989	209.69
645.194	198.69
645.399	202.69
645.604	197.69
645.809	193.69
646.014	206.69
646.219	209.69
646.423	200.69
646.628	197.69
646.833	201.69
647.038	205.69
647.243	199.69
647.447	209.69
647.652	203.69
647.857	201.69
648.062	223.69
648.266	206.69
648.471	209.69
648.676	213.69
648.88	208.69
649.085	209.69
649.289	188.69
649.494	196.69
649.698	181.69
649.903	187.69
650.107	183.69
650.312	189.69
650.516	189.69
650.721	200.69
650.925	199.69
651.13	181.69
651.334	180.69
651.539	193.69
651.743	191.69
651.947	165.69
652.152	166.69
652.356	189.69
652.56	159.69
652.764	161.69
652.969	184.69
653.173	165.69
653.377	148.69
653.581	151.69
653.785	154.69
653.99	162.69
654.194	157.69
654.398	154.69
654.602	151.69
654.806	150.69
655.01	148.69
655.214	146.69
655.418	161.69
655.622	146.69
655.826	139.69
656.03	128.69
656.234	138.69
656.438	145.69
656.642	137.69
656.846	132.69
657.049	119.69
657.253	130.69
657.457	133.69
657.661	120.69
657.865	138.69
658.068	112.69
658.272	121.69
658.476	119.69
658.68	114.69
658.883	116.69
659.087	109.69
659.291	124.69
659.494	114.69
659.698	106.69
659.901	104.69
660.105	97.69
660.309	96.69
660.512	93.69
660.716	91.69
660.919	96.69
661.123	107.69
661.326	99.69
661.53	100.69
661.733	82.69
661.936	95.69
662.14	93.69
662.343	84.69
662.546	88.69
662.75	109.69
662.953	96.69
663.156	98.69
663.36	67.69
663.563	95.69
663.766	84.69
663.969	73.69
664.173	80.69
664.376	95.69
664.579	81.69
664.782	82.69
664.985	84.69
665.188	75.69
665.391	81.69
665.594	81.69
665.797	74.69
666	74.69
666.203	78.69
666.406	89.69
666.609	85.69
666.812	83.69
667.015	83.69
667.218	86.69
667.421	92.69
667.624	86.69
667.827	95.69
668.03	76.69
668.232	73.69
668.435	77.69
668.638	81.69
668.841	92.69
669.043	83.69
669.246	76.69
669.449	82.69
669.651	78.69
669.854	84.69
670.057	94.69
670.259	73.69
670.462	76.69
670.665	89.69
670.867	92.69
671.07	90.69
671.272	85.69
671.475	93.69
671.677	68.69
671.88	79.69
672.082	71.69
672.284	75.69
672.487	85.69
672.689	74.69
672.892	95.69
