Data from NiCl2@0.25M.TitratingCurve.Agarose3%dH2O.NegLispCup.LampEnergy10.LIBS07252019_HRD10591_18-25-40-576.txt Node
Date: Thu Jul 25 18:25:40 EDT 2019
User: cochatt
Spectrometer: HR+D1059
Trigger mode: 1
Integration Time (sec): 1.000000E-1
Scans to average: 1
Electric dark correction enabled: true
Nonlinearity correction enabled: false
Boxcar width: 0
XAxis mode: Wavelengths
Number of Pixels in Spectrum: 2048
>>>>>Begin Spectral Data<<<<<
223.165	-20.38
223.4	-20.38
223.635	-20.38
223.869	-17.38
224.104	-36.38
224.338	-15.38
224.573	-5.38
224.808	-20.38
225.042	-15.38
225.277	-5.38
225.511	-4.38
225.746	3.62
225.98	-4.38
226.215	11.62
226.449	22.62
226.683	32.62
226.918	21.62
227.152	52.62
227.387	26.62
227.621	41.62
227.856	45.62
228.09	58.62
228.324	60.62
228.559	51.62
228.793	78.62
229.027	124.62
229.262	148.62
229.496	134.62
229.73	139.62
229.964	162.62
230.199	158.62
230.433	161.62
230.667	164.62
230.901	167.62
231.136	159.62
231.37	177.62
231.604	186.62
231.838	182.62
232.072	175.62
232.306	184.62
232.541	186.62
232.775	186.62
233.009	187.62
233.243	187.62
233.477	176.62
233.711	177.62
233.945	198.62
234.179	182.62
234.413	195.62
234.647	203.62
234.881	196.62
235.115	208.62
235.349	185.62
235.583	206.62
235.817	203.62
236.051	195.62
236.285	196.62
236.519	203.62
236.753	197.62
236.987	204.62
237.221	199.62
237.455	202.62
237.689	208.62
237.922	216.62
238.156	228.62
238.39	214.62
238.624	240.62
238.858	251.62
239.091	232.62
239.325	224.62
239.559	213.62
239.793	238.62
240.027	221.62
240.26	246.62
240.494	233.62
240.728	243.62
240.961	229.62
241.195	251.62
241.429	249.62
241.662	241.62
241.896	261.62
242.13	254.62
242.363	263.62
242.597	259.62
242.83	266.62
243.064	266.62
243.298	264.62
243.531	270.62
243.765	279.62
243.998	279.62
244.232	286.62
244.465	272.62
244.699	289.62
244.932	313.62
245.166	284.62
245.399	276.62
245.633	302.62
245.866	303.62
246.099	287.62
246.333	302.62
246.566	295.62
246.8	307.62
247.033	308.62
247.266	319.62
247.5	294.62
247.733	297.62
247.966	300.62
248.2	333.62
248.433	331.62
248.666	303.62
248.899	311.62
249.133	332.62
249.366	342.62
249.599	323.62
249.832	345.62
250.066	337.62
250.299	343.62
250.532	335.62
250.765	340.62
250.998	341.62
251.231	353.62
251.465	352.62
251.698	356.62
251.931	362.62
252.164	356.62
252.397	349.62
252.63	368.62
252.863	385.62
253.096	383.62
253.329	385.62
253.562	364.62
253.795	353.62
254.028	382.62
254.261	387.62
254.494	381.62
254.727	387.62
254.96	383.62
255.193	376.62
255.426	387.62
255.659	391.62
255.892	390.62
256.124	396.62
256.357	392.62
256.59	410.62
256.823	403.62
257.056	395.62
257.289	401.62
257.521	416.62
257.754	406.62
257.987	404.62
258.22	412.62
258.452	421.62
258.685	417.62
258.918	421.62
259.151	442.62
259.383	412.62
259.616	438.62
259.849	443.62
260.081	444.62
260.314	440.62
260.547	438.62
260.779	435.62
261.012	432.62
261.244	452.62
261.477	445.62
261.71	468.62
261.942	455.62
262.175	459.62
262.407	428.62
262.64	449.62
262.872	462.62
263.105	446.62
263.337	468.62
263.57	469.62
263.802	472.62
264.035	476.62
264.267	489.62
264.499	479.62
264.732	464.62
264.964	488.62
265.197	482.62
265.429	491.62
265.661	498.62
265.894	509.62
266.126	502.62
266.358	495.62
266.591	482.62
266.823	501.62
267.055	518.62
267.287	510.62
267.52	501.62
267.752	508.62
267.984	505.62
268.216	517.62
268.448	502.62
268.681	518.62
268.913	521.62
269.145	525.62
269.377	506.62
269.609	527.62
269.841	518.62
270.073	497.62
270.306	536.62
270.538	541.62
270.77	534.62
271.002	538.62
271.234	555.62
271.466	529.62
271.698	559.62
271.93	547.62
272.162	571.62
272.394	566.62
272.626	560.62
272.858	553.62
273.09	543.62
273.322	552.62
273.553	549.62
273.785	569.62
274.017	589.62
274.249	560.62
274.481	589.62
274.713	582.62
274.945	581.62
275.176	596.62
275.408	592.62
275.64	592.62
275.872	593.62
276.104	578.62
276.335	604.62
276.567	581.62
276.799	571.62
277.031	614.62
277.262	608.62
277.494	610.62
277.726	611.62
277.957	602.62
278.189	601.62
278.421	639.62
278.652	625.62
278.884	619.62
279.115	629.62
279.347	627.62
279.579	619.62
279.81	623.62
280.042	645.62
280.273	641.62
280.505	652.62
280.736	631.62
280.968	643.62
281.199	645.62
281.431	647.62
281.662	640.62
281.894	652.62
282.125	646.62
282.356	666.62
282.588	671.62
282.819	661.62
283.051	663.62
283.282	668.62
283.513	681.62
283.745	677.62
283.976	656.62
284.207	682.62
284.439	687.62
284.67	723.62
284.901	707.62
285.132	715.62
285.364	700.62
285.595	692.62
285.826	726.62
286.057	699.62
286.288	689.62
286.52	697.62
286.751	710.62
286.982	735.62
287.213	725.62
287.444	704.62
287.675	710.62
287.906	701.62
288.138	750.62
288.369	715.62
288.6	734.62
288.831	731.62
289.062	740.62
289.293	733.62
289.524	745.62
289.755	743.62
289.986	739.62
290.217	722.62
290.448	740.62
290.679	745.62
290.91	758.62
291.141	740.62
291.371	724.62
291.602	727.62
291.833	756.62
292.064	724.62
292.295	712.62
292.526	757.62
292.757	728.62
292.987	726.62
293.218	742.62
293.449	773.62
293.68	769.62
293.91	755.62
294.141	747.62
294.372	761.62
294.603	795.62
294.833	790.62
295.064	751.62
295.295	769.62
295.525	741.62
295.756	772.62
295.987	799.62
296.217	769.62
296.448	784.62
296.679	782.62
296.909	778.62
297.14	781.62
297.37	811.62
297.601	800.62
297.831	797.62
298.062	812.62
298.292	806.62
298.523	851.62
298.753	847.62
298.984	784.62
299.214	784.62
299.445	808.62
299.675	815.62
299.905	831.62
300.136	817.62
300.366	805.62
300.597	818.62
300.827	864.62
301.057	837.62
301.288	858.62
301.518	854.62
301.748	880.62
301.979	878.62
302.209	877.62
302.439	874.62
302.669	878.62
302.9	854.62
303.13	845.62
303.36	880.62
303.59	839.62
303.82	838.62
304.051	863.62
304.281	873.62
304.511	855.62
304.741	864.62
304.971	841.62
305.201	841.62
305.431	862.62
305.661	835.62
305.891	847.62
306.121	872.62
306.352	833.62
306.582	832.62
306.812	821.62
307.042	817.62
307.272	843.62
307.502	803.62
307.731	829.62
307.961	843.62
308.191	816.62
308.421	825.62
308.651	813.62
308.881	835.62
309.111	846.62
309.341	824.62
309.571	825.62
309.8	858.62
310.03	864.62
310.26	833.62
310.49	840.62
310.72	844.62
310.949	821.62
311.179	851.62
311.409	837.62
311.639	848.62
311.868	840.62
312.098	844.62
312.328	876.62
312.557	871.62
312.787	867.62
313.017	875.62
313.246	884.62
313.476	880.62
313.706	891.62
313.935	891.62
314.165	892.62
314.394	892.62
314.624	891.62
314.853	901.62
315.083	897.62
315.312	896.62
315.542	880.62
315.771	902.62
316.001	865.62
316.23	899.62
316.46	883.62
316.689	858.62
316.919	891.62
317.148	897.62
317.377	884.62
317.607	845.62
317.836	859.62
318.065	862.62
318.295	896.62
318.524	874.62
318.753	881.62
318.983	867.62
319.212	863.62
319.441	869.62
319.67	853.62
319.9	861.62
320.129	871.62
320.358	894.62
320.587	880.62
320.816	884.62
321.046	861.62
321.275	893.62
321.504	869.62
321.733	885.62
321.962	883.62
322.191	915.62
322.42	896.62
322.649	909.62
322.878	900.62
323.108	889.62
323.337	900.62
323.566	889.62
323.795	893.62
324.024	937.62
324.253	899.62
324.482	911.62
324.71	909.62
324.939	927.62
325.168	919.62
325.397	926.62
325.626	925.62
325.855	950.62
326.084	952.62
326.313	961.62
326.542	974.62
326.77	964.62
326.999	956.62
327.228	931.62
327.457	974.62
327.686	951.62
327.914	970.62
328.143	968.62
328.372	963.62
328.6	971.62
328.829	969.62
329.058	969.62
329.287	984.62
329.515	980.62
329.744	1014.62
329.972	965.62
330.201	995.62
330.43	989.62
330.658	987.62
330.887	1000.62
331.115	1037.62
331.344	1003.62
331.572	1000.62
331.801	1041.62
332.03	1067.62
332.258	1060.62
332.486	1091.62
332.715	1139.62
332.943	1164.62
333.172	1217.62
333.4	1231.62
333.629	1285.62
333.857	1312.62
334.085	1333.62
334.314	1291.62
334.542	1291.62
334.771	1306.62
334.999	1220.62
335.227	1284.62
335.455	1248.62
335.684	1247.62
335.912	1200.62
336.14	1212.62
336.369	1173.62
336.597	1196.62
336.825	1170.62
337.053	1183.62
337.281	1174.62
337.51	1125.62
337.738	1141.62
337.966	1133.62
338.194	1081.62
338.422	1087.62
338.65	1048.62
338.878	1069.62
339.106	1082.62
339.334	1066.62
339.562	1029.62
339.79	1027.62
340.018	981.62
340.246	1012.62
340.474	1014.62
340.702	1017.62
340.93	1026.62
341.158	1013.62
341.386	1015.62
341.614	1021.62
341.842	1015.62
342.07	993.62
342.298	971.62
342.526	996.62
342.754	973.62
342.981	1015.62
343.209	1045.62
343.437	1088.62
343.665	1109.62
343.893	1185.62
344.12	1230.62
344.348	1195.62
344.576	1166.62
344.804	1125.62
345.031	1099.62
345.259	1020.62
345.487	1037.62
345.714	1013.62
345.942	978.62
346.17	975.62
346.397	975.62
346.625	980.62
346.853	976.62
347.08	959.62
347.308	969.62
347.535	978.62
347.763	957.62
347.99	945.62
348.218	1020.62
348.445	977.62
348.673	963.62
348.9	961.62
349.128	967.62
349.355	971.62
349.583	962.62
349.81	941.62
350.037	928.62
350.265	958.62
350.492	944.62
350.72	920.62
350.947	933.62
351.174	945.62
351.402	926.62
351.629	929.62
351.856	925.62
352.083	939.62
352.311	932.62
352.538	909.62
352.765	927.62
352.992	931.62
353.22	904.62
353.447	904.62
353.674	909.62
353.901	926.62
354.128	900.62
354.355	905.62
354.583	897.62
354.81	921.62
355.037	937.62
355.264	912.62
355.491	923.62
355.718	917.62
355.945	933.62
356.172	938.62
356.399	956.62
356.626	919.62
356.853	938.62
357.08	927.62
357.307	934.62
357.534	936.62
357.761	948.62
357.988	924.62
358.215	940.62
358.441	922.62
358.668	925.62
358.895	938.62
359.122	934.62
359.349	948.62
359.576	947.62
359.802	917.62
360.029	923.62
360.256	945.62
360.483	932.62
360.709	929.62
360.936	963.62
361.163	928.62
361.39	943.62
361.616	942.62
361.843	956.62
362.07	955.62
362.296	924.62
362.523	931.62
362.749	927.62
362.976	933.62
363.203	966.62
363.429	929.62
363.656	930.62
363.882	935.62
364.109	912.62
364.335	924.62
364.562	925.62
364.788	932.62
365.015	970.62
365.241	915.62
365.468	922.62
365.694	929.62
365.92	956.62
366.147	907.62
366.373	903.62
366.599	933.62
366.826	907.62
367.052	921.62
367.278	937.62
367.505	974.62
367.731	954.62
367.957	942.62
368.184	921.62
368.41	942.62
368.636	938.62
368.862	937.62
369.089	964.62
369.315	965.62
369.541	951.62
369.767	925.62
369.993	956.62
370.219	955.62
370.445	955.62
370.672	986.62
370.898	988.62
371.124	982.62
371.35	1011.62
371.576	1032.62
371.802	1004.62
372.028	998.62
372.254	995.62
372.48	1030.62
372.706	1037.62
372.932	1049.62
373.158	1061.62
373.384	1067.62
373.61	1061.62
373.835	1027.62
374.061	1027.62
374.287	1065.62
374.513	1049.62
374.739	1077.62
374.965	1099.62
375.191	1112.62
375.416	1126.62
375.642	1097.62
375.868	1068.62
376.094	1081.62
376.319	1085.62
376.545	1063.62
376.771	1057.62
376.997	1009.62
377.222	1027.62
377.448	1045.62
377.674	1019.62
377.899	997.62
378.125	1014.62
378.35	1014.62
378.576	1020.62
378.802	1017.62
379.027	1033.62
379.253	1006.62
379.478	995.62
379.704	984.62
379.929	1012.62
380.155	991.62
380.38	1020.62
380.606	989.62
380.831	1019.62
381.057	1023.62
381.282	1019.62
381.507	1038.62
381.733	1024.62
381.958	1019.62
382.184	1046.62
382.409	1057.62
382.634	1044.62
382.86	1038.62
383.085	1118.62
383.31	1083.62
383.535	1112.62
383.761	1111.62
383.986	1135.62
384.211	1132.62
384.436	1175.62
384.662	1173.62
384.887	1200.62
385.112	1221.62
385.337	1237.62
385.562	1221.62
385.787	1214.62
386.013	1273.62
386.238	1238.62
386.463	1246.62
386.688	1283.62
386.913	1271.62
387.138	1268.62
387.363	1243.62
387.588	1230.62
387.813	1227.62
388.038	1258.62
388.263	1236.62
388.488	1261.62
388.713	1246.62
388.938	1227.62
389.163	1239.62
389.387	1215.62
389.612	1199.62
389.837	1216.62
390.062	1242.62
390.287	1206.62
390.512	1237.62
390.736	1247.62
390.961	1267.62
391.186	1315.62
391.411	1334.62
391.636	1321.62
391.86	1395.62
392.085	1403.62
392.31	1420.62
392.534	1386.62
392.759	1357.62
392.984	1350.62
393.208	1348.62
393.433	1300.62
393.658	1315.62
393.882	1327.62
394.107	1302.62
394.331	1335.62
394.556	1359.62
394.78	1355.62
395.005	1349.62
395.229	1392.62
395.454	1392.62
395.678	1424.62
395.903	1413.62
396.127	1418.62
396.352	1363.62
396.576	1363.62
396.801	1372.62
397.025	1384.62
397.249	1359.62
397.474	1433.62
397.698	1471.62
397.922	1445.62
398.147	1453.62
398.371	1498.62
398.595	1527.62
398.82	1617.62
399.044	1720.62
399.268	1843.62
399.492	2129.62
399.717	2317.62
399.941	2348.62
400.165	2187.62
400.389	1986.62
400.613	1832.62
400.837	1771.62
401.062	1665.62
401.286	1652.62
401.51	1604.62
401.734	1595.62
401.958	1647.62
402.182	1672.62
402.406	1656.62
402.63	1659.62
402.854	1687.62
403.078	1752.62
403.302	1756.62
403.526	1739.62
403.75	1768.62
403.974	1792.62
404.198	1779.62
404.422	1795.62
404.645	1802.62
404.869	1770.62
405.093	1781.62
405.317	1757.62
405.541	1759.62
405.765	1800.62
405.988	1792.62
406.212	1780.62
406.436	1792.62
406.66	1813.62
406.883	1831.62
407.107	1912.62
407.331	1991.62
407.555	2091.62
407.778	2095.62
408.002	2018.62
408.226	1989.62
408.449	1926.62
408.673	1836.62
408.896	1789.62
409.12	1796.62
409.344	1829.62
409.567	1768.62
409.791	1800.62
410.014	1811.62
410.238	1804.62
410.461	1736.62
410.685	1734.62
410.908	1742.62
411.132	1692.62
411.355	1664.62
411.578	1667.62
411.802	1629.62
412.025	1673.62
412.249	1695.62
412.472	1698.62
412.695	1658.62
412.919	1621.62
413.142	1628.62
413.365	1607.62
413.589	1626.62
413.812	1582.62
414.035	1619.62
414.258	1574.62
414.482	1585.62
414.705	1615.62
414.928	1611.62
415.151	1614.62
415.374	1572.62
415.597	1591.62
415.821	1538.62
416.044	1504.62
416.267	1543.62
416.49	1553.62
416.713	1538.62
416.936	1544.62
417.159	1558.62
417.382	1518.62
417.605	1539.62
417.828	1518.62
418.051	1551.62
418.274	1555.62
418.497	1558.62
418.72	1622.62
418.943	1593.62
419.166	1720.62
419.389	1867.62
419.611	1793.62
419.834	1705.62
420.057	1649.62
420.28	1579.62
420.503	1545.62
420.726	1535.62
420.948	1594.62
421.171	1568.62
421.394	1546.62
421.617	1519.62
421.839	1520.62
422.062	1584.62
422.285	1521.62
422.507	1571.62
422.73	1568.62
422.953	1563.62
423.175	1612.62
423.398	1582.62
423.621	1599.62
423.843	1631.62
424.066	1615.62
424.288	1598.62
424.511	1605.62
424.733	1576.62
424.956	1598.62
425.178	1563.62
425.401	1557.62
425.623	1571.62
425.846	1525.62
426.068	1517.62
426.291	1498.62
426.513	1529.62
426.735	1467.62
426.958	1455.62
427.18	1439.62
427.402	1422.62
427.625	1421.62
427.847	1379.62
428.069	1436.62
428.292	1431.62
428.514	1372.62
428.736	1397.62
428.958	1414.62
429.181	1370.62
429.403	1358.62
429.625	1368.62
429.847	1328.62
430.069	1331.62
430.292	1346.62
430.514	1344.62
430.736	1380.62
430.958	1351.62
431.18	1371.62
431.402	1387.62
431.624	1363.62
431.846	1403.62
432.068	1389.62
432.29	1409.62
432.512	1384.62
432.734	1380.62
432.956	1356.62
433.178	1344.62
433.4	1383.62
433.622	1411.62
433.844	1410.62
434.066	1431.62
434.287	1462.62
434.509	1462.62
434.731	1515.62
434.953	1558.62
435.175	1543.62
435.397	1544.62
435.618	1484.62
435.84	1448.62
436.062	1404.62
436.284	1379.62
436.505	1352.62
436.727	1378.62
436.949	1375.62
437.17	1371.62
437.392	1320.62
437.614	1369.62
437.835	1320.62
438.057	1335.62
438.278	1320.62
438.5	1302.62
438.721	1298.62
438.943	1305.62
439.165	1293.62
439.386	1359.62
439.608	1367.62
439.829	1338.62
440.05	1391.62
440.272	1344.62
440.493	1390.62
440.715	1381.62
440.936	1397.62
441.158	1425.62
441.379	1471.62
441.6	1503.62
441.822	1531.62
442.043	1528.62
442.264	1520.62
442.486	1494.62
442.707	1488.62
442.928	1493.62
443.149	1525.62
443.371	1523.62
443.592	1535.62
443.813	1519.62
444.034	1584.62
444.255	1598.62
444.476	1654.62
444.698	1760.62
444.919	1783.62
445.14	1828.62
445.361	1721.62
445.582	1610.62
445.803	1568.62
446.024	1487.62
446.245	1467.62
446.466	1423.62
446.687	1365.62
446.908	1419.62
447.129	1381.62
447.35	1344.62
447.571	1344.62
447.792	1284.62
448.013	1301.62
448.234	1278.62
448.455	1274.62
448.675	1249.62
448.896	1273.62
449.117	1227.62
449.338	1213.62
449.559	1235.62
449.779	1238.62
450	1236.62
450.221	1248.62
450.442	1267.62
450.662	1231.62
450.883	1248.62
451.104	1280.62
451.324	1270.62
451.545	1262.62
451.766	1281.62
451.986	1254.62
452.207	1245.62
452.428	1247.62
452.648	1252.62
452.869	1213.62
453.089	1196.62
453.31	1227.62
453.53	1217.62
453.751	1174.62
453.971	1205.62
454.192	1214.62
454.412	1184.62
454.633	1220.62
454.853	1191.62
455.073	1169.62
455.294	1159.62
455.514	1155.62
455.734	1186.62
455.955	1147.62
456.175	1150.62
456.395	1153.62
456.616	1146.62
456.836	1153.62
457.056	1192.62
457.276	1149.62
457.497	1163.62
457.717	1176.62
457.937	1177.62
458.157	1206.62
458.377	1242.62
458.598	1232.62
458.818	1281.62
459.038	1307.62
459.258	1328.62
459.478	1396.62
459.698	1422.62
459.918	1456.62
460.138	1521.62
460.358	1599.62
460.578	1621.62
460.798	1653.62
461.018	1636.62
461.238	1670.62
461.458	1660.62
461.678	1626.62
461.898	1654.62
462.118	1661.62
462.338	1782.62
462.558	1788.62
462.777	1891.62
462.997	2014.62
463.217	2135.62
463.437	2167.62
463.657	2034.62
463.876	1977.62
464.096	1948.62
464.316	1899.62
464.536	1908.62
464.755	1885.62
464.975	1801.62
465.195	1723.62
465.414	1587.62
465.634	1477.62
465.854	1440.62
466.073	1423.62
466.293	1384.62
466.512	1366.62
466.732	1324.62
466.951	1315.62
467.171	1345.62
467.391	1329.62
467.61	1295.62
467.829	1337.62
468.049	1293.62
468.268	1269.62
468.488	1243.62
468.707	1254.62
468.927	1294.62
469.146	1259.62
469.365	1283.62
469.585	1309.62
469.804	1303.62
470.023	1337.62
470.243	1349.62
470.462	1315.62
470.681	1379.62
470.901	1339.62
471.12	1335.62
471.339	1329.62
471.558	1336.62
471.777	1315.62
471.997	1267.62
472.216	1258.62
472.435	1280.62
472.654	1215.62
472.873	1219.62
473.092	1204.62
473.311	1230.62
473.53	1206.62
473.749	1221.62
473.968	1215.62
474.187	1203.62
474.406	1230.62
474.625	1223.62
474.844	1242.62
475.063	1235.62
475.282	1253.62
475.501	1233.62
475.72	1221.62
475.939	1296.62
476.158	1255.62
476.377	1274.62
476.596	1297.62
476.814	1303.62
477.033	1292.62
477.252	1325.62
477.471	1352.62
477.69	1411.62
477.908	1390.62
478.127	1432.62
478.346	1483.62
478.564	1523.62
478.783	1491.62
479.002	1551.62
479.22	1572.62
479.439	1551.62
479.658	1572.62
479.876	1581.62
480.095	1584.62
480.313	1642.62
480.532	1628.62
480.751	1606.62
480.969	1568.62
481.188	1547.62
481.406	1531.62
481.624	1501.62
481.843	1442.62
482.061	1430.62
482.28	1444.62
482.498	1445.62
482.717	1403.62
482.935	1392.62
483.153	1415.62
483.372	1390.62
483.59	1436.62
483.808	1407.62
484.027	1392.62
484.245	1422.62
484.463	1415.62
484.681	1436.62
484.9	1459.62
485.118	1454.62
485.336	1463.62
485.554	1455.62
485.772	1483.62
485.99	1469.62
486.209	1485.62
486.427	1478.62
486.645	1500.62
486.863	1503.62
487.081	1444.62
487.299	1455.62
487.517	1485.62
487.735	1472.62
487.953	1517.62
488.171	1482.62
488.389	1463.62
488.607	1456.62
488.825	1419.62
489.043	1412.62
489.261	1482.62
489.479	1467.62
489.696	1473.62
489.914	1477.62
490.132	1453.62
490.35	1453.62
490.568	1527.62
490.786	1487.62
491.003	1481.62
491.221	1491.62
491.439	1496.62
491.657	1466.62
491.874	1516.62
492.092	1507.62
492.31	1503.62
492.527	1489.62
492.745	1524.62
492.963	1518.62
493.18	1549.62
493.398	1534.62
493.615	1539.62
493.833	1551.62
494.05	1564.62
494.268	1606.62
494.485	1567.62
494.703	1555.62
494.92	1591.62
495.138	1573.62
495.355	1561.62
495.573	1630.62
495.79	1613.62
496.008	1636.62
496.225	1635.62
496.442	1630.62
496.66	1702.62
496.877	1698.62
497.094	1729.62
497.312	1753.62
497.529	1830.62
497.746	1898.62
497.963	1939.62
498.181	2085.62
498.398	2125.62
498.615	2243.62
498.832	2400.62
499.049	2582.62
499.267	2790.62
499.484	3086.62
499.701	3346.62
499.918	3692.62
500.135	4133.62
500.352	4518.62
500.569	4666.62
500.786	4640.62
501.003	4408.62
501.22	4142.62
501.437	3758.62
501.654	3364.62
501.871	3064.62
502.088	2767.62
502.305	2605.62
502.522	2438.62
502.739	2333.62
502.956	2195.62
503.172	2143.62
503.389	2043.62
503.606	1952.62
503.823	1942.62
504.04	1924.62
504.256	1915.62
504.473	1919.62
504.69	1953.62
504.907	1872.62
505.123	1790.62
505.34	1715.62
505.557	1637.62
505.773	1613.62
505.99	1547.62
506.207	1486.62
506.423	1475.62
506.64	1454.62
506.856	1464.62
507.073	1391.62
507.289	1386.62
507.506	1400.62
507.722	1411.62
507.939	1392.62
508.155	1367.62
508.372	1348.62
508.588	1333.62
508.805	1310.62
509.021	1360.62
509.238	1357.62
509.454	1342.62
509.67	1309.62
509.887	1349.62
510.103	1291.62
510.319	1267.62
510.536	1273.62
510.752	1274.62
510.968	1303.62
511.184	1293.62
511.401	1236.62
511.617	1214.62
511.833	1293.62
512.049	1268.62
512.265	1249.62
512.481	1294.62
512.698	1276.62
512.914	1249.62
513.13	1243.62
513.346	1280.62
513.562	1293.62
513.778	1301.62
513.994	1298.62
514.21	1277.62
514.426	1276.62
514.642	1318.62
514.858	1310.62
515.074	1334.62
515.29	1329.62
515.506	1337.62
515.721	1363.62
515.937	1378.62
516.153	1405.62
516.369	1455.62
516.585	1506.62
516.801	1508.62
517.016	1655.62
517.232	1661.62
517.448	1740.62
517.664	1756.62
517.879	1814.62
518.095	1814.62
518.311	1779.62
518.527	1709.62
518.742	1654.62
518.958	1576.62
519.173	1514.62
519.389	1467.62
519.605	1430.62
519.82	1399.62
520.036	1370.62
520.251	1339.62
520.467	1338.62
520.682	1308.62
520.898	1246.62
521.113	1268.62
521.329	1248.62
521.544	1245.62
521.76	1196.62
521.975	1233.62
522.19	1227.62
522.406	1209.62
522.621	1185.62
522.836	1179.62
523.052	1169.62
523.267	1194.62
523.482	1166.62
523.698	1177.62
523.913	1173.62
524.128	1148.62
524.343	1163.62
524.559	1161.62
524.774	1145.62
524.989	1178.62
525.204	1154.62
525.419	1151.62
525.634	1132.62
525.849	1157.62
526.064	1157.62
526.28	1158.62
526.495	1159.62
526.71	1137.62
526.925	1102.62
527.14	1111.62
527.355	1130.62
527.57	1141.62
527.785	1098.62
527.999	1143.62
528.214	1099.62
528.429	1122.62
528.644	1128.62
528.859	1126.62
529.074	1119.62
529.289	1135.62
529.503	1128.62
529.718	1093.62
529.933	1129.62
530.148	1117.62
530.363	1132.62
530.577	1145.62
530.792	1134.62
531.007	1123.62
531.221	1143.62
531.436	1158.62
531.651	1149.62
531.865	1128.62
532.08	1139.62
532.295	1172.62
532.509	1116.62
532.724	1142.62
532.938	1152.62
533.153	1141.62
533.367	1140.62
533.582	1116.62
533.796	1117.62
534.011	1135.62
534.225	1104.62
534.44	1096.62
534.654	1114.62
534.868	1126.62
535.083	1105.62
535.297	1111.62
535.511	1091.62
535.726	1078.62
535.94	1098.62
536.154	1058.62
536.369	1072.62
536.583	1073.62
536.797	1061.62
537.011	1049.62
537.225	1032.62
537.44	1028.62
537.654	1038.62
537.868	1041.62
538.082	1008.62
538.296	997.62
538.51	1002.62
538.724	1022.62
538.938	1041.62
539.153	1011.62
539.367	1011.62
539.581	999.62
539.795	1002.62
540.009	1030.62
540.222	1019.62
540.436	1002.62
540.65	1013.62
540.864	1001.62
541.078	1027.62
541.292	1037.62
541.506	1024.62
541.72	990.62
541.934	1011.62
542.147	1019.62
542.361	1019.62
542.575	998.62
542.789	1013.62
543.002	976.62
543.216	1016.62
543.43	987.62
543.644	1005.62
543.857	974.62
544.071	1003.62
544.285	1049.62
544.498	995.62
544.712	1013.62
544.925	1027.62
545.139	1021.62
545.352	999.62
545.566	1056.62
545.779	1088.62
545.993	1075.62
546.206	1032.62
546.42	1056.62
546.633	1029.62
546.847	975.62
547.06	1025.62
547.274	1038.62
547.487	1032.62
547.7	1040.62
547.914	1033.62
548.127	1030.62
548.34	1062.62
548.554	1058.62
548.767	1033.62
548.98	1016.62
549.193	1070.62
549.407	1071.62
549.62	1062.62
549.833	1069.62
550.046	1054.62
550.259	1063.62
550.473	1030.62
550.686	1007.62
550.899	1045.62
551.112	1028.62
551.325	1018.62
551.538	1021.62
551.751	1033.62
551.964	1050.62
552.177	1067.62
552.39	1078.62
552.603	1121.62
552.816	1109.62
553.029	1118.62
553.242	1111.62
553.455	1164.62
553.667	1139.62
553.88	1112.62
554.093	1094.62
554.306	1075.62
554.519	1062.62
554.732	1031.62
554.944	1039.62
555.157	998.62
555.37	990.62
555.583	973.62
555.795	965.62
556.008	949.62
556.221	908.62
556.433	906.62
556.646	906.62
556.859	925.62
557.071	911.62
557.284	894.62
557.496	885.62
557.709	857.62
557.921	884.62
558.134	864.62
558.346	856.62
558.559	851.62
558.771	868.62
558.984	858.62
559.196	857.62
559.409	864.62
559.621	851.62
559.833	857.62
560.046	841.62
560.258	824.62
560.47	870.62
560.683	853.62
560.895	842.62
561.107	841.62
561.32	838.62
561.532	834.62
561.744	858.62
561.956	859.62
562.168	859.62
562.381	865.62
562.593	857.62
562.805	867.62
563.017	851.62
563.229	868.62
563.441	847.62
563.653	876.62
563.865	858.62
564.077	872.62
564.289	912.62
564.501	918.62
564.713	948.62
564.925	944.62
565.137	955.62
565.349	1005.62
565.561	1013.62
565.773	1075.62
565.985	1114.62
566.197	1155.62
566.408	1222.62
566.62	1315.62
566.832	1365.62
567.044	1425.62
567.255	1414.62
567.467	1466.62
567.679	1531.62
567.891	1616.62
568.102	1619.62
568.314	1519.62
568.526	1452.62
568.737	1318.62
568.949	1212.62
569.161	1159.62
569.372	1087.62
569.584	995.62
569.795	972.62
570.007	930.62
570.218	922.62
570.43	937.62
570.641	923.62
570.853	915.62
571.064	928.62
571.276	870.62
571.487	857.62
571.698	844.62
571.91	842.62
572.121	827.62
572.333	781.62
572.544	756.62
572.755	742.62
572.966	735.62
573.178	741.62
573.389	741.62
573.6	720.62
573.811	704.62
574.023	704.62
574.234	719.62
574.445	697.62
574.656	688.62
574.867	701.62
575.078	701.62
575.289	726.62
575.501	681.62
575.712	671.62
575.923	679.62
576.134	651.62
576.345	676.62
576.556	683.62
576.767	663.62
576.978	639.62
577.188	645.62
577.399	639.62
577.61	653.62
577.821	637.62
578.032	624.62
578.243	629.62
578.454	639.62
578.665	614.62
578.875	605.62
579.086	609.62
579.297	631.62
579.508	639.62
579.718	602.62
579.929	620.62
580.14	589.62
580.35	606.62
580.561	586.62
580.772	598.62
580.982	588.62
581.193	574.62
581.403	571.62
581.614	591.62
581.825	586.62
582.035	582.62
582.246	573.62
582.456	576.62
582.667	582.62
582.877	586.62
583.087	574.62
583.298	564.62
583.508	574.62
583.719	559.62
583.929	585.62
584.139	576.62
584.35	560.62
584.56	552.62
584.77	588.62
584.981	554.62
585.191	558.62
585.401	564.62
585.611	571.62
585.821	571.62
586.032	567.62
586.242	552.62
586.452	550.62
586.662	541.62
586.872	563.62
587.082	560.62
587.292	555.62
587.502	545.62
587.713	576.62
587.923	554.62
588.133	543.62
588.343	542.62
588.553	582.62
588.762	547.62
588.972	546.62
589.182	569.62
589.392	558.62
589.602	566.62
589.812	568.62
590.022	587.62
590.232	547.62
590.441	573.62
590.651	576.62
590.861	550.62
591.071	588.62
591.281	590.62
591.49	592.62
591.7	597.62
591.91	621.62
592.119	620.62
592.329	621.62
592.539	645.62
592.748	658.62
592.958	665.62
593.167	695.62
593.377	709.62
593.587	719.62
593.796	721.62
594.006	713.62
594.215	709.62
594.424	699.62
594.634	686.62
594.843	657.62
595.053	650.62
595.262	632.62
595.472	632.62
595.681	607.62
595.89	625.62
596.1	556.62
596.309	555.62
596.518	551.62
596.727	538.62
596.937	549.62
597.146	521.62
597.355	499.62
597.564	509.62
597.774	494.62
597.983	495.62
598.192	500.62
598.401	490.62
598.61	516.62
598.819	493.62
599.028	471.62
599.237	476.62
599.446	470.62
599.655	470.62
599.864	472.62
600.073	455.62
600.282	465.62
600.491	440.62
600.7	480.62
600.909	472.62
601.118	464.62
601.327	463.62
601.536	447.62
601.745	446.62
601.953	432.62
602.162	450.62
602.371	451.62
602.58	450.62
602.789	448.62
602.997	440.62
603.206	443.62
603.415	450.62
603.623	425.62
603.832	438.62
604.041	407.62
604.249	432.62
604.458	428.62
604.666	424.62
604.875	407.62
605.084	414.62
605.292	429.62
605.501	436.62
605.709	418.62
605.918	425.62
606.126	424.62
606.334	407.62
606.543	403.62
606.751	396.62
606.96	409.62
607.168	404.62
607.376	423.62
607.585	409.62
607.793	409.62
608.001	410.62
608.21	408.62
608.418	408.62
608.626	409.62
608.834	424.62
609.043	388.62
609.251	393.62
609.459	403.62
609.667	404.62
609.875	397.62
610.083	404.62
610.291	401.62
610.499	388.62
610.707	399.62
610.916	400.62
611.124	409.62
611.332	399.62
611.54	389.62
611.748	399.62
611.955	396.62
612.163	400.62
612.371	397.62
612.579	404.62
612.787	390.62
612.995	386.62
613.203	408.62
613.411	406.62
613.618	403.62
613.826	384.62
614.034	382.62
614.242	373.62
614.449	383.62
614.657	381.62
614.865	392.62
615.072	393.62
615.28	375.62
615.488	378.62
615.695	387.62
615.903	393.62
616.111	400.62
616.318	379.62
616.526	376.62
616.733	400.62
616.941	375.62
617.148	375.62
617.356	368.62
617.563	389.62
617.771	383.62
617.978	381.62
618.185	374.62
618.393	377.62
618.6	394.62
618.807	377.62
619.015	381.62
619.222	375.62
619.429	388.62
619.637	380.62
619.844	380.62
620.051	350.62
620.258	349.62
620.466	362.62
620.673	364.62
620.88	347.62
621.087	356.62
621.294	367.62
621.501	344.62
621.708	351.62
621.915	363.62
622.122	364.62
622.329	353.62
622.536	360.62
622.743	367.62
622.95	354.62
623.157	359.62
623.364	344.62
623.571	347.62
623.778	323.62
623.985	336.62
624.192	332.62
624.399	345.62
624.606	350.62
624.812	335.62
625.019	316.62
625.226	319.62
625.433	339.62
625.639	336.62
625.846	326.62
626.053	314.62
626.259	315.62
626.466	332.62
626.673	323.62
626.879	320.62
627.086	329.62
627.293	319.62
627.499	327.62
627.706	316.62
627.912	325.62
628.119	300.62
628.325	312.62
628.532	321.62
628.738	299.62
628.945	320.62
629.151	319.62
629.357	311.62
629.564	319.62
629.77	302.62
629.976	295.62
630.183	295.62
630.389	319.62
630.595	309.62
630.802	307.62
631.008	304.62
631.214	293.62
631.42	296.62
631.627	298.62
631.833	280.62
632.039	285.62
632.245	295.62
632.451	291.62
632.657	298.62
632.863	287.62
633.069	283.62
633.275	275.62
633.481	294.62
633.688	299.62
633.893	275.62
634.099	272.62
634.305	265.62
634.511	285.62
634.717	280.62
634.923	277.62
635.129	294.62
635.335	285.62
635.541	276.62
635.747	262.62
635.952	270.62
636.158	261.62
636.364	264.62
636.57	255.62
636.775	273.62
636.981	267.62
637.187	280.62
637.392	278.62
637.598	274.62
637.804	267.62
638.009	277.62
638.215	265.62
638.421	261.62
638.626	272.62
638.832	259.62
639.037	272.62
639.243	279.62
639.448	267.62
639.654	263.62
639.859	247.62
640.065	251.62
640.27	272.62
640.475	259.62
640.681	251.62
640.886	254.62
641.091	245.62
641.297	253.62
641.502	247.62
641.707	234.62
641.913	259.62
642.118	267.62
642.323	232.62
642.528	231.62
642.733	248.62
642.939	239.62
643.144	239.62
643.349	240.62
643.554	245.62
643.759	237.62
643.964	233.62
644.169	243.62
644.374	239.62
644.579	259.62
644.784	242.62
644.989	232.62
645.194	239.62
645.399	222.62
645.604	245.62
645.809	235.62
646.014	247.62
646.219	234.62
646.423	260.62
646.628	236.62
646.833	243.62
647.038	256.62
647.243	235.62
647.447	246.62
647.652	248.62
647.857	241.62
648.062	243.62
648.266	257.62
648.471	243.62
648.676	259.62
648.88	246.62
649.085	234.62
649.289	226.62
649.494	236.62
649.698	233.62
649.903	224.62
650.107	243.62
650.312	226.62
650.516	218.62
650.721	214.62
650.925	204.62
651.13	216.62
651.334	201.62
651.539	216.62
651.743	213.62
651.947	215.62
652.152	216.62
652.356	198.62
652.56	183.62
652.764	177.62
652.969	198.62
653.173	182.62
653.377	180.62
653.581	180.62
653.785	190.62
653.99	187.62
654.194	168.62
654.398	167.62
654.602	174.62
654.806	184.62
655.01	173.62
655.214	160.62
655.418	159.62
655.622	159.62
655.826	184.62
656.03	165.62
656.234	159.62
656.438	163.62
656.642	157.62
656.846	155.62
657.049	168.62
657.253	165.62
657.457	144.62
657.661	148.62
657.865	137.62
658.068	121.62
658.272	107.62
658.476	120.62
658.68	133.62
658.883	134.62
659.087	119.62
659.291	115.62
659.494	108.62
659.698	109.62
659.901	113.62
660.105	108.62
660.309	103.62
660.512	99.62
660.716	103.62
660.919	103.62
661.123	97.62
661.326	96.62
661.53	93.62
661.733	96.62
661.936	104.62
662.14	100.62
662.343	96.62
662.546	91.62
662.75	93.62
662.953	98.62
663.156	84.62
663.36	77.62
663.563	86.62
663.766	89.62
663.969	78.62
664.173	103.62
664.376	92.62
664.579	75.62
664.782	96.62
664.985	87.62
665.188	72.62
665.391	76.62
665.594	88.62
665.797	96.62
666	88.62
666.203	84.62
666.406	87.62
666.609	80.62
666.812	94.62
667.015	79.62
667.218	87.62
667.421	90.62
667.624	80.62
667.827	89.62
668.03	80.62
668.232	91.62
668.435	86.62
668.638	99.62
668.841	87.62
669.043	95.62
669.246	89.62
669.449	84.62
669.651	95.62
669.854	81.62
670.057	95.62
670.259	75.62
670.462	80.62
670.665	72.62
670.867	76.62
671.07	95.62
671.272	76.62
671.475	88.62
671.677	87.62
671.88	84.62
672.082	73.62
672.284	84.62
672.487	76.62
672.689	87.62
672.892	76.62
