Data from NiCl2@0.25M.TitratingCurve.Agarose3%dH2O.NegLispCup.LampEnergy10.LIBS07252019_HRD10591_18-26-10-575.txt Node
Date: Thu Jul 25 18:26:10 EDT 2019
User: cochatt
Spectrometer: HR+D1059
Trigger mode: 1
Integration Time (sec): 1.000000E-1
Scans to average: 1
Electric dark correction enabled: true
Nonlinearity correction enabled: false
Boxcar width: 0
XAxis mode: Wavelengths
Number of Pixels in Spectrum: 2048
>>>>>Begin Spectral Data<<<<<
223.165	-14.56
223.4	-14.56
223.635	-14.56
223.869	-12.56
224.104	-18.56
224.338	-3.56
224.573	-12.56
224.808	-20.56
225.042	-9.56
225.277	-12.56
225.511	0.44
225.746	-2.56
225.98	-6.56
226.215	14.44
226.449	5.44
226.683	25.44
226.918	36.44
227.152	31.44
227.387	35.44
227.621	30.44
227.856	33.44
228.09	39.44
228.324	60.44
228.559	55.44
228.793	79.44
229.027	114.44
229.262	133.44
229.496	116.44
229.73	128.44
229.964	124.44
230.199	130.44
230.433	149.44
230.667	140.44
230.901	143.44
231.136	132.44
231.37	150.44
231.604	154.44
231.838	147.44
232.072	150.44
232.306	154.44
232.541	159.44
232.775	165.44
233.009	147.44
233.243	141.44
233.477	148.44
233.711	156.44
233.945	136.44
234.179	166.44
234.413	169.44
234.647	177.44
234.881	159.44
235.115	146.44
235.349	164.44
235.583	165.44
235.817	161.44
236.051	167.44
236.285	175.44
236.519	177.44
236.753	176.44
236.987	163.44
237.221	166.44
237.455	182.44
237.689	172.44
237.922	170.44
238.156	187.44
238.39	189.44
238.624	177.44
238.858	181.44
239.091	189.44
239.325	184.44
239.559	196.44
239.793	183.44
240.027	192.44
240.26	192.44
240.494	205.44
240.728	194.44
240.961	190.44
241.195	193.44
241.429	189.44
241.662	203.44
241.896	201.44
242.13	204.44
242.363	216.44
242.597	214.44
242.83	214.44
243.064	213.44
243.298	216.44
243.531	202.44
243.765	230.44
243.998	234.44
244.232	222.44
244.465	213.44
244.699	226.44
244.932	233.44
245.166	244.44
245.399	231.44
245.633	231.44
245.866	229.44
246.099	228.44
246.333	247.44
246.566	245.44
246.8	251.44
247.033	227.44
247.266	235.44
247.5	230.44
247.733	260.44
247.966	259.44
248.2	259.44
248.433	253.44
248.666	258.44
248.899	253.44
249.133	255.44
249.366	261.44
249.599	262.44
249.832	243.44
250.066	252.44
250.299	268.44
250.532	269.44
250.765	272.44
250.998	272.44
251.231	280.44
251.465	280.44
251.698	279.44
251.931	285.44
252.164	276.44
252.397	276.44
252.63	283.44
252.863	306.44
253.096	303.44
253.329	294.44
253.562	292.44
253.795	295.44
254.028	295.44
254.261	300.44
254.494	299.44
254.727	302.44
254.96	308.44
255.193	290.44
255.426	301.44
255.659	305.44
255.892	319.44
256.124	300.44
256.357	312.44
256.59	316.44
256.823	297.44
257.056	306.44
257.289	315.44
257.521	321.44
257.754	326.44
257.987	326.44
258.22	320.44
258.452	334.44
258.685	322.44
258.918	322.44
259.151	345.44
259.383	323.44
259.616	352.44
259.849	354.44
260.081	337.44
260.314	315.44
260.547	344.44
260.779	331.44
261.012	352.44
261.244	358.44
261.477	332.44
261.71	359.44
261.942	349.44
262.175	367.44
262.407	336.44
262.64	339.44
262.872	377.44
263.105	359.44
263.337	354.44
263.57	365.44
263.802	360.44
264.035	366.44
264.267	382.44
264.499	369.44
264.732	380.44
264.964	396.44
265.197	370.44
265.429	385.44
265.661	395.44
265.894	388.44
266.126	382.44
266.358	383.44
266.591	392.44
266.823	378.44
267.055	385.44
267.287	391.44
267.52	379.44
267.752	378.44
267.984	403.44
268.216	390.44
268.448	411.44
268.681	412.44
268.913	414.44
269.145	408.44
269.377	403.44
269.609	406.44
269.841	400.44
270.073	402.44
270.306	392.44
270.538	409.44
270.77	403.44
271.002	396.44
271.234	417.44
271.466	398.44
271.698	405.44
271.93	411.44
272.162	412.44
272.394	422.44
272.626	414.44
272.858	410.44
273.09	429.44
273.322	426.44
273.553	423.44
273.785	435.44
274.017	421.44
274.249	433.44
274.481	439.44
274.713	441.44
274.945	456.44
275.176	453.44
275.408	439.44
275.64	436.44
275.872	430.44
276.104	453.44
276.335	439.44
276.567	452.44
276.799	446.44
277.031	453.44
277.262	454.44
277.494	472.44
277.726	450.44
277.957	462.44
278.189	465.44
278.421	443.44
278.652	453.44
278.884	470.44
279.115	481.44
279.347	476.44
279.579	465.44
279.81	460.44
280.042	467.44
280.273	490.44
280.505	466.44
280.736	473.44
280.968	485.44
281.199	462.44
281.431	513.44
281.662	492.44
281.894	506.44
282.125	497.44
282.356	492.44
282.588	506.44
282.819	499.44
283.051	498.44
283.282	488.44
283.513	499.44
283.745	505.44
283.976	498.44
284.207	525.44
284.439	519.44
284.67	539.44
284.901	519.44
285.132	527.44
285.364	514.44
285.595	527.44
285.826	537.44
286.057	524.44
286.288	525.44
286.52	547.44
286.751	548.44
286.982	537.44
287.213	554.44
287.444	539.44
287.675	549.44
287.906	554.44
288.138	516.44
288.369	544.44
288.6	558.44
288.831	550.44
289.062	541.44
289.293	545.44
289.524	550.44
289.755	571.44
289.986	569.44
290.217	572.44
290.448	539.44
290.679	563.44
290.91	587.44
291.141	552.44
291.371	554.44
291.602	572.44
291.833	556.44
292.064	555.44
292.295	580.44
292.526	557.44
292.757	553.44
292.987	578.44
293.218	554.44
293.449	553.44
293.68	568.44
293.91	581.44
294.141	561.44
294.372	570.44
294.603	580.44
294.833	600.44
295.064	568.44
295.295	575.44
295.525	591.44
295.756	575.44
295.987	570.44
296.217	593.44
296.448	580.44
296.679	598.44
296.909	580.44
297.14	609.44
297.37	572.44
297.601	609.44
297.831	605.44
298.062	605.44
298.292	588.44
298.523	613.44
298.753	615.44
298.984	607.44
299.214	615.44
299.445	621.44
299.675	602.44
299.905	627.44
300.136	588.44
300.366	625.44
300.597	632.44
300.827	641.44
301.057	635.44
301.288	645.44
301.518	632.44
301.748	641.44
301.979	668.44
302.209	644.44
302.439	635.44
302.669	625.44
302.9	627.44
303.13	634.44
303.36	625.44
303.59	638.44
303.82	642.44
304.051	642.44
304.281	644.44
304.511	630.44
304.741	648.44
304.971	641.44
305.201	613.44
305.431	651.44
305.661	621.44
305.891	611.44
306.121	639.44
306.352	629.44
306.582	613.44
306.812	632.44
307.042	642.44
307.272	627.44
307.502	616.44
307.731	597.44
307.961	622.44
308.191	614.44
308.421	628.44
308.651	623.44
308.881	627.44
309.111	601.44
309.341	619.44
309.571	635.44
309.8	651.44
310.03	636.44
310.26	637.44
310.49	644.44
310.72	626.44
310.949	621.44
311.179	634.44
311.409	637.44
311.639	645.44
311.868	641.44
312.098	661.44
312.328	637.44
312.557	663.44
312.787	659.44
313.017	636.44
313.246	670.44
313.476	660.44
313.706	677.44
313.935	657.44
314.165	662.44
314.394	693.44
314.624	697.44
314.853	673.44
315.083	679.44
315.312	686.44
315.542	665.44
315.771	643.44
316.001	655.44
316.23	672.44
316.46	639.44
316.689	653.44
316.919	652.44
317.148	672.44
317.377	674.44
317.607	630.44
317.836	638.44
318.065	654.44
318.295	654.44
318.524	645.44
318.753	651.44
318.983	665.44
319.212	637.44
319.441	650.44
319.67	653.44
319.9	656.44
320.129	641.44
320.358	673.44
320.587	652.44
320.816	662.44
321.046	689.44
321.275	670.44
321.504	676.44
321.733	661.44
321.962	673.44
322.191	682.44
322.42	675.44
322.649	653.44
322.878	682.44
323.108	684.44
323.337	660.44
323.566	677.44
323.795	669.44
324.024	670.44
324.253	677.44
324.482	686.44
324.71	681.44
324.939	671.44
325.168	681.44
325.397	703.44
325.626	716.44
325.855	698.44
326.084	703.44
326.313	713.44
326.542	722.44
326.77	724.44
326.999	728.44
327.228	703.44
327.457	733.44
327.686	705.44
327.914	731.44
328.143	722.44
328.372	692.44
328.6	719.44
328.829	740.44
329.058	712.44
329.287	720.44
329.515	683.44
329.744	731.44
329.972	729.44
330.201	731.44
330.43	738.44
330.658	739.44
330.887	743.44
331.115	746.44
331.344	731.44
331.572	776.44
331.801	789.44
332.03	796.44
332.258	807.44
332.486	851.44
332.715	869.44
332.943	866.44
333.172	917.44
333.4	908.44
333.629	965.44
333.857	987.44
334.085	961.44
334.314	943.44
334.542	924.44
334.771	925.44
334.999	933.44
335.227	901.44
335.455	941.44
335.684	932.44
335.912	916.44
336.14	903.44
336.369	876.44
336.597	857.44
336.825	921.44
337.053	870.44
337.281	863.44
337.51	827.44
337.738	801.44
337.966	815.44
338.194	792.44
338.422	785.44
338.65	783.44
338.878	798.44
339.106	779.44
339.334	812.44
339.562	771.44
339.79	753.44
340.018	767.44
340.246	734.44
340.474	759.44
340.702	733.44
340.93	740.44
341.158	769.44
341.386	759.44
341.614	776.44
341.842	758.44
342.07	749.44
342.298	751.44
342.526	729.44
342.754	746.44
342.981	767.44
343.209	753.44
343.437	809.44
343.665	836.44
343.893	907.44
344.12	937.44
344.348	911.44
344.576	870.44
344.804	824.44
345.031	777.44
345.259	770.44
345.487	765.44
345.714	753.44
345.942	746.44
346.17	751.44
346.397	765.44
346.625	720.44
346.853	730.44
347.08	724.44
347.308	721.44
347.535	756.44
347.763	757.44
347.99	757.44
348.218	727.44
348.445	733.44
348.673	719.44
348.9	739.44
349.128	740.44
349.355	717.44
349.583	727.44
349.81	717.44
350.037	693.44
350.265	724.44
350.492	709.44
350.72	696.44
350.947	714.44
351.174	703.44
351.402	698.44
351.629	684.44
351.856	711.44
352.083	702.44
352.311	699.44
352.538	716.44
352.765	715.44
352.992	709.44
353.22	693.44
353.447	683.44
353.674	680.44
353.901	688.44
354.128	680.44
354.355	696.44
354.583	702.44
354.81	693.44
355.037	705.44
355.264	702.44
355.491	682.44
355.718	698.44
355.945	722.44
356.172	700.44
356.399	726.44
356.626	726.44
356.853	691.44
357.08	667.44
357.307	712.44
357.534	677.44
357.761	691.44
357.988	703.44
358.215	667.44
358.441	693.44
358.668	708.44
358.895	699.44
359.122	685.44
359.349	707.44
359.576	687.44
359.802	683.44
360.029	710.44
360.256	712.44
360.483	712.44
360.709	697.44
360.936	699.44
361.163	701.44
361.39	686.44
361.616	702.44
361.843	721.44
362.07	699.44
362.296	705.44
362.523	706.44
362.749	716.44
362.976	713.44
363.203	683.44
363.429	678.44
363.656	697.44
363.882	704.44
364.109	693.44
364.335	691.44
364.562	691.44
364.788	681.44
365.015	700.44
365.241	714.44
365.468	686.44
365.694	681.44
365.92	697.44
366.147	689.44
366.373	673.44
366.599	693.44
366.826	705.44
367.052	702.44
367.278	697.44
367.505	709.44
367.731	716.44
367.957	708.44
368.184	685.44
368.41	696.44
368.636	714.44
368.862	714.44
369.089	712.44
369.315	705.44
369.541	749.44
369.767	717.44
369.993	740.44
370.219	730.44
370.445	740.44
370.672	733.44
370.898	725.44
371.124	750.44
371.35	767.44
371.576	762.44
371.802	783.44
372.028	767.44
372.254	760.44
372.48	754.44
372.706	771.44
372.932	814.44
373.158	778.44
373.384	780.44
373.61	798.44
373.835	781.44
374.061	783.44
374.287	774.44
374.513	799.44
374.739	809.44
374.965	833.44
375.191	831.44
375.416	857.44
375.642	810.44
375.868	795.44
376.094	795.44
376.319	802.44
376.545	789.44
376.771	778.44
376.997	792.44
377.222	763.44
377.448	763.44
377.674	771.44
377.899	750.44
378.125	787.44
378.35	762.44
378.576	748.44
378.802	765.44
379.027	758.44
379.253	739.44
379.478	746.44
379.704	748.44
379.929	779.44
380.155	753.44
380.38	752.44
380.606	765.44
380.831	760.44
381.057	785.44
381.282	766.44
381.507	749.44
381.733	750.44
381.958	755.44
382.184	782.44
382.409	804.44
382.634	773.44
382.86	797.44
383.085	809.44
383.31	803.44
383.535	846.44
383.761	843.44
383.986	830.44
384.211	860.44
384.436	895.44
384.662	891.44
384.887	875.44
385.112	903.44
385.337	923.44
385.562	897.44
385.787	919.44
386.013	948.44
386.238	911.44
386.463	939.44
386.688	938.44
386.913	926.44
387.138	923.44
387.363	926.44
387.588	911.44
387.813	922.44
388.038	915.44
388.263	909.44
388.488	913.44
388.713	901.44
388.938	900.44
389.163	910.44
389.387	896.44
389.612	900.44
389.837	907.44
390.062	917.44
390.287	923.44
390.512	945.44
390.736	935.44
390.961	917.44
391.186	930.44
391.411	984.44
391.636	999.44
391.86	1005.44
392.085	1050.44
392.31	1019.44
392.534	1003.44
392.759	966.44
392.984	992.44
393.208	942.44
393.433	978.44
393.658	960.44
393.882	947.44
394.107	986.44
394.331	966.44
394.556	973.44
394.78	975.44
395.005	966.44
395.229	987.44
395.454	1031.44
395.678	1051.44
395.903	1043.44
396.127	989.44
396.352	995.44
396.576	981.44
396.801	984.44
397.025	984.44
397.249	1017.44
397.474	1029.44
397.698	1000.44
397.922	1019.44
398.147	1054.44
398.371	1050.44
398.595	1078.44
398.82	1131.44
399.044	1236.44
399.268	1353.44
399.492	1540.44
399.717	1689.44
399.941	1725.44
400.165	1533.44
400.389	1414.44
400.613	1285.44
400.837	1235.44
401.062	1197.44
401.286	1147.44
401.51	1139.44
401.734	1141.44
401.958	1163.44
402.182	1192.44
402.406	1159.44
402.63	1196.44
402.854	1214.44
403.078	1217.44
403.302	1226.44
403.526	1252.44
403.75	1258.44
403.974	1298.44
404.198	1309.44
404.422	1309.44
404.645	1307.44
404.869	1274.44
405.093	1313.44
405.317	1249.44
405.541	1270.44
405.765	1254.44
405.988	1255.44
406.212	1288.44
406.436	1258.44
406.66	1298.44
406.883	1301.44
407.107	1370.44
407.331	1445.44
407.555	1495.44
407.778	1491.44
408.002	1455.44
408.226	1418.44
408.449	1379.44
408.673	1342.44
408.896	1302.44
409.12	1312.44
409.344	1357.44
409.567	1289.44
409.791	1306.44
410.014	1317.44
410.238	1288.44
410.461	1290.44
410.685	1292.44
410.908	1230.44
411.132	1236.44
411.355	1191.44
411.578	1186.44
411.802	1159.44
412.025	1207.44
412.249	1220.44
412.472	1225.44
412.695	1175.44
412.919	1153.44
413.142	1178.44
413.365	1179.44
413.589	1176.44
413.812	1146.44
414.035	1105.44
414.258	1132.44
414.482	1167.44
414.705	1210.44
414.928	1206.44
415.151	1177.44
415.374	1162.44
415.597	1153.44
415.821	1126.44
416.044	1124.44
416.267	1106.44
416.49	1125.44
416.713	1079.44
416.936	1167.44
417.159	1098.44
417.382	1109.44
417.605	1091.44
417.828	1122.44
418.051	1164.44
418.274	1163.44
418.497	1144.44
418.72	1169.44
418.943	1173.44
419.166	1237.44
419.389	1329.44
419.611	1277.44
419.834	1229.44
420.057	1228.44
420.28	1171.44
420.503	1154.44
420.726	1122.44
420.948	1119.44
421.171	1113.44
421.394	1134.44
421.617	1119.44
421.839	1125.44
422.062	1153.44
422.285	1111.44
422.507	1127.44
422.73	1135.44
422.953	1155.44
423.175	1171.44
423.398	1185.44
423.621	1180.44
423.843	1190.44
424.066	1213.44
424.288	1175.44
424.511	1197.44
424.733	1198.44
424.956	1145.44
425.178	1143.44
425.401	1149.44
425.623	1130.44
425.846	1116.44
426.068	1100.44
426.291	1075.44
426.513	1074.44
426.735	1067.44
426.958	1078.44
427.18	1038.44
427.402	1048.44
427.625	1031.44
427.847	1045.44
428.069	1020.44
428.292	1036.44
428.514	1002.44
428.736	979.44
428.958	1023.44
429.181	1005.44
429.403	1024.44
429.625	971.44
429.847	997.44
430.069	970.44
430.292	986.44
430.514	964.44
430.736	990.44
430.958	997.44
431.18	971.44
431.402	1006.44
431.624	993.44
431.846	983.44
432.068	1029.44
432.29	1052.44
432.512	1019.44
432.734	1019.44
432.956	1022.44
433.178	1012.44
433.4	1029.44
433.622	1006.44
433.844	1032.44
434.066	1073.44
434.287	1035.44
434.509	1064.44
434.731	1107.44
434.953	1151.44
435.175	1141.44
435.397	1121.44
435.618	1085.44
435.84	1073.44
436.062	1049.44
436.284	1039.44
436.505	1014.44
436.727	1008.44
436.949	1036.44
437.17	1018.44
437.392	1006.44
437.614	1010.44
437.835	993.44
438.057	975.44
438.278	949.44
438.5	951.44
438.721	955.44
438.943	980.44
439.165	966.44
439.386	978.44
439.608	980.44
439.829	1021.44
440.05	991.44
440.272	1012.44
440.493	1012.44
440.715	1003.44
440.936	1033.44
441.158	1067.44
441.379	1060.44
441.6	1126.44
441.822	1151.44
442.043	1147.44
442.264	1100.44
442.486	1105.44
442.707	1107.44
442.928	1111.44
443.149	1110.44
443.371	1125.44
443.592	1135.44
443.813	1134.44
444.034	1113.44
444.255	1186.44
444.476	1212.44
444.698	1299.44
444.919	1317.44
445.14	1374.44
445.361	1234.44
445.582	1186.44
445.803	1112.44
446.024	1084.44
446.245	1082.44
446.466	1024.44
446.687	1029.44
446.908	1032.44
447.129	957.44
447.35	974.44
447.571	976.44
447.792	978.44
448.013	961.44
448.234	948.44
448.455	960.44
448.675	959.44
448.896	922.44
449.117	920.44
449.338	903.44
449.559	929.44
449.779	905.44
450	878.44
450.221	933.44
450.442	955.44
450.662	918.44
450.883	933.44
451.104	957.44
451.324	964.44
451.545	946.44
451.766	957.44
451.986	938.44
452.207	935.44
452.428	936.44
452.648	915.44
452.869	930.44
453.089	899.44
453.31	934.44
453.53	897.44
453.751	869.44
453.971	883.44
454.192	877.44
454.412	897.44
454.633	871.44
454.853	881.44
455.073	897.44
455.294	883.44
455.514	860.44
455.734	877.44
455.955	862.44
456.175	831.44
456.395	866.44
456.616	843.44
456.836	865.44
457.056	862.44
457.276	862.44
457.497	884.44
457.717	865.44
457.937	878.44
458.157	887.44
458.377	901.44
458.598	926.44
458.818	931.44
459.038	970.44
459.258	998.44
459.478	996.44
459.698	1032.44
459.918	1064.44
460.138	1096.44
460.358	1132.44
460.578	1184.44
460.798	1212.44
461.018	1205.44
461.238	1174.44
461.458	1181.44
461.678	1151.44
461.898	1230.44
462.118	1209.44
462.338	1303.44
462.558	1301.44
462.777	1356.44
462.997	1456.44
463.217	1555.44
463.437	1563.44
463.657	1486.44
463.876	1378.44
464.096	1437.44
464.316	1401.44
464.536	1429.44
464.755	1368.44
464.975	1311.44
465.195	1225.44
465.414	1159.44
465.634	1118.44
465.854	1061.44
466.073	1031.44
466.293	1004.44
466.512	999.44
466.732	982.44
466.951	980.44
467.171	966.44
467.391	990.44
467.61	971.44
467.829	971.44
468.049	953.44
468.268	929.44
468.488	953.44
468.707	934.44
468.927	922.44
469.146	936.44
469.365	948.44
469.585	949.44
469.804	984.44
470.023	966.44
470.243	1029.44
470.462	1010.44
470.681	1027.44
470.901	1014.44
471.12	989.44
471.339	978.44
471.558	965.44
471.777	955.44
471.997	939.44
472.216	936.44
472.435	929.44
472.654	920.44
472.873	937.44
473.092	901.44
473.311	914.44
473.53	929.44
473.749	893.44
473.968	919.44
474.187	929.44
474.406	918.44
474.625	917.44
474.844	897.44
475.063	937.44
475.282	941.44
475.501	949.44
475.72	910.44
475.939	949.44
476.158	940.44
476.377	947.44
476.596	961.44
476.814	965.44
477.033	974.44
477.252	1011.44
477.471	1028.44
477.69	1060.44
477.908	1039.44
478.127	1084.44
478.346	1094.44
478.564	1089.44
478.783	1118.44
479.002	1158.44
479.22	1148.44
479.439	1118.44
479.658	1139.44
479.876	1151.44
480.095	1166.44
480.313	1206.44
480.532	1235.44
480.751	1214.44
480.969	1207.44
481.188	1143.44
481.406	1116.44
481.624	1100.44
481.843	1080.44
482.061	1055.44
482.28	1068.44
482.498	1060.44
482.717	1070.44
482.935	1039.44
483.153	1065.44
483.372	1040.44
483.59	1075.44
483.808	1069.44
484.027	1043.44
484.245	1089.44
484.463	1088.44
484.681	1106.44
484.9	1092.44
485.118	1082.44
485.336	1124.44
485.554	1141.44
485.772	1123.44
485.99	1108.44
486.209	1167.44
486.427	1130.44
486.645	1159.44
486.863	1123.44
487.081	1126.44
487.299	1119.44
487.517	1107.44
487.735	1119.44
487.953	1154.44
488.171	1097.44
488.389	1095.44
488.607	1091.44
488.825	1095.44
489.043	1081.44
489.261	1097.44
489.479	1096.44
489.696	1089.44
489.914	1089.44
490.132	1100.44
490.35	1120.44
490.568	1123.44
490.786	1114.44
491.003	1117.44
491.221	1131.44
491.439	1134.44
491.657	1143.44
491.874	1124.44
492.092	1138.44
492.31	1135.44
492.527	1132.44
492.745	1146.44
492.963	1146.44
493.18	1189.44
493.398	1145.44
493.615	1143.44
493.833	1187.44
494.05	1171.44
494.268	1190.44
494.485	1184.44
494.703	1187.44
494.92	1189.44
495.138	1186.44
495.355	1196.44
495.573	1189.44
495.79	1210.44
496.008	1219.44
496.225	1228.44
496.442	1223.44
496.66	1236.44
496.877	1253.44
497.094	1253.44
497.312	1310.44
497.529	1309.44
497.746	1365.44
497.963	1402.44
498.181	1441.44
498.398	1490.44
498.615	1600.44
498.832	1694.44
499.049	1787.44
499.267	1982.44
499.484	2189.44
499.701	2397.44
499.918	2646.44
500.135	2942.44
500.352	3307.44
500.569	3497.44
500.786	3392.44
501.003	3245.44
501.22	2924.44
501.437	2617.44
501.654	2339.44
501.871	2152.44
502.088	1939.44
502.305	1819.44
502.522	1709.44
502.739	1634.44
502.956	1573.44
503.172	1515.44
503.389	1484.44
503.606	1419.44
503.823	1389.44
504.04	1363.44
504.256	1382.44
504.473	1371.44
504.69	1436.44
504.907	1388.44
505.123	1331.44
505.34	1243.44
505.557	1197.44
505.773	1169.44
505.99	1163.44
506.207	1091.44
506.423	1139.44
506.64	1085.44
506.856	1086.44
507.073	1034.44
507.289	1061.44
507.506	1055.44
507.722	1041.44
507.939	1045.44
508.155	1041.44
508.372	1010.44
508.588	1015.44
508.805	1012.44
509.021	1025.44
509.238	1013.44
509.454	992.44
509.67	994.44
509.887	946.44
510.103	915.44
510.319	986.44
510.536	968.44
510.752	977.44
510.968	979.44
511.184	954.44
511.401	959.44
511.617	960.44
511.833	940.44
512.049	967.44
512.265	975.44
512.481	998.44
512.698	970.44
512.914	951.44
513.13	943.44
513.346	966.44
513.562	954.44
513.778	967.44
513.994	961.44
514.21	948.44
514.426	941.44
514.642	961.44
514.858	984.44
515.074	1009.44
515.29	1005.44
515.506	1027.44
515.721	1000.44
515.937	1017.44
516.153	1037.44
516.369	1067.44
516.585	1099.44
516.801	1143.44
517.016	1147.44
517.232	1221.44
517.448	1279.44
517.664	1307.44
517.879	1330.44
518.095	1310.44
518.311	1294.44
518.527	1244.44
518.742	1203.44
518.958	1195.44
519.173	1140.44
519.389	1079.44
519.605	1016.44
519.82	1023.44
520.036	997.44
520.251	998.44
520.467	981.44
520.682	969.44
520.898	967.44
521.113	962.44
521.329	953.44
521.544	929.44
521.76	914.44
521.975	897.44
522.19	889.44
522.406	933.44
522.621	921.44
522.836	895.44
523.052	906.44
523.267	894.44
523.482	888.44
523.698	908.44
523.913	881.44
524.128	877.44
524.343	877.44
524.559	869.44
524.774	890.44
524.989	901.44
525.204	873.44
525.419	885.44
525.634	881.44
525.849	887.44
526.064	878.44
526.28	863.44
526.495	889.44
526.71	862.44
526.925	878.44
527.14	857.44
527.355	845.44
527.57	880.44
527.785	866.44
527.999	865.44
528.214	868.44
528.429	855.44
528.644	866.44
528.859	870.44
529.074	871.44
529.289	847.44
529.503	871.44
529.718	839.44
529.933	849.44
530.148	847.44
530.363	831.44
530.577	856.44
530.792	841.44
531.007	860.44
531.221	883.44
531.436	848.44
531.651	858.44
531.865	874.44
532.08	879.44
532.295	863.44
532.509	846.44
532.724	834.44
532.938	850.44
533.153	847.44
533.367	848.44
533.582	861.44
533.796	869.44
534.011	843.44
534.225	837.44
534.44	837.44
534.654	846.44
534.868	844.44
535.083	822.44
535.297	853.44
535.511	807.44
535.726	848.44
535.94	810.44
536.154	830.44
536.369	823.44
536.583	779.44
536.797	802.44
537.011	775.44
537.225	814.44
537.44	787.44
537.654	796.44
537.868	770.44
538.082	809.44
538.296	795.44
538.51	783.44
538.724	789.44
538.938	790.44
539.153	805.44
539.367	782.44
539.581	784.44
539.795	775.44
540.009	774.44
540.222	738.44
540.436	766.44
540.65	759.44
540.864	769.44
541.078	789.44
541.292	778.44
541.506	780.44
541.72	786.44
541.934	762.44
542.147	771.44
542.361	793.44
542.575	757.44
542.789	762.44
543.002	756.44
543.216	776.44
543.43	743.44
543.644	761.44
543.857	769.44
544.071	754.44
544.285	761.44
544.498	744.44
544.712	763.44
544.925	761.44
545.139	764.44
545.352	773.44
545.566	820.44
545.779	793.44
545.993	770.44
546.206	786.44
546.42	779.44
546.633	797.44
546.847	795.44
547.06	783.44
547.274	771.44
547.487	769.44
547.7	777.44
547.914	790.44
548.127	778.44
548.34	796.44
548.554	782.44
548.767	787.44
548.98	798.44
549.193	787.44
549.407	750.44
549.62	791.44
549.833	775.44
550.046	784.44
550.259	759.44
550.473	784.44
550.686	789.44
550.899	766.44
551.112	786.44
551.325	758.44
551.538	785.44
551.751	751.44
551.964	768.44
552.177	771.44
552.39	822.44
552.603	821.44
552.816	809.44
553.029	854.44
553.242	835.44
553.455	881.44
553.667	868.44
553.88	845.44
554.093	805.44
554.306	821.44
554.519	782.44
554.732	779.44
554.944	741.44
555.157	774.44
555.37	732.44
555.583	735.44
555.795	712.44
556.008	708.44
556.221	718.44
556.433	683.44
556.646	694.44
556.859	708.44
557.071	670.44
557.284	687.44
557.496	687.44
557.709	683.44
557.921	673.44
558.134	684.44
558.346	665.44
558.559	694.44
558.771	653.44
558.984	654.44
559.196	650.44
559.409	656.44
559.621	652.44
559.833	659.44
560.046	631.44
560.258	631.44
560.47	639.44
560.683	652.44
560.895	645.44
561.107	617.44
561.32	640.44
561.532	658.44
561.744	665.44
561.956	623.44
562.168	671.44
562.381	653.44
562.593	634.44
562.805	641.44
563.017	669.44
563.229	633.44
563.441	678.44
563.653	675.44
563.865	656.44
564.077	678.44
564.289	654.44
564.501	683.44
564.713	709.44
564.925	711.44
565.137	715.44
565.349	722.44
565.561	755.44
565.773	787.44
565.985	801.44
566.197	843.44
566.408	900.44
566.62	969.44
566.832	1022.44
567.044	1023.44
567.255	1087.44
567.467	1082.44
567.679	1133.44
567.891	1201.44
568.102	1205.44
568.314	1167.44
568.526	1047.44
568.737	964.44
568.949	895.44
569.161	819.44
569.372	787.44
569.584	767.44
569.795	711.44
570.007	707.44
570.218	679.44
570.43	676.44
570.641	681.44
570.853	675.44
571.064	651.44
571.276	687.44
571.487	649.44
571.698	649.44
571.91	602.44
572.121	595.44
572.333	600.44
572.544	577.44
572.755	565.44
572.966	567.44
573.178	568.44
573.389	537.44
573.6	573.44
573.811	499.44
574.023	571.44
574.234	524.44
574.445	534.44
574.656	520.44
574.867	535.44
575.078	533.44
575.289	524.44
575.501	532.44
575.712	525.44
575.923	518.44
576.134	513.44
576.345	501.44
576.556	508.44
576.767	525.44
576.978	509.44
577.188	502.44
577.399	497.44
577.61	487.44
577.821	477.44
578.032	487.44
578.243	494.44
578.454	491.44
578.665	487.44
578.875	474.44
579.086	478.44
579.297	484.44
579.508	484.44
579.718	486.44
579.929	488.44
580.14	481.44
580.35	457.44
580.561	482.44
580.772	454.44
580.982	475.44
581.193	441.44
581.403	460.44
581.614	463.44
581.825	454.44
582.035	458.44
582.246	451.44
582.456	441.44
582.667	449.44
582.877	469.44
583.087	468.44
583.298	437.44
583.508	435.44
583.719	447.44
583.929	441.44
584.139	454.44
584.35	419.44
584.56	441.44
584.77	442.44
584.981	437.44
585.191	411.44
585.401	439.44
585.611	419.44
585.821	449.44
586.032	423.44
586.242	433.44
586.452	456.44
586.662	438.44
586.872	427.44
587.082	413.44
587.292	434.44
587.502	413.44
587.713	437.44
587.923	423.44
588.133	409.44
588.343	405.44
588.553	426.44
588.762	422.44
588.972	435.44
589.182	447.44
589.392	444.44
589.602	421.44
589.812	430.44
590.022	457.44
590.232	431.44
590.441	438.44
590.651	460.44
590.861	437.44
591.071	439.44
591.281	445.44
591.49	462.44
591.7	469.44
591.91	469.44
592.119	454.44
592.329	490.44
592.539	476.44
592.748	499.44
592.958	525.44
593.167	524.44
593.377	530.44
593.587	527.44
593.796	537.44
594.006	520.44
594.215	551.44
594.424	551.44
594.634	532.44
594.843	527.44
595.053	487.44
595.262	470.44
595.472	485.44
595.681	465.44
595.89	452.44
596.1	430.44
596.309	434.44
596.518	410.44
596.727	401.44
596.937	412.44
597.146	382.44
597.355	396.44
597.564	390.44
597.774	389.44
597.983	377.44
598.192	377.44
598.401	356.44
598.61	383.44
598.819	375.44
599.028	369.44
599.237	377.44
599.446	376.44
599.655	357.44
599.864	369.44
600.073	373.44
600.282	348.44
600.491	383.44
600.7	381.44
600.909	356.44
601.118	348.44
601.327	358.44
601.536	354.44
601.745	346.44
601.953	350.44
602.162	344.44
602.371	354.44
602.58	346.44
602.789	342.44
602.997	342.44
603.206	370.44
603.415	350.44
603.623	357.44
603.832	348.44
604.041	345.44
604.249	346.44
604.458	350.44
604.666	345.44
604.875	341.44
605.084	341.44
605.292	318.44
605.501	321.44
605.709	340.44
605.918	323.44
606.126	337.44
606.334	332.44
606.543	325.44
606.751	317.44
606.96	345.44
607.168	329.44
607.376	331.44
607.585	335.44
607.793	331.44
608.001	331.44
608.21	337.44
608.418	334.44
608.626	321.44
608.834	316.44
609.043	335.44
609.251	339.44
609.459	309.44
609.667	315.44
609.875	322.44
610.083	320.44
610.291	327.44
610.499	305.44
610.707	285.44
610.916	311.44
611.124	311.44
611.332	311.44
611.54	314.44
611.748	323.44
611.955	321.44
612.163	319.44
612.371	299.44
612.579	306.44
612.787	307.44
612.995	315.44
613.203	301.44
613.411	289.44
613.618	309.44
613.826	307.44
614.034	305.44
614.242	313.44
614.449	314.44
614.657	316.44
614.865	297.44
615.072	310.44
615.28	307.44
615.488	308.44
615.695	306.44
615.903	311.44
616.111	317.44
616.318	315.44
616.526	316.44
616.733	309.44
616.941	313.44
617.148	317.44
617.356	308.44
617.563	316.44
617.771	318.44
617.978	305.44
618.185	302.44
618.393	291.44
618.6	299.44
618.807	295.44
619.015	311.44
619.222	293.44
619.429	295.44
619.637	312.44
619.844	299.44
620.051	305.44
620.258	301.44
620.466	284.44
620.673	283.44
620.88	289.44
621.087	292.44
621.294	296.44
621.501	289.44
621.708	279.44
621.915	279.44
622.122	278.44
622.329	281.44
622.536	289.44
622.743	275.44
622.95	309.44
623.157	283.44
623.364	291.44
623.571	268.44
623.778	286.44
623.985	285.44
624.192	276.44
624.399	281.44
624.606	290.44
624.812	279.44
625.019	250.44
625.226	284.44
625.433	262.44
625.639	258.44
625.846	258.44
626.053	267.44
626.259	279.44
626.466	256.44
626.673	281.44
626.879	263.44
627.086	257.44
627.293	264.44
627.499	251.44
627.706	263.44
627.912	258.44
628.119	265.44
628.325	259.44
628.532	254.44
628.738	247.44
628.945	243.44
629.151	230.44
629.357	261.44
629.564	218.44
629.77	236.44
629.976	239.44
630.183	233.44
630.389	236.44
630.595	256.44
630.802	243.44
631.008	226.44
631.214	234.44
631.42	241.44
631.627	228.44
631.833	246.44
632.039	241.44
632.245	228.44
632.451	225.44
632.657	228.44
632.863	249.44
633.069	223.44
633.275	224.44
633.481	220.44
633.688	222.44
633.893	215.44
634.099	231.44
634.305	230.44
634.511	240.44
634.717	226.44
634.923	230.44
635.129	220.44
635.335	219.44
635.541	236.44
635.747	231.44
635.952	225.44
636.158	238.44
636.364	211.44
636.57	217.44
636.775	240.44
636.981	227.44
637.187	206.44
637.392	215.44
637.598	218.44
637.804	215.44
638.009	211.44
638.215	233.44
638.421	214.44
638.626	223.44
638.832	223.44
639.037	219.44
639.243	209.44
639.448	197.44
639.654	227.44
639.859	218.44
640.065	220.44
640.27	207.44
640.475	214.44
640.681	216.44
640.886	207.44
641.091	217.44
641.297	207.44
641.502	198.44
641.707	210.44
641.913	216.44
642.118	210.44
642.323	189.44
642.528	211.44
642.733	216.44
642.939	194.44
643.144	196.44
643.349	228.44
643.554	201.44
643.759	196.44
643.964	217.44
644.169	207.44
644.374	203.44
644.579	195.44
644.784	181.44
644.989	198.44
645.194	197.44
645.399	227.44
645.604	208.44
645.809	200.44
646.014	192.44
646.219	207.44
646.423	194.44
646.628	196.44
646.833	194.44
647.038	213.44
647.243	211.44
647.447	207.44
647.652	206.44
647.857	187.44
648.062	206.44
648.266	200.44
648.471	236.44
648.676	211.44
648.88	236.44
649.085	221.44
649.289	205.44
649.494	198.44
649.698	174.44
649.903	195.44
650.107	195.44
650.312	190.44
650.516	181.44
650.721	198.44
650.925	178.44
651.13	177.44
651.334	180.44
651.539	197.44
651.743	189.44
651.947	170.44
652.152	161.44
652.356	179.44
652.56	176.44
652.764	189.44
652.969	174.44
653.173	182.44
653.377	158.44
653.581	149.44
653.785	159.44
653.99	167.44
654.194	173.44
654.398	146.44
654.602	155.44
654.806	159.44
655.01	153.44
655.214	150.44
655.418	145.44
655.622	151.44
655.826	144.44
656.03	155.44
656.234	148.44
656.438	151.44
656.642	154.44
656.846	158.44
657.049	142.44
657.253	142.44
657.457	137.44
657.661	131.44
657.865	138.44
658.068	134.44
658.272	117.44
658.476	119.44
658.68	105.44
658.883	94.44
659.087	108.44
659.291	126.44
659.494	109.44
659.698	111.44
659.901	103.44
660.105	107.44
660.309	117.44
660.512	91.44
660.716	101.44
660.919	99.44
661.123	111.44
661.326	100.44
661.53	92.44
661.733	84.44
661.936	85.44
662.14	90.44
662.343	90.44
662.546	81.44
662.75	91.44
662.953	84.44
663.156	79.44
663.36	91.44
663.563	78.44
663.766	84.44
663.969	85.44
664.173	88.44
664.376	76.44
664.579	88.44
664.782	99.44
664.985	83.44
665.188	82.44
665.391	83.44
665.594	92.44
665.797	78.44
666	80.44
666.203	89.44
666.406	95.44
666.609	84.44
666.812	81.44
667.015	78.44
667.218	71.44
667.421	85.44
667.624	91.44
667.827	89.44
668.03	69.44
668.232	76.44
668.435	85.44
668.638	83.44
668.841	89.44
669.043	86.44
669.246	73.44
669.449	86.44
669.651	79.44
669.854	80.44
670.057	98.44
670.259	87.44
670.462	79.44
670.665	78.44
670.867	77.44
671.07	79.44
671.272	74.44
671.475	98.44
671.677	73.44
671.88	85.44
672.082	92.44
672.284	85.44
672.487	95.44
672.689	80.44
672.892	89.44
