Data from NiCl2@0.0625M.TitratingCurve.Agarose3%dH2O.NegLispCup.LampEnergy10.LIBS07252019_HRD10591_18-34-02-576.txt Node
Date: Thu Jul 25 18:34:02 EDT 2019
User: cochatt
Spectrometer: HR+D1059
Trigger mode: 1
Integration Time (sec): 1.000000E-1
Scans to average: 1
Electric dark correction enabled: true
Nonlinearity correction enabled: false
Boxcar width: 0
XAxis mode: Wavelengths
Number of Pixels in Spectrum: 2048
>>>>>Begin Spectral Data<<<<<
223.165	-13.5
223.4	-13.5
223.635	-13.5
223.869	-7.5
224.104	-31.5
224.338	-20.5
224.573	-0.5
224.808	-1.5
225.042	-2.5
225.277	-4.5
225.511	-1.5
225.746	9.5
225.98	7.5
226.215	-0.5
226.449	12.5
226.683	7.5
226.918	17.5
227.152	29.5
227.387	22.5
227.621	50.5
227.856	37.5
228.09	37.5
228.324	33.5
228.559	50.5
228.793	64.5
229.027	144.5
229.262	150.5
229.496	158.5
229.73	165.5
229.964	167.5
230.199	156.5
230.433	183.5
230.667	176.5
230.901	192.5
231.136	162.5
231.37	194.5
231.604	191.5
231.838	205.5
232.072	184.5
232.306	187.5
232.541	191.5
232.775	209.5
233.009	215.5
233.243	216.5
233.477	203.5
233.711	198.5
233.945	205.5
234.179	212.5
234.413	209.5
234.647	209.5
234.881	207.5
235.115	211.5
235.349	217.5
235.583	216.5
235.817	214.5
236.051	231.5
236.285	220.5
236.519	220.5
236.753	218.5
236.987	237.5
237.221	221.5
237.455	233.5
237.689	223.5
237.922	246.5
238.156	238.5
238.39	249.5
238.624	246.5
238.858	243.5
239.091	260.5
239.325	264.5
239.559	270.5
239.793	278.5
240.027	256.5
240.26	254.5
240.494	280.5
240.728	300.5
240.961	294.5
241.195	273.5
241.429	285.5
241.662	291.5
241.896	279.5
242.13	297.5
242.363	307.5
242.597	308.5
242.83	308.5
243.064	304.5
243.298	314.5
243.531	312.5
243.765	313.5
243.998	332.5
244.232	324.5
244.465	331.5
244.699	317.5
244.932	339.5
245.166	343.5
245.399	356.5
245.633	345.5
245.866	360.5
246.099	335.5
246.333	353.5
246.566	340.5
246.8	368.5
247.033	335.5
247.266	354.5
247.5	363.5
247.733	362.5
247.966	398.5
248.2	376.5
248.433	364.5
248.666	396.5
248.899	392.5
249.133	379.5
249.366	396.5
249.599	397.5
249.832	384.5
250.066	394.5
250.299	394.5
250.532	399.5
250.765	398.5
250.998	393.5
251.231	407.5
251.465	423.5
251.698	424.5
251.931	422.5
252.164	403.5
252.397	452.5
252.63	437.5
252.863	428.5
253.096	433.5
253.329	451.5
253.562	433.5
253.795	429.5
254.028	457.5
254.261	446.5
254.494	454.5
254.727	454.5
254.96	435.5
255.193	461.5
255.426	480.5
255.659	460.5
255.892	459.5
256.124	482.5
256.357	485.5
256.59	483.5
256.823	482.5
257.056	474.5
257.289	513.5
257.521	481.5
257.754	507.5
257.987	496.5
258.22	505.5
258.452	489.5
258.685	500.5
258.918	484.5
259.151	513.5
259.383	489.5
259.616	521.5
259.849	520.5
260.081	522.5
260.314	545.5
260.547	536.5
260.779	544.5
261.012	533.5
261.244	527.5
261.477	549.5
261.71	535.5
261.942	525.5
262.175	541.5
262.407	574.5
262.64	542.5
262.872	529.5
263.105	551.5
263.337	563.5
263.57	591.5
263.802	567.5
264.035	585.5
264.267	569.5
264.499	584.5
264.732	573.5
264.964	563.5
265.197	585.5
265.429	592.5
265.661	572.5
265.894	608.5
266.126	607.5
266.358	592.5
266.591	584.5
266.823	611.5
267.055	608.5
267.287	611.5
267.52	598.5
267.752	600.5
267.984	603.5
268.216	600.5
268.448	632.5
268.681	629.5
268.913	628.5
269.145	619.5
269.377	627.5
269.609	640.5
269.841	623.5
270.073	641.5
270.306	651.5
270.538	652.5
270.77	617.5
271.002	662.5
271.234	653.5
271.466	639.5
271.698	665.5
271.93	684.5
272.162	667.5
272.394	652.5
272.626	668.5
272.858	661.5
273.09	711.5
273.322	678.5
273.553	698.5
273.785	728.5
274.017	687.5
274.249	707.5
274.481	687.5
274.713	710.5
274.945	707.5
275.176	689.5
275.408	713.5
275.64	705.5
275.872	718.5
276.104	716.5
276.335	723.5
276.567	738.5
276.799	708.5
277.031	729.5
277.262	717.5
277.494	725.5
277.726	717.5
277.957	723.5
278.189	747.5
278.421	750.5
278.652	752.5
278.884	741.5
279.115	777.5
279.347	777.5
279.579	769.5
279.81	755.5
280.042	736.5
280.273	772.5
280.505	829.5
280.736	793.5
280.968	778.5
281.199	795.5
281.431	792.5
281.662	791.5
281.894	791.5
282.125	816.5
282.356	800.5
282.588	807.5
282.819	810.5
283.051	800.5
283.282	797.5
283.513	840.5
283.745	845.5
283.976	827.5
284.207	812.5
284.439	840.5
284.67	825.5
284.901	846.5
285.132	856.5
285.364	836.5
285.595	835.5
285.826	826.5
286.057	829.5
286.288	848.5
286.52	869.5
286.751	840.5
286.982	868.5
287.213	890.5
287.444	879.5
287.675	887.5
287.906	876.5
288.138	878.5
288.369	875.5
288.6	888.5
288.831	900.5
289.062	894.5
289.293	871.5
289.524	902.5
289.755	901.5
289.986	904.5
290.217	901.5
290.448	904.5
290.679	897.5
290.91	913.5
291.141	900.5
291.371	886.5
291.602	894.5
291.833	915.5
292.064	927.5
292.295	888.5
292.526	901.5
292.757	909.5
292.987	911.5
293.218	883.5
293.449	914.5
293.68	891.5
293.91	897.5
294.141	921.5
294.372	922.5
294.603	941.5
294.833	915.5
295.064	911.5
295.295	940.5
295.525	923.5
295.756	917.5
295.987	940.5
296.217	929.5
296.448	950.5
296.679	931.5
296.909	929.5
297.14	959.5
297.37	944.5
297.601	957.5
297.831	971.5
298.062	982.5
298.292	970.5
298.523	985.5
298.753	997.5
298.984	1007.5
299.214	989.5
299.445	1008.5
299.675	971.5
299.905	987.5
300.136	955.5
300.366	968.5
300.597	1026.5
300.827	1007.5
301.057	1003.5
301.288	1031.5
301.518	1042.5
301.748	1037.5
301.979	1072.5
302.209	1055.5
302.439	1000.5
302.669	1035.5
302.9	1054.5
303.13	1022.5
303.36	1051.5
303.59	1029.5
303.82	1032.5
304.051	1064.5
304.281	1039.5
304.511	1023.5
304.741	1053.5
304.971	1070.5
305.201	1060.5
305.431	1043.5
305.661	1022.5
305.891	1064.5
306.121	999.5
306.352	1023.5
306.582	1055.5
306.812	1021.5
307.042	1036.5
307.272	1033.5
307.502	1025.5
307.731	1022.5
307.961	1026.5
308.191	992.5
308.421	1028.5
308.651	1025.5
308.881	1050.5
309.111	1031.5
309.341	997.5
309.571	1051.5
309.8	1041.5
310.03	1006.5
310.26	1049.5
310.49	1026.5
310.72	1038.5
310.949	1026.5
311.179	1035.5
311.409	1043.5
311.639	1058.5
311.868	1051.5
312.098	1082.5
312.328	1071.5
312.557	1098.5
312.787	1059.5
313.017	1099.5
313.246	1097.5
313.476	1097.5
313.706	1094.5
313.935	1088.5
314.165	1088.5
314.394	1099.5
314.624	1107.5
314.853	1096.5
315.083	1104.5
315.312	1108.5
315.542	1092.5
315.771	1096.5
316.001	1086.5
316.23	1106.5
316.46	1080.5
316.689	1095.5
316.919	1124.5
317.148	1099.5
317.377	1094.5
317.607	1088.5
317.836	1083.5
318.065	1068.5
318.295	1075.5
318.524	1111.5
318.753	1081.5
318.983	1089.5
319.212	1074.5
319.441	1084.5
319.67	1106.5
319.9	1133.5
320.129	1099.5
320.358	1108.5
320.587	1122.5
320.816	1081.5
321.046	1099.5
321.275	1124.5
321.504	1117.5
321.733	1107.5
321.962	1099.5
322.191	1127.5
322.42	1119.5
322.649	1105.5
322.878	1123.5
323.108	1095.5
323.337	1137.5
323.566	1110.5
323.795	1145.5
324.024	1126.5
324.253	1096.5
324.482	1107.5
324.71	1138.5
324.939	1138.5
325.168	1148.5
325.397	1167.5
325.626	1152.5
325.855	1188.5
326.084	1215.5
326.313	1213.5
326.542	1193.5
326.77	1190.5
326.999	1193.5
327.228	1176.5
327.457	1177.5
327.686	1186.5
327.914	1169.5
328.143	1207.5
328.372	1205.5
328.6	1207.5
328.829	1195.5
329.058	1208.5
329.287	1210.5
329.515	1204.5
329.744	1175.5
329.972	1216.5
330.201	1217.5
330.43	1249.5
330.658	1252.5
330.887	1219.5
331.115	1245.5
331.344	1281.5
331.572	1252.5
331.801	1304.5
332.03	1325.5
332.258	1314.5
332.486	1339.5
332.715	1372.5
332.943	1432.5
333.172	1491.5
333.4	1538.5
333.629	1558.5
333.857	1570.5
334.085	1547.5
334.314	1553.5
334.542	1497.5
334.771	1490.5
334.999	1508.5
335.227	1506.5
335.455	1481.5
335.684	1449.5
335.912	1494.5
336.14	1485.5
336.369	1495.5
336.597	1444.5
336.825	1453.5
337.053	1450.5
337.281	1413.5
337.51	1382.5
337.738	1387.5
337.966	1392.5
338.194	1339.5
338.422	1326.5
338.65	1297.5
338.878	1355.5
339.106	1339.5
339.334	1308.5
339.562	1301.5
339.79	1308.5
340.018	1303.5
340.246	1257.5
340.474	1244.5
340.702	1263.5
340.93	1278.5
341.158	1261.5
341.386	1243.5
341.614	1279.5
341.842	1263.5
342.07	1273.5
342.298	1256.5
342.526	1239.5
342.754	1249.5
342.981	1265.5
343.209	1296.5
343.437	1342.5
343.665	1396.5
343.893	1451.5
344.12	1502.5
344.348	1446.5
344.576	1413.5
344.804	1394.5
345.031	1299.5
345.259	1319.5
345.487	1277.5
345.714	1256.5
345.942	1254.5
346.17	1270.5
346.397	1253.5
346.625	1223.5
346.853	1201.5
347.08	1204.5
347.308	1199.5
347.535	1187.5
347.763	1221.5
347.99	1191.5
348.218	1199.5
348.445	1209.5
348.673	1188.5
348.9	1195.5
349.128	1201.5
349.355	1200.5
349.583	1207.5
349.81	1160.5
350.037	1182.5
350.265	1143.5
350.492	1137.5
350.72	1174.5
350.947	1175.5
351.174	1171.5
351.402	1163.5
351.629	1174.5
351.856	1171.5
352.083	1153.5
352.311	1154.5
352.538	1165.5
352.765	1181.5
352.992	1171.5
353.22	1175.5
353.447	1153.5
353.674	1151.5
353.901	1136.5
354.128	1173.5
354.355	1179.5
354.583	1151.5
354.81	1156.5
355.037	1165.5
355.264	1165.5
355.491	1160.5
355.718	1177.5
355.945	1147.5
356.172	1180.5
356.399	1150.5
356.626	1166.5
356.853	1185.5
357.08	1167.5
357.307	1164.5
357.534	1171.5
357.761	1168.5
357.988	1190.5
358.215	1159.5
358.441	1141.5
358.668	1145.5
358.895	1200.5
359.122	1151.5
359.349	1151.5
359.576	1156.5
359.802	1153.5
360.029	1153.5
360.256	1174.5
360.483	1167.5
360.709	1185.5
360.936	1191.5
361.163	1181.5
361.39	1160.5
361.616	1163.5
361.843	1157.5
362.07	1175.5
362.296	1168.5
362.523	1173.5
362.749	1155.5
362.976	1159.5
363.203	1154.5
363.429	1144.5
363.656	1174.5
363.882	1179.5
364.109	1177.5
364.335	1174.5
364.562	1158.5
364.788	1182.5
365.015	1180.5
365.241	1140.5
365.468	1157.5
365.694	1149.5
365.92	1155.5
366.147	1177.5
366.373	1200.5
366.599	1175.5
366.826	1171.5
367.052	1160.5
367.278	1151.5
367.505	1189.5
367.731	1168.5
367.957	1161.5
368.184	1187.5
368.41	1201.5
368.636	1211.5
368.862	1209.5
369.089	1202.5
369.315	1208.5
369.541	1184.5
369.767	1209.5
369.993	1210.5
370.219	1211.5
370.445	1237.5
370.672	1230.5
370.898	1207.5
371.124	1248.5
371.35	1263.5
371.576	1244.5
371.802	1256.5
372.028	1275.5
372.254	1243.5
372.48	1278.5
372.706	1306.5
372.932	1350.5
373.158	1303.5
373.384	1297.5
373.61	1270.5
373.835	1311.5
374.061	1282.5
374.287	1282.5
374.513	1283.5
374.739	1347.5
374.965	1354.5
375.191	1393.5
375.416	1413.5
375.642	1323.5
375.868	1336.5
376.094	1301.5
376.319	1304.5
376.545	1313.5
376.771	1290.5
376.997	1254.5
377.222	1285.5
377.448	1281.5
377.674	1269.5
377.899	1257.5
378.125	1226.5
378.35	1235.5
378.576	1274.5
378.802	1253.5
379.027	1251.5
379.253	1237.5
379.478	1230.5
379.704	1247.5
379.929	1243.5
380.155	1248.5
380.38	1265.5
380.606	1303.5
380.831	1254.5
381.057	1265.5
381.282	1258.5
381.507	1283.5
381.733	1287.5
381.958	1293.5
382.184	1283.5
382.409	1297.5
382.634	1341.5
382.86	1335.5
383.085	1359.5
383.31	1352.5
383.535	1342.5
383.761	1376.5
383.986	1401.5
384.211	1443.5
384.436	1435.5
384.662	1461.5
384.887	1472.5
385.112	1473.5
385.337	1520.5
385.562	1463.5
385.787	1491.5
386.013	1542.5
386.238	1545.5
386.463	1537.5
386.688	1512.5
386.913	1538.5
387.138	1479.5
387.363	1509.5
387.588	1485.5
387.813	1478.5
388.038	1508.5
388.263	1541.5
388.488	1513.5
388.713	1520.5
388.938	1463.5
389.163	1504.5
389.387	1505.5
389.612	1508.5
389.837	1516.5
390.062	1499.5
390.287	1501.5
390.512	1502.5
390.736	1502.5
390.961	1572.5
391.186	1573.5
391.411	1552.5
391.636	1557.5
391.86	1665.5
392.085	1680.5
392.31	1659.5
392.534	1629.5
392.759	1624.5
392.984	1609.5
393.208	1623.5
393.433	1652.5
393.658	1565.5
393.882	1590.5
394.107	1575.5
394.331	1609.5
394.556	1580.5
394.78	1599.5
395.005	1633.5
395.229	1648.5
395.454	1664.5
395.678	1699.5
395.903	1656.5
396.127	1653.5
396.352	1640.5
396.576	1627.5
396.801	1617.5
397.025	1676.5
397.249	1660.5
397.474	1687.5
397.698	1731.5
397.922	1733.5
398.147	1695.5
398.371	1745.5
398.595	1815.5
398.82	1862.5
399.044	1970.5
399.268	2185.5
399.492	2409.5
399.717	2655.5
399.941	2619.5
400.165	2423.5
400.389	2270.5
400.613	2106.5
400.837	2003.5
401.062	1928.5
401.286	1902.5
401.51	1875.5
401.734	1885.5
401.958	1873.5
402.182	1878.5
402.406	1921.5
402.63	1933.5
402.854	1984.5
403.078	1968.5
403.302	2012.5
403.526	2031.5
403.75	2017.5
403.974	2079.5
404.198	2076.5
404.422	2088.5
404.645	2055.5
404.869	2051.5
405.093	2071.5
405.317	2017.5
405.541	2043.5
405.765	2039.5
405.988	2013.5
406.212	2033.5
406.436	2034.5
406.66	2130.5
406.883	2136.5
407.107	2256.5
407.331	2290.5
407.555	2355.5
407.778	2347.5
408.002	2333.5
408.226	2310.5
408.449	2243.5
408.673	2202.5
408.896	2125.5
409.12	2127.5
409.344	2127.5
409.567	2126.5
409.791	2129.5
410.014	2107.5
410.238	2072.5
410.461	2051.5
410.685	2041.5
410.908	2007.5
411.132	2000.5
411.355	1976.5
411.578	1957.5
411.802	1963.5
412.025	1982.5
412.249	1977.5
412.472	1998.5
412.695	1936.5
412.919	1932.5
413.142	1890.5
413.365	1894.5
413.589	1919.5
413.812	1876.5
414.035	1877.5
414.258	1865.5
414.482	1888.5
414.705	1924.5
414.928	1882.5
415.151	1872.5
415.374	1865.5
415.597	1831.5
415.821	1828.5
416.044	1830.5
416.267	1774.5
416.49	1818.5
416.713	1834.5
416.936	1823.5
417.159	1795.5
417.382	1804.5
417.605	1785.5
417.828	1771.5
418.051	1835.5
418.274	1820.5
418.497	1802.5
418.72	1842.5
418.943	1845.5
419.166	1995.5
419.389	2077.5
419.611	2042.5
419.834	1933.5
420.057	1876.5
420.28	1835.5
420.503	1801.5
420.726	1779.5
420.948	1798.5
421.171	1839.5
421.394	1797.5
421.617	1826.5
421.839	1829.5
422.062	1825.5
422.285	1813.5
422.507	1867.5
422.73	1825.5
422.953	1812.5
423.175	1827.5
423.398	1883.5
423.621	1824.5
423.843	1830.5
424.066	1849.5
424.288	1879.5
424.511	1828.5
424.733	1831.5
424.956	1806.5
425.178	1802.5
425.401	1832.5
425.623	1815.5
425.846	1736.5
426.068	1737.5
426.291	1740.5
426.513	1727.5
426.735	1739.5
426.958	1715.5
427.18	1682.5
427.402	1681.5
427.625	1683.5
427.847	1658.5
428.069	1647.5
428.292	1665.5
428.514	1657.5
428.736	1669.5
428.958	1656.5
429.181	1608.5
429.403	1620.5
429.625	1644.5
429.847	1617.5
430.069	1623.5
430.292	1596.5
430.514	1562.5
430.736	1620.5
430.958	1648.5
431.18	1627.5
431.402	1640.5
431.624	1649.5
431.846	1655.5
432.068	1647.5
432.29	1654.5
432.512	1691.5
432.734	1655.5
432.956	1651.5
433.178	1657.5
433.4	1653.5
433.622	1692.5
433.844	1737.5
434.066	1705.5
434.287	1751.5
434.509	1790.5
434.731	1794.5
434.953	1832.5
435.175	1863.5
435.397	1812.5
435.618	1793.5
435.84	1723.5
436.062	1679.5
436.284	1678.5
436.505	1652.5
436.727	1653.5
436.949	1654.5
437.17	1672.5
437.392	1629.5
437.614	1623.5
437.835	1601.5
438.057	1583.5
438.278	1600.5
438.5	1549.5
438.721	1580.5
438.943	1565.5
439.165	1558.5
439.386	1600.5
439.608	1608.5
439.829	1607.5
440.05	1629.5
440.272	1633.5
440.493	1638.5
440.715	1656.5
440.936	1664.5
441.158	1685.5
441.379	1718.5
441.6	1797.5
441.822	1798.5
442.043	1776.5
442.264	1775.5
442.486	1743.5
442.707	1767.5
442.928	1765.5
443.149	1739.5
443.371	1715.5
443.592	1791.5
443.813	1796.5
444.034	1794.5
444.255	1866.5
444.476	1903.5
444.698	2000.5
444.919	2068.5
445.14	2094.5
445.361	1937.5
445.582	1865.5
445.803	1780.5
446.024	1728.5
446.245	1707.5
446.466	1676.5
446.687	1661.5
446.908	1613.5
447.129	1589.5
447.35	1517.5
447.571	1544.5
447.792	1497.5
448.013	1540.5
448.234	1513.5
448.455	1502.5
448.675	1460.5
448.896	1507.5
449.117	1469.5
449.338	1447.5
449.559	1455.5
449.779	1432.5
450	1456.5
450.221	1476.5
450.442	1455.5
450.662	1463.5
450.883	1486.5
451.104	1464.5
451.324	1488.5
451.545	1475.5
451.766	1477.5
451.986	1429.5
452.207	1467.5
452.428	1458.5
452.648	1486.5
452.869	1403.5
453.089	1439.5
453.31	1421.5
453.53	1384.5
453.751	1429.5
453.971	1399.5
454.192	1420.5
454.412	1389.5
454.633	1375.5
454.853	1376.5
455.073	1344.5
455.294	1400.5
455.514	1380.5
455.734	1357.5
455.955	1358.5
456.175	1358.5
456.395	1365.5
456.616	1358.5
456.836	1378.5
457.056	1411.5
457.276	1355.5
457.497	1401.5
457.717	1384.5
457.937	1418.5
458.157	1412.5
458.377	1445.5
458.598	1447.5
458.818	1502.5
459.038	1517.5
459.258	1570.5
459.478	1638.5
459.698	1658.5
459.918	1728.5
460.138	1749.5
460.358	1839.5
460.578	1816.5
460.798	1905.5
461.018	1912.5
461.238	1862.5
461.458	1854.5
461.678	1870.5
461.898	1899.5
462.118	1899.5
462.338	2010.5
462.558	2031.5
462.777	2070.5
462.997	2200.5
463.217	2355.5
463.437	2375.5
463.657	2172.5
463.876	2159.5
464.096	2190.5
464.316	2113.5
464.536	2137.5
464.755	2096.5
464.975	1978.5
465.195	1950.5
465.414	1831.5
465.634	1723.5
465.854	1679.5
466.073	1672.5
466.293	1627.5
466.512	1562.5
466.732	1535.5
466.951	1532.5
467.171	1543.5
467.391	1554.5
467.61	1563.5
467.829	1550.5
468.049	1501.5
468.268	1480.5
468.488	1499.5
468.707	1461.5
468.927	1499.5
469.146	1491.5
469.365	1495.5
469.585	1528.5
469.804	1548.5
470.023	1584.5
470.243	1608.5
470.462	1592.5
470.681	1553.5
470.901	1632.5
471.12	1580.5
471.339	1543.5
471.558	1519.5
471.777	1558.5
471.997	1520.5
472.216	1518.5
472.435	1487.5
472.654	1479.5
472.873	1468.5
473.092	1460.5
473.311	1459.5
473.53	1454.5
473.749	1503.5
473.968	1484.5
474.187	1448.5
474.406	1455.5
474.625	1468.5
474.844	1477.5
475.063	1494.5
475.282	1459.5
475.501	1484.5
475.72	1513.5
475.939	1512.5
476.158	1516.5
476.377	1571.5
476.596	1563.5
476.814	1553.5
477.033	1588.5
477.252	1621.5
477.471	1640.5
477.69	1661.5
477.908	1683.5
478.127	1765.5
478.346	1735.5
478.564	1759.5
478.783	1814.5
479.002	1799.5
479.22	1862.5
479.439	1864.5
479.658	1845.5
479.876	1839.5
480.095	1853.5
480.313	1926.5
480.532	1979.5
480.751	1950.5
480.969	1916.5
481.188	1859.5
481.406	1837.5
481.624	1812.5
481.843	1802.5
482.061	1746.5
482.28	1781.5
482.498	1812.5
482.717	1775.5
482.935	1774.5
483.153	1780.5
483.372	1789.5
483.59	1842.5
483.808	1835.5
484.027	1840.5
484.245	1903.5
484.463	1874.5
484.681	1859.5
484.9	1917.5
485.118	1940.5
485.336	1956.5
485.554	1970.5
485.772	1952.5
485.99	1976.5
486.209	1990.5
486.427	1978.5
486.645	1966.5
486.863	1960.5
487.081	1932.5
487.299	1963.5
487.517	1912.5
487.735	1933.5
487.953	1949.5
488.171	1905.5
488.389	1911.5
488.607	1916.5
488.825	1898.5
489.043	1876.5
489.261	1865.5
489.479	1875.5
489.696	1886.5
489.914	1880.5
490.132	1880.5
490.35	1858.5
490.568	1849.5
490.786	1851.5
491.003	1839.5
491.221	1863.5
491.439	1852.5
491.657	1841.5
491.874	1872.5
492.092	1863.5
492.31	1841.5
492.527	1832.5
492.745	1852.5
492.963	1836.5
493.18	1877.5
493.398	1908.5
493.615	1871.5
493.833	1880.5
494.05	1891.5
494.268	1862.5
494.485	1925.5
494.703	1897.5
494.92	1929.5
495.138	1901.5
495.355	1874.5
495.573	1881.5
495.79	1924.5
496.008	1948.5
496.225	1942.5
496.442	1953.5
496.66	1958.5
496.877	1991.5
497.094	2030.5
497.312	2038.5
497.529	2111.5
497.746	2160.5
497.963	2194.5
498.181	2245.5
498.398	2386.5
498.615	2539.5
498.832	2688.5
499.049	2850.5
499.267	3004.5
499.484	3256.5
499.701	3529.5
499.918	3824.5
500.135	4316.5
500.352	4670.5
500.569	4792.5
500.786	4789.5
501.003	4490.5
501.22	4200.5
501.437	3781.5
501.654	3457.5
501.871	3173.5
502.088	2908.5
502.305	2797.5
502.522	2695.5
502.739	2600.5
502.956	2444.5
503.172	2327.5
503.389	2272.5
503.606	2173.5
503.823	2123.5
504.04	2145.5
504.256	2116.5
504.473	2186.5
504.69	2167.5
504.907	2160.5
505.123	1989.5
505.34	1919.5
505.557	1866.5
505.773	1848.5
505.99	1743.5
506.207	1734.5
506.423	1717.5
506.64	1715.5
506.856	1728.5
507.073	1658.5
507.289	1650.5
507.506	1627.5
507.722	1609.5
507.939	1589.5
508.155	1577.5
508.372	1581.5
508.588	1607.5
508.805	1565.5
509.021	1533.5
509.238	1570.5
509.454	1506.5
509.67	1504.5
509.887	1506.5
510.103	1509.5
510.319	1493.5
510.536	1484.5
510.752	1485.5
510.968	1500.5
511.184	1467.5
511.401	1477.5
511.617	1423.5
511.833	1473.5
512.049	1445.5
512.265	1491.5
512.481	1440.5
512.698	1451.5
512.914	1440.5
513.13	1455.5
513.346	1476.5
513.562	1444.5
513.778	1472.5
513.994	1470.5
514.21	1470.5
514.426	1478.5
514.642	1478.5
514.858	1508.5
515.074	1511.5
515.29	1531.5
515.506	1539.5
515.721	1546.5
515.937	1557.5
516.153	1588.5
516.369	1681.5
516.585	1691.5
516.801	1729.5
517.016	1753.5
517.232	1834.5
517.448	1865.5
517.664	1932.5
517.879	1923.5
518.095	1931.5
518.311	1909.5
518.527	1854.5
518.742	1782.5
518.958	1713.5
519.173	1671.5
519.389	1624.5
519.605	1586.5
519.82	1557.5
520.036	1563.5
520.251	1510.5
520.467	1487.5
520.682	1482.5
520.898	1478.5
521.113	1444.5
521.329	1458.5
521.544	1429.5
521.76	1403.5
521.975	1406.5
522.19	1402.5
522.406	1396.5
522.621	1367.5
522.836	1343.5
523.052	1349.5
523.267	1369.5
523.482	1353.5
523.698	1390.5
523.913	1342.5
524.128	1354.5
524.343	1303.5
524.559	1339.5
524.774	1319.5
524.989	1323.5
525.204	1345.5
525.419	1320.5
525.634	1310.5
525.849	1307.5
526.064	1311.5
526.28	1311.5
526.495	1329.5
526.71	1316.5
526.925	1289.5
527.14	1294.5
527.355	1313.5
527.57	1292.5
527.785	1300.5
527.999	1292.5
528.214	1300.5
528.429	1301.5
528.644	1324.5
528.859	1336.5
529.074	1285.5
529.289	1297.5
529.503	1295.5
529.718	1300.5
529.933	1276.5
530.148	1261.5
530.363	1255.5
530.577	1299.5
530.792	1301.5
531.007	1278.5
531.221	1301.5
531.436	1310.5
531.651	1261.5
531.865	1274.5
532.08	1280.5
532.295	1298.5
532.509	1302.5
532.724	1253.5
532.938	1297.5
533.153	1287.5
533.367	1259.5
533.582	1271.5
533.796	1271.5
534.011	1269.5
534.225	1266.5
534.44	1265.5
534.654	1266.5
534.868	1246.5
535.083	1274.5
535.297	1217.5
535.511	1195.5
535.726	1195.5
535.94	1221.5
536.154	1211.5
536.369	1218.5
536.583	1189.5
536.797	1203.5
537.011	1186.5
537.225	1163.5
537.44	1178.5
537.654	1196.5
537.868	1172.5
538.082	1149.5
538.296	1140.5
538.51	1159.5
538.724	1172.5
538.938	1162.5
539.153	1183.5
539.367	1185.5
539.581	1155.5
539.795	1162.5
540.009	1136.5
540.222	1118.5
540.436	1145.5
540.65	1174.5
540.864	1151.5
541.078	1138.5
541.292	1116.5
541.506	1149.5
541.72	1136.5
541.934	1119.5
542.147	1165.5
542.361	1146.5
542.575	1141.5
542.789	1112.5
543.002	1111.5
543.216	1165.5
543.43	1118.5
543.644	1122.5
543.857	1107.5
544.071	1116.5
544.285	1121.5
544.498	1124.5
544.712	1129.5
544.925	1152.5
545.139	1124.5
545.352	1141.5
545.566	1160.5
545.779	1169.5
545.993	1144.5
546.206	1150.5
546.42	1140.5
546.633	1175.5
546.847	1158.5
547.06	1128.5
547.274	1116.5
547.487	1111.5
547.7	1150.5
547.914	1147.5
548.127	1165.5
548.34	1199.5
548.554	1151.5
548.767	1157.5
548.98	1143.5
549.193	1147.5
549.407	1162.5
549.62	1167.5
549.833	1170.5
550.046	1204.5
550.259	1133.5
550.473	1143.5
550.686	1141.5
550.899	1132.5
551.112	1135.5
551.325	1108.5
551.538	1128.5
551.751	1117.5
551.964	1129.5
552.177	1150.5
552.39	1157.5
552.603	1186.5
552.816	1201.5
553.029	1220.5
553.242	1212.5
553.455	1219.5
553.667	1207.5
553.88	1185.5
554.093	1207.5
554.306	1189.5
554.519	1135.5
554.732	1156.5
554.944	1143.5
555.157	1082.5
555.37	1077.5
555.583	1069.5
555.795	1047.5
556.008	1051.5
556.221	1029.5
556.433	999.5
556.646	1000.5
556.859	1019.5
557.071	1031.5
557.284	1012.5
557.496	967.5
557.709	956.5
557.921	979.5
558.134	953.5
558.346	1006.5
558.559	988.5
558.771	976.5
558.984	965.5
559.196	956.5
559.409	957.5
559.621	947.5
559.833	957.5
560.046	939.5
560.258	926.5
560.47	946.5
560.683	933.5
560.895	950.5
561.107	930.5
561.32	940.5
561.532	953.5
561.744	960.5
561.956	951.5
562.168	923.5
562.381	963.5
562.593	950.5
562.805	945.5
563.017	963.5
563.229	965.5
563.441	981.5
563.653	960.5
563.865	981.5
564.077	982.5
564.289	996.5
564.501	1009.5
564.713	1023.5
564.925	999.5
565.137	1045.5
565.349	1093.5
565.561	1087.5
565.773	1137.5
565.985	1205.5
566.197	1222.5
566.408	1293.5
566.62	1369.5
566.832	1455.5
567.044	1484.5
567.255	1478.5
567.467	1498.5
567.679	1621.5
567.891	1670.5
568.102	1695.5
568.314	1613.5
568.526	1471.5
568.737	1372.5
568.949	1265.5
569.161	1171.5
569.372	1096.5
569.584	1087.5
569.795	1050.5
570.007	1007.5
570.218	952.5
570.43	977.5
570.641	964.5
570.853	964.5
571.064	956.5
571.276	964.5
571.487	947.5
571.698	920.5
571.91	882.5
572.121	866.5
572.333	844.5
572.544	816.5
572.755	821.5
572.966	818.5
573.178	811.5
573.389	778.5
573.6	763.5
573.811	791.5
574.023	809.5
574.234	779.5
574.445	769.5
574.656	760.5
574.867	763.5
575.078	758.5
575.289	761.5
575.501	726.5
575.712	727.5
575.923	748.5
576.134	740.5
576.345	731.5
576.556	730.5
576.767	735.5
576.978	708.5
577.188	733.5
577.399	729.5
577.61	709.5
577.821	708.5
578.032	685.5
578.243	673.5
578.454	688.5
578.665	689.5
578.875	683.5
579.086	665.5
579.297	696.5
579.508	681.5
579.718	679.5
579.929	652.5
580.14	647.5
580.35	661.5
580.561	668.5
580.772	649.5
580.982	675.5
581.193	643.5
581.403	653.5
581.614	659.5
581.825	669.5
582.035	655.5
582.246	652.5
582.456	646.5
582.667	630.5
582.877	638.5
583.087	632.5
583.298	616.5
583.508	643.5
583.719	642.5
583.929	632.5
584.139	636.5
584.35	637.5
584.56	622.5
584.77	620.5
584.981	629.5
585.191	631.5
585.401	631.5
585.611	596.5
585.821	622.5
586.032	615.5
586.242	623.5
586.452	595.5
586.662	614.5
586.872	627.5
587.082	610.5
587.292	595.5
587.502	608.5
587.713	603.5
587.923	592.5
588.133	592.5
588.343	622.5
588.553	625.5
588.762	611.5
588.972	620.5
589.182	635.5
589.392	599.5
589.602	625.5
589.812	637.5
590.022	599.5
590.232	627.5
590.441	609.5
590.651	629.5
590.861	625.5
591.071	619.5
591.281	615.5
591.49	605.5
591.7	621.5
591.91	667.5
592.119	684.5
592.329	687.5
592.539	694.5
592.748	679.5
592.958	697.5
593.167	739.5
593.377	725.5
593.587	759.5
593.796	747.5
594.006	740.5
594.215	751.5
594.424	740.5
594.634	733.5
594.843	701.5
595.053	680.5
595.262	664.5
595.472	640.5
595.681	606.5
595.89	612.5
596.1	617.5
596.309	608.5
596.518	582.5
596.727	569.5
596.937	573.5
597.146	564.5
597.355	549.5
597.564	533.5
597.774	525.5
597.983	530.5
598.192	549.5
598.401	541.5
598.61	526.5
598.819	494.5
599.028	527.5
599.237	505.5
599.446	527.5
599.655	501.5
599.864	524.5
600.073	524.5
600.282	520.5
600.491	519.5
600.7	511.5
600.909	479.5
601.118	508.5
601.327	499.5
601.536	491.5
601.745	483.5
601.953	487.5
602.162	484.5
602.371	486.5
602.58	482.5
602.789	464.5
602.997	452.5
603.206	468.5
603.415	466.5
603.623	491.5
603.832	481.5
604.041	473.5
604.249	467.5
604.458	469.5
604.666	478.5
604.875	456.5
605.084	462.5
605.292	453.5
605.501	461.5
605.709	465.5
605.918	455.5
606.126	464.5
606.334	462.5
606.543	451.5
606.751	457.5
606.96	455.5
607.168	462.5
607.376	455.5
607.585	432.5
607.793	439.5
608.001	454.5
608.21	449.5
608.418	461.5
608.626	457.5
608.834	447.5
609.043	448.5
609.251	448.5
609.459	449.5
609.667	450.5
609.875	445.5
610.083	439.5
610.291	443.5
610.499	433.5
610.707	419.5
610.916	435.5
611.124	441.5
611.332	443.5
611.54	422.5
611.748	439.5
611.955	440.5
612.163	419.5
612.371	429.5
612.579	418.5
612.787	431.5
612.995	418.5
613.203	407.5
613.411	436.5
613.618	405.5
613.826	439.5
614.034	418.5
614.242	415.5
614.449	439.5
614.657	409.5
614.865	440.5
615.072	428.5
615.28	430.5
615.488	423.5
615.695	404.5
615.903	429.5
616.111	422.5
616.318	440.5
616.526	441.5
616.733	438.5
616.941	432.5
617.148	415.5
617.356	429.5
617.563	409.5
617.771	428.5
617.978	435.5
618.185	418.5
618.393	404.5
618.6	415.5
618.807	408.5
619.015	405.5
619.222	392.5
619.429	395.5
619.637	387.5
619.844	414.5
620.051	394.5
620.258	391.5
620.466	397.5
620.673	388.5
620.88	379.5
621.087	399.5
621.294	384.5
621.501	409.5
621.708	397.5
621.915	378.5
622.122	377.5
622.329	377.5
622.536	382.5
622.743	387.5
622.95	384.5
623.157	389.5
623.364	366.5
623.571	376.5
623.778	376.5
623.985	356.5
624.192	388.5
624.399	373.5
624.606	383.5
624.812	360.5
625.019	359.5
625.226	372.5
625.433	355.5
625.639	349.5
625.846	363.5
626.053	357.5
626.259	353.5
626.466	349.5
626.673	343.5
626.879	355.5
627.086	363.5
627.293	333.5
627.499	334.5
627.706	351.5
627.912	346.5
628.119	345.5
628.325	340.5
628.532	348.5
628.738	332.5
628.945	344.5
629.151	351.5
629.357	339.5
629.564	335.5
629.77	332.5
629.976	339.5
630.183	315.5
630.389	324.5
630.595	321.5
630.802	326.5
631.008	322.5
631.214	329.5
631.42	328.5
631.627	311.5
631.833	312.5
632.039	324.5
632.245	312.5
632.451	313.5
632.657	339.5
632.863	322.5
633.069	301.5
633.275	318.5
633.481	309.5
633.688	312.5
633.893	312.5
634.099	322.5
634.305	310.5
634.511	302.5
634.717	294.5
634.923	307.5
635.129	301.5
635.335	297.5
635.541	283.5
635.747	295.5
635.952	312.5
636.158	283.5
636.364	321.5
636.57	292.5
636.775	300.5
636.981	283.5
637.187	289.5
637.392	284.5
637.598	297.5
637.804	302.5
638.009	297.5
638.215	299.5
638.421	295.5
638.626	290.5
638.832	294.5
639.037	295.5
639.243	290.5
639.448	295.5
639.654	284.5
639.859	279.5
640.065	283.5
640.27	293.5
640.475	302.5
640.681	291.5
640.886	285.5
641.091	292.5
641.297	287.5
641.502	290.5
641.707	287.5
641.913	279.5
642.118	270.5
642.323	277.5
642.528	272.5
642.733	280.5
642.939	287.5
643.144	273.5
643.349	269.5
643.554	286.5
643.759	285.5
643.964	277.5
644.169	261.5
644.374	285.5
644.579	292.5
644.784	287.5
644.989	272.5
645.194	262.5
645.399	286.5
645.604	277.5
645.809	285.5
646.014	286.5
646.219	288.5
646.423	284.5
646.628	296.5
646.833	287.5
647.038	272.5
647.243	292.5
647.447	288.5
647.652	299.5
647.857	300.5
648.062	301.5
648.266	300.5
648.471	312.5
648.676	305.5
648.88	299.5
649.085	296.5
649.289	286.5
649.494	283.5
649.698	303.5
649.903	299.5
650.107	290.5
650.312	301.5
650.516	289.5
650.721	283.5
650.925	278.5
651.13	283.5
651.334	296.5
651.539	282.5
651.743	273.5
651.947	281.5
652.152	268.5
652.356	269.5
652.56	256.5
652.764	265.5
652.969	258.5
653.173	265.5
653.377	265.5
653.581	263.5
653.785	261.5
653.99	264.5
654.194	264.5
654.398	261.5
654.602	275.5
654.806	301.5
655.01	277.5
655.214	306.5
655.418	313.5
655.622	303.5
655.826	324.5
656.03	350.5
656.234	373.5
656.438	399.5
656.642	417.5
656.846	374.5
657.049	336.5
657.253	302.5
657.457	262.5
657.661	236.5
657.865	205.5
658.068	214.5
658.272	192.5
658.476	173.5
658.68	159.5
658.883	164.5
659.087	154.5
659.291	132.5
659.494	140.5
659.698	135.5
659.901	118.5
660.105	122.5
660.309	119.5
660.512	107.5
660.716	110.5
660.919	120.5
661.123	113.5
661.326	98.5
661.53	107.5
661.733	90.5
661.936	101.5
662.14	95.5
662.343	96.5
662.546	91.5
662.75	92.5
662.953	96.5
663.156	86.5
663.36	84.5
663.563	89.5
663.766	86.5
663.969	78.5
664.173	89.5
664.376	78.5
664.579	89.5
664.782	99.5
664.985	79.5
665.188	72.5
665.391	73.5
665.594	70.5
665.797	80.5
666	78.5
666.203	73.5
666.406	73.5
666.609	68.5
666.812	80.5
667.015	65.5
667.218	78.5
667.421	63.5
667.624	69.5
667.827	70.5
668.03	70.5
668.232	83.5
668.435	91.5
668.638	67.5
668.841	84.5
669.043	81.5
669.246	71.5
669.449	77.5
669.651	71.5
669.854	65.5
670.057	77.5
670.259	71.5
670.462	66.5
670.665	75.5
670.867	72.5
671.07	66.5
671.272	86.5
671.475	78.5
671.677	77.5
671.88	69.5
672.082	81.5
672.284	74.5
672.487	80.5
672.689	68.5
672.892	76.5
