Data from NiCl2@0.0625M.TitratingCurve.Agarose3%dH2O.NegLispCup.LampEnergy10.LIBS07252019_HRD10591_18-34-25-576.txt Node
Date: Thu Jul 25 18:34:25 EDT 2019
User: cochatt
Spectrometer: HR+D1059
Trigger mode: 1
Integration Time (sec): 1.000000E-1
Scans to average: 1
Electric dark correction enabled: true
Nonlinearity correction enabled: false
Boxcar width: 0
XAxis mode: Wavelengths
Number of Pixels in Spectrum: 2048
>>>>>Begin Spectral Data<<<<<
223.165	-15.62
223.4	-15.62
223.635	-15.62
223.869	-20.62
224.104	-13.62
224.338	-16.62
224.573	-16.62
224.808	-6.62
225.042	-0.62
225.277	-10.62
225.511	-2.62
225.746	14.38
225.98	9.38
226.215	5.38
226.449	10.38
226.683	18.38
226.918	18.38
227.152	27.38
227.387	37.38
227.621	39.38
227.856	45.38
228.09	47.38
228.324	41.38
228.559	41.38
228.793	87.38
229.027	136.38
229.262	145.38
229.496	147.38
229.73	153.38
229.964	189.38
230.199	187.38
230.433	176.38
230.667	172.38
230.901	190.38
231.136	183.38
231.37	185.38
231.604	186.38
231.838	191.38
232.072	195.38
232.306	218.38
232.541	215.38
232.775	210.38
233.009	213.38
233.243	205.38
233.477	207.38
233.711	224.38
233.945	224.38
234.179	203.38
234.413	237.38
234.647	198.38
234.881	211.38
235.115	211.38
235.349	220.38
235.583	229.38
235.817	220.38
236.051	218.38
236.285	222.38
236.519	216.38
236.753	218.38
236.987	229.38
237.221	239.38
237.455	250.38
237.689	245.38
237.922	225.38
238.156	248.38
238.39	254.38
238.624	245.38
238.858	245.38
239.091	259.38
239.325	269.38
239.559	263.38
239.793	269.38
240.027	272.38
240.26	275.38
240.494	289.38
240.728	294.38
240.961	281.38
241.195	289.38
241.429	285.38
241.662	287.38
241.896	293.38
242.13	311.38
242.363	312.38
242.597	309.38
242.83	291.38
243.064	321.38
243.298	296.38
243.531	323.38
243.765	311.38
243.998	341.38
244.232	314.38
244.465	326.38
244.699	329.38
244.932	344.38
245.166	351.38
245.399	338.38
245.633	344.38
245.866	359.38
246.099	347.38
246.333	365.38
246.566	357.38
246.8	366.38
247.033	346.38
247.266	360.38
247.5	360.38
247.733	352.38
247.966	374.38
248.2	389.38
248.433	377.38
248.666	397.38
248.899	369.38
249.133	381.38
249.366	394.38
249.599	379.38
249.832	403.38
250.066	414.38
250.299	391.38
250.532	405.38
250.765	415.38
250.998	420.38
251.231	417.38
251.465	442.38
251.698	405.38
251.931	426.38
252.164	431.38
252.397	419.38
252.63	444.38
252.863	445.38
253.096	448.38
253.329	447.38
253.562	444.38
253.795	458.38
254.028	447.38
254.261	469.38
254.494	444.38
254.727	455.38
254.96	453.38
255.193	458.38
255.426	460.38
255.659	459.38
255.892	475.38
256.124	469.38
256.357	491.38
256.59	476.38
256.823	476.38
257.056	497.38
257.289	477.38
257.521	508.38
257.754	493.38
257.987	497.38
258.22	488.38
258.452	511.38
258.685	498.38
258.918	526.38
259.151	526.38
259.383	505.38
259.616	513.38
259.849	531.38
260.081	516.38
260.314	534.38
260.547	533.38
260.779	549.38
261.012	543.38
261.244	529.38
261.477	535.38
261.71	529.38
261.942	540.38
262.175	546.38
262.407	568.38
262.64	555.38
262.872	558.38
263.105	565.38
263.337	532.38
263.57	573.38
263.802	551.38
264.035	584.38
264.267	583.38
264.499	580.38
264.732	575.38
264.964	591.38
265.197	601.38
265.429	618.38
265.661	592.38
265.894	605.38
266.126	611.38
266.358	591.38
266.591	584.38
266.823	590.38
267.055	596.38
267.287	607.38
267.52	618.38
267.752	597.38
267.984	616.38
268.216	618.38
268.448	609.38
268.681	651.38
268.913	641.38
269.145	627.38
269.377	615.38
269.609	625.38
269.841	639.38
270.073	631.38
270.306	634.38
270.538	641.38
270.77	627.38
271.002	650.38
271.234	641.38
271.466	657.38
271.698	651.38
271.93	647.38
272.162	669.38
272.394	653.38
272.626	673.38
272.858	660.38
273.09	685.38
273.322	693.38
273.553	671.38
273.785	670.38
274.017	685.38
274.249	680.38
274.481	668.38
274.713	691.38
274.945	691.38
275.176	720.38
275.408	727.38
275.64	726.38
275.872	723.38
276.104	719.38
276.335	717.38
276.567	724.38
276.799	751.38
277.031	755.38
277.262	717.38
277.494	742.38
277.726	743.38
277.957	727.38
278.189	765.38
278.421	744.38
278.652	753.38
278.884	787.38
279.115	759.38
279.347	772.38
279.579	770.38
279.81	792.38
280.042	795.38
280.273	794.38
280.505	799.38
280.736	804.38
280.968	823.38
281.199	795.38
281.431	780.38
281.662	783.38
281.894	792.38
282.125	795.38
282.356	820.38
282.588	832.38
282.819	782.38
283.051	822.38
283.282	821.38
283.513	835.38
283.745	829.38
283.976	815.38
284.207	831.38
284.439	823.38
284.67	838.38
284.901	842.38
285.132	856.38
285.364	872.38
285.595	844.38
285.826	865.38
286.057	852.38
286.288	871.38
286.52	850.38
286.751	874.38
286.982	879.38
287.213	861.38
287.444	855.38
287.675	874.38
287.906	876.38
288.138	872.38
288.369	865.38
288.6	885.38
288.831	929.38
289.062	901.38
289.293	867.38
289.524	887.38
289.755	881.38
289.986	892.38
290.217	916.38
290.448	913.38
290.679	920.38
290.91	885.38
291.141	899.38
291.371	927.38
291.602	891.38
291.833	899.38
292.064	910.38
292.295	923.38
292.526	925.38
292.757	901.38
292.987	923.38
293.218	890.38
293.449	905.38
293.68	903.38
293.91	901.38
294.141	927.38
294.372	918.38
294.603	900.38
294.833	910.38
295.064	929.38
295.295	943.38
295.525	933.38
295.756	934.38
295.987	926.38
296.217	955.38
296.448	947.38
296.679	934.38
296.909	949.38
297.14	910.38
297.37	950.38
297.601	993.38
297.831	931.38
298.062	946.38
298.292	973.38
298.523	1004.38
298.753	1021.38
298.984	983.38
299.214	973.38
299.445	997.38
299.675	978.38
299.905	993.38
300.136	1012.38
300.366	994.38
300.597	970.38
300.827	1042.38
301.057	1016.38
301.288	1030.38
301.518	1060.38
301.748	1050.38
301.979	1050.38
302.209	1041.38
302.439	1032.38
302.669	1042.38
302.9	1035.38
303.13	1025.38
303.36	1021.38
303.59	1047.38
303.82	1053.38
304.051	1023.38
304.281	1043.38
304.511	1023.38
304.741	1060.38
304.971	1034.38
305.201	1060.38
305.431	1000.38
305.661	1042.38
305.891	1027.38
306.121	1036.38
306.352	1017.38
306.582	1020.38
306.812	1011.38
307.042	1049.38
307.272	1036.38
307.502	1034.38
307.731	1035.38
307.961	1026.38
308.191	1044.38
308.421	1003.38
308.651	1045.38
308.881	1025.38
309.111	1026.38
309.341	1031.38
309.571	1039.38
309.8	1037.38
310.03	1059.38
310.26	1040.38
310.49	1030.38
310.72	1023.38
310.949	1051.38
311.179	1051.38
311.409	1056.38
311.639	1079.38
311.868	1051.38
312.098	1068.38
312.328	1085.38
312.557	1080.38
312.787	1096.38
313.017	1081.38
313.246	1100.38
313.476	1090.38
313.706	1108.38
313.935	1098.38
314.165	1120.38
314.394	1089.38
314.624	1108.38
314.853	1087.38
315.083	1090.38
315.312	1115.38
315.542	1116.38
315.771	1099.38
316.001	1085.38
316.23	1098.38
316.46	1100.38
316.689	1100.38
316.919	1082.38
317.148	1111.38
317.377	1112.38
317.607	1092.38
317.836	1100.38
318.065	1089.38
318.295	1091.38
318.524	1096.38
318.753	1088.38
318.983	1075.38
319.212	1096.38
319.441	1100.38
319.67	1100.38
319.9	1101.38
320.129	1098.38
320.358	1097.38
320.587	1101.38
320.816	1098.38
321.046	1079.38
321.275	1113.38
321.504	1087.38
321.733	1110.38
321.962	1113.38
322.191	1118.38
322.42	1132.38
322.649	1106.38
322.878	1107.38
323.108	1091.38
323.337	1121.38
323.566	1125.38
323.795	1124.38
324.024	1154.38
324.253	1139.38
324.482	1146.38
324.71	1149.38
324.939	1139.38
325.168	1149.38
325.397	1139.38
325.626	1184.38
325.855	1174.38
326.084	1168.38
326.313	1192.38
326.542	1209.38
326.77	1209.38
326.999	1167.38
327.228	1166.38
327.457	1189.38
327.686	1179.38
327.914	1192.38
328.143	1219.38
328.372	1195.38
328.6	1194.38
328.829	1192.38
329.058	1178.38
329.287	1195.38
329.515	1211.38
329.744	1199.38
329.972	1214.38
330.201	1205.38
330.43	1222.38
330.658	1240.38
330.887	1256.38
331.115	1249.38
331.344	1272.38
331.572	1277.38
331.801	1287.38
332.03	1314.38
332.258	1324.38
332.486	1362.38
332.715	1400.38
332.943	1411.38
333.172	1445.38
333.4	1496.38
333.629	1557.38
333.857	1556.38
334.085	1539.38
334.314	1521.38
334.542	1521.38
334.771	1521.38
334.999	1505.38
335.227	1510.38
335.455	1488.38
335.684	1446.38
335.912	1470.38
336.14	1438.38
336.369	1482.38
336.597	1444.38
336.825	1429.38
337.053	1434.38
337.281	1421.38
337.51	1371.38
337.738	1364.38
337.966	1368.38
338.194	1359.38
338.422	1322.38
338.65	1332.38
338.878	1325.38
339.106	1307.38
339.334	1331.38
339.562	1308.38
339.79	1249.38
340.018	1317.38
340.246	1272.38
340.474	1264.38
340.702	1263.38
340.93	1259.38
341.158	1259.38
341.386	1270.38
341.614	1283.38
341.842	1245.38
342.07	1266.38
342.298	1255.38
342.526	1245.38
342.754	1244.38
342.981	1279.38
343.209	1271.38
343.437	1349.38
343.665	1391.38
343.893	1447.38
344.12	1522.38
344.348	1485.38
344.576	1383.38
344.804	1363.38
345.031	1308.38
345.259	1280.38
345.487	1284.38
345.714	1250.38
345.942	1244.38
346.17	1245.38
346.397	1248.38
346.625	1248.38
346.853	1225.38
347.08	1222.38
347.308	1201.38
347.535	1238.38
347.763	1231.38
347.99	1228.38
348.218	1205.38
348.445	1188.38
348.673	1201.38
348.9	1212.38
349.128	1189.38
349.355	1170.38
349.583	1172.38
349.81	1184.38
350.037	1171.38
350.265	1180.38
350.492	1187.38
350.72	1184.38
350.947	1124.38
351.174	1171.38
351.402	1199.38
351.629	1163.38
351.856	1153.38
352.083	1149.38
352.311	1191.38
352.538	1148.38
352.765	1139.38
352.992	1120.38
353.22	1146.38
353.447	1154.38
353.674	1154.38
353.901	1166.38
354.128	1176.38
354.355	1138.38
354.583	1136.38
354.81	1155.38
355.037	1175.38
355.264	1170.38
355.491	1161.38
355.718	1158.38
355.945	1156.38
356.172	1175.38
356.399	1166.38
356.626	1166.38
356.853	1186.38
357.08	1183.38
357.307	1181.38
357.534	1171.38
357.761	1176.38
357.988	1152.38
358.215	1184.38
358.441	1136.38
358.668	1168.38
358.895	1152.38
359.122	1141.38
359.349	1176.38
359.576	1186.38
359.802	1176.38
360.029	1171.38
360.256	1168.38
360.483	1171.38
360.709	1185.38
360.936	1149.38
361.163	1152.38
361.39	1171.38
361.616	1164.38
361.843	1159.38
362.07	1163.38
362.296	1170.38
362.523	1162.38
362.749	1190.38
362.976	1170.38
363.203	1132.38
363.429	1124.38
363.656	1160.38
363.882	1179.38
364.109	1165.38
364.335	1161.38
364.562	1158.38
364.788	1171.38
365.015	1161.38
365.241	1151.38
365.468	1178.38
365.694	1155.38
365.92	1133.38
366.147	1166.38
366.373	1176.38
366.599	1190.38
366.826	1164.38
367.052	1162.38
367.278	1173.38
367.505	1170.38
367.731	1176.38
367.957	1162.38
368.184	1185.38
368.41	1217.38
368.636	1159.38
368.862	1201.38
369.089	1216.38
369.315	1191.38
369.541	1199.38
369.767	1227.38
369.993	1202.38
370.219	1233.38
370.445	1231.38
370.672	1251.38
370.898	1223.38
371.124	1254.38
371.35	1259.38
371.576	1280.38
371.802	1277.38
372.028	1254.38
372.254	1259.38
372.48	1301.38
372.706	1296.38
372.932	1323.38
373.158	1319.38
373.384	1315.38
373.61	1282.38
373.835	1287.38
374.061	1267.38
374.287	1272.38
374.513	1311.38
374.739	1347.38
374.965	1393.38
375.191	1396.38
375.416	1382.38
375.642	1364.38
375.868	1343.38
376.094	1351.38
376.319	1327.38
376.545	1296.38
376.771	1285.38
376.997	1261.38
377.222	1289.38
377.448	1267.38
377.674	1284.38
377.899	1264.38
378.125	1252.38
378.35	1266.38
378.576	1251.38
378.802	1256.38
379.027	1241.38
379.253	1280.38
379.478	1276.38
379.704	1234.38
379.929	1248.38
380.155	1251.38
380.38	1246.38
380.606	1249.38
380.831	1255.38
381.057	1219.38
381.282	1266.38
381.507	1217.38
381.733	1294.38
381.958	1284.38
382.184	1316.38
382.409	1280.38
382.634	1314.38
382.86	1317.38
383.085	1337.38
383.31	1340.38
383.535	1375.38
383.761	1382.38
383.986	1435.38
384.211	1444.38
384.436	1433.38
384.662	1459.38
384.887	1468.38
385.112	1489.38
385.337	1548.38
385.562	1497.38
385.787	1495.38
386.013	1535.38
386.238	1501.38
386.463	1538.38
386.688	1548.38
386.913	1522.38
387.138	1474.38
387.363	1530.38
387.588	1511.38
387.813	1527.38
388.038	1486.38
388.263	1482.38
388.488	1523.38
388.713	1530.38
388.938	1513.38
389.163	1492.38
389.387	1493.38
389.612	1496.38
389.837	1486.38
390.062	1507.38
390.287	1540.38
390.512	1479.38
390.736	1503.38
390.961	1512.38
391.186	1515.38
391.411	1608.38
391.636	1646.38
391.86	1639.38
392.085	1667.38
392.31	1701.38
392.534	1655.38
392.759	1627.38
392.984	1588.38
393.208	1585.38
393.433	1594.38
393.658	1616.38
393.882	1572.38
394.107	1576.38
394.331	1602.38
394.556	1618.38
394.78	1601.38
395.005	1619.38
395.229	1647.38
395.454	1647.38
395.678	1684.38
395.903	1693.38
396.127	1677.38
396.352	1638.38
396.576	1616.38
396.801	1603.38
397.025	1626.38
397.249	1661.38
397.474	1691.38
397.698	1689.38
397.922	1751.38
398.147	1756.38
398.371	1781.38
398.595	1784.38
398.82	1843.38
399.044	1979.38
399.268	2120.38
399.492	2358.38
399.717	2597.38
399.941	2630.38
400.165	2439.38
400.389	2260.38
400.613	2103.38
400.837	2015.38
401.062	2005.38
401.286	1900.38
401.51	1948.38
401.734	1876.38
401.958	1920.38
402.182	1913.38
402.406	1903.38
402.63	1950.38
402.854	1971.38
403.078	1951.38
403.302	2030.38
403.526	1992.38
403.75	2054.38
403.974	2070.38
404.198	2048.38
404.422	2074.38
404.645	2028.38
404.869	2051.38
405.093	2076.38
405.317	2032.38
405.541	2024.38
405.765	2012.38
405.988	2041.38
406.212	2061.38
406.436	2011.38
406.66	2085.38
406.883	2129.38
407.107	2186.38
407.331	2351.38
407.555	2351.38
407.778	2376.38
408.002	2308.38
408.226	2272.38
408.449	2220.38
408.673	2209.38
408.896	2187.38
409.12	2082.38
409.344	2152.38
409.567	2100.38
409.791	2111.38
410.014	2074.38
410.238	2053.38
410.461	2074.38
410.685	2056.38
410.908	2005.38
411.132	1974.38
411.355	1950.38
411.578	1972.38
411.802	1976.38
412.025	1987.38
412.249	1964.38
412.472	2018.38
412.695	1951.38
412.919	1878.38
413.142	1910.38
413.365	1850.38
413.589	1937.38
413.812	1903.38
414.035	1886.38
414.258	1896.38
414.482	1868.38
414.705	1888.38
414.928	1923.38
415.151	1881.38
415.374	1904.38
415.597	1865.38
415.821	1839.38
416.044	1834.38
416.267	1814.38
416.49	1799.38
416.713	1852.38
416.936	1810.38
417.159	1761.38
417.382	1792.38
417.605	1799.38
417.828	1791.38
418.051	1843.38
418.274	1791.38
418.497	1811.38
418.72	1843.38
418.943	1818.38
419.166	1957.38
419.389	2115.38
419.611	2059.38
419.834	1965.38
420.057	1895.38
420.28	1859.38
420.503	1814.38
420.726	1805.38
420.948	1762.38
421.171	1806.38
421.394	1774.38
421.617	1763.38
421.839	1791.38
422.062	1809.38
422.285	1811.38
422.507	1857.38
422.73	1843.38
422.953	1862.38
423.175	1861.38
423.398	1852.38
423.621	1836.38
423.843	1882.38
424.066	1891.38
424.288	1868.38
424.511	1843.38
424.733	1852.38
424.956	1790.38
425.178	1829.38
425.401	1804.38
425.623	1814.38
425.846	1778.38
426.068	1783.38
426.291	1769.38
426.513	1706.38
426.735	1694.38
426.958	1702.38
427.18	1670.38
427.402	1683.38
427.625	1686.38
427.847	1666.38
428.069	1616.38
428.292	1665.38
428.514	1642.38
428.736	1651.38
428.958	1682.38
429.181	1643.38
429.403	1645.38
429.625	1609.38
429.847	1616.38
430.069	1559.38
430.292	1658.38
430.514	1623.38
430.736	1601.38
430.958	1640.38
431.18	1630.38
431.402	1644.38
431.624	1641.38
431.846	1670.38
432.068	1660.38
432.29	1699.38
432.512	1658.38
432.734	1671.38
432.956	1659.38
433.178	1671.38
433.4	1699.38
433.622	1695.38
433.844	1705.38
434.066	1735.38
434.287	1747.38
434.509	1746.38
434.731	1811.38
434.953	1831.38
435.175	1844.38
435.397	1812.38
435.618	1739.38
435.84	1746.38
436.062	1681.38
436.284	1694.38
436.505	1584.38
436.727	1635.38
436.949	1675.38
437.17	1667.38
437.392	1617.38
437.614	1607.38
437.835	1566.38
438.057	1572.38
438.278	1555.38
438.5	1553.38
438.721	1557.38
438.943	1606.38
439.165	1559.38
439.386	1589.38
439.608	1585.38
439.829	1641.38
440.05	1628.38
440.272	1648.38
440.493	1607.38
440.715	1671.38
440.936	1635.38
441.158	1677.38
441.379	1699.38
441.6	1792.38
441.822	1787.38
442.043	1783.38
442.264	1774.38
442.486	1747.38
442.707	1719.38
442.928	1701.38
443.149	1738.38
443.371	1755.38
443.592	1743.38
443.813	1772.38
444.034	1796.38
444.255	1846.38
444.476	1923.38
444.698	1970.38
444.919	2058.38
445.14	2140.38
445.361	1940.38
445.582	1886.38
445.803	1741.38
446.024	1715.38
446.245	1693.38
446.466	1679.38
446.687	1641.38
446.908	1635.38
447.129	1593.38
447.35	1608.38
447.571	1561.38
447.792	1531.38
448.013	1528.38
448.234	1504.38
448.455	1485.38
448.675	1511.38
448.896	1484.38
449.117	1456.38
449.338	1467.38
449.559	1455.38
449.779	1445.38
450	1450.38
450.221	1428.38
450.442	1452.38
450.662	1465.38
450.883	1463.38
451.104	1492.38
451.324	1466.38
451.545	1472.38
451.766	1467.38
451.986	1456.38
452.207	1465.38
452.428	1457.38
452.648	1471.38
452.869	1428.38
453.089	1407.38
453.31	1403.38
453.53	1429.38
453.751	1439.38
453.971	1377.38
454.192	1419.38
454.412	1387.38
454.633	1350.38
454.853	1392.38
455.073	1393.38
455.294	1382.38
455.514	1359.38
455.734	1372.38
455.955	1320.38
456.175	1369.38
456.395	1344.38
456.616	1385.38
456.836	1378.38
457.056	1375.38
457.276	1336.38
457.497	1409.38
457.717	1403.38
457.937	1348.38
458.157	1429.38
458.377	1451.38
458.598	1459.38
458.818	1493.38
459.038	1534.38
459.258	1583.38
459.478	1613.38
459.698	1627.38
459.918	1665.38
460.138	1717.38
460.358	1826.38
460.578	1833.38
460.798	1810.38
461.018	1854.38
461.238	1872.38
461.458	1876.38
461.678	1826.38
461.898	1899.38
462.118	1889.38
462.338	1959.38
462.558	2022.38
462.777	2113.38
462.997	2216.38
463.217	2309.38
463.437	2323.38
463.657	2195.38
463.876	2141.38
464.096	2196.38
464.316	2144.38
464.536	2147.38
464.755	2059.38
464.975	1985.38
465.195	1899.38
465.414	1830.38
465.634	1734.38
465.854	1705.38
466.073	1663.38
466.293	1637.38
466.512	1583.38
466.732	1568.38
466.951	1549.38
467.171	1556.38
467.391	1585.38
467.61	1538.38
467.829	1515.38
468.049	1554.38
468.268	1503.38
468.488	1458.38
468.707	1433.38
468.927	1494.38
469.146	1485.38
469.365	1477.38
469.585	1474.38
469.804	1548.38
470.023	1547.38
470.243	1573.38
470.462	1562.38
470.681	1596.38
470.901	1598.38
471.12	1555.38
471.339	1535.38
471.558	1573.38
471.777	1516.38
471.997	1493.38
472.216	1508.38
472.435	1487.38
472.654	1461.38
472.873	1457.38
473.092	1478.38
473.311	1472.38
473.53	1461.38
473.749	1449.38
473.968	1497.38
474.187	1461.38
474.406	1462.38
474.625	1466.38
474.844	1466.38
475.063	1523.38
475.282	1481.38
475.501	1501.38
475.72	1459.38
475.939	1491.38
476.158	1533.38
476.377	1532.38
476.596	1571.38
476.814	1556.38
477.033	1551.38
477.252	1583.38
477.471	1643.38
477.69	1660.38
477.908	1678.38
478.127	1738.38
478.346	1727.38
478.564	1771.38
478.783	1776.38
479.002	1832.38
479.22	1885.38
479.439	1830.38
479.658	1831.38
479.876	1865.38
480.095	1875.38
480.313	1912.38
480.532	1955.38
480.751	1948.38
480.969	1901.38
481.188	1884.38
481.406	1841.38
481.624	1814.38
481.843	1804.38
482.061	1796.38
482.28	1768.38
482.498	1797.38
482.717	1743.38
482.935	1793.38
483.153	1785.38
483.372	1833.38
483.59	1825.38
483.808	1840.38
484.027	1831.38
484.245	1919.38
484.463	1919.38
484.681	1924.38
484.9	1930.38
485.118	1952.38
485.336	1941.38
485.554	1956.38
485.772	1951.38
485.99	1977.38
486.209	2010.38
486.427	2019.38
486.645	1983.38
486.863	1982.38
487.081	1992.38
487.299	1969.38
487.517	1932.38
487.735	1922.38
487.953	1950.38
488.171	1965.38
488.389	1908.38
488.607	1921.38
488.825	1883.38
489.043	1881.38
489.261	1848.38
489.479	1868.38
489.696	1841.38
489.914	1872.38
490.132	1837.38
490.35	1887.38
490.568	1817.38
490.786	1794.38
491.003	1870.38
491.221	1854.38
491.439	1837.38
491.657	1824.38
491.874	1818.38
492.092	1870.38
492.31	1869.38
492.527	1853.38
492.745	1846.38
492.963	1848.38
493.18	1842.38
493.398	1875.38
493.615	1892.38
493.833	1869.38
494.05	1872.38
494.268	1873.38
494.485	1904.38
494.703	1880.38
494.92	1886.38
495.138	1891.38
495.355	1913.38
495.573	1879.38
495.79	1916.38
496.008	1921.38
496.225	1932.38
496.442	1954.38
496.66	1943.38
496.877	2047.38
497.094	2056.38
497.312	2038.38
497.529	2076.38
497.746	2145.38
497.963	2217.38
498.181	2282.38
498.398	2371.38
498.615	2476.38
498.832	2643.38
499.049	2820.38
499.267	3031.38
499.484	3251.38
499.701	3557.38
499.918	3842.38
500.135	4240.38
500.352	4648.38
500.569	4856.38
500.786	4825.38
501.003	4577.38
501.22	4177.38
501.437	3803.38
501.654	3410.38
501.871	3168.38
502.088	2980.38
502.305	2742.38
502.522	2675.38
502.739	2527.38
502.956	2417.38
503.172	2303.38
503.389	2247.38
503.606	2130.38
503.823	2167.38
504.04	2129.38
504.256	2122.38
504.473	2140.38
504.69	2131.38
504.907	2147.38
505.123	2003.38
505.34	1883.38
505.557	1844.38
505.773	1812.38
505.99	1769.38
506.207	1724.38
506.423	1740.38
506.64	1709.38
506.856	1645.38
507.073	1665.38
507.289	1669.38
507.506	1615.38
507.722	1631.38
507.939	1588.38
508.155	1588.38
508.372	1581.38
508.588	1561.38
508.805	1523.38
509.021	1520.38
509.238	1537.38
509.454	1528.38
509.67	1488.38
509.887	1520.38
510.103	1460.38
510.319	1460.38
510.536	1464.38
510.752	1464.38
510.968	1480.38
511.184	1435.38
511.401	1479.38
511.617	1463.38
511.833	1491.38
512.049	1497.38
512.265	1459.38
512.481	1499.38
512.698	1451.38
512.914	1439.38
513.13	1442.38
513.346	1462.38
513.562	1461.38
513.778	1487.38
513.994	1450.38
514.21	1460.38
514.426	1517.38
514.642	1491.38
514.858	1511.38
515.074	1508.38
515.29	1526.38
515.506	1565.38
515.721	1569.38
515.937	1594.38
516.153	1609.38
516.369	1636.38
516.585	1656.38
516.801	1700.38
517.016	1750.38
517.232	1861.38
517.448	1858.38
517.664	1953.38
517.879	1924.38
518.095	1989.38
518.311	1875.38
518.527	1799.38
518.742	1786.38
518.958	1739.38
519.173	1704.38
519.389	1639.38
519.605	1581.38
519.82	1585.38
520.036	1543.38
520.251	1520.38
520.467	1525.38
520.682	1472.38
520.898	1471.38
521.113	1456.38
521.329	1449.38
521.544	1423.38
521.76	1430.38
521.975	1416.38
522.19	1433.38
522.406	1389.38
522.621	1399.38
522.836	1341.38
523.052	1350.38
523.267	1370.38
523.482	1378.38
523.698	1325.38
523.913	1350.38
524.128	1369.38
524.343	1330.38
524.559	1321.38
524.774	1323.38
524.989	1301.38
525.204	1313.38
525.419	1292.38
525.634	1327.38
525.849	1327.38
526.064	1306.38
526.28	1296.38
526.495	1298.38
526.71	1317.38
526.925	1314.38
527.14	1310.38
527.355	1321.38
527.57	1284.38
527.785	1305.38
527.999	1278.38
528.214	1289.38
528.429	1317.38
528.644	1279.38
528.859	1298.38
529.074	1292.38
529.289	1271.38
529.503	1335.38
529.718	1288.38
529.933	1281.38
530.148	1267.38
530.363	1308.38
530.577	1272.38
530.792	1272.38
531.007	1278.38
531.221	1282.38
531.436	1283.38
531.651	1309.38
531.865	1281.38
532.08	1265.38
532.295	1278.38
532.509	1288.38
532.724	1275.38
532.938	1279.38
533.153	1303.38
533.367	1308.38
533.582	1264.38
533.796	1287.38
534.011	1286.38
534.225	1269.38
534.44	1255.38
534.654	1241.38
534.868	1253.38
535.083	1238.38
535.297	1240.38
535.511	1263.38
535.726	1199.38
535.94	1220.38
536.154	1216.38
536.369	1222.38
536.583	1207.38
536.797	1211.38
537.011	1204.38
537.225	1183.38
537.44	1170.38
537.654	1177.38
537.868	1176.38
538.082	1178.38
538.296	1136.38
538.51	1191.38
538.724	1171.38
538.938	1148.38
539.153	1149.38
539.367	1165.38
539.581	1145.38
539.795	1132.38
540.009	1165.38
540.222	1181.38
540.436	1160.38
540.65	1104.38
540.864	1135.38
541.078	1136.38
541.292	1122.38
541.506	1122.38
541.72	1129.38
541.934	1158.38
542.147	1145.38
542.361	1147.38
542.575	1107.38
542.789	1124.38
543.002	1132.38
543.216	1115.38
543.43	1126.38
543.644	1120.38
543.857	1128.38
544.071	1122.38
544.285	1143.38
544.498	1153.38
544.712	1091.38
544.925	1151.38
545.139	1144.38
545.352	1145.38
545.566	1149.38
545.779	1139.38
545.993	1122.38
546.206	1164.38
546.42	1137.38
546.633	1161.38
546.847	1154.38
547.06	1115.38
547.274	1140.38
547.487	1138.38
547.7	1130.38
547.914	1159.38
548.127	1139.38
548.34	1166.38
548.554	1151.38
548.767	1140.38
548.98	1149.38
549.193	1169.38
549.407	1156.38
549.62	1179.38
549.833	1155.38
550.046	1171.38
550.259	1144.38
550.473	1115.38
550.686	1117.38
550.899	1134.38
551.112	1109.38
551.325	1138.38
551.538	1129.38
551.751	1119.38
551.964	1142.38
552.177	1147.38
552.39	1188.38
552.603	1188.38
552.816	1216.38
553.029	1199.38
553.242	1233.38
553.455	1223.38
553.667	1239.38
553.88	1209.38
554.093	1171.38
554.306	1145.38
554.519	1130.38
554.732	1121.38
554.944	1128.38
555.157	1100.38
555.37	1069.38
555.583	1073.38
555.795	1055.38
556.008	1011.38
556.221	1019.38
556.433	1024.38
556.646	1025.38
556.859	1007.38
557.071	973.38
557.284	979.38
557.496	981.38
557.709	990.38
557.921	977.38
558.134	938.38
558.346	971.38
558.559	977.38
558.771	997.38
558.984	948.38
559.196	946.38
559.409	938.38
559.621	951.38
559.833	954.38
560.046	961.38
560.258	933.38
560.47	965.38
560.683	937.38
560.895	943.38
561.107	955.38
561.32	936.38
561.532	963.38
561.744	945.38
561.956	916.38
562.168	974.38
562.381	953.38
562.593	951.38
562.805	932.38
563.017	963.38
563.229	981.38
563.441	971.38
563.653	968.38
563.865	960.38
564.077	961.38
564.289	984.38
564.501	1001.38
564.713	1009.38
564.925	1051.38
565.137	1064.38
565.349	1043.38
565.561	1075.38
565.773	1126.38
565.985	1161.38
566.197	1229.38
566.408	1320.38
566.62	1348.38
566.832	1448.38
567.044	1471.38
567.255	1501.38
567.467	1496.38
567.679	1573.38
567.891	1669.38
568.102	1656.38
568.314	1626.38
568.526	1471.38
568.737	1380.38
568.949	1294.38
569.161	1218.38
569.372	1145.38
569.584	1089.38
569.795	1019.38
570.007	993.38
570.218	981.38
570.43	970.38
570.641	957.38
570.853	987.38
571.064	974.38
571.276	1001.38
571.487	907.38
571.698	932.38
571.91	856.38
572.121	852.38
572.333	836.38
572.544	832.38
572.755	818.38
572.966	828.38
573.178	834.38
573.389	786.38
573.6	792.38
573.811	787.38
574.023	771.38
574.234	768.38
574.445	763.38
574.656	781.38
574.867	790.38
575.078	752.38
575.289	739.38
575.501	749.38
575.712	727.38
575.923	723.38
576.134	768.38
576.345	761.38
576.556	751.38
576.767	732.38
576.978	732.38
577.188	726.38
577.399	712.38
577.61	717.38
577.821	680.38
578.032	689.38
578.243	685.38
578.454	696.38
578.665	704.38
578.875	701.38
579.086	675.38
579.297	673.38
579.508	692.38
579.718	682.38
579.929	658.38
580.14	661.38
580.35	652.38
580.561	662.38
580.772	647.38
580.982	661.38
581.193	654.38
581.403	653.38
581.614	639.38
581.825	633.38
582.035	645.38
582.246	651.38
582.456	665.38
582.667	634.38
582.877	652.38
583.087	641.38
583.298	635.38
583.508	635.38
583.719	628.38
583.929	641.38
584.139	649.38
584.35	639.38
584.56	614.38
584.77	624.38
584.981	637.38
585.191	621.38
585.401	623.38
585.611	630.38
585.821	634.38
586.032	640.38
586.242	629.38
586.452	629.38
586.662	616.38
586.872	621.38
587.082	623.38
587.292	612.38
587.502	615.38
587.713	600.38
587.923	634.38
588.133	609.38
588.343	608.38
588.553	611.38
588.762	605.38
588.972	616.38
589.182	615.38
589.392	627.38
589.602	623.38
589.812	632.38
590.022	633.38
590.232	626.38
590.441	617.38
590.651	620.38
590.861	626.38
591.071	619.38
591.281	634.38
591.49	635.38
591.7	659.38
591.91	670.38
592.119	644.38
592.329	674.38
592.539	678.38
592.748	688.38
592.958	696.38
593.167	716.38
593.377	769.38
593.587	744.38
593.796	749.38
594.006	749.38
594.215	726.38
594.424	738.38
594.634	717.38
594.843	693.38
595.053	672.38
595.262	664.38
595.472	645.38
595.681	657.38
595.89	612.38
596.1	601.38
596.309	600.38
596.518	580.38
596.727	583.38
596.937	550.38
597.146	567.38
597.355	558.38
597.564	545.38
597.774	567.38
597.983	536.38
598.192	559.38
598.401	535.38
598.61	553.38
598.819	530.38
599.028	516.38
599.237	517.38
599.446	499.38
599.655	532.38
599.864	511.38
600.073	527.38
600.282	509.38
600.491	502.38
600.7	513.38
600.909	510.38
601.118	492.38
601.327	524.38
601.536	497.38
601.745	506.38
601.953	496.38
602.162	525.38
602.371	492.38
602.58	489.38
602.789	496.38
602.997	500.38
603.206	514.38
603.415	501.38
603.623	480.38
603.832	462.38
604.041	484.38
604.249	455.38
604.458	453.38
604.666	459.38
604.875	473.38
605.084	465.38
605.292	461.38
605.501	471.38
605.709	458.38
605.918	471.38
606.126	475.38
606.334	460.38
606.543	467.38
606.751	459.38
606.96	452.38
607.168	465.38
607.376	454.38
607.585	473.38
607.793	464.38
608.001	452.38
608.21	450.38
608.418	455.38
608.626	453.38
608.834	466.38
609.043	439.38
609.251	447.38
609.459	414.38
609.667	419.38
609.875	425.38
610.083	427.38
610.291	458.38
610.499	449.38
610.707	434.38
610.916	435.38
611.124	447.38
611.332	444.38
611.54	448.38
611.748	422.38
611.955	435.38
612.163	446.38
612.371	405.38
612.579	447.38
612.787	440.38
612.995	421.38
613.203	427.38
613.411	430.38
613.618	418.38
613.826	424.38
614.034	418.38
614.242	419.38
614.449	428.38
614.657	426.38
614.865	415.38
615.072	420.38
615.28	427.38
615.488	440.38
615.695	415.38
615.903	440.38
616.111	417.38
616.318	422.38
616.526	443.38
616.733	404.38
616.941	446.38
617.148	439.38
617.356	426.38
617.563	412.38
617.771	416.38
617.978	425.38
618.185	432.38
618.393	447.38
618.6	429.38
618.807	426.38
619.015	409.38
619.222	403.38
619.429	417.38
619.637	419.38
619.844	407.38
620.051	398.38
620.258	406.38
620.466	379.38
620.673	394.38
620.88	400.38
621.087	381.38
621.294	389.38
621.501	380.38
621.708	388.38
621.915	385.38
622.122	391.38
622.329	376.38
622.536	392.38
622.743	383.38
622.95	370.38
623.157	385.38
623.364	374.38
623.571	381.38
623.778	372.38
623.985	373.38
624.192	364.38
624.399	379.38
624.606	372.38
624.812	355.38
625.019	377.38
625.226	362.38
625.433	367.38
625.639	354.38
625.846	353.38
626.053	356.38
626.259	362.38
626.466	377.38
626.673	326.38
626.879	374.38
627.086	364.38
627.293	345.38
627.499	376.38
627.706	345.38
627.912	340.38
628.119	369.38
628.325	339.38
628.532	334.38
628.738	341.38
628.945	336.38
629.151	340.38
629.357	336.38
629.564	360.38
629.77	322.38
629.976	326.38
630.183	327.38
630.389	322.38
630.595	315.38
630.802	328.38
631.008	334.38
631.214	344.38
631.42	329.38
631.627	340.38
631.833	336.38
632.039	323.38
632.245	321.38
632.451	311.38
632.657	324.38
632.863	314.38
633.069	299.38
633.275	337.38
633.481	317.38
633.688	313.38
633.893	313.38
634.099	314.38
634.305	317.38
634.511	320.38
634.717	312.38
634.923	312.38
635.129	319.38
635.335	304.38
635.541	293.38
635.747	319.38
635.952	293.38
636.158	295.38
636.364	293.38
636.57	299.38
636.775	315.38
636.981	306.38
637.187	316.38
637.392	312.38
637.598	296.38
637.804	292.38
638.009	297.38
638.215	307.38
638.421	294.38
638.626	271.38
638.832	274.38
639.037	287.38
639.243	305.38
639.448	292.38
639.654	317.38
639.859	283.38
640.065	289.38
640.27	292.38
640.475	293.38
640.681	287.38
640.886	292.38
641.091	289.38
641.297	277.38
641.502	265.38
641.707	289.38
641.913	291.38
642.118	283.38
642.323	292.38
642.528	269.38
642.733	278.38
642.939	297.38
643.144	286.38
643.349	281.38
643.554	274.38
643.759	289.38
643.964	269.38
644.169	303.38
644.374	287.38
644.579	294.38
644.784	273.38
644.989	273.38
645.194	280.38
645.399	275.38
645.604	287.38
645.809	277.38
646.014	270.38
646.219	296.38
646.423	281.38
646.628	276.38
646.833	281.38
647.038	298.38
647.243	297.38
647.447	295.38
647.652	320.38
647.857	291.38
648.062	296.38
648.266	294.38
648.471	304.38
648.676	308.38
648.88	317.38
649.085	305.38
649.289	284.38
649.494	303.38
649.698	290.38
649.903	288.38
650.107	290.38
650.312	299.38
650.516	290.38
650.721	290.38
650.925	281.38
651.13	264.38
651.334	265.38
651.539	276.38
651.743	287.38
651.947	275.38
652.152	280.38
652.356	263.38
652.56	257.38
652.764	273.38
652.969	270.38
653.173	269.38
653.377	279.38
653.581	269.38
653.785	266.38
653.99	265.38
654.194	289.38
654.398	261.38
654.602	284.38
654.806	293.38
655.01	278.38
655.214	314.38
655.418	309.38
655.622	320.38
655.826	325.38
656.03	329.38
656.234	379.38
656.438	408.38
656.642	417.38
656.846	379.38
657.049	342.38
657.253	295.38
657.457	284.38
657.661	250.38
657.865	224.38
658.068	206.38
658.272	206.38
658.476	192.38
658.68	171.38
658.883	177.38
659.087	149.38
659.291	149.38
659.494	137.38
659.698	129.38
659.901	127.38
660.105	125.38
660.309	127.38
660.512	112.38
660.716	123.38
660.919	121.38
661.123	108.38
661.326	104.38
661.53	96.38
661.733	105.38
661.936	89.38
662.14	113.38
662.343	89.38
662.546	83.38
662.75	93.38
662.953	82.38
663.156	97.38
663.36	108.38
663.563	87.38
663.766	81.38
663.969	81.38
664.173	99.38
664.376	81.38
664.579	98.38
664.782	85.38
664.985	86.38
665.188	87.38
665.391	93.38
665.594	84.38
665.797	97.38
666	69.38
666.203	81.38
666.406	85.38
666.609	71.38
666.812	87.38
667.015	87.38
667.218	84.38
667.421	74.38
667.624	73.38
667.827	74.38
668.03	88.38
668.232	93.38
668.435	76.38
668.638	75.38
668.841	77.38
669.043	73.38
669.246	95.38
669.449	89.38
669.651	79.38
669.854	82.38
670.057	99.38
670.259	80.38
670.462	77.38
670.665	67.38
670.867	78.38
671.07	60.38
671.272	81.38
671.475	87.38
671.677	74.38
671.88	104.38
672.082	81.38
672.284	82.38
672.487	78.38
672.689	88.38
672.892	76.38
