Data from NiCl2@0.125M.TitratingCurve.Agarose3%dH2O.NegLispCup.LampEnergy10.LIBS07252019_HRD10591_18-30-23-575.txt Node
Date: Thu Jul 25 18:30:23 EDT 2019
User: cochatt
Spectrometer: HR+D1059
Trigger mode: 1
Integration Time (sec): 1.000000E-1
Scans to average: 1
Electric dark correction enabled: true
Nonlinearity correction enabled: false
Boxcar width: 0
XAxis mode: Wavelengths
Number of Pixels in Spectrum: 2048
>>>>>Begin Spectral Data<<<<<
223.165	-6.38
223.4	-6.38
223.635	-6.38
223.869	-12.38
224.104	-15.38
224.338	-3.38
224.573	-18.38
224.808	-5.38
225.042	-8.38
225.277	-19.38
225.511	-6.38
225.746	-7.38
225.98	5.62
226.215	15.62
226.449	28.62
226.683	6.62
226.918	20.62
227.152	25.62
227.387	42.62
227.621	27.62
227.856	43.62
228.09	45.62
228.324	46.62
228.559	53.62
228.793	74.62
229.027	96.62
229.262	115.62
229.496	115.62
229.73	112.62
229.964	138.62
230.199	125.62
230.433	121.62
230.667	128.62
230.901	141.62
231.136	141.62
231.37	130.62
231.604	130.62
231.838	147.62
232.072	134.62
232.306	132.62
232.541	138.62
232.775	147.62
233.009	147.62
233.243	141.62
233.477	135.62
233.711	130.62
233.945	139.62
234.179	156.62
234.413	148.62
234.647	152.62
234.881	137.62
235.115	126.62
235.349	144.62
235.583	138.62
235.817	146.62
236.051	149.62
236.285	149.62
236.519	147.62
236.753	148.62
236.987	136.62
237.221	144.62
237.455	153.62
237.689	156.62
237.922	150.62
238.156	159.62
238.39	148.62
238.624	149.62
238.858	147.62
239.091	153.62
239.325	160.62
239.559	156.62
239.793	180.62
240.027	176.62
240.26	178.62
240.494	179.62
240.728	178.62
240.961	174.62
241.195	173.62
241.429	162.62
241.662	172.62
241.896	172.62
242.13	198.62
242.363	206.62
242.597	180.62
242.83	192.62
243.064	181.62
243.298	194.62
243.531	195.62
243.765	197.62
243.998	184.62
244.232	190.62
244.465	180.62
244.699	202.62
244.932	200.62
245.166	190.62
245.399	197.62
245.633	202.62
245.866	201.62
246.099	207.62
246.333	199.62
246.566	212.62
246.8	210.62
247.033	214.62
247.266	192.62
247.5	209.62
247.733	214.62
247.966	233.62
248.2	205.62
248.433	226.62
248.666	227.62
248.899	225.62
249.133	210.62
249.366	238.62
249.599	224.62
249.832	228.62
250.066	221.62
250.299	228.62
250.532	226.62
250.765	216.62
250.998	231.62
251.231	237.62
251.465	237.62
251.698	244.62
251.931	274.62
252.164	249.62
252.397	248.62
252.63	251.62
252.863	244.62
253.096	229.62
253.329	240.62
253.562	242.62
253.795	237.62
254.028	238.62
254.261	221.62
254.494	251.62
254.727	258.62
254.96	260.62
255.193	273.62
255.426	258.62
255.659	240.62
255.892	259.62
256.124	262.62
256.357	245.62
256.59	272.62
256.823	268.62
257.056	268.62
257.289	284.62
257.521	294.62
257.754	284.62
257.987	260.62
258.22	291.62
258.452	256.62
258.685	270.62
258.918	260.62
259.151	288.62
259.383	301.62
259.616	276.62
259.849	281.62
260.081	302.62
260.314	292.62
260.547	303.62
260.779	296.62
261.012	304.62
261.244	292.62
261.477	310.62
261.71	302.62
261.942	298.62
262.175	281.62
262.407	299.62
262.64	301.62
262.872	293.62
263.105	310.62
263.337	328.62
263.57	321.62
263.802	284.62
264.035	317.62
264.267	308.62
264.499	307.62
264.732	299.62
264.964	308.62
265.197	304.62
265.429	323.62
265.661	323.62
265.894	345.62
266.126	335.62
266.358	309.62
266.591	328.62
266.823	342.62
267.055	321.62
267.287	357.62
267.52	316.62
267.752	316.62
267.984	338.62
268.216	312.62
268.448	331.62
268.681	329.62
268.913	309.62
269.145	335.62
269.377	332.62
269.609	335.62
269.841	334.62
270.073	318.62
270.306	342.62
270.538	339.62
270.77	346.62
271.002	355.62
271.234	336.62
271.466	344.62
271.698	330.62
271.93	337.62
272.162	347.62
272.394	354.62
272.626	347.62
272.858	341.62
273.09	348.62
273.322	364.62
273.553	354.62
273.785	357.62
274.017	351.62
274.249	347.62
274.481	360.62
274.713	352.62
274.945	382.62
275.176	373.62
275.408	399.62
275.64	369.62
275.872	381.62
276.104	388.62
276.335	379.62
276.567	358.62
276.799	347.62
277.031	378.62
277.262	373.62
277.494	389.62
277.726	381.62
277.957	380.62
278.189	378.62
278.421	384.62
278.652	386.62
278.884	372.62
279.115	374.62
279.347	399.62
279.579	385.62
279.81	390.62
280.042	404.62
280.273	400.62
280.505	392.62
280.736	413.62
280.968	406.62
281.199	399.62
281.431	424.62
281.662	395.62
281.894	404.62
282.125	413.62
282.356	427.62
282.588	427.62
282.819	407.62
283.051	405.62
283.282	427.62
283.513	434.62
283.745	422.62
283.976	444.62
284.207	445.62
284.439	432.62
284.67	436.62
284.901	436.62
285.132	424.62
285.364	436.62
285.595	412.62
285.826	442.62
286.057	434.62
286.288	453.62
286.52	456.62
286.751	450.62
286.982	440.62
287.213	452.62
287.444	428.62
287.675	447.62
287.906	460.62
288.138	464.62
288.369	458.62
288.6	459.62
288.831	440.62
289.062	466.62
289.293	467.62
289.524	446.62
289.755	452.62
289.986	475.62
290.217	449.62
290.448	482.62
290.679	481.62
290.91	477.62
291.141	472.62
291.371	452.62
291.602	470.62
291.833	484.62
292.064	467.62
292.295	453.62
292.526	469.62
292.757	480.62
292.987	470.62
293.218	466.62
293.449	462.62
293.68	467.62
293.91	468.62
294.141	474.62
294.372	467.62
294.603	480.62
294.833	467.62
295.064	481.62
295.295	482.62
295.525	480.62
295.756	483.62
295.987	472.62
296.217	473.62
296.448	508.62
296.679	497.62
296.909	493.62
297.14	507.62
297.37	491.62
297.601	516.62
297.831	514.62
298.062	521.62
298.292	509.62
298.523	531.62
298.753	553.62
298.984	499.62
299.214	503.62
299.445	492.62
299.675	512.62
299.905	508.62
300.136	520.62
300.366	520.62
300.597	527.62
300.827	536.62
301.057	553.62
301.288	550.62
301.518	547.62
301.748	523.62
301.979	535.62
302.209	553.62
302.439	538.62
302.669	526.62
302.9	538.62
303.13	530.62
303.36	538.62
303.59	522.62
303.82	525.62
304.051	520.62
304.281	545.62
304.511	495.62
304.741	532.62
304.971	532.62
305.201	529.62
305.431	510.62
305.661	532.62
305.891	496.62
306.121	518.62
306.352	523.62
306.582	512.62
306.812	516.62
307.042	525.62
307.272	512.62
307.502	522.62
307.731	512.62
307.961	535.62
308.191	514.62
308.421	531.62
308.651	505.62
308.881	498.62
309.111	504.62
309.341	523.62
309.571	536.62
309.8	522.62
310.03	518.62
310.26	523.62
310.49	521.62
310.72	521.62
310.949	518.62
311.179	541.62
311.409	522.62
311.639	523.62
311.868	540.62
312.098	548.62
312.328	561.62
312.557	546.62
312.787	564.62
313.017	518.62
313.246	549.62
313.476	537.62
313.706	535.62
313.935	562.62
314.165	540.62
314.394	550.62
314.624	521.62
314.853	540.62
315.083	543.62
315.312	532.62
315.542	545.62
315.771	538.62
316.001	535.62
316.23	534.62
316.46	539.62
316.689	548.62
316.919	537.62
317.148	552.62
317.377	553.62
317.607	523.62
317.836	536.62
318.065	531.62
318.295	539.62
318.524	548.62
318.753	551.62
318.983	524.62
319.212	519.62
319.441	530.62
319.67	534.62
319.9	553.62
320.129	543.62
320.358	544.62
320.587	531.62
320.816	517.62
321.046	530.62
321.275	534.62
321.504	525.62
321.733	526.62
321.962	560.62
322.191	556.62
322.42	538.62
322.649	539.62
322.878	539.62
323.108	547.62
323.337	558.62
323.566	558.62
323.795	560.62
324.024	545.62
324.253	535.62
324.482	563.62
324.71	549.62
324.939	562.62
325.168	567.62
325.397	562.62
325.626	568.62
325.855	580.62
326.084	588.62
326.313	601.62
326.542	615.62
326.77	626.62
326.999	592.62
327.228	609.62
327.457	581.62
327.686	581.62
327.914	584.62
328.143	592.62
328.372	620.62
328.6	592.62
328.829	586.62
329.058	593.62
329.287	589.62
329.515	591.62
329.744	598.62
329.972	603.62
330.201	596.62
330.43	621.62
330.658	613.62
330.887	607.62
331.115	611.62
331.344	614.62
331.572	619.62
331.801	637.62
332.03	653.62
332.258	649.62
332.486	673.62
332.715	683.62
332.943	728.62
333.172	786.62
333.4	780.62
333.629	810.62
333.857	830.62
334.085	792.62
334.314	783.62
334.542	764.62
334.771	766.62
334.999	742.62
335.227	717.62
335.455	731.62
335.684	715.62
335.912	736.62
336.14	716.62
336.369	685.62
336.597	710.62
336.825	711.62
337.053	714.62
337.281	688.62
337.51	670.62
337.738	699.62
337.966	669.62
338.194	650.62
338.422	648.62
338.65	631.62
338.878	641.62
339.106	625.62
339.334	634.62
339.562	641.62
339.79	612.62
340.018	615.62
340.246	612.62
340.474	622.62
340.702	622.62
340.93	622.62
341.158	624.62
341.386	638.62
341.614	631.62
341.842	635.62
342.07	597.62
342.298	600.62
342.526	586.62
342.754	618.62
342.981	611.62
343.209	598.62
343.437	637.62
343.665	701.62
343.893	746.62
344.12	808.62
344.348	736.62
344.576	689.62
344.804	666.62
345.031	649.62
345.259	666.62
345.487	636.62
345.714	621.62
345.942	619.62
346.17	604.62
346.397	612.62
346.625	611.62
346.853	592.62
347.08	599.62
347.308	608.62
347.535	616.62
347.763	633.62
347.99	610.62
348.218	624.62
348.445	609.62
348.673	595.62
348.9	588.62
349.128	565.62
349.355	577.62
349.583	585.62
349.81	597.62
350.037	571.62
350.265	571.62
350.492	588.62
350.72	568.62
350.947	596.62
351.174	582.62
351.402	598.62
351.629	585.62
351.856	582.62
352.083	563.62
352.311	580.62
352.538	557.62
352.765	582.62
352.992	567.62
353.22	594.62
353.447	569.62
353.674	569.62
353.901	577.62
354.128	570.62
354.355	560.62
354.583	548.62
354.81	584.62
355.037	587.62
355.264	578.62
355.491	560.62
355.718	569.62
355.945	581.62
356.172	585.62
356.399	579.62
356.626	577.62
356.853	580.62
357.08	534.62
357.307	558.62
357.534	590.62
357.761	571.62
357.988	587.62
358.215	584.62
358.441	551.62
358.668	572.62
358.895	550.62
359.122	569.62
359.349	609.62
359.576	580.62
359.802	596.62
360.029	583.62
360.256	577.62
360.483	573.62
360.709	590.62
360.936	571.62
361.163	604.62
361.39	586.62
361.616	585.62
361.843	606.62
362.07	582.62
362.296	599.62
362.523	573.62
362.749	568.62
362.976	576.62
363.203	580.62
363.429	574.62
363.656	582.62
363.882	570.62
364.109	568.62
364.335	566.62
364.562	572.62
364.788	568.62
365.015	561.62
365.241	577.62
365.468	578.62
365.694	595.62
365.92	552.62
366.147	554.62
366.373	584.62
366.599	552.62
366.826	578.62
367.052	599.62
367.278	572.62
367.505	587.62
367.731	591.62
367.957	564.62
368.184	572.62
368.41	584.62
368.636	602.62
368.862	596.62
369.089	575.62
369.315	584.62
369.541	598.62
369.767	604.62
369.993	595.62
370.219	596.62
370.445	603.62
370.672	626.62
370.898	602.62
371.124	616.62
371.35	621.62
371.576	627.62
371.802	618.62
372.028	621.62
372.254	629.62
372.48	620.62
372.706	648.62
372.932	640.62
373.158	642.62
373.384	640.62
373.61	631.62
373.835	636.62
374.061	616.62
374.287	648.62
374.513	631.62
374.739	657.62
374.965	689.62
375.191	706.62
375.416	696.62
375.642	677.62
375.868	686.62
376.094	664.62
376.319	632.62
376.545	653.62
376.771	678.62
376.997	637.62
377.222	640.62
377.448	621.62
377.674	652.62
377.899	618.62
378.125	632.62
378.35	596.62
378.576	646.62
378.802	630.62
379.027	620.62
379.253	623.62
379.478	616.62
379.704	607.62
379.929	633.62
380.155	608.62
380.38	617.62
380.606	635.62
380.831	644.62
381.057	627.62
381.282	633.62
381.507	647.62
381.733	657.62
381.958	643.62
382.184	632.62
382.409	638.62
382.634	672.62
382.86	681.62
383.085	672.62
383.31	664.62
383.535	704.62
383.761	707.62
383.986	721.62
384.211	737.62
384.436	730.62
384.662	741.62
384.887	761.62
385.112	771.62
385.337	780.62
385.562	781.62
385.787	782.62
386.013	762.62
386.238	778.62
386.463	746.62
386.688	781.62
386.913	760.62
387.138	740.62
387.363	749.62
387.588	732.62
387.813	758.62
388.038	743.62
388.263	754.62
388.488	745.62
388.713	770.62
388.938	745.62
389.163	726.62
389.387	727.62
389.612	733.62
389.837	741.62
390.062	731.62
390.287	722.62
390.512	729.62
390.736	713.62
390.961	759.62
391.186	741.62
391.411	793.62
391.636	802.62
391.86	853.62
392.085	884.62
392.31	855.62
392.534	857.62
392.759	824.62
392.984	802.62
393.208	795.62
393.433	810.62
393.658	806.62
393.882	799.62
394.107	811.62
394.331	833.62
394.556	823.62
394.78	824.62
395.005	824.62
395.229	821.62
395.454	846.62
395.678	872.62
395.903	850.62
396.127	807.62
396.352	787.62
396.576	801.62
396.801	811.62
397.025	788.62
397.249	829.62
397.474	845.62
397.698	848.62
397.922	833.62
398.147	831.62
398.371	872.62
398.595	882.62
398.82	922.62
399.044	972.62
399.268	1118.62
399.492	1277.62
399.717	1469.62
399.941	1446.62
400.165	1271.62
400.389	1127.62
400.613	1065.62
400.837	997.62
401.062	959.62
401.286	952.62
401.51	913.62
401.734	983.62
401.958	955.62
402.182	944.62
402.406	952.62
402.63	978.62
402.854	1032.62
403.078	1028.62
403.302	1046.62
403.526	1077.62
403.75	1099.62
403.974	1128.62
404.198	1112.62
404.422	1132.62
404.645	1102.62
404.869	1088.62
405.093	1114.62
405.317	1083.62
405.541	1076.62
405.765	1059.62
405.988	1048.62
406.212	1046.62
406.436	1029.62
406.66	1048.62
406.883	1058.62
407.107	1140.62
407.331	1182.62
407.555	1261.62
407.778	1253.62
408.002	1222.62
408.226	1168.62
408.449	1125.62
408.673	1074.62
408.896	1066.62
409.12	1079.62
409.344	1119.62
409.567	1072.62
409.791	1108.62
410.014	1102.62
410.238	1067.62
410.461	1088.62
410.685	1050.62
410.908	1029.62
411.132	1036.62
411.355	993.62
411.578	979.62
411.802	977.62
412.025	986.62
412.249	992.62
412.472	994.62
412.695	984.62
412.919	934.62
413.142	960.62
413.365	958.62
413.589	967.62
413.812	947.62
414.035	925.62
414.258	927.62
414.482	958.62
414.705	963.62
414.928	950.62
415.151	953.62
415.374	990.62
415.597	971.62
415.821	931.62
416.044	949.62
416.267	916.62
416.49	932.62
416.713	926.62
416.936	954.62
417.159	923.62
417.382	927.62
417.605	942.62
417.828	959.62
418.051	955.62
418.274	928.62
418.497	945.62
418.72	992.62
418.943	966.62
419.166	1015.62
419.389	1102.62
419.611	1071.62
419.834	1019.62
420.057	1003.62
420.28	966.62
420.503	953.62
420.726	940.62
420.948	933.62
421.171	936.62
421.394	943.62
421.617	925.62
421.839	937.62
422.062	929.62
422.285	948.62
422.507	950.62
422.73	964.62
422.953	973.62
423.175	995.62
423.398	1039.62
423.621	1003.62
423.843	1033.62
424.066	1034.62
424.288	989.62
424.511	1020.62
424.733	1005.62
424.956	995.62
425.178	981.62
425.401	949.62
425.623	948.62
425.846	931.62
426.068	899.62
426.291	893.62
426.513	903.62
426.735	886.62
426.958	875.62
427.18	873.62
427.402	863.62
427.625	848.62
427.847	861.62
428.069	847.62
428.292	822.62
428.514	824.62
428.736	846.62
428.958	852.62
429.181	806.62
429.403	833.62
429.625	806.62
429.847	804.62
430.069	832.62
430.292	829.62
430.514	810.62
430.736	843.62
430.958	816.62
431.18	842.62
431.402	832.62
431.624	857.62
431.846	839.62
432.068	852.62
432.29	862.62
432.512	857.62
432.734	847.62
432.956	853.62
433.178	884.62
433.4	871.62
433.622	838.62
433.844	865.62
434.066	832.62
434.287	847.62
434.509	902.62
434.731	928.62
434.953	964.62
435.175	977.62
435.397	988.62
435.618	897.62
435.84	846.62
436.062	875.62
436.284	849.62
436.505	857.62
436.727	864.62
436.949	857.62
437.17	819.62
437.392	868.62
437.614	846.62
437.835	824.62
438.057	836.62
438.278	813.62
438.5	827.62
438.721	832.62
438.943	852.62
439.165	824.62
439.386	845.62
439.608	858.62
439.829	835.62
440.05	865.62
440.272	857.62
440.493	875.62
440.715	866.62
440.936	886.62
441.158	886.62
441.379	942.62
441.6	960.62
441.822	962.62
442.043	1028.62
442.264	957.62
442.486	944.62
442.707	931.62
442.928	966.62
443.149	950.62
443.371	956.62
443.592	972.62
443.813	965.62
444.034	962.62
444.255	1002.62
444.476	1019.62
444.698	1099.62
444.919	1178.62
445.14	1257.62
445.361	1125.62
445.582	1011.62
445.803	925.62
446.024	909.62
446.245	918.62
446.466	900.62
446.687	892.62
446.908	861.62
447.129	836.62
447.35	834.62
447.571	837.62
447.792	801.62
448.013	820.62
448.234	804.62
448.455	788.62
448.675	797.62
448.896	773.62
449.117	780.62
449.338	749.62
449.559	788.62
449.779	779.62
450	744.62
450.221	777.62
450.442	802.62
450.662	806.62
450.883	827.62
451.104	845.62
451.324	824.62
451.545	827.62
451.766	831.62
451.986	804.62
452.207	804.62
452.428	801.62
452.648	778.62
452.869	825.62
453.089	804.62
453.31	786.62
453.53	798.62
453.751	787.62
453.971	803.62
454.192	752.62
454.412	722.62
454.633	758.62
454.853	771.62
455.073	760.62
455.294	732.62
455.514	729.62
455.734	746.62
455.955	714.62
456.175	740.62
456.395	733.62
456.616	723.62
456.836	744.62
457.056	731.62
457.276	719.62
457.497	738.62
457.717	724.62
457.937	740.62
458.157	732.62
458.377	745.62
458.598	769.62
458.818	788.62
459.038	821.62
459.258	853.62
459.478	883.62
459.698	884.62
459.918	912.62
460.138	928.62
460.358	992.62
460.578	995.62
460.798	1012.62
461.018	997.62
461.238	1010.62
461.458	989.62
461.678	994.62
461.898	1032.62
462.118	1008.62
462.338	1076.62
462.558	1120.62
462.777	1171.62
462.997	1251.62
463.217	1368.62
463.437	1400.62
463.657	1272.62
463.876	1211.62
464.096	1206.62
464.316	1207.62
464.536	1190.62
464.755	1172.62
464.975	1107.62
465.195	1090.62
465.414	1011.62
465.634	909.62
465.854	894.62
466.073	895.62
466.293	884.62
466.512	843.62
466.732	822.62
466.951	822.62
467.171	825.62
467.391	846.62
467.61	808.62
467.829	824.62
468.049	813.62
468.268	804.62
468.488	825.62
468.707	785.62
468.927	800.62
469.146	799.62
469.365	798.62
469.585	788.62
469.804	829.62
470.023	836.62
470.243	843.62
470.462	862.62
470.681	872.62
470.901	843.62
471.12	853.62
471.339	866.62
471.558	834.62
471.777	803.62
471.997	808.62
472.216	794.62
472.435	793.62
472.654	775.62
472.873	784.62
473.092	770.62
473.311	796.62
473.53	778.62
473.749	772.62
473.968	773.62
474.187	754.62
474.406	753.62
474.625	781.62
474.844	759.62
475.063	768.62
475.282	760.62
475.501	777.62
475.72	782.62
475.939	781.62
476.158	799.62
476.377	809.62
476.596	810.62
476.814	802.62
477.033	842.62
477.252	821.62
477.471	824.62
477.69	882.62
477.908	872.62
478.127	909.62
478.346	932.62
478.564	940.62
478.783	956.62
479.002	956.62
479.22	989.62
479.439	972.62
479.658	960.62
479.876	969.62
480.095	970.62
480.313	1001.62
480.532	1061.62
480.751	1028.62
480.969	1017.62
481.188	962.62
481.406	939.62
481.624	941.62
481.843	900.62
482.061	870.62
482.28	885.62
482.498	880.62
482.717	893.62
482.935	890.62
483.153	894.62
483.372	877.62
483.59	905.62
483.808	894.62
484.027	909.62
484.245	872.62
484.463	896.62
484.681	914.62
484.9	897.62
485.118	928.62
485.336	902.62
485.554	956.62
485.772	931.62
485.99	936.62
486.209	964.62
486.427	935.62
486.645	970.62
486.863	974.62
487.081	939.62
487.299	952.62
487.517	913.62
487.735	908.62
487.953	929.62
488.171	934.62
488.389	897.62
488.607	919.62
488.825	918.62
489.043	904.62
489.261	916.62
489.479	922.62
489.696	958.62
489.914	913.62
490.132	928.62
490.35	953.62
490.568	937.62
490.786	939.62
491.003	923.62
491.221	940.62
491.439	947.62
491.657	924.62
491.874	936.62
492.092	955.62
492.31	937.62
492.527	936.62
492.745	939.62
492.963	963.62
493.18	958.62
493.398	959.62
493.615	956.62
493.833	982.62
494.05	938.62
494.268	956.62
494.485	956.62
494.703	973.62
494.92	973.62
495.138	974.62
495.355	978.62
495.573	981.62
495.79	987.62
496.008	977.62
496.225	985.62
496.442	1018.62
496.66	1022.62
496.877	1012.62
497.094	1042.62
497.312	1045.62
497.529	1077.62
497.746	1102.62
497.963	1123.62
498.181	1179.62
498.398	1204.62
498.615	1298.62
498.832	1364.62
499.049	1481.62
499.267	1592.62
499.484	1790.62
499.701	1923.62
499.918	2154.62
500.135	2480.62
500.352	2860.62
500.569	3051.62
500.786	2988.62
501.003	2806.62
501.22	2511.62
501.437	2159.62
501.654	1887.62
501.871	1699.62
502.088	1556.62
502.305	1457.62
502.522	1392.62
502.739	1328.62
502.956	1261.62
503.172	1195.62
503.389	1181.62
503.606	1128.62
503.823	1112.62
504.04	1081.62
504.256	1088.62
504.473	1149.62
504.69	1177.62
504.907	1148.62
505.123	1068.62
505.34	1025.62
505.557	969.62
505.773	954.62
505.99	917.62
506.207	903.62
506.423	893.62
506.64	901.62
506.856	876.62
507.073	877.62
507.289	897.62
507.506	842.62
507.722	874.62
507.939	845.62
508.155	850.62
508.372	844.62
508.588	824.62
508.805	820.62
509.021	794.62
509.238	828.62
509.454	820.62
509.67	803.62
509.887	811.62
510.103	795.62
510.319	772.62
510.536	790.62
510.752	788.62
510.968	834.62
511.184	777.62
511.401	776.62
511.617	791.62
511.833	801.62
512.049	772.62
512.265	778.62
512.481	803.62
512.698	788.62
512.914	789.62
513.13	772.62
513.346	792.62
513.562	785.62
513.778	806.62
513.994	801.62
514.21	799.62
514.426	782.62
514.642	787.62
514.858	807.62
515.074	812.62
515.29	823.62
515.506	823.62
515.721	820.62
515.937	847.62
516.153	853.62
516.369	878.62
516.585	914.62
516.801	938.62
517.016	964.62
517.232	990.62
517.448	1058.62
517.664	1097.62
517.879	1131.62
518.095	1132.62
518.311	1075.62
518.527	1042.62
518.742	1008.62
518.958	930.62
519.173	942.62
519.389	900.62
519.605	866.62
519.82	859.62
520.036	844.62
520.251	844.62
520.467	819.62
520.682	811.62
520.898	812.62
521.113	772.62
521.329	777.62
521.544	769.62
521.76	769.62
521.975	779.62
522.19	781.62
522.406	765.62
522.621	739.62
522.836	741.62
523.052	756.62
523.267	762.62
523.482	756.62
523.698	761.62
523.913	730.62
524.128	754.62
524.343	742.62
524.559	725.62
524.774	736.62
524.989	713.62
525.204	711.62
525.419	728.62
525.634	727.62
525.849	710.62
526.064	738.62
526.28	718.62
526.495	721.62
526.71	745.62
526.925	720.62
527.14	721.62
527.355	707.62
527.57	717.62
527.785	705.62
527.999	700.62
528.214	680.62
528.429	712.62
528.644	731.62
528.859	722.62
529.074	744.62
529.289	711.62
529.503	708.62
529.718	718.62
529.933	735.62
530.148	693.62
530.363	732.62
530.577	734.62
530.792	718.62
531.007	727.62
531.221	722.62
531.436	721.62
531.651	712.62
531.865	717.62
532.08	726.62
532.295	730.62
532.509	733.62
532.724	715.62
532.938	700.62
533.153	748.62
533.367	708.62
533.582	723.62
533.796	704.62
534.011	700.62
534.225	698.62
534.44	715.62
534.654	699.62
534.868	690.62
535.083	698.62
535.297	716.62
535.511	681.62
535.726	694.62
535.94	668.62
536.154	686.62
536.369	700.62
536.583	654.62
536.797	689.62
537.011	673.62
537.225	683.62
537.44	670.62
537.654	684.62
537.868	648.62
538.082	651.62
538.296	661.62
538.51	648.62
538.724	681.62
538.938	654.62
539.153	635.62
539.367	647.62
539.581	636.62
539.795	648.62
540.009	632.62
540.222	656.62
540.436	627.62
540.65	644.62
540.864	614.62
541.078	631.62
541.292	640.62
541.506	654.62
541.72	639.62
541.934	631.62
542.147	643.62
542.361	631.62
542.575	639.62
542.789	642.62
543.002	638.62
543.216	624.62
543.43	639.62
543.644	638.62
543.857	616.62
544.071	636.62
544.285	638.62
544.498	643.62
544.712	638.62
544.925	645.62
545.139	676.62
545.352	644.62
545.566	673.62
545.779	665.62
545.993	663.62
546.206	651.62
546.42	652.62
546.633	655.62
546.847	665.62
547.06	660.62
547.274	667.62
547.487	651.62
547.7	647.62
547.914	664.62
548.127	664.62
548.34	662.62
548.554	665.62
548.767	658.62
548.98	664.62
549.193	685.62
549.407	668.62
549.62	656.62
549.833	673.62
550.046	660.62
550.259	650.62
550.473	646.62
550.686	665.62
550.899	644.62
551.112	647.62
551.325	633.62
551.538	642.62
551.751	656.62
551.964	620.62
552.177	642.62
552.39	677.62
552.603	673.62
552.816	664.62
553.029	676.62
553.242	708.62
553.455	717.62
553.667	746.62
553.88	724.62
554.093	690.62
554.306	695.62
554.519	684.62
554.732	653.62
554.944	666.62
555.157	649.62
555.37	624.62
555.583	629.62
555.795	641.62
556.008	589.62
556.221	610.62
556.433	587.62
556.646	596.62
556.859	573.62
557.071	578.62
557.284	582.62
557.496	588.62
557.709	569.62
557.921	582.62
558.134	564.62
558.346	541.62
558.559	557.62
558.771	550.62
558.984	555.62
559.196	551.62
559.409	578.62
559.621	556.62
559.833	557.62
560.046	560.62
560.258	551.62
560.47	543.62
560.683	552.62
560.895	532.62
561.107	541.62
561.32	578.62
561.532	562.62
561.744	549.62
561.956	566.62
562.168	553.62
562.381	545.62
562.593	526.62
562.805	542.62
563.017	530.62
563.229	545.62
563.441	553.62
563.653	545.62
563.865	548.62
564.077	566.62
564.289	568.62
564.501	575.62
564.713	572.62
564.925	592.62
565.137	602.62
565.349	605.62
565.561	614.62
565.773	631.62
565.985	684.62
566.197	692.62
566.408	759.62
566.62	802.62
566.832	892.62
567.044	902.62
567.255	892.62
567.467	932.62
567.679	983.62
567.891	1061.62
568.102	1086.62
568.314	1073.62
568.526	939.62
568.737	838.62
568.949	784.62
569.161	710.62
569.372	651.62
569.584	611.62
569.795	610.62
570.007	601.62
570.218	547.62
570.43	578.62
570.641	569.62
570.853	555.62
571.064	572.62
571.276	582.62
571.487	552.62
571.698	540.62
571.91	524.62
572.121	539.62
572.333	491.62
572.544	498.62
572.755	489.62
572.966	499.62
573.178	464.62
573.389	456.62
573.6	470.62
573.811	462.62
574.023	451.62
574.234	468.62
574.445	469.62
574.656	462.62
574.867	461.62
575.078	450.62
575.289	484.62
575.501	453.62
575.712	452.62
575.923	436.62
576.134	440.62
576.345	398.62
576.556	449.62
576.767	437.62
576.978	441.62
577.188	421.62
577.399	442.62
577.61	459.62
577.821	404.62
578.032	402.62
578.243	398.62
578.454	411.62
578.665	402.62
578.875	436.62
579.086	425.62
579.297	414.62
579.508	422.62
579.718	405.62
579.929	403.62
580.14	402.62
580.35	406.62
580.561	398.62
580.772	404.62
580.982	377.62
581.193	398.62
581.403	385.62
581.614	408.62
581.825	412.62
582.035	395.62
582.246	392.62
582.456	395.62
582.667	401.62
582.877	394.62
583.087	394.62
583.298	388.62
583.508	393.62
583.719	382.62
583.929	377.62
584.139	402.62
584.35	372.62
584.56	387.62
584.77	390.62
584.981	360.62
585.191	372.62
585.401	382.62
585.611	383.62
585.821	388.62
586.032	377.62
586.242	360.62
586.452	392.62
586.662	358.62
586.872	376.62
587.082	376.62
587.292	394.62
587.502	362.62
587.713	384.62
587.923	357.62
588.133	370.62
588.343	374.62
588.553	373.62
588.762	365.62
588.972	384.62
589.182	384.62
589.392	370.62
589.602	378.62
589.812	359.62
590.022	383.62
590.232	360.62
590.441	376.62
590.651	368.62
590.861	383.62
591.071	360.62
591.281	368.62
591.49	388.62
591.7	375.62
591.91	390.62
592.119	396.62
592.329	417.62
592.539	429.62
592.748	432.62
592.958	444.62
593.167	469.62
593.377	472.62
593.587	462.62
593.796	480.62
594.006	481.62
594.215	494.62
594.424	467.62
594.634	477.62
594.843	445.62
595.053	446.62
595.262	421.62
595.472	412.62
595.681	399.62
595.89	396.62
596.1	381.62
596.309	376.62
596.518	360.62
596.727	342.62
596.937	352.62
597.146	355.62
597.355	353.62
597.564	346.62
597.774	346.62
597.983	347.62
598.192	356.62
598.401	332.62
598.61	349.62
598.819	321.62
599.028	331.62
599.237	318.62
599.446	318.62
599.655	331.62
599.864	328.62
600.073	322.62
600.282	324.62
600.491	310.62
600.7	300.62
600.909	330.62
601.118	326.62
601.327	316.62
601.536	321.62
601.745	312.62
601.953	313.62
602.162	324.62
602.371	293.62
602.58	316.62
602.789	312.62
602.997	310.62
603.206	312.62
603.415	295.62
603.623	290.62
603.832	307.62
604.041	308.62
604.249	314.62
604.458	313.62
604.666	307.62
604.875	308.62
605.084	287.62
605.292	315.62
605.501	282.62
605.709	296.62
605.918	301.62
606.126	292.62
606.334	279.62
606.543	287.62
606.751	287.62
606.96	275.62
607.168	281.62
607.376	284.62
607.585	286.62
607.793	284.62
608.001	286.62
608.21	298.62
608.418	281.62
608.626	297.62
608.834	284.62
609.043	279.62
609.251	292.62
609.459	295.62
609.667	310.62
609.875	274.62
610.083	273.62
610.291	288.62
610.499	271.62
610.707	292.62
610.916	281.62
611.124	290.62
611.332	282.62
611.54	272.62
611.748	279.62
611.955	266.62
612.163	269.62
612.371	297.62
612.579	284.62
612.787	285.62
612.995	296.62
613.203	285.62
613.411	281.62
613.618	267.62
613.826	249.62
614.034	278.62
614.242	278.62
614.449	273.62
614.657	264.62
614.865	270.62
615.072	284.62
615.28	283.62
615.488	261.62
615.695	276.62
615.903	278.62
616.111	292.62
616.318	295.62
616.526	271.62
616.733	276.62
616.941	279.62
617.148	299.62
617.356	279.62
617.563	280.62
617.771	299.62
617.978	277.62
618.185	275.62
618.393	275.62
618.6	263.62
618.807	262.62
619.015	276.62
619.222	281.62
619.429	283.62
619.637	276.62
619.844	287.62
620.051	250.62
620.258	280.62
620.466	258.62
620.673	248.62
620.88	261.62
621.087	254.62
621.294	244.62
621.501	265.62
621.708	268.62
621.915	251.62
622.122	246.62
622.329	252.62
622.536	241.62
622.743	250.62
622.95	261.62
623.157	255.62
623.364	235.62
623.571	258.62
623.778	262.62
623.985	246.62
624.192	224.62
624.399	259.62
624.606	248.62
624.812	249.62
625.019	225.62
625.226	226.62
625.433	248.62
625.639	235.62
625.846	242.62
626.053	254.62
626.259	240.62
626.466	231.62
626.673	249.62
626.879	228.62
627.086	237.62
627.293	251.62
627.499	239.62
627.706	240.62
627.912	223.62
628.119	214.62
628.325	210.62
628.532	231.62
628.738	220.62
628.945	220.62
629.151	240.62
629.357	233.62
629.564	220.62
629.77	233.62
629.976	225.62
630.183	230.62
630.389	220.62
630.595	221.62
630.802	237.62
631.008	211.62
631.214	224.62
631.42	225.62
631.627	221.62
631.833	221.62
632.039	219.62
632.245	203.62
632.451	210.62
632.657	218.62
632.863	215.62
633.069	237.62
633.275	220.62
633.481	200.62
633.688	201.62
633.893	202.62
634.099	203.62
634.305	205.62
634.511	218.62
634.717	219.62
634.923	203.62
635.129	204.62
635.335	220.62
635.541	210.62
635.747	206.62
635.952	198.62
636.158	211.62
636.364	196.62
636.57	212.62
636.775	217.62
636.981	201.62
637.187	204.62
637.392	200.62
637.598	200.62
637.804	205.62
638.009	208.62
638.215	210.62
638.421	187.62
638.626	172.62
638.832	202.62
639.037	204.62
639.243	198.62
639.448	215.62
639.654	216.62
639.859	196.62
640.065	181.62
640.27	192.62
640.475	182.62
640.681	192.62
640.886	197.62
641.091	202.62
641.297	204.62
641.502	187.62
641.707	198.62
641.913	197.62
642.118	186.62
642.323	180.62
642.528	192.62
642.733	187.62
642.939	188.62
643.144	180.62
643.349	169.62
643.554	182.62
643.759	183.62
643.964	196.62
644.169	178.62
644.374	180.62
644.579	217.62
644.784	187.62
644.989	196.62
645.194	173.62
645.399	179.62
645.604	180.62
645.809	185.62
646.014	182.62
646.219	162.62
646.423	184.62
646.628	176.62
646.833	190.62
647.038	196.62
647.243	212.62
647.447	191.62
647.652	203.62
647.857	188.62
648.062	196.62
648.266	211.62
648.471	205.62
648.676	208.62
648.88	192.62
649.085	191.62
649.289	189.62
649.494	179.62
649.698	194.62
649.903	182.62
650.107	172.62
650.312	176.62
650.516	190.62
650.721	176.62
650.925	181.62
651.13	171.62
651.334	190.62
651.539	180.62
651.743	192.62
651.947	172.62
652.152	168.62
652.356	150.62
652.56	164.62
652.764	179.62
652.969	167.62
653.173	170.62
653.377	167.62
653.581	139.62
653.785	155.62
653.99	160.62
654.194	147.62
654.398	132.62
654.602	143.62
654.806	144.62
655.01	154.62
655.214	156.62
655.418	145.62
655.622	154.62
655.826	178.62
656.03	141.62
656.234	154.62
656.438	157.62
656.642	155.62
656.846	139.62
657.049	135.62
657.253	109.62
657.457	119.62
657.661	123.62
657.865	132.62
658.068	119.62
658.272	115.62
658.476	123.62
658.68	117.62
658.883	110.62
659.087	118.62
659.291	132.62
659.494	112.62
659.698	109.62
659.901	112.62
660.105	103.62
660.309	101.62
660.512	94.62
660.716	106.62
660.919	100.62
661.123	98.62
661.326	94.62
661.53	84.62
661.733	82.62
661.936	102.62
662.14	92.62
662.343	84.62
662.546	92.62
662.75	93.62
662.953	102.62
663.156	91.62
663.36	82.62
663.563	98.62
663.766	86.62
663.969	81.62
664.173	82.62
664.376	85.62
664.579	81.62
664.782	92.62
664.985	91.62
665.188	75.62
665.391	76.62
665.594	93.62
665.797	82.62
666	84.62
666.203	84.62
666.406	80.62
666.609	86.62
666.812	73.62
667.015	82.62
667.218	75.62
667.421	79.62
667.624	83.62
667.827	86.62
668.03	89.62
668.232	80.62
668.435	67.62
668.638	78.62
668.841	83.62
669.043	75.62
669.246	82.62
669.449	71.62
669.651	85.62
669.854	85.62
670.057	88.62
670.259	85.62
670.462	82.62
670.665	82.62
670.867	69.62
671.07	82.62
671.272	86.62
671.475	84.62
671.677	76.62
671.88	74.62
672.082	73.62
672.284	77.62
672.487	85.62
672.689	78.62
672.892	78.62
