Data from NiCl2@0.25M.TitratingCurve.Agarose3%dH2O.NegLispCup.LampEnergy10.LIBS07252019_HRD10591_18-23-15-572.txt Node
Date: Thu Jul 25 18:23:15 EDT 2019
User: cochatt
Spectrometer: HR+D1059
Trigger mode: 1
Integration Time (sec): 1.000000E-1
Scans to average: 1
Electric dark correction enabled: true
Nonlinearity correction enabled: false
Boxcar width: 0
XAxis mode: Wavelengths
Number of Pixels in Spectrum: 2048
>>>>>Begin Spectral Data<<<<<
223.165	-24.44
223.4	-24.44
223.635	-24.44
223.869	-30.44
224.104	-11.44
224.338	-23.44
224.573	-23.44
224.808	-6.44
225.042	3.56
225.277	-4.44
225.511	-2.44
225.746	4.56
225.98	6.56
226.215	10.56
226.449	26.56
226.683	20.56
226.918	22.56
227.152	31.56
227.387	33.56
227.621	37.56
227.856	58.56
228.09	40.56
228.324	57.56
228.559	53.56
228.793	79.56
229.027	121.56
229.262	124.56
229.496	109.56
229.73	125.56
229.964	135.56
230.199	126.56
230.433	129.56
230.667	143.56
230.901	150.56
231.136	135.56
231.37	138.56
231.604	151.56
231.838	142.56
232.072	149.56
232.306	144.56
232.541	159.56
232.775	159.56
233.009	159.56
233.243	157.56
233.477	150.56
233.711	173.56
233.945	160.56
234.179	151.56
234.413	151.56
234.647	169.56
234.881	168.56
235.115	167.56
235.349	171.56
235.583	161.56
235.817	175.56
236.051	169.56
236.285	149.56
236.519	174.56
236.753	158.56
236.987	160.56
237.221	183.56
237.455	168.56
237.689	175.56
237.922	165.56
238.156	154.56
238.39	179.56
238.624	180.56
238.858	184.56
239.091	188.56
239.325	181.56
239.559	184.56
239.793	188.56
240.027	180.56
240.26	197.56
240.494	195.56
240.728	187.56
240.961	188.56
241.195	202.56
241.429	204.56
241.662	205.56
241.896	199.56
242.13	205.56
242.363	212.56
242.597	202.56
242.83	227.56
243.064	213.56
243.298	204.56
243.531	219.56
243.765	214.56
243.998	211.56
244.232	192.56
244.465	223.56
244.699	226.56
244.932	234.56
245.166	234.56
245.399	239.56
245.633	229.56
245.866	232.56
246.099	213.56
246.333	231.56
246.566	229.56
246.8	249.56
247.033	237.56
247.266	236.56
247.5	221.56
247.733	237.56
247.966	252.56
248.2	260.56
248.433	245.56
248.666	250.56
248.899	248.56
249.133	251.56
249.366	241.56
249.599	256.56
249.832	261.56
250.066	255.56
250.299	270.56
250.532	270.56
250.765	271.56
250.998	283.56
251.231	264.56
251.465	297.56
251.698	294.56
251.931	272.56
252.164	289.56
252.397	284.56
252.63	274.56
252.863	281.56
253.096	290.56
253.329	274.56
253.562	284.56
253.795	309.56
254.028	295.56
254.261	292.56
254.494	292.56
254.727	296.56
254.96	287.56
255.193	298.56
255.426	287.56
255.659	291.56
255.892	294.56
256.124	321.56
256.357	323.56
256.59	313.56
256.823	287.56
257.056	285.56
257.289	327.56
257.521	302.56
257.754	321.56
257.987	323.56
258.22	333.56
258.452	319.56
258.685	312.56
258.918	325.56
259.151	332.56
259.383	333.56
259.616	332.56
259.849	333.56
260.081	316.56
260.314	333.56
260.547	328.56
260.779	328.56
261.012	348.56
261.244	336.56
261.477	320.56
261.71	352.56
261.942	344.56
262.175	350.56
262.407	355.56
262.64	352.56
262.872	348.56
263.105	355.56
263.337	358.56
263.57	363.56
263.802	354.56
264.035	346.56
264.267	381.56
264.499	358.56
264.732	381.56
264.964	352.56
265.197	374.56
265.429	361.56
265.661	360.56
265.894	354.56
266.126	387.56
266.358	367.56
266.591	389.56
266.823	385.56
267.055	368.56
267.287	362.56
267.52	380.56
267.752	382.56
267.984	388.56
268.216	382.56
268.448	386.56
268.681	383.56
268.913	393.56
269.145	402.56
269.377	382.56
269.609	387.56
269.841	393.56
270.073	377.56
270.306	388.56
270.538	382.56
270.77	403.56
271.002	412.56
271.234	396.56
271.466	400.56
271.698	417.56
271.93	421.56
272.162	428.56
272.394	455.56
272.626	407.56
272.858	424.56
273.09	414.56
273.322	424.56
273.553	438.56
273.785	431.56
274.017	429.56
274.249	429.56
274.481	422.56
274.713	425.56
274.945	432.56
275.176	438.56
275.408	440.56
275.64	450.56
275.872	436.56
276.104	428.56
276.335	453.56
276.567	444.56
276.799	438.56
277.031	434.56
277.262	453.56
277.494	458.56
277.726	466.56
277.957	448.56
278.189	464.56
278.421	448.56
278.652	465.56
278.884	481.56
279.115	460.56
279.347	460.56
279.579	471.56
279.81	481.56
280.042	464.56
280.273	470.56
280.505	468.56
280.736	488.56
280.968	467.56
281.199	505.56
281.431	480.56
281.662	490.56
281.894	494.56
282.125	488.56
282.356	491.56
282.588	504.56
282.819	507.56
283.051	518.56
283.282	478.56
283.513	499.56
283.745	510.56
283.976	524.56
284.207	532.56
284.439	500.56
284.67	519.56
284.901	511.56
285.132	522.56
285.364	520.56
285.595	551.56
285.826	520.56
286.057	520.56
286.288	528.56
286.52	538.56
286.751	543.56
286.982	526.56
287.213	555.56
287.444	565.56
287.675	529.56
287.906	530.56
288.138	549.56
288.369	542.56
288.6	540.56
288.831	539.56
289.062	556.56
289.293	531.56
289.524	548.56
289.755	531.56
289.986	552.56
290.217	548.56
290.448	552.56
290.679	544.56
290.91	541.56
291.141	541.56
291.371	557.56
291.602	561.56
291.833	556.56
292.064	566.56
292.295	597.56
292.526	554.56
292.757	551.56
292.987	564.56
293.218	559.56
293.449	580.56
293.68	547.56
293.91	568.56
294.141	587.56
294.372	546.56
294.603	568.56
294.833	573.56
295.064	590.56
295.295	552.56
295.525	566.56
295.756	588.56
295.987	590.56
296.217	570.56
296.448	569.56
296.679	557.56
296.909	581.56
297.14	596.56
297.37	581.56
297.601	609.56
297.831	582.56
298.062	587.56
298.292	592.56
298.523	617.56
298.753	636.56
298.984	595.56
299.214	597.56
299.445	598.56
299.675	607.56
299.905	599.56
300.136	616.56
300.366	594.56
300.597	621.56
300.827	641.56
301.057	641.56
301.288	646.56
301.518	651.56
301.748	647.56
301.979	661.56
302.209	629.56
302.439	646.56
302.669	647.56
302.9	631.56
303.13	621.56
303.36	621.56
303.59	639.56
303.82	631.56
304.051	633.56
304.281	628.56
304.511	639.56
304.741	631.56
304.971	646.56
305.201	654.56
305.431	637.56
305.661	653.56
305.891	643.56
306.121	627.56
306.352	620.56
306.582	631.56
306.812	608.56
307.042	654.56
307.272	629.56
307.502	614.56
307.731	619.56
307.961	624.56
308.191	633.56
308.421	639.56
308.651	645.56
308.881	633.56
309.111	620.56
309.341	613.56
309.571	627.56
309.8	622.56
310.03	612.56
310.26	622.56
310.49	634.56
310.72	632.56
310.949	637.56
311.179	631.56
311.409	650.56
311.639	629.56
311.868	632.56
312.098	658.56
312.328	647.56
312.557	660.56
312.787	637.56
313.017	640.56
313.246	664.56
313.476	666.56
313.706	699.56
313.935	699.56
314.165	675.56
314.394	685.56
314.624	710.56
314.853	676.56
315.083	701.56
315.312	690.56
315.542	683.56
315.771	669.56
316.001	687.56
316.23	662.56
316.46	658.56
316.689	677.56
316.919	664.56
317.148	691.56
317.377	662.56
317.607	671.56
317.836	655.56
318.065	674.56
318.295	638.56
318.524	648.56
318.753	674.56
318.983	665.56
319.212	669.56
319.441	652.56
319.67	669.56
319.9	687.56
320.129	672.56
320.358	679.56
320.587	663.56
320.816	672.56
321.046	677.56
321.275	685.56
321.504	673.56
321.733	673.56
321.962	680.56
322.191	699.56
322.42	681.56
322.649	669.56
322.878	669.56
323.108	670.56
323.337	677.56
323.566	675.56
323.795	681.56
324.024	714.56
324.253	699.56
324.482	718.56
324.71	710.56
324.939	703.56
325.168	719.56
325.397	731.56
325.626	696.56
325.855	731.56
326.084	735.56
326.313	747.56
326.542	740.56
326.77	725.56
326.999	728.56
327.228	715.56
327.457	722.56
327.686	736.56
327.914	717.56
328.143	741.56
328.372	764.56
328.6	713.56
328.829	737.56
329.058	721.56
329.287	748.56
329.515	753.56
329.744	739.56
329.972	740.56
330.201	754.56
330.43	773.56
330.658	748.56
330.887	735.56
331.115	740.56
331.344	776.56
331.572	779.56
331.801	789.56
332.03	815.56
332.258	821.56
332.486	859.56
332.715	873.56
332.943	929.56
333.172	949.56
333.4	987.56
333.629	996.56
333.857	1015.56
334.085	972.56
334.314	959.56
334.542	963.56
334.771	952.56
334.999	932.56
335.227	923.56
335.455	907.56
335.684	919.56
335.912	918.56
336.14	901.56
336.369	895.56
336.597	891.56
336.825	886.56
337.053	871.56
337.281	869.56
337.51	863.56
337.738	879.56
337.966	841.56
338.194	829.56
338.422	811.56
338.65	793.56
338.878	827.56
339.106	783.56
339.334	802.56
339.562	812.56
339.79	806.56
340.018	779.56
340.246	796.56
340.474	762.56
340.702	775.56
340.93	775.56
341.158	775.56
341.386	796.56
341.614	812.56
341.842	758.56
342.07	781.56
342.298	778.56
342.526	745.56
342.754	784.56
342.981	785.56
343.209	761.56
343.437	824.56
343.665	876.56
343.893	927.56
344.12	946.56
344.348	910.56
344.576	862.56
344.804	855.56
345.031	809.56
345.259	800.56
345.487	764.56
345.714	780.56
345.942	780.56
346.17	774.56
346.397	762.56
346.625	752.56
346.853	753.56
347.08	727.56
347.308	758.56
347.535	753.56
347.763	729.56
347.99	732.56
348.218	755.56
348.445	735.56
348.673	755.56
348.9	764.56
349.128	775.56
349.355	751.56
349.583	728.56
349.81	749.56
350.037	731.56
350.265	735.56
350.492	726.56
350.72	718.56
350.947	726.56
351.174	716.56
351.402	731.56
351.629	748.56
351.856	736.56
352.083	726.56
352.311	716.56
352.538	724.56
352.765	725.56
352.992	703.56
353.22	714.56
353.447	695.56
353.674	711.56
353.901	694.56
354.128	708.56
354.355	707.56
354.583	729.56
354.81	731.56
355.037	727.56
355.264	744.56
355.491	736.56
355.718	716.56
355.945	716.56
356.172	720.56
356.399	708.56
356.626	734.56
356.853	741.56
357.08	696.56
357.307	700.56
357.534	743.56
357.761	727.56
357.988	722.56
358.215	732.56
358.441	717.56
358.668	701.56
358.895	743.56
359.122	712.56
359.349	712.56
359.576	720.56
359.802	707.56
360.029	729.56
360.256	734.56
360.483	739.56
360.709	724.56
360.936	718.56
361.163	721.56
361.39	728.56
361.616	711.56
361.843	726.56
362.07	731.56
362.296	739.56
362.523	701.56
362.749	727.56
362.976	706.56
363.203	711.56
363.429	703.56
363.656	723.56
363.882	702.56
364.109	709.56
364.335	715.56
364.562	708.56
364.788	712.56
365.015	721.56
365.241	700.56
365.468	721.56
365.694	711.56
365.92	716.56
366.147	727.56
366.373	708.56
366.599	732.56
366.826	728.56
367.052	731.56
367.278	722.56
367.505	710.56
367.731	721.56
367.957	718.56
368.184	737.56
368.41	736.56
368.636	760.56
368.862	743.56
369.089	721.56
369.315	737.56
369.541	742.56
369.767	761.56
369.993	746.56
370.219	750.56
370.445	748.56
370.672	785.56
370.898	767.56
371.124	742.56
371.35	768.56
371.576	784.56
371.802	806.56
372.028	797.56
372.254	797.56
372.48	830.56
372.706	793.56
372.932	816.56
373.158	811.56
373.384	765.56
373.61	783.56
373.835	803.56
374.061	805.56
374.287	789.56
374.513	783.56
374.739	858.56
374.965	849.56
375.191	860.56
375.416	863.56
375.642	835.56
375.868	844.56
376.094	842.56
376.319	837.56
376.545	822.56
376.771	818.56
376.997	813.56
377.222	773.56
377.448	776.56
377.674	788.56
377.899	758.56
378.125	786.56
378.35	793.56
378.576	794.56
378.802	779.56
379.027	796.56
379.253	790.56
379.478	748.56
379.704	777.56
379.929	803.56
380.155	768.56
380.38	774.56
380.606	763.56
380.831	782.56
381.057	785.56
381.282	796.56
381.507	765.56
381.733	791.56
381.958	778.56
382.184	796.56
382.409	822.56
382.634	842.56
382.86	803.56
383.085	838.56
383.31	841.56
383.535	843.56
383.761	878.56
383.986	881.56
384.211	922.56
384.436	885.56
384.662	921.56
384.887	939.56
385.112	934.56
385.337	965.56
385.562	925.56
385.787	935.56
386.013	960.56
386.238	955.56
386.463	935.56
386.688	949.56
386.913	922.56
387.138	939.56
387.363	947.56
387.588	932.56
387.813	924.56
388.038	921.56
388.263	937.56
388.488	938.56
388.713	928.56
388.938	930.56
389.163	885.56
389.387	900.56
389.612	905.56
389.837	918.56
390.062	912.56
390.287	927.56
390.512	915.56
390.736	985.56
390.961	944.56
391.186	947.56
391.411	993.56
391.636	1027.56
391.86	1028.56
392.085	1057.56
392.31	1031.56
392.534	1052.56
392.759	1035.56
392.984	1009.56
393.208	980.56
393.433	996.56
393.658	967.56
393.882	1007.56
394.107	975.56
394.331	997.56
394.556	991.56
394.78	980.56
395.005	997.56
395.229	988.56
395.454	1029.56
395.678	1064.56
395.903	1064.56
396.127	1008.56
396.352	994.56
396.576	996.56
396.801	970.56
397.025	992.56
397.249	1019.56
397.474	1048.56
397.698	1075.56
397.922	1070.56
398.147	1049.56
398.371	1085.56
398.595	1120.56
398.82	1180.56
399.044	1225.56
399.268	1336.56
399.492	1572.56
399.717	1740.56
399.941	1699.56
400.165	1565.56
400.389	1391.56
400.613	1305.56
400.837	1199.56
401.062	1208.56
401.286	1195.56
401.51	1162.56
401.734	1149.56
401.958	1185.56
402.182	1206.56
402.406	1205.56
402.63	1214.56
402.854	1229.56
403.078	1248.56
403.302	1287.56
403.526	1331.56
403.75	1318.56
403.974	1336.56
404.198	1365.56
404.422	1389.56
404.645	1338.56
404.869	1296.56
405.093	1337.56
405.317	1269.56
405.541	1289.56
405.765	1269.56
405.988	1284.56
406.212	1304.56
406.436	1249.56
406.66	1315.56
406.883	1315.56
407.107	1393.56
407.331	1460.56
407.555	1548.56
407.778	1477.56
408.002	1476.56
408.226	1411.56
408.449	1357.56
408.673	1336.56
408.896	1299.56
409.12	1294.56
409.344	1290.56
409.567	1281.56
409.791	1336.56
410.014	1289.56
410.238	1306.56
410.461	1271.56
410.685	1248.56
410.908	1234.56
411.132	1236.56
411.355	1204.56
411.578	1172.56
411.802	1219.56
412.025	1220.56
412.249	1221.56
412.472	1224.56
412.695	1213.56
412.919	1195.56
413.142	1151.56
413.365	1166.56
413.589	1205.56
413.812	1143.56
414.035	1153.56
414.258	1182.56
414.482	1181.56
414.705	1206.56
414.928	1182.56
415.151	1193.56
415.374	1175.56
415.597	1169.56
415.821	1132.56
416.044	1129.56
416.267	1135.56
416.49	1114.56
416.713	1133.56
416.936	1118.56
417.159	1139.56
417.382	1117.56
417.605	1157.56
417.828	1139.56
418.051	1188.56
418.274	1162.56
418.497	1154.56
418.72	1174.56
418.943	1185.56
419.166	1258.56
419.389	1322.56
419.611	1277.56
419.834	1236.56
420.057	1218.56
420.28	1165.56
420.503	1133.56
420.726	1101.56
420.948	1127.56
421.171	1136.56
421.394	1124.56
421.617	1130.56
421.839	1160.56
422.062	1129.56
422.285	1160.56
422.507	1190.56
422.73	1199.56
422.953	1195.56
423.175	1188.56
423.398	1177.56
423.621	1207.56
423.843	1237.56
424.066	1236.56
424.288	1205.56
424.511	1199.56
424.733	1191.56
424.956	1169.56
425.178	1157.56
425.401	1149.56
425.623	1144.56
425.846	1094.56
426.068	1142.56
426.291	1063.56
426.513	1062.56
426.735	1057.56
426.958	1054.56
427.18	1040.56
427.402	1039.56
427.625	1030.56
427.847	1020.56
428.069	1012.56
428.292	1049.56
428.514	1001.56
428.736	1006.56
428.958	1002.56
429.181	1004.56
429.403	993.56
429.625	1004.56
429.847	960.56
430.069	983.56
430.292	989.56
430.514	989.56
430.736	981.56
430.958	988.56
431.18	950.56
431.402	972.56
431.624	996.56
431.846	1017.56
432.068	1037.56
432.29	1039.56
432.512	1011.56
432.734	1008.56
432.956	996.56
433.178	1012.56
433.4	1005.56
433.622	1021.56
433.844	1039.56
434.066	1016.56
434.287	1008.56
434.509	1069.56
434.731	1091.56
434.953	1123.56
435.175	1147.56
435.397	1128.56
435.618	1069.56
435.84	1030.56
436.062	1047.56
436.284	1035.56
436.505	1008.56
436.727	1036.56
436.949	992.56
437.17	1012.56
437.392	1017.56
437.614	995.56
437.835	985.56
438.057	983.56
438.278	954.56
438.5	948.56
438.721	954.56
438.943	976.56
439.165	999.56
439.386	988.56
439.608	1009.56
439.829	987.56
440.05	1011.56
440.272	998.56
440.493	1015.56
440.715	1035.56
440.936	1037.56
441.158	1075.56
441.379	1096.56
441.6	1127.56
441.822	1143.56
442.043	1128.56
442.264	1125.56
442.486	1083.56
442.707	1121.56
442.928	1143.56
443.149	1115.56
443.371	1120.56
443.592	1137.56
443.813	1151.56
444.034	1141.56
444.255	1152.56
444.476	1225.56
444.698	1285.56
444.919	1333.56
445.14	1407.56
445.361	1269.56
445.582	1149.56
445.803	1101.56
446.024	1091.56
446.245	1049.56
446.466	1013.56
446.687	995.56
446.908	1003.56
447.129	1007.56
447.35	984.56
447.571	977.56
447.792	957.56
448.013	968.56
448.234	920.56
448.455	928.56
448.675	929.56
448.896	927.56
449.117	922.56
449.338	917.56
449.559	927.56
449.779	906.56
450	904.56
450.221	923.56
450.442	916.56
450.662	940.56
450.883	941.56
451.104	952.56
451.324	941.56
451.545	929.56
451.766	924.56
451.986	931.56
452.207	909.56
452.428	928.56
452.648	903.56
452.869	899.56
453.089	910.56
453.31	930.56
453.53	888.56
453.751	888.56
453.971	876.56
454.192	887.56
454.412	871.56
454.633	895.56
454.853	897.56
455.073	883.56
455.294	873.56
455.514	849.56
455.734	883.56
455.955	843.56
456.175	871.56
456.395	849.56
456.616	860.56
456.836	870.56
457.056	862.56
457.276	855.56
457.497	863.56
457.717	860.56
457.937	875.56
458.157	886.56
458.377	901.56
458.598	896.56
458.818	938.56
459.038	965.56
459.258	964.56
459.478	1032.56
459.698	1041.56
459.918	1083.56
460.138	1093.56
460.358	1163.56
460.578	1159.56
460.798	1194.56
461.018	1209.56
461.238	1176.56
461.458	1166.56
461.678	1136.56
461.898	1181.56
462.118	1202.56
462.338	1253.56
462.558	1261.56
462.777	1360.56
462.997	1452.56
463.217	1595.56
463.437	1566.56
463.657	1420.56
463.876	1376.56
464.096	1374.56
464.316	1377.56
464.536	1403.56
464.755	1323.56
464.975	1283.56
465.195	1200.56
465.414	1181.56
465.634	1098.56
465.854	1075.56
466.073	1047.56
466.293	990.56
466.512	1002.56
466.732	976.56
466.951	980.56
467.171	985.56
467.391	975.56
467.61	1004.56
467.829	967.56
468.049	946.56
468.268	929.56
468.488	929.56
468.707	928.56
468.927	937.56
469.146	933.56
469.365	931.56
469.585	968.56
469.804	974.56
470.023	988.56
470.243	959.56
470.462	1009.56
470.681	999.56
470.901	987.56
471.12	985.56
471.339	967.56
471.558	954.56
471.777	965.56
471.997	911.56
472.216	955.56
472.435	937.56
472.654	909.56
472.873	894.56
473.092	920.56
473.311	908.56
473.53	919.56
473.749	895.56
473.968	909.56
474.187	884.56
474.406	895.56
474.625	890.56
474.844	918.56
475.063	946.56
475.282	911.56
475.501	951.56
475.72	934.56
475.939	940.56
476.158	943.56
476.377	954.56
476.596	956.56
476.814	960.56
477.033	942.56
477.252	983.56
477.471	1008.56
477.69	1003.56
477.908	1094.56
478.127	1079.56
478.346	1095.56
478.564	1089.56
478.783	1118.56
479.002	1181.56
479.22	1165.56
479.439	1144.56
479.658	1128.56
479.876	1159.56
480.095	1162.56
480.313	1188.56
480.532	1240.56
480.751	1234.56
480.969	1174.56
481.188	1114.56
481.406	1102.56
481.624	1077.56
481.843	1027.56
482.061	1059.56
482.28	1064.56
482.498	1049.56
482.717	1033.56
482.935	1069.56
483.153	1037.56
483.372	1038.56
483.59	1036.56
483.808	1081.56
484.027	1066.56
484.245	1055.56
484.463	1052.56
484.681	1064.56
484.9	1070.56
485.118	1097.56
485.336	1067.56
485.554	1038.56
485.772	1083.56
485.99	1119.56
486.209	1091.56
486.427	1081.56
486.645	1072.56
486.863	1089.56
487.081	1105.56
487.299	1137.56
487.517	1110.56
487.735	1096.56
487.953	1149.56
488.171	1108.56
488.389	1110.56
488.607	1103.56
488.825	1070.56
489.043	1080.56
489.261	1051.56
489.479	1065.56
489.696	1085.56
489.914	1081.56
490.132	1101.56
490.35	1111.56
490.568	1147.56
490.786	1127.56
491.003	1097.56
491.221	1148.56
491.439	1107.56
491.657	1129.56
491.874	1132.56
492.092	1116.56
492.31	1110.56
492.527	1137.56
492.745	1122.56
492.963	1157.56
493.18	1143.56
493.398	1165.56
493.615	1170.56
493.833	1143.56
494.05	1160.56
494.268	1163.56
494.485	1192.56
494.703	1171.56
494.92	1189.56
495.138	1178.56
495.355	1155.56
495.573	1163.56
495.79	1190.56
496.008	1212.56
496.225	1187.56
496.442	1208.56
496.66	1255.56
496.877	1246.56
497.094	1227.56
497.312	1301.56
497.529	1313.56
497.746	1344.56
497.963	1369.56
498.181	1452.56
498.398	1479.56
498.615	1571.56
498.832	1651.56
499.049	1797.56
499.267	1946.56
499.484	2093.56
499.701	2349.56
499.918	2544.56
500.135	2884.56
500.352	3358.56
500.569	3471.56
500.786	3447.56
501.003	3157.56
501.22	2739.56
501.437	2511.56
501.654	2243.56
501.871	2035.56
502.088	1866.56
502.305	1761.56
502.522	1676.56
502.739	1630.56
502.956	1532.56
503.172	1436.56
503.389	1416.56
503.606	1367.56
503.823	1352.56
504.04	1357.56
504.256	1374.56
504.473	1385.56
504.69	1413.56
504.907	1374.56
505.123	1269.56
505.34	1208.56
505.557	1171.56
505.773	1124.56
505.99	1123.56
506.207	1082.56
506.423	1080.56
506.64	1083.56
506.856	1037.56
507.073	1051.56
507.289	1028.56
507.506	1034.56
507.722	1033.56
507.939	1022.56
508.155	1015.56
508.372	1009.56
508.588	984.56
508.805	964.56
509.021	986.56
509.238	996.56
509.454	952.56
509.67	965.56
509.887	950.56
510.103	955.56
510.319	934.56
510.536	972.56
510.752	932.56
510.968	932.56
511.184	958.56
511.401	939.56
511.617	931.56
511.833	921.56
512.049	956.56
512.265	943.56
512.481	925.56
512.698	909.56
512.914	938.56
513.13	914.56
513.346	957.56
513.562	939.56
513.778	937.56
513.994	947.56
514.21	935.56
514.426	945.56
514.642	944.56
514.858	939.56
515.074	981.56
515.29	977.56
515.506	1000.56
515.721	1001.56
515.937	1009.56
516.153	1020.56
516.369	1058.56
516.585	1047.56
516.801	1077.56
517.016	1184.56
517.232	1215.56
517.448	1257.56
517.664	1259.56
517.879	1315.56
518.095	1305.56
518.311	1309.56
518.527	1242.56
518.742	1176.56
518.958	1140.56
519.173	1118.56
519.389	1100.56
519.605	1015.56
519.82	1000.56
520.036	986.56
520.251	976.56
520.467	982.56
520.682	949.56
520.898	951.56
521.113	934.56
521.329	924.56
521.544	905.56
521.76	904.56
521.975	903.56
522.19	893.56
522.406	874.56
522.621	877.56
522.836	883.56
523.052	869.56
523.267	859.56
523.482	879.56
523.698	868.56
523.913	864.56
524.128	870.56
524.343	867.56
524.559	859.56
524.774	876.56
524.989	859.56
525.204	875.56
525.419	856.56
525.634	832.56
525.849	888.56
526.064	879.56
526.28	852.56
526.495	842.56
526.71	849.56
526.925	828.56
527.14	846.56
527.355	863.56
527.57	846.56
527.785	837.56
527.999	838.56
528.214	828.56
528.429	836.56
528.644	830.56
528.859	846.56
529.074	862.56
529.289	855.56
529.503	831.56
529.718	854.56
529.933	842.56
530.148	839.56
530.363	833.56
530.577	848.56
530.792	818.56
531.007	856.56
531.221	813.56
531.436	843.56
531.651	827.56
531.865	798.56
532.08	838.56
532.295	823.56
532.509	822.56
532.724	830.56
532.938	827.56
533.153	835.56
533.367	868.56
533.582	832.56
533.796	839.56
534.011	846.56
534.225	841.56
534.44	807.56
534.654	839.56
534.868	826.56
535.083	823.56
535.297	833.56
535.511	817.56
535.726	822.56
535.94	799.56
536.154	800.56
536.369	783.56
536.583	794.56
536.797	814.56
537.011	788.56
537.225	786.56
537.44	780.56
537.654	747.56
537.868	765.56
538.082	755.56
538.296	757.56
538.51	779.56
538.724	775.56
538.938	764.56
539.153	761.56
539.367	749.56
539.581	780.56
539.795	753.56
540.009	728.56
540.222	745.56
540.436	749.56
540.65	760.56
540.864	757.56
541.078	764.56
541.292	764.56
541.506	744.56
541.72	756.56
541.934	771.56
542.147	747.56
542.361	746.56
542.575	735.56
542.789	752.56
543.002	737.56
543.216	747.56
543.43	752.56
543.644	739.56
543.857	737.56
544.071	760.56
544.285	769.56
544.498	776.56
544.712	774.56
544.925	757.56
545.139	748.56
545.352	759.56
545.566	787.56
545.779	779.56
545.993	812.56
546.206	784.56
546.42	771.56
546.633	759.56
546.847	765.56
547.06	770.56
547.274	764.56
547.487	764.56
547.7	770.56
547.914	782.56
548.127	800.56
548.34	804.56
548.554	773.56
548.767	750.56
548.98	763.56
549.193	780.56
549.407	792.56
549.62	825.56
549.833	800.56
550.046	792.56
550.259	787.56
550.473	770.56
550.686	752.56
550.899	757.56
551.112	753.56
551.325	758.56
551.538	766.56
551.751	766.56
551.964	751.56
552.177	750.56
552.39	776.56
552.603	801.56
552.816	808.56
553.029	809.56
553.242	840.56
553.455	840.56
553.667	848.56
553.88	827.56
554.093	797.56
554.306	779.56
554.519	767.56
554.732	782.56
554.944	746.56
555.157	733.56
555.37	724.56
555.583	714.56
555.795	720.56
556.008	706.56
556.221	697.56
556.433	679.56
556.646	686.56
556.859	689.56
557.071	642.56
557.284	652.56
557.496	657.56
557.709	651.56
557.921	638.56
558.134	647.56
558.346	670.56
558.559	650.56
558.771	644.56
558.984	629.56
559.196	624.56
559.409	632.56
559.621	636.56
559.833	656.56
560.046	631.56
560.258	636.56
560.47	649.56
560.683	648.56
560.895	630.56
561.107	637.56
561.32	645.56
561.532	627.56
561.744	630.56
561.956	639.56
562.168	635.56
562.381	649.56
562.593	642.56
562.805	659.56
563.017	643.56
563.229	638.56
563.441	645.56
563.653	639.56
563.865	650.56
564.077	664.56
564.289	651.56
564.501	654.56
564.713	683.56
564.925	695.56
565.137	677.56
565.349	735.56
565.561	723.56
565.773	771.56
565.985	795.56
566.197	781.56
566.408	898.56
566.62	949.56
566.832	1037.56
567.044	1033.56
567.255	1028.56
567.467	1026.56
567.679	1120.56
567.891	1201.56
568.102	1221.56
568.314	1176.56
568.526	1034.56
568.737	947.56
568.949	866.56
569.161	835.56
569.372	741.56
569.584	680.56
569.795	699.56
570.007	675.56
570.218	641.56
570.43	646.56
570.641	649.56
570.853	645.56
571.064	651.56
571.276	657.56
571.487	635.56
571.698	612.56
571.91	599.56
572.121	568.56
572.333	563.56
572.544	570.56
572.755	551.56
572.966	554.56
573.178	542.56
573.389	514.56
573.6	523.56
573.811	538.56
574.023	521.56
574.234	523.56
574.445	516.56
574.656	531.56
574.867	529.56
575.078	533.56
575.289	496.56
575.501	505.56
575.712	502.56
575.923	507.56
576.134	501.56
576.345	479.56
576.556	480.56
576.767	487.56
576.978	473.56
577.188	490.56
577.399	493.56
577.61	470.56
577.821	464.56
578.032	480.56
578.243	461.56
578.454	460.56
578.665	463.56
578.875	454.56
579.086	464.56
579.297	443.56
579.508	464.56
579.718	460.56
579.929	481.56
580.14	453.56
580.35	441.56
580.561	441.56
580.772	451.56
580.982	461.56
581.193	443.56
581.403	423.56
581.614	428.56
581.825	437.56
582.035	461.56
582.246	449.56
582.456	432.56
582.667	440.56
582.877	454.56
583.087	429.56
583.298	429.56
583.508	439.56
583.719	426.56
583.929	423.56
584.139	410.56
584.35	421.56
584.56	413.56
584.77	423.56
584.981	400.56
585.191	408.56
585.401	414.56
585.611	410.56
585.821	407.56
586.032	432.56
586.242	419.56
586.452	410.56
586.662	436.56
586.872	417.56
587.082	428.56
587.292	440.56
587.502	413.56
587.713	395.56
587.923	415.56
588.133	404.56
588.343	405.56
588.553	394.56
588.762	430.56
588.972	419.56
589.182	421.56
589.392	445.56
589.602	426.56
589.812	430.56
590.022	429.56
590.232	415.56
590.441	423.56
590.651	435.56
590.861	408.56
591.071	439.56
591.281	417.56
591.49	457.56
591.7	448.56
591.91	461.56
592.119	457.56
592.329	444.56
592.539	475.56
592.748	484.56
592.958	493.56
593.167	497.56
593.377	515.56
593.587	503.56
593.796	522.56
594.006	522.56
594.215	550.56
594.424	533.56
594.634	503.56
594.843	492.56
595.053	469.56
595.262	469.56
595.472	475.56
595.681	458.56
595.89	417.56
596.1	413.56
596.309	410.56
596.518	394.56
596.727	399.56
596.937	402.56
597.146	392.56
597.355	385.56
597.564	377.56
597.774	369.56
597.983	364.56
598.192	375.56
598.401	358.56
598.61	384.56
598.819	357.56
599.028	358.56
599.237	351.56
599.446	361.56
599.655	350.56
599.864	349.56
600.073	333.56
600.282	343.56
600.491	340.56
600.7	349.56
600.909	333.56
601.118	329.56
601.327	346.56
601.536	350.56
601.745	344.56
601.953	360.56
602.162	350.56
602.371	339.56
602.58	347.56
602.789	345.56
602.997	312.56
603.206	348.56
603.415	312.56
603.623	315.56
603.832	336.56
604.041	332.56
604.249	331.56
604.458	341.56
604.666	334.56
604.875	336.56
605.084	326.56
605.292	319.56
605.501	319.56
605.709	311.56
605.918	328.56
606.126	310.56
606.334	338.56
606.543	329.56
606.751	311.56
606.96	317.56
607.168	313.56
607.376	324.56
607.585	325.56
607.793	336.56
608.001	324.56
608.21	322.56
608.418	314.56
608.626	333.56
608.834	316.56
609.043	320.56
609.251	291.56
609.459	327.56
609.667	323.56
609.875	291.56
610.083	321.56
610.291	323.56
610.499	305.56
610.707	304.56
610.916	293.56
611.124	321.56
611.332	312.56
611.54	307.56
611.748	316.56
611.955	299.56
612.163	308.56
612.371	307.56
612.579	304.56
612.787	303.56
612.995	295.56
613.203	297.56
613.411	307.56
613.618	287.56
613.826	315.56
614.034	308.56
614.242	308.56
614.449	302.56
614.657	299.56
614.865	309.56
615.072	296.56
615.28	301.56
615.488	323.56
615.695	312.56
615.903	285.56
616.111	302.56
616.318	301.56
616.526	311.56
616.733	302.56
616.941	311.56
617.148	301.56
617.356	278.56
617.563	314.56
617.771	301.56
617.978	310.56
618.185	316.56
618.393	307.56
618.6	293.56
618.807	280.56
619.015	316.56
619.222	285.56
619.429	289.56
619.637	289.56
619.844	277.56
620.051	285.56
620.258	288.56
620.466	286.56
620.673	271.56
620.88	270.56
621.087	281.56
621.294	270.56
621.501	277.56
621.708	271.56
621.915	285.56
622.122	283.56
622.329	277.56
622.536	277.56
622.743	285.56
622.95	265.56
623.157	291.56
623.364	254.56
623.571	277.56
623.778	280.56
623.985	265.56
624.192	274.56
624.399	277.56
624.606	277.56
624.812	265.56
625.019	272.56
625.226	256.56
625.433	263.56
625.639	239.56
625.846	260.56
626.053	267.56
626.259	271.56
626.466	265.56
626.673	249.56
626.879	245.56
627.086	253.56
627.293	246.56
627.499	270.56
627.706	265.56
627.912	263.56
628.119	245.56
628.325	260.56
628.532	239.56
628.738	251.56
628.945	263.56
629.151	247.56
629.357	251.56
629.564	241.56
629.77	237.56
629.976	249.56
630.183	243.56
630.389	251.56
630.595	239.56
630.802	238.56
631.008	216.56
631.214	247.56
631.42	233.56
631.627	250.56
631.833	234.56
632.039	244.56
632.245	232.56
632.451	227.56
632.657	221.56
632.863	246.56
633.069	229.56
633.275	219.56
633.481	231.56
633.688	209.56
633.893	235.56
634.099	242.56
634.305	212.56
634.511	235.56
634.717	237.56
634.923	233.56
635.129	220.56
635.335	237.56
635.541	227.56
635.747	230.56
635.952	211.56
636.158	214.56
636.364	212.56
636.57	211.56
636.775	230.56
636.981	224.56
637.187	212.56
637.392	207.56
637.598	217.56
637.804	226.56
638.009	232.56
638.215	214.56
638.421	203.56
638.626	221.56
638.832	223.56
639.037	217.56
639.243	228.56
639.448	218.56
639.654	210.56
639.859	223.56
640.065	202.56
640.27	204.56
640.475	212.56
640.681	194.56
640.886	204.56
641.091	217.56
641.297	187.56
641.502	216.56
641.707	209.56
641.913	202.56
642.118	201.56
642.323	198.56
642.528	205.56
642.733	194.56
642.939	200.56
643.144	194.56
643.349	207.56
643.554	210.56
643.759	207.56
643.964	204.56
644.169	201.56
644.374	208.56
644.579	197.56
644.784	206.56
644.989	206.56
645.194	198.56
645.399	200.56
645.604	204.56
645.809	195.56
646.014	187.56
646.219	199.56
646.423	202.56
646.628	205.56
646.833	211.56
647.038	223.56
647.243	199.56
647.447	222.56
647.652	209.56
647.857	223.56
648.062	213.56
648.266	222.56
648.471	221.56
648.676	217.56
648.88	223.56
649.085	210.56
649.289	197.56
649.494	207.56
649.698	192.56
649.903	194.56
650.107	199.56
650.312	204.56
650.516	193.56
650.721	197.56
650.925	194.56
651.13	190.56
651.334	181.56
651.539	181.56
651.743	178.56
651.947	182.56
652.152	182.56
652.356	184.56
652.56	155.56
652.764	170.56
652.969	174.56
653.173	168.56
653.377	175.56
653.581	174.56
653.785	169.56
653.99	164.56
654.194	166.56
654.398	180.56
654.602	181.56
654.806	159.56
655.01	165.56
655.214	160.56
655.418	157.56
655.622	162.56
655.826	145.56
656.03	168.56
656.234	159.56
656.438	149.56
656.642	159.56
656.846	157.56
657.049	142.56
657.253	145.56
657.457	136.56
657.661	140.56
657.865	136.56
658.068	111.56
658.272	111.56
658.476	128.56
658.68	115.56
658.883	117.56
659.087	126.56
659.291	118.56
659.494	115.56
659.698	117.56
659.901	102.56
660.105	103.56
660.309	109.56
660.512	102.56
660.716	112.56
660.919	108.56
661.123	108.56
661.326	96.56
661.53	100.56
661.733	103.56
661.936	102.56
662.14	91.56
662.343	98.56
662.546	101.56
662.75	93.56
662.953	101.56
663.156	78.56
663.36	95.56
663.563	81.56
663.766	80.56
663.969	81.56
664.173	95.56
664.376	89.56
664.579	74.56
664.782	69.56
664.985	90.56
665.188	74.56
665.391	96.56
665.594	90.56
665.797	93.56
666	89.56
666.203	100.56
666.406	104.56
666.609	97.56
666.812	72.56
667.015	86.56
667.218	76.56
667.421	87.56
667.624	83.56
667.827	86.56
668.03	91.56
668.232	86.56
668.435	89.56
668.638	90.56
668.841	85.56
669.043	97.56
669.246	76.56
669.449	102.56
669.651	84.56
669.854	82.56
670.057	79.56
670.259	77.56
670.462	74.56
670.665	91.56
670.867	105.56
671.07	85.56
671.272	80.56
671.475	104.56
671.677	89.56
671.88	88.56
672.082	81.56
672.284	92.56
672.487	95.56
672.689	80.56
672.892	81.56
