Data from NiCl2@0.0625M.TitratingCurve.Agarose3%dH2O.NegLispCup.LampEnergy10.LIBS07252019_HRD10591_18-32-57-580.txt Node
Date: Thu Jul 25 18:32:57 EDT 2019
User: cochatt
Spectrometer: HR+D1059
Trigger mode: 1
Integration Time (sec): 1.000000E-1
Scans to average: 1
Electric dark correction enabled: true
Nonlinearity correction enabled: false
Boxcar width: 0
XAxis mode: Wavelengths
Number of Pixels in Spectrum: 2048
>>>>>Begin Spectral Data<<<<<
223.165	-14.94
223.4	-14.94
223.635	-14.94
223.869	-8.94
224.104	-22.94
224.338	-24.94
224.573	-1.94
224.808	-15.94
225.042	-6.94
225.277	-12.94
225.511	2.06
225.746	3.06
225.98	-7.94
226.215	12.06
226.449	21.06
226.683	16.06
226.918	28.06
227.152	35.06
227.387	34.06
227.621	41.06
227.856	43.06
228.09	39.06
228.324	45.06
228.559	61.06
228.793	88.06
229.027	155.06
229.262	163.06
229.496	162.06
229.73	166.06
229.964	165.06
230.199	184.06
230.433	193.06
230.667	203.06
230.901	199.06
231.136	187.06
231.37	186.06
231.604	193.06
231.838	200.06
232.072	205.06
232.306	214.06
232.541	196.06
232.775	216.06
233.009	197.06
233.243	194.06
233.477	210.06
233.711	204.06
233.945	220.06
234.179	213.06
234.413	218.06
234.647	228.06
234.881	213.06
235.115	221.06
235.349	235.06
235.583	232.06
235.817	229.06
236.051	240.06
236.285	243.06
236.519	250.06
236.753	230.06
236.987	241.06
237.221	240.06
237.455	243.06
237.689	244.06
237.922	234.06
238.156	262.06
238.39	265.06
238.624	254.06
238.858	248.06
239.091	276.06
239.325	266.06
239.559	272.06
239.793	280.06
240.027	297.06
240.26	275.06
240.494	285.06
240.728	283.06
240.961	289.06
241.195	270.06
241.429	288.06
241.662	292.06
241.896	321.06
242.13	312.06
242.363	310.06
242.597	315.06
242.83	315.06
243.064	303.06
243.298	318.06
243.531	332.06
243.765	316.06
243.998	326.06
244.232	338.06
244.465	330.06
244.699	345.06
244.932	366.06
245.166	355.06
245.399	356.06
245.633	351.06
245.866	374.06
246.099	371.06
246.333	358.06
246.566	363.06
246.8	360.06
247.033	380.06
247.266	366.06
247.5	369.06
247.733	388.06
247.966	400.06
248.2	402.06
248.433	419.06
248.666	389.06
248.899	399.06
249.133	385.06
249.366	410.06
249.599	418.06
249.832	410.06
250.066	399.06
250.299	410.06
250.532	414.06
250.765	420.06
250.998	429.06
251.231	460.06
251.465	454.06
251.698	437.06
251.931	445.06
252.164	439.06
252.397	455.06
252.63	445.06
252.863	476.06
253.096	461.06
253.329	456.06
253.562	430.06
253.795	468.06
254.028	475.06
254.261	462.06
254.494	475.06
254.727	466.06
254.96	489.06
255.193	486.06
255.426	485.06
255.659	477.06
255.892	493.06
256.124	481.06
256.357	477.06
256.59	505.06
256.823	498.06
257.056	469.06
257.289	512.06
257.521	523.06
257.754	512.06
257.987	526.06
258.22	517.06
258.452	521.06
258.685	547.06
258.918	512.06
259.151	523.06
259.383	530.06
259.616	540.06
259.849	526.06
260.081	538.06
260.314	562.06
260.547	536.06
260.779	554.06
261.012	560.06
261.244	565.06
261.477	540.06
261.71	579.06
261.942	572.06
262.175	566.06
262.407	596.06
262.64	556.06
262.872	588.06
263.105	574.06
263.337	571.06
263.57	565.06
263.802	592.06
264.035	557.06
264.267	575.06
264.499	604.06
264.732	614.06
264.964	592.06
265.197	606.06
265.429	588.06
265.661	593.06
265.894	602.06
266.126	594.06
266.358	634.06
266.591	650.06
266.823	625.06
267.055	606.06
267.287	589.06
267.52	645.06
267.752	625.06
267.984	632.06
268.216	656.06
268.448	632.06
268.681	649.06
268.913	654.06
269.145	669.06
269.377	663.06
269.609	668.06
269.841	657.06
270.073	671.06
270.306	662.06
270.538	660.06
270.77	672.06
271.002	673.06
271.234	667.06
271.466	678.06
271.698	692.06
271.93	682.06
272.162	692.06
272.394	699.06
272.626	684.06
272.858	690.06
273.09	718.06
273.322	723.06
273.553	714.06
273.785	716.06
274.017	712.06
274.249	738.06
274.481	744.06
274.713	722.06
274.945	730.06
275.176	733.06
275.408	736.06
275.64	733.06
275.872	734.06
276.104	739.06
276.335	769.06
276.567	772.06
276.799	753.06
277.031	772.06
277.262	741.06
277.494	761.06
277.726	774.06
277.957	779.06
278.189	787.06
278.421	787.06
278.652	800.06
278.884	787.06
279.115	796.06
279.347	791.06
279.579	788.06
279.81	816.06
280.042	802.06
280.273	806.06
280.505	821.06
280.736	813.06
280.968	778.06
281.199	816.06
281.431	831.06
281.662	842.06
281.894	842.06
282.125	820.06
282.356	837.06
282.588	829.06
282.819	852.06
283.051	823.06
283.282	838.06
283.513	845.06
283.745	856.06
283.976	869.06
284.207	856.06
284.439	869.06
284.67	884.06
284.901	898.06
285.132	857.06
285.364	874.06
285.595	880.06
285.826	878.06
286.057	885.06
286.288	870.06
286.52	885.06
286.751	877.06
286.982	908.06
287.213	900.06
287.444	914.06
287.675	903.06
287.906	900.06
288.138	921.06
288.369	916.06
288.6	926.06
288.831	893.06
289.062	906.06
289.293	902.06
289.524	915.06
289.755	919.06
289.986	908.06
290.217	962.06
290.448	911.06
290.679	933.06
290.91	903.06
291.141	927.06
291.371	938.06
291.602	928.06
291.833	917.06
292.064	944.06
292.295	935.06
292.526	956.06
292.757	953.06
292.987	950.06
293.218	951.06
293.449	925.06
293.68	956.06
293.91	940.06
294.141	928.06
294.372	944.06
294.603	962.06
294.833	949.06
295.064	968.06
295.295	956.06
295.525	956.06
295.756	976.06
295.987	965.06
296.217	973.06
296.448	958.06
296.679	981.06
296.909	984.06
297.14	982.06
297.37	991.06
297.601	1005.06
297.831	1018.06
298.062	1034.06
298.292	1027.06
298.523	1025.06
298.753	1053.06
298.984	1026.06
299.214	1028.06
299.445	1000.06
299.675	1006.06
299.905	1037.06
300.136	1000.06
300.366	1024.06
300.597	1029.06
300.827	1048.06
301.057	1055.06
301.288	1088.06
301.518	1063.06
301.748	1061.06
301.979	1108.06
302.209	1083.06
302.439	1076.06
302.669	1090.06
302.9	1058.06
303.13	1050.06
303.36	1086.06
303.59	1070.06
303.82	1090.06
304.051	1087.06
304.281	1072.06
304.511	1078.06
304.741	1106.06
304.971	1074.06
305.201	1093.06
305.431	1072.06
305.661	1058.06
305.891	1076.06
306.121	1065.06
306.352	1078.06
306.582	1067.06
306.812	1072.06
307.042	1086.06
307.272	1036.06
307.502	1049.06
307.731	1048.06
307.961	1072.06
308.191	1036.06
308.421	1076.06
308.651	1077.06
308.881	1062.06
309.111	1076.06
309.341	1063.06
309.571	1072.06
309.8	1090.06
310.03	1109.06
310.26	1086.06
310.49	1059.06
310.72	1072.06
310.949	1090.06
311.179	1058.06
311.409	1076.06
311.639	1085.06
311.868	1075.06
312.098	1092.06
312.328	1109.06
312.557	1138.06
312.787	1114.06
313.017	1109.06
313.246	1131.06
313.476	1156.06
313.706	1146.06
313.935	1136.06
314.165	1175.06
314.394	1144.06
314.624	1162.06
314.853	1128.06
315.083	1158.06
315.312	1159.06
315.542	1133.06
315.771	1124.06
316.001	1148.06
316.23	1136.06
316.46	1138.06
316.689	1130.06
316.919	1152.06
317.148	1154.06
317.377	1145.06
317.607	1124.06
317.836	1134.06
318.065	1146.06
318.295	1134.06
318.524	1148.06
318.753	1133.06
318.983	1156.06
319.212	1127.06
319.441	1155.06
319.67	1146.06
319.9	1140.06
320.129	1128.06
320.358	1130.06
320.587	1125.06
320.816	1148.06
321.046	1114.06
321.275	1138.06
321.504	1150.06
321.733	1149.06
321.962	1162.06
322.191	1124.06
322.42	1162.06
322.649	1152.06
322.878	1148.06
323.108	1172.06
323.337	1168.06
323.566	1171.06
323.795	1163.06
324.024	1169.06
324.253	1160.06
324.482	1186.06
324.71	1156.06
324.939	1200.06
325.168	1218.06
325.397	1184.06
325.626	1212.06
325.855	1234.06
326.084	1222.06
326.313	1236.06
326.542	1236.06
326.77	1270.06
326.999	1194.06
327.228	1244.06
327.457	1269.06
327.686	1248.06
327.914	1230.06
328.143	1233.06
328.372	1232.06
328.6	1234.06
328.829	1251.06
329.058	1253.06
329.287	1258.06
329.515	1244.06
329.744	1259.06
329.972	1298.06
330.201	1267.06
330.43	1286.06
330.658	1281.06
330.887	1288.06
331.115	1306.06
331.344	1316.06
331.572	1302.06
331.801	1323.06
332.03	1336.06
332.258	1328.06
332.486	1396.06
332.715	1436.06
332.943	1466.06
333.172	1479.06
333.4	1621.06
333.629	1606.06
333.857	1573.06
334.085	1599.06
334.314	1600.06
334.542	1587.06
334.771	1572.06
334.999	1565.06
335.227	1541.06
335.455	1510.06
335.684	1565.06
335.912	1511.06
336.14	1512.06
336.369	1481.06
336.597	1508.06
336.825	1488.06
337.053	1477.06
337.281	1501.06
337.51	1422.06
337.738	1446.06
337.966	1402.06
338.194	1393.06
338.422	1401.06
338.65	1394.06
338.878	1392.06
339.106	1341.06
339.334	1338.06
339.562	1333.06
339.79	1332.06
340.018	1355.06
340.246	1322.06
340.474	1319.06
340.702	1332.06
340.93	1332.06
341.158	1343.06
341.386	1322.06
341.614	1316.06
341.842	1333.06
342.07	1300.06
342.298	1294.06
342.526	1302.06
342.754	1297.06
342.981	1284.06
343.209	1352.06
343.437	1402.06
343.665	1461.06
343.893	1513.06
344.12	1563.06
344.348	1528.06
344.576	1445.06
344.804	1456.06
345.031	1370.06
345.259	1366.06
345.487	1308.06
345.714	1316.06
345.942	1312.06
346.17	1289.06
346.397	1272.06
346.625	1246.06
346.853	1242.06
347.08	1254.06
347.308	1213.06
347.535	1232.06
347.763	1269.06
347.99	1261.06
348.218	1246.06
348.445	1251.06
348.673	1265.06
348.9	1261.06
349.128	1254.06
349.355	1227.06
349.583	1266.06
349.81	1215.06
350.037	1224.06
350.265	1209.06
350.492	1210.06
350.72	1207.06
350.947	1228.06
351.174	1243.06
351.402	1206.06
351.629	1198.06
351.856	1207.06
352.083	1225.06
352.311	1214.06
352.538	1177.06
352.765	1204.06
352.992	1174.06
353.22	1191.06
353.447	1181.06
353.674	1215.06
353.901	1222.06
354.128	1187.06
354.355	1202.06
354.583	1193.06
354.81	1210.06
355.037	1210.06
355.264	1232.06
355.491	1219.06
355.718	1193.06
355.945	1194.06
356.172	1228.06
356.399	1242.06
356.626	1230.06
356.853	1243.06
357.08	1213.06
357.307	1233.06
357.534	1209.06
357.761	1229.06
357.988	1221.06
358.215	1194.06
358.441	1237.06
358.668	1222.06
358.895	1216.06
359.122	1216.06
359.349	1221.06
359.576	1213.06
359.802	1236.06
360.029	1179.06
360.256	1216.06
360.483	1240.06
360.709	1204.06
360.936	1196.06
361.163	1200.06
361.39	1217.06
361.616	1213.06
361.843	1232.06
362.07	1206.06
362.296	1242.06
362.523	1164.06
362.749	1212.06
362.976	1193.06
363.203	1231.06
363.429	1212.06
363.656	1204.06
363.882	1209.06
364.109	1197.06
364.335	1203.06
364.562	1175.06
364.788	1181.06
365.015	1205.06
365.241	1182.06
365.468	1173.06
365.694	1205.06
365.92	1217.06
366.147	1208.06
366.373	1241.06
366.599	1206.06
366.826	1220.06
367.052	1229.06
367.278	1255.06
367.505	1189.06
367.731	1224.06
367.957	1205.06
368.184	1208.06
368.41	1237.06
368.636	1243.06
368.862	1238.06
369.089	1265.06
369.315	1288.06
369.541	1267.06
369.767	1248.06
369.993	1278.06
370.219	1296.06
370.445	1308.06
370.672	1321.06
370.898	1275.06
371.124	1277.06
371.35	1310.06
371.576	1343.06
371.802	1308.06
372.028	1313.06
372.254	1311.06
372.48	1310.06
372.706	1377.06
372.932	1380.06
373.158	1388.06
373.384	1313.06
373.61	1324.06
373.835	1340.06
374.061	1355.06
374.287	1336.06
374.513	1363.06
374.739	1365.06
374.965	1451.06
375.191	1464.06
375.416	1462.06
375.642	1373.06
375.868	1344.06
376.094	1375.06
376.319	1333.06
376.545	1325.06
376.771	1316.06
376.997	1294.06
377.222	1310.06
377.448	1341.06
377.674	1305.06
377.899	1339.06
378.125	1308.06
378.35	1307.06
378.576	1297.06
378.802	1305.06
379.027	1306.06
379.253	1316.06
379.478	1303.06
379.704	1281.06
379.929	1293.06
380.155	1282.06
380.38	1297.06
380.606	1338.06
380.831	1309.06
381.057	1330.06
381.282	1343.06
381.507	1318.06
381.733	1309.06
381.958	1321.06
382.184	1364.06
382.409	1349.06
382.634	1396.06
382.86	1350.06
383.085	1402.06
383.31	1389.06
383.535	1404.06
383.761	1452.06
383.986	1418.06
384.211	1480.06
384.436	1519.06
384.662	1487.06
384.887	1481.06
385.112	1520.06
385.337	1560.06
385.562	1517.06
385.787	1563.06
386.013	1563.06
386.238	1608.06
386.463	1580.06
386.688	1598.06
386.913	1595.06
387.138	1577.06
387.363	1594.06
387.588	1572.06
387.813	1580.06
388.038	1542.06
388.263	1580.06
388.488	1591.06
388.713	1560.06
388.938	1549.06
389.163	1538.06
389.387	1566.06
389.612	1543.06
389.837	1545.06
390.062	1563.06
390.287	1555.06
390.512	1564.06
390.736	1600.06
390.961	1600.06
391.186	1620.06
391.411	1627.06
391.636	1694.06
391.86	1720.06
392.085	1750.06
392.31	1794.06
392.534	1718.06
392.759	1719.06
392.984	1716.06
393.208	1643.06
393.433	1700.06
393.658	1726.06
393.882	1650.06
394.107	1669.06
394.331	1655.06
394.556	1653.06
394.78	1688.06
395.005	1661.06
395.229	1703.06
395.454	1716.06
395.678	1795.06
395.903	1748.06
396.127	1735.06
396.352	1710.06
396.576	1667.06
396.801	1669.06
397.025	1751.06
397.249	1769.06
397.474	1778.06
397.698	1768.06
397.922	1800.06
398.147	1771.06
398.371	1797.06
398.595	1863.06
398.82	1933.06
399.044	2069.06
399.268	2215.06
399.492	2442.06
399.717	2682.06
399.941	2695.06
400.165	2461.06
400.389	2250.06
400.613	2184.06
400.837	2087.06
401.062	2028.06
401.286	1982.06
401.51	1962.06
401.734	1936.06
401.958	1956.06
402.182	2012.06
402.406	2013.06
402.63	2037.06
402.854	2024.06
403.078	2044.06
403.302	2090.06
403.526	2086.06
403.75	2117.06
403.974	2130.06
404.198	2140.06
404.422	2150.06
404.645	2141.06
404.869	2123.06
405.093	2109.06
405.317	2121.06
405.541	2123.06
405.765	2091.06
405.988	2088.06
406.212	2145.06
406.436	2124.06
406.66	2164.06
406.883	2199.06
407.107	2327.06
407.331	2367.06
407.555	2484.06
407.778	2495.06
408.002	2385.06
408.226	2372.06
408.449	2299.06
408.673	2285.06
408.896	2196.06
409.12	2182.06
409.344	2185.06
409.567	2122.06
409.791	2170.06
410.014	2160.06
410.238	2113.06
410.461	2157.06
410.685	2092.06
410.908	2089.06
411.132	2092.06
411.355	2021.06
411.578	2024.06
411.802	2021.06
412.025	2022.06
412.249	2055.06
412.472	2040.06
412.695	2053.06
412.919	1954.06
413.142	1971.06
413.365	1940.06
413.589	1994.06
413.812	1977.06
414.035	1914.06
414.258	1958.06
414.482	1955.06
414.705	1960.06
414.928	2018.06
415.151	1986.06
415.374	1901.06
415.597	1918.06
415.821	1884.06
416.044	1848.06
416.267	1893.06
416.49	1870.06
416.713	1893.06
416.936	1827.06
417.159	1877.06
417.382	1876.06
417.605	1832.06
417.828	1875.06
418.051	1894.06
418.274	1852.06
418.497	1854.06
418.72	1920.06
418.943	1897.06
419.166	2052.06
419.389	2182.06
419.611	2142.06
419.834	2071.06
420.057	1938.06
420.28	1897.06
420.503	1871.06
420.726	1867.06
420.948	1860.06
421.171	1914.06
421.394	1869.06
421.617	1894.06
421.839	1923.06
422.062	1862.06
422.285	1894.06
422.507	1938.06
422.73	1884.06
422.953	1922.06
423.175	1912.06
423.398	1934.06
423.621	1874.06
423.843	1918.06
424.066	1958.06
424.288	1892.06
424.511	1941.06
424.733	1908.06
424.956	1863.06
425.178	1916.06
425.401	1857.06
425.623	1863.06
425.846	1836.06
426.068	1852.06
426.291	1791.06
426.513	1813.06
426.735	1753.06
426.958	1814.06
427.18	1730.06
427.402	1786.06
427.625	1792.06
427.847	1741.06
428.069	1711.06
428.292	1698.06
428.514	1699.06
428.736	1696.06
428.958	1744.06
429.181	1709.06
429.403	1642.06
429.625	1662.06
429.847	1682.06
430.069	1681.06
430.292	1712.06
430.514	1656.06
430.736	1720.06
430.958	1681.06
431.18	1719.06
431.402	1696.06
431.624	1696.06
431.846	1731.06
432.068	1732.06
432.29	1725.06
432.512	1723.06
432.734	1744.06
432.956	1726.06
433.178	1735.06
433.4	1726.06
433.622	1758.06
433.844	1760.06
434.066	1799.06
434.287	1796.06
434.509	1820.06
434.731	1846.06
434.953	1892.06
435.175	1890.06
435.397	1876.06
435.618	1807.06
435.84	1768.06
436.062	1735.06
436.284	1731.06
436.505	1698.06
436.727	1690.06
436.949	1685.06
437.17	1695.06
437.392	1690.06
437.614	1666.06
437.835	1629.06
438.057	1618.06
438.278	1651.06
438.5	1631.06
438.721	1613.06
438.943	1614.06
439.165	1632.06
439.386	1643.06
439.608	1661.06
439.829	1654.06
440.05	1657.06
440.272	1670.06
440.493	1685.06
440.715	1693.06
440.936	1748.06
441.158	1752.06
441.379	1782.06
441.6	1885.06
441.822	1878.06
442.043	1862.06
442.264	1814.06
442.486	1771.06
442.707	1860.06
442.928	1839.06
443.149	1807.06
443.371	1826.06
443.592	1806.06
443.813	1865.06
444.034	1829.06
444.255	1887.06
444.476	1954.06
444.698	2098.06
444.919	2125.06
445.14	2177.06
445.361	2050.06
445.582	1933.06
445.803	1790.06
446.024	1768.06
446.245	1778.06
446.466	1750.06
446.687	1694.06
446.908	1672.06
447.129	1664.06
447.35	1587.06
447.571	1615.06
447.792	1576.06
448.013	1582.06
448.234	1584.06
448.455	1589.06
448.675	1550.06
448.896	1540.06
449.117	1552.06
449.338	1579.06
449.559	1525.06
449.779	1526.06
450	1506.06
450.221	1510.06
450.442	1518.06
450.662	1513.06
450.883	1534.06
451.104	1586.06
451.324	1515.06
451.545	1517.06
451.766	1535.06
451.986	1492.06
452.207	1514.06
452.428	1532.06
452.648	1521.06
452.869	1462.06
453.089	1449.06
453.31	1493.06
453.53	1443.06
453.751	1436.06
453.971	1453.06
454.192	1452.06
454.412	1437.06
454.633	1445.06
454.853	1438.06
455.073	1435.06
455.294	1442.06
455.514	1401.06
455.734	1417.06
455.955	1446.06
456.175	1438.06
456.395	1412.06
456.616	1427.06
456.836	1437.06
457.056	1406.06
457.276	1417.06
457.497	1442.06
457.717	1437.06
457.937	1442.06
458.157	1495.06
458.377	1482.06
458.598	1529.06
458.818	1548.06
459.038	1615.06
459.258	1616.06
459.478	1656.06
459.698	1693.06
459.918	1766.06
460.138	1810.06
460.358	1887.06
460.578	1937.06
460.798	1939.06
461.018	1973.06
461.238	1961.06
461.458	1928.06
461.678	1918.06
461.898	1960.06
462.118	1937.06
462.338	2017.06
462.558	2067.06
462.777	2178.06
462.997	2311.06
463.217	2443.06
463.437	2434.06
463.657	2297.06
463.876	2256.06
464.096	2221.06
464.316	2228.06
464.536	2176.06
464.755	2156.06
464.975	2014.06
465.195	1960.06
465.414	1875.06
465.634	1796.06
465.854	1773.06
466.073	1717.06
466.293	1691.06
466.512	1661.06
466.732	1644.06
466.951	1615.06
467.171	1619.06
467.391	1592.06
467.61	1594.06
467.829	1574.06
468.049	1560.06
468.268	1536.06
468.488	1562.06
468.707	1562.06
468.927	1550.06
469.146	1542.06
469.365	1532.06
469.585	1552.06
469.804	1578.06
470.023	1617.06
470.243	1626.06
470.462	1638.06
470.681	1633.06
470.901	1668.06
471.12	1641.06
471.339	1596.06
471.558	1568.06
471.777	1556.06
471.997	1555.06
472.216	1578.06
472.435	1559.06
472.654	1561.06
472.873	1531.06
473.092	1512.06
473.311	1524.06
473.53	1520.06
473.749	1520.06
473.968	1534.06
474.187	1524.06
474.406	1489.06
474.625	1557.06
474.844	1536.06
475.063	1517.06
475.282	1592.06
475.501	1565.06
475.72	1594.06
475.939	1569.06
476.158	1581.06
476.377	1624.06
476.596	1605.06
476.814	1608.06
477.033	1626.06
477.252	1674.06
477.471	1696.06
477.69	1725.06
477.908	1751.06
478.127	1768.06
478.346	1810.06
478.564	1832.06
478.783	1844.06
479.002	1922.06
479.22	1909.06
479.439	1931.06
479.658	1912.06
479.876	1906.06
480.095	1981.06
480.313	1988.06
480.532	2052.06
480.751	2089.06
480.969	1984.06
481.188	1949.06
481.406	1898.06
481.624	1873.06
481.843	1845.06
482.061	1842.06
482.28	1840.06
482.498	1834.06
482.717	1792.06
482.935	1859.06
483.153	1859.06
483.372	1845.06
483.59	1878.06
483.808	1895.06
484.027	1888.06
484.245	1926.06
484.463	1885.06
484.681	1941.06
484.9	1906.06
485.118	1973.06
485.336	1996.06
485.554	1990.06
485.772	1997.06
485.99	1982.06
486.209	1998.06
486.427	2003.06
486.645	1960.06
486.863	1969.06
487.081	1945.06
487.299	1952.06
487.517	1922.06
487.735	1963.06
487.953	2010.06
488.171	1954.06
488.389	1976.06
488.607	1928.06
488.825	1926.06
489.043	1938.06
489.261	1910.06
489.479	1906.06
489.696	1944.06
489.914	1920.06
490.132	1916.06
490.35	1932.06
490.568	1911.06
490.786	1949.06
491.003	1887.06
491.221	1911.06
491.439	1954.06
491.657	1910.06
491.874	1952.06
492.092	1936.06
492.31	1925.06
492.527	1932.06
492.745	1910.06
492.963	1897.06
493.18	1945.06
493.398	1957.06
493.615	1978.06
493.833	1957.06
494.05	1931.06
494.268	1969.06
494.485	1955.06
494.703	2008.06
494.92	1957.06
495.138	1966.06
495.355	1917.06
495.573	1980.06
495.79	1970.06
496.008	2012.06
496.225	2032.06
496.442	2068.06
496.66	2046.06
496.877	2059.06
497.094	2037.06
497.312	2171.06
497.529	2182.06
497.746	2234.06
497.963	2290.06
498.181	2428.06
498.398	2474.06
498.615	2568.06
498.832	2730.06
499.049	2910.06
499.267	3155.06
499.484	3378.06
499.701	3664.06
499.918	4003.06
500.135	4344.06
500.352	4722.06
500.569	4856.06
500.786	4886.06
501.003	4673.06
501.22	4291.06
501.437	3921.06
501.654	3531.06
501.871	3239.06
502.088	2994.06
502.305	2891.06
502.522	2696.06
502.739	2667.06
502.956	2516.06
503.172	2405.06
503.389	2312.06
503.606	2248.06
503.823	2224.06
504.04	2184.06
504.256	2196.06
504.473	2231.06
504.69	2248.06
504.907	2187.06
505.123	2107.06
505.34	2025.06
505.557	1929.06
505.773	1865.06
505.99	1846.06
506.207	1802.06
506.423	1767.06
506.64	1727.06
506.856	1715.06
507.073	1696.06
507.289	1660.06
507.506	1670.06
507.722	1702.06
507.939	1666.06
508.155	1627.06
508.372	1654.06
508.588	1613.06
508.805	1614.06
509.021	1641.06
509.238	1618.06
509.454	1619.06
509.67	1597.06
509.887	1555.06
510.103	1572.06
510.319	1569.06
510.536	1528.06
510.752	1524.06
510.968	1511.06
511.184	1546.06
511.401	1503.06
511.617	1485.06
511.833	1509.06
512.049	1506.06
512.265	1569.06
512.481	1518.06
512.698	1514.06
512.914	1552.06
513.13	1515.06
513.346	1526.06
513.562	1519.06
513.778	1539.06
513.994	1540.06
514.21	1549.06
514.426	1527.06
514.642	1555.06
514.858	1590.06
515.074	1594.06
515.29	1621.06
515.506	1622.06
515.721	1583.06
515.937	1672.06
516.153	1658.06
516.369	1700.06
516.585	1719.06
516.801	1782.06
517.016	1844.06
517.232	1884.06
517.448	1935.06
517.664	1991.06
517.879	2032.06
518.095	2009.06
518.311	1956.06
518.527	1897.06
518.742	1876.06
518.958	1820.06
519.173	1753.06
519.389	1746.06
519.605	1654.06
519.82	1637.06
520.036	1618.06
520.251	1570.06
520.467	1576.06
520.682	1524.06
520.898	1533.06
521.113	1490.06
521.329	1525.06
521.544	1452.06
521.76	1477.06
521.975	1479.06
522.19	1470.06
522.406	1422.06
522.621	1421.06
522.836	1422.06
523.052	1419.06
523.267	1408.06
523.482	1401.06
523.698	1411.06
523.913	1408.06
524.128	1424.06
524.343	1432.06
524.559	1376.06
524.774	1373.06
524.989	1402.06
525.204	1379.06
525.419	1342.06
525.634	1352.06
525.849	1368.06
526.064	1380.06
526.28	1334.06
526.495	1364.06
526.71	1343.06
526.925	1355.06
527.14	1327.06
527.355	1331.06
527.57	1354.06
527.785	1366.06
527.999	1348.06
528.214	1354.06
528.429	1317.06
528.644	1363.06
528.859	1380.06
529.074	1315.06
529.289	1335.06
529.503	1346.06
529.718	1344.06
529.933	1362.06
530.148	1341.06
530.363	1354.06
530.577	1338.06
530.792	1299.06
531.007	1334.06
531.221	1358.06
531.436	1326.06
531.651	1353.06
531.865	1323.06
532.08	1339.06
532.295	1336.06
532.509	1302.06
532.724	1328.06
532.938	1336.06
533.153	1331.06
533.367	1339.06
533.582	1338.06
533.796	1344.06
534.011	1345.06
534.225	1314.06
534.44	1289.06
534.654	1314.06
534.868	1301.06
535.083	1282.06
535.297	1275.06
535.511	1286.06
535.726	1266.06
535.94	1273.06
536.154	1242.06
536.369	1288.06
536.583	1276.06
536.797	1214.06
537.011	1224.06
537.225	1241.06
537.44	1275.06
537.654	1227.06
537.868	1269.06
538.082	1257.06
538.296	1223.06
538.51	1205.06
538.724	1216.06
538.938	1228.06
539.153	1191.06
539.367	1209.06
539.581	1182.06
539.795	1182.06
540.009	1182.06
540.222	1192.06
540.436	1168.06
540.65	1195.06
540.864	1167.06
541.078	1150.06
541.292	1197.06
541.506	1188.06
541.72	1165.06
541.934	1201.06
542.147	1172.06
542.361	1173.06
542.575	1161.06
542.789	1160.06
543.002	1166.06
543.216	1162.06
543.43	1172.06
543.644	1166.06
543.857	1174.06
544.071	1188.06
544.285	1164.06
544.498	1160.06
544.712	1174.06
544.925	1206.06
545.139	1189.06
545.352	1202.06
545.566	1145.06
545.779	1201.06
545.993	1209.06
546.206	1227.06
546.42	1170.06
546.633	1195.06
546.847	1186.06
547.06	1208.06
547.274	1149.06
547.487	1165.06
547.7	1191.06
547.914	1206.06
548.127	1210.06
548.34	1195.06
548.554	1168.06
548.767	1190.06
548.98	1195.06
549.193	1206.06
549.407	1214.06
549.62	1222.06
549.833	1222.06
550.046	1228.06
550.259	1227.06
550.473	1186.06
550.686	1155.06
550.899	1139.06
551.112	1167.06
551.325	1174.06
551.538	1202.06
551.751	1188.06
551.964	1181.06
552.177	1192.06
552.39	1199.06
552.603	1189.06
552.816	1258.06
553.029	1282.06
553.242	1270.06
553.455	1253.06
553.667	1310.06
553.88	1253.06
554.093	1212.06
554.306	1189.06
554.519	1181.06
554.732	1180.06
554.944	1154.06
555.157	1139.06
555.37	1152.06
555.583	1110.06
555.795	1095.06
556.008	1104.06
556.221	1095.06
556.433	1050.06
556.646	1041.06
556.859	1076.06
557.071	1056.06
557.284	1014.06
557.496	1009.06
557.709	1008.06
557.921	1033.06
558.134	1026.06
558.346	1011.06
558.559	1008.06
558.771	996.06
558.984	986.06
559.196	1008.06
559.409	988.06
559.621	972.06
559.833	1013.06
560.046	996.06
560.258	970.06
560.47	1022.06
560.683	979.06
560.895	986.06
561.107	978.06
561.32	963.06
561.532	980.06
561.744	981.06
561.956	983.06
562.168	970.06
562.381	965.06
562.593	1011.06
562.805	989.06
563.017	982.06
563.229	1012.06
563.441	952.06
563.653	994.06
563.865	1013.06
564.077	1001.06
564.289	1022.06
564.501	1034.06
564.713	1066.06
564.925	1064.06
565.137	1074.06
565.349	1095.06
565.561	1138.06
565.773	1178.06
565.985	1251.06
566.197	1270.06
566.408	1340.06
566.62	1428.06
566.832	1494.06
567.044	1525.06
567.255	1550.06
567.467	1597.06
567.679	1637.06
567.891	1699.06
568.102	1717.06
568.314	1666.06
568.526	1543.06
568.737	1415.06
568.949	1305.06
569.161	1245.06
569.372	1171.06
569.584	1125.06
569.795	1098.06
570.007	1028.06
570.218	1024.06
570.43	998.06
570.641	1004.06
570.853	994.06
571.064	1002.06
571.276	986.06
571.487	982.06
571.698	955.06
571.91	898.06
572.121	922.06
572.333	903.06
572.544	872.06
572.755	856.06
572.966	876.06
573.178	842.06
573.389	824.06
573.6	814.06
573.811	808.06
574.023	819.06
574.234	828.06
574.445	813.06
574.656	834.06
574.867	786.06
575.078	778.06
575.289	802.06
575.501	777.06
575.712	764.06
575.923	763.06
576.134	770.06
576.345	753.06
576.556	772.06
576.767	738.06
576.978	751.06
577.188	743.06
577.399	783.06
577.61	725.06
577.821	733.06
578.032	725.06
578.243	723.06
578.454	732.06
578.665	731.06
578.875	692.06
579.086	692.06
579.297	706.06
579.508	700.06
579.718	697.06
579.929	730.06
580.14	705.06
580.35	707.06
580.561	677.06
580.772	675.06
580.982	678.06
581.193	674.06
581.403	672.06
581.614	676.06
581.825	667.06
582.035	663.06
582.246	677.06
582.456	656.06
582.667	676.06
582.877	661.06
583.087	646.06
583.298	675.06
583.508	656.06
583.719	664.06
583.929	654.06
584.139	657.06
584.35	648.06
584.56	662.06
584.77	646.06
584.981	628.06
585.191	663.06
585.401	639.06
585.611	642.06
585.821	629.06
586.032	649.06
586.242	620.06
586.452	653.06
586.662	621.06
586.872	655.06
587.082	636.06
587.292	638.06
587.502	632.06
587.713	626.06
587.923	621.06
588.133	624.06
588.343	613.06
588.553	634.06
588.762	629.06
588.972	644.06
589.182	652.06
589.392	642.06
589.602	636.06
589.812	654.06
590.022	666.06
590.232	642.06
590.441	634.06
590.651	643.06
590.861	618.06
591.071	646.06
591.281	653.06
591.49	658.06
591.7	666.06
591.91	662.06
592.119	688.06
592.329	696.06
592.539	684.06
592.748	714.06
592.958	736.06
593.167	760.06
593.377	768.06
593.587	773.06
593.796	783.06
594.006	786.06
594.215	770.06
594.424	778.06
594.634	754.06
594.843	758.06
595.053	713.06
595.262	694.06
595.472	677.06
595.681	654.06
595.89	648.06
596.1	617.06
596.309	600.06
596.518	627.06
596.727	591.06
596.937	618.06
597.146	593.06
597.355	561.06
597.564	578.06
597.774	576.06
597.983	553.06
598.192	586.06
598.401	567.06
598.61	540.06
598.819	543.06
599.028	557.06
599.237	545.06
599.446	555.06
599.655	517.06
599.864	537.06
600.073	515.06
600.282	513.06
600.491	539.06
600.7	553.06
600.909	517.06
601.118	506.06
601.327	523.06
601.536	501.06
601.745	520.06
601.953	525.06
602.162	520.06
602.371	503.06
602.58	506.06
602.789	512.06
602.997	484.06
603.206	490.06
603.415	490.06
603.623	508.06
603.832	489.06
604.041	496.06
604.249	480.06
604.458	495.06
604.666	470.06
604.875	467.06
605.084	475.06
605.292	507.06
605.501	490.06
605.709	480.06
605.918	469.06
606.126	476.06
606.334	472.06
606.543	475.06
606.751	466.06
606.96	469.06
607.168	457.06
607.376	460.06
607.585	472.06
607.793	485.06
608.001	479.06
608.21	469.06
608.418	453.06
608.626	476.06
608.834	483.06
609.043	453.06
609.251	467.06
609.459	453.06
609.667	469.06
609.875	450.06
610.083	478.06
610.291	454.06
610.499	466.06
610.707	467.06
610.916	461.06
611.124	465.06
611.332	470.06
611.54	444.06
611.748	438.06
611.955	453.06
612.163	441.06
612.371	449.06
612.579	461.06
612.787	445.06
612.995	452.06
613.203	452.06
613.411	445.06
613.618	417.06
613.826	412.06
614.034	427.06
614.242	438.06
614.449	440.06
614.657	454.06
614.865	434.06
615.072	446.06
615.28	453.06
615.488	444.06
615.695	438.06
615.903	443.06
616.111	456.06
616.318	451.06
616.526	433.06
616.733	432.06
616.941	442.06
617.148	437.06
617.356	445.06
617.563	442.06
617.771	423.06
617.978	440.06
618.185	436.06
618.393	448.06
618.6	432.06
618.807	420.06
619.015	456.06
619.222	421.06
619.429	436.06
619.637	422.06
619.844	401.06
620.051	400.06
620.258	413.06
620.466	414.06
620.673	392.06
620.88	416.06
621.087	398.06
621.294	393.06
621.501	404.06
621.708	417.06
621.915	404.06
622.122	395.06
622.329	387.06
622.536	401.06
622.743	392.06
622.95	394.06
623.157	388.06
623.364	398.06
623.571	407.06
623.778	392.06
623.985	386.06
624.192	389.06
624.399	386.06
624.606	370.06
624.812	362.06
625.019	366.06
625.226	380.06
625.433	372.06
625.639	369.06
625.846	370.06
626.053	386.06
626.259	380.06
626.466	370.06
626.673	380.06
626.879	356.06
627.086	378.06
627.293	362.06
627.499	374.06
627.706	383.06
627.912	369.06
628.119	382.06
628.325	363.06
628.532	362.06
628.738	361.06
628.945	341.06
629.151	348.06
629.357	361.06
629.564	338.06
629.77	340.06
629.976	345.06
630.183	357.06
630.389	340.06
630.595	336.06
630.802	332.06
631.008	340.06
631.214	312.06
631.42	330.06
631.627	356.06
631.833	341.06
632.039	340.06
632.245	327.06
632.451	336.06
632.657	351.06
632.863	334.06
633.069	341.06
633.275	327.06
633.481	325.06
633.688	315.06
633.893	313.06
634.099	302.06
634.305	322.06
634.511	307.06
634.717	327.06
634.923	338.06
635.129	312.06
635.335	310.06
635.541	324.06
635.747	321.06
635.952	301.06
636.158	292.06
636.364	296.06
636.57	317.06
636.775	294.06
636.981	293.06
637.187	310.06
637.392	314.06
637.598	291.06
637.804	306.06
638.009	318.06
638.215	314.06
638.421	293.06
638.626	285.06
638.832	296.06
639.037	291.06
639.243	285.06
639.448	288.06
639.654	276.06
639.859	296.06
640.065	281.06
640.27	310.06
640.475	298.06
640.681	299.06
640.886	301.06
641.091	288.06
641.297	297.06
641.502	272.06
641.707	292.06
641.913	290.06
642.118	300.06
642.323	296.06
642.528	301.06
642.733	302.06
642.939	288.06
643.144	283.06
643.349	278.06
643.554	291.06
643.759	289.06
643.964	292.06
644.169	291.06
644.374	280.06
644.579	297.06
644.784	292.06
644.989	296.06
645.194	282.06
645.399	263.06
645.604	275.06
645.809	300.06
646.014	292.06
646.219	310.06
646.423	308.06
646.628	308.06
646.833	301.06
647.038	297.06
647.243	304.06
647.447	323.06
647.652	321.06
647.857	318.06
648.062	328.06
648.266	307.06
648.471	291.06
648.676	321.06
648.88	313.06
649.085	320.06
649.289	292.06
649.494	315.06
649.698	288.06
649.903	285.06
650.107	299.06
650.312	285.06
650.516	309.06
650.721	296.06
650.925	276.06
651.13	284.06
651.334	273.06
651.539	293.06
651.743	290.06
651.947	297.06
652.152	275.06
652.356	309.06
652.56	266.06
652.764	267.06
652.969	276.06
653.173	295.06
653.377	276.06
653.581	276.06
653.785	282.06
653.99	261.06
654.194	268.06
654.398	274.06
654.602	291.06
654.806	290.06
655.01	289.06
655.214	288.06
655.418	310.06
655.622	316.06
655.826	318.06
656.03	331.06
656.234	331.06
656.438	348.06
656.642	369.06
656.846	342.06
657.049	314.06
657.253	292.06
657.457	266.06
657.661	240.06
657.865	221.06
658.068	195.06
658.272	205.06
658.476	172.06
658.68	178.06
658.883	176.06
659.087	158.06
659.291	150.06
659.494	160.06
659.698	145.06
659.901	120.06
660.105	126.06
660.309	140.06
660.512	115.06
660.716	129.06
660.919	103.06
661.123	97.06
661.326	106.06
661.53	116.06
661.733	104.06
661.936	110.06
662.14	110.06
662.343	103.06
662.546	93.06
662.75	93.06
662.953	75.06
663.156	82.06
663.36	88.06
663.563	88.06
663.766	102.06
663.969	85.06
664.173	85.06
664.376	90.06
664.579	87.06
664.782	72.06
664.985	73.06
665.188	91.06
665.391	71.06
665.594	74.06
665.797	69.06
666	85.06
666.203	73.06
666.406	86.06
666.609	82.06
666.812	67.06
667.015	78.06
667.218	67.06
667.421	94.06
667.624	90.06
667.827	97.06
668.03	84.06
668.232	82.06
668.435	84.06
668.638	93.06
668.841	79.06
669.043	70.06
669.246	78.06
669.449	90.06
669.651	90.06
669.854	77.06
670.057	61.06
670.259	84.06
670.462	84.06
670.665	91.06
670.867	82.06
671.07	83.06
671.272	86.06
671.475	75.06
671.677	89.06
671.88	97.06
672.082	79.06
672.284	73.06
672.487	77.06
672.689	75.06
672.892	90.06
