Data from NiCl2@0.125M.TitratingCurve.Agarose3%dH2O.NegLispCup.LampEnergy10.LIBS07252019_HRD10591_18-28-13-574.txt Node
Date: Thu Jul 25 18:28:13 EDT 2019
User: cochatt
Spectrometer: HR+D1059
Trigger mode: 1
Integration Time (sec): 1.000000E-1
Scans to average: 1
Electric dark correction enabled: true
Nonlinearity correction enabled: false
Boxcar width: 0
XAxis mode: Wavelengths
Number of Pixels in Spectrum: 2048
>>>>>Begin Spectral Data<<<<<
223.165	-21.5
223.4	-21.5
223.635	-21.5
223.869	-22.5
224.104	-17.5
224.338	-13.5
224.573	-10.5
224.808	-7.5
225.042	-4.5
225.277	-9.5
225.511	7.5
225.746	7.5
225.98	10.5
226.215	15.5
226.449	10.5
226.683	13.5
226.918	27.5
227.152	14.5
227.387	41.5
227.621	42.5
227.856	44.5
228.09	40.5
228.324	57.5
228.559	61.5
228.793	70.5
229.027	120.5
229.262	126.5
229.496	130.5
229.73	120.5
229.964	127.5
230.199	130.5
230.433	148.5
230.667	149.5
230.901	147.5
231.136	144.5
231.37	147.5
231.604	150.5
231.838	158.5
232.072	152.5
232.306	147.5
232.541	155.5
232.775	141.5
233.009	147.5
233.243	164.5
233.477	168.5
233.711	155.5
233.945	157.5
234.179	168.5
234.413	164.5
234.647	165.5
234.881	164.5
235.115	179.5
235.349	172.5
235.583	167.5
235.817	154.5
236.051	158.5
236.285	171.5
236.519	162.5
236.753	174.5
236.987	171.5
237.221	198.5
237.455	171.5
237.689	197.5
237.922	177.5
238.156	182.5
238.39	174.5
238.624	192.5
238.858	183.5
239.091	195.5
239.325	204.5
239.559	182.5
239.793	221.5
240.027	209.5
240.26	187.5
240.494	195.5
240.728	202.5
240.961	216.5
241.195	199.5
241.429	202.5
241.662	217.5
241.896	233.5
242.13	204.5
242.363	213.5
242.597	225.5
242.83	220.5
243.064	215.5
243.298	233.5
243.531	228.5
243.765	233.5
243.998	236.5
244.232	234.5
244.465	242.5
244.699	233.5
244.932	241.5
245.166	257.5
245.399	244.5
245.633	252.5
245.866	275.5
246.099	241.5
246.333	257.5
246.566	249.5
246.8	240.5
247.033	264.5
247.266	245.5
247.5	277.5
247.733	270.5
247.966	256.5
248.2	268.5
248.433	282.5
248.666	278.5
248.899	282.5
249.133	269.5
249.366	263.5
249.599	290.5
249.832	287.5
250.066	306.5
250.299	276.5
250.532	293.5
250.765	271.5
250.998	290.5
251.231	298.5
251.465	310.5
251.698	295.5
251.931	301.5
252.164	315.5
252.397	300.5
252.63	306.5
252.863	329.5
253.096	321.5
253.329	317.5
253.562	313.5
253.795	325.5
254.028	327.5
254.261	319.5
254.494	330.5
254.727	304.5
254.96	313.5
255.193	334.5
255.426	347.5
255.659	323.5
255.892	342.5
256.124	337.5
256.357	322.5
256.59	326.5
256.823	334.5
257.056	333.5
257.289	335.5
257.521	350.5
257.754	347.5
257.987	329.5
258.22	364.5
258.452	331.5
258.685	343.5
258.918	346.5
259.151	353.5
259.383	355.5
259.616	350.5
259.849	374.5
260.081	364.5
260.314	356.5
260.547	367.5
260.779	357.5
261.012	366.5
261.244	355.5
261.477	358.5
261.71	382.5
261.942	371.5
262.175	385.5
262.407	377.5
262.64	394.5
262.872	374.5
263.105	363.5
263.337	369.5
263.57	389.5
263.802	410.5
264.035	397.5
264.267	407.5
264.499	406.5
264.732	401.5
264.964	394.5
265.197	406.5
265.429	397.5
265.661	407.5
265.894	417.5
266.126	409.5
266.358	409.5
266.591	417.5
266.823	429.5
267.055	434.5
267.287	417.5
267.52	409.5
267.752	423.5
267.984	408.5
268.216	423.5
268.448	393.5
268.681	440.5
268.913	423.5
269.145	434.5
269.377	435.5
269.609	426.5
269.841	449.5
270.073	443.5
270.306	438.5
270.538	457.5
270.77	441.5
271.002	446.5
271.234	449.5
271.466	454.5
271.698	435.5
271.93	447.5
272.162	454.5
272.394	451.5
272.626	439.5
272.858	461.5
273.09	455.5
273.322	461.5
273.553	454.5
273.785	470.5
274.017	483.5
274.249	467.5
274.481	454.5
274.713	445.5
274.945	479.5
275.176	455.5
275.408	500.5
275.64	481.5
275.872	481.5
276.104	484.5
276.335	487.5
276.567	485.5
276.799	489.5
277.031	470.5
277.262	487.5
277.494	469.5
277.726	511.5
277.957	517.5
278.189	477.5
278.421	486.5
278.652	518.5
278.884	513.5
279.115	491.5
279.347	513.5
279.579	501.5
279.81	510.5
280.042	513.5
280.273	516.5
280.505	546.5
280.736	520.5
280.968	541.5
281.199	525.5
281.431	535.5
281.662	527.5
281.894	551.5
282.125	550.5
282.356	553.5
282.588	557.5
282.819	557.5
283.051	539.5
283.282	529.5
283.513	536.5
283.745	549.5
283.976	546.5
284.207	535.5
284.439	550.5
284.67	569.5
284.901	574.5
285.132	578.5
285.364	553.5
285.595	535.5
285.826	546.5
286.057	570.5
286.288	554.5
286.52	583.5
286.751	587.5
286.982	586.5
287.213	579.5
287.444	570.5
287.675	589.5
287.906	586.5
288.138	598.5
288.369	586.5
288.6	614.5
288.831	599.5
289.062	591.5
289.293	590.5
289.524	607.5
289.755	591.5
289.986	586.5
290.217	604.5
290.448	588.5
290.679	615.5
290.91	599.5
291.141	611.5
291.371	620.5
291.602	597.5
291.833	615.5
292.064	604.5
292.295	589.5
292.526	590.5
292.757	598.5
292.987	591.5
293.218	597.5
293.449	597.5
293.68	601.5
293.91	614.5
294.141	615.5
294.372	623.5
294.603	613.5
294.833	628.5
295.064	644.5
295.295	637.5
295.525	635.5
295.756	640.5
295.987	600.5
296.217	620.5
296.448	622.5
296.679	656.5
296.909	634.5
297.14	628.5
297.37	652.5
297.601	639.5
297.831	639.5
298.062	642.5
298.292	656.5
298.523	689.5
298.753	682.5
298.984	686.5
299.214	679.5
299.445	655.5
299.675	681.5
299.905	659.5
300.136	671.5
300.366	662.5
300.597	675.5
300.827	689.5
301.057	687.5
301.288	718.5
301.518	691.5
301.748	710.5
301.979	708.5
302.209	726.5
302.439	695.5
302.669	697.5
302.9	676.5
303.13	672.5
303.36	686.5
303.59	684.5
303.82	686.5
304.051	698.5
304.281	673.5
304.511	673.5
304.741	684.5
304.971	684.5
305.201	684.5
305.431	715.5
305.661	710.5
305.891	677.5
306.121	687.5
306.352	651.5
306.582	647.5
306.812	673.5
307.042	681.5
307.272	677.5
307.502	690.5
307.731	674.5
307.961	670.5
308.191	651.5
308.421	673.5
308.651	640.5
308.881	649.5
309.111	658.5
309.341	652.5
309.571	691.5
309.8	669.5
310.03	691.5
310.26	673.5
310.49	684.5
310.72	699.5
310.949	679.5
311.179	661.5
311.409	702.5
311.639	697.5
311.868	683.5
312.098	700.5
312.328	723.5
312.557	716.5
312.787	704.5
313.017	707.5
313.246	723.5
313.476	705.5
313.706	712.5
313.935	730.5
314.165	737.5
314.394	736.5
314.624	727.5
314.853	706.5
315.083	718.5
315.312	737.5
315.542	705.5
315.771	706.5
316.001	696.5
316.23	722.5
316.46	709.5
316.689	715.5
316.919	719.5
317.148	719.5
317.377	736.5
317.607	707.5
317.836	684.5
318.065	712.5
318.295	715.5
318.524	735.5
318.753	701.5
318.983	697.5
319.212	707.5
319.441	705.5
319.67	722.5
319.9	714.5
320.129	676.5
320.358	707.5
320.587	706.5
320.816	745.5
321.046	705.5
321.275	710.5
321.504	731.5
321.733	685.5
321.962	710.5
322.191	736.5
322.42	726.5
322.649	719.5
322.878	725.5
323.108	714.5
323.337	734.5
323.566	734.5
323.795	733.5
324.024	731.5
324.253	717.5
324.482	707.5
324.71	704.5
324.939	746.5
325.168	732.5
325.397	742.5
325.626	699.5
325.855	739.5
326.084	738.5
326.313	778.5
326.542	776.5
326.77	802.5
326.999	775.5
327.228	758.5
327.457	756.5
327.686	770.5
327.914	772.5
328.143	771.5
328.372	787.5
328.6	783.5
328.829	779.5
329.058	772.5
329.287	769.5
329.515	786.5
329.744	770.5
329.972	769.5
330.201	805.5
330.43	808.5
330.658	799.5
330.887	770.5
331.115	800.5
331.344	798.5
331.572	832.5
331.801	834.5
332.03	845.5
332.258	867.5
332.486	892.5
332.715	889.5
332.943	943.5
333.172	990.5
333.4	1049.5
333.629	1052.5
333.857	1074.5
334.085	1053.5
334.314	1049.5
334.542	1019.5
334.771	988.5
334.999	958.5
335.227	984.5
335.455	974.5
335.684	951.5
335.912	965.5
336.14	936.5
336.369	931.5
336.597	938.5
336.825	936.5
337.053	931.5
337.281	922.5
337.51	865.5
337.738	886.5
337.966	856.5
338.194	866.5
338.422	833.5
338.65	857.5
338.878	854.5
339.106	830.5
339.334	819.5
339.562	841.5
339.79	792.5
340.018	807.5
340.246	796.5
340.474	798.5
340.702	791.5
340.93	814.5
341.158	831.5
341.386	820.5
341.614	819.5
341.842	834.5
342.07	779.5
342.298	809.5
342.526	799.5
342.754	793.5
342.981	789.5
343.209	812.5
343.437	831.5
343.665	908.5
343.893	973.5
344.12	998.5
344.348	975.5
344.576	933.5
344.804	899.5
345.031	841.5
345.259	840.5
345.487	826.5
345.714	813.5
345.942	827.5
346.17	786.5
346.397	782.5
346.625	795.5
346.853	803.5
347.08	773.5
347.308	770.5
347.535	830.5
347.763	799.5
347.99	817.5
348.218	796.5
348.445	796.5
348.673	745.5
348.9	786.5
349.128	775.5
349.355	788.5
349.583	762.5
349.81	763.5
350.037	755.5
350.265	734.5
350.492	757.5
350.72	735.5
350.947	734.5
351.174	742.5
351.402	737.5
351.629	740.5
351.856	743.5
352.083	746.5
352.311	731.5
352.538	742.5
352.765	735.5
352.992	750.5
353.22	759.5
353.447	722.5
353.674	743.5
353.901	742.5
354.128	735.5
354.355	725.5
354.583	741.5
354.81	763.5
355.037	758.5
355.264	749.5
355.491	738.5
355.718	758.5
355.945	755.5
356.172	759.5
356.399	763.5
356.626	746.5
356.853	737.5
357.08	728.5
357.307	745.5
357.534	745.5
357.761	760.5
357.988	767.5
358.215	774.5
358.441	759.5
358.668	736.5
358.895	737.5
359.122	740.5
359.349	742.5
359.576	750.5
359.802	742.5
360.029	784.5
360.256	765.5
360.483	768.5
360.709	759.5
360.936	754.5
361.163	758.5
361.39	746.5
361.616	791.5
361.843	762.5
362.07	740.5
362.296	761.5
362.523	747.5
362.749	771.5
362.976	738.5
363.203	736.5
363.429	741.5
363.656	753.5
363.882	757.5
364.109	760.5
364.335	754.5
364.562	732.5
364.788	759.5
365.015	747.5
365.241	745.5
365.468	743.5
365.694	746.5
365.92	745.5
366.147	743.5
366.373	735.5
366.599	770.5
366.826	744.5
367.052	724.5
367.278	727.5
367.505	780.5
367.731	759.5
367.957	745.5
368.184	749.5
368.41	759.5
368.636	777.5
368.862	793.5
369.089	777.5
369.315	787.5
369.541	755.5
369.767	779.5
369.993	781.5
370.219	773.5
370.445	775.5
370.672	792.5
370.898	791.5
371.124	793.5
371.35	812.5
371.576	830.5
371.802	814.5
372.028	813.5
372.254	815.5
372.48	828.5
372.706	833.5
372.932	865.5
373.158	835.5
373.384	801.5
373.61	821.5
373.835	833.5
374.061	797.5
374.287	833.5
374.513	842.5
374.739	863.5
374.965	909.5
375.191	924.5
375.416	904.5
375.642	883.5
375.868	881.5
376.094	846.5
376.319	835.5
376.545	823.5
376.771	833.5
376.997	810.5
377.222	833.5
377.448	828.5
377.674	830.5
377.899	814.5
378.125	814.5
378.35	823.5
378.576	811.5
378.802	802.5
379.027	796.5
379.253	815.5
379.478	804.5
379.704	813.5
379.929	799.5
380.155	837.5
380.38	809.5
380.606	814.5
380.831	809.5
381.057	820.5
381.282	827.5
381.507	820.5
381.733	837.5
381.958	817.5
382.184	855.5
382.409	862.5
382.634	865.5
382.86	849.5
383.085	856.5
383.31	860.5
383.535	901.5
383.761	898.5
383.986	916.5
384.211	923.5
384.436	955.5
384.662	972.5
384.887	1001.5
385.112	998.5
385.337	983.5
385.562	986.5
385.787	1014.5
386.013	1004.5
386.238	1028.5
386.463	1009.5
386.688	1034.5
386.913	977.5
387.138	987.5
387.363	952.5
387.588	927.5
387.813	942.5
388.038	969.5
388.263	995.5
388.488	971.5
388.713	998.5
388.938	969.5
389.163	963.5
389.387	980.5
389.612	969.5
389.837	960.5
390.062	916.5
390.287	950.5
390.512	962.5
390.736	989.5
390.961	964.5
391.186	973.5
391.411	1039.5
391.636	1042.5
391.86	1070.5
392.085	1113.5
392.31	1122.5
392.534	1113.5
392.759	1073.5
392.984	1053.5
393.208	1025.5
393.433	1047.5
393.658	1060.5
393.882	1058.5
394.107	1056.5
394.331	1063.5
394.556	1068.5
394.78	1039.5
395.005	1064.5
395.229	1043.5
395.454	1091.5
395.678	1110.5
395.903	1080.5
396.127	1105.5
396.352	1037.5
396.576	1034.5
396.801	1028.5
397.025	1043.5
397.249	1065.5
397.474	1090.5
397.698	1091.5
397.922	1122.5
398.147	1123.5
398.371	1110.5
398.595	1123.5
398.82	1194.5
399.044	1309.5
399.268	1395.5
399.492	1623.5
399.717	1898.5
399.941	1879.5
400.165	1708.5
400.389	1482.5
400.613	1381.5
400.837	1312.5
401.062	1274.5
401.286	1226.5
401.51	1213.5
401.734	1232.5
401.958	1269.5
402.182	1281.5
402.406	1268.5
402.63	1331.5
402.854	1339.5
403.078	1336.5
403.302	1352.5
403.526	1406.5
403.75	1405.5
403.974	1465.5
404.198	1443.5
404.422	1449.5
404.645	1416.5
404.869	1412.5
405.093	1434.5
405.317	1389.5
405.541	1371.5
405.765	1373.5
405.988	1347.5
406.212	1374.5
406.436	1333.5
406.66	1396.5
406.883	1445.5
407.107	1450.5
407.331	1541.5
407.555	1626.5
407.778	1634.5
408.002	1583.5
408.226	1529.5
408.449	1498.5
408.673	1443.5
408.896	1401.5
409.12	1398.5
409.344	1371.5
409.567	1407.5
409.791	1431.5
410.014	1419.5
410.238	1413.5
410.461	1372.5
410.685	1375.5
410.908	1364.5
411.132	1333.5
411.355	1257.5
411.578	1312.5
411.802	1307.5
412.025	1283.5
412.249	1282.5
412.472	1299.5
412.695	1246.5
412.919	1219.5
413.142	1245.5
413.365	1203.5
413.589	1236.5
413.812	1217.5
414.035	1251.5
414.258	1225.5
414.482	1209.5
414.705	1267.5
414.928	1255.5
415.151	1243.5
415.374	1265.5
415.597	1233.5
415.821	1213.5
416.044	1185.5
416.267	1211.5
416.49	1191.5
416.713	1206.5
416.936	1225.5
417.159	1188.5
417.382	1201.5
417.605	1219.5
417.828	1245.5
418.051	1232.5
418.274	1227.5
418.497	1205.5
418.72	1241.5
418.943	1242.5
419.166	1352.5
419.389	1436.5
419.611	1378.5
419.834	1347.5
420.057	1304.5
420.28	1247.5
420.503	1212.5
420.726	1235.5
420.948	1196.5
421.171	1235.5
421.394	1244.5
421.617	1196.5
421.839	1234.5
422.062	1211.5
422.285	1209.5
422.507	1258.5
422.73	1283.5
422.953	1228.5
423.175	1298.5
423.398	1277.5
423.621	1282.5
423.843	1305.5
424.066	1343.5
424.288	1311.5
424.511	1305.5
424.733	1273.5
424.956	1259.5
425.178	1238.5
425.401	1217.5
425.623	1257.5
425.846	1190.5
426.068	1226.5
426.291	1174.5
426.513	1175.5
426.735	1154.5
426.958	1150.5
427.18	1143.5
427.402	1132.5
427.625	1093.5
427.847	1097.5
428.069	1091.5
428.292	1077.5
428.514	1096.5
428.736	1078.5
428.958	1117.5
429.181	1091.5
429.403	1062.5
429.625	1069.5
429.847	1047.5
430.069	1040.5
430.292	1058.5
430.514	1067.5
430.736	1076.5
430.958	1046.5
431.18	1051.5
431.402	1051.5
431.624	1075.5
431.846	1110.5
432.068	1087.5
432.29	1124.5
432.512	1100.5
432.734	1102.5
432.956	1079.5
433.178	1118.5
433.4	1069.5
433.622	1077.5
433.844	1122.5
434.066	1128.5
434.287	1123.5
434.509	1165.5
434.731	1154.5
434.953	1259.5
435.175	1261.5
435.397	1223.5
435.618	1166.5
435.84	1128.5
436.062	1105.5
436.284	1092.5
436.505	1101.5
436.727	1136.5
436.949	1111.5
437.17	1114.5
437.392	1075.5
437.614	1062.5
437.835	1053.5
438.057	1063.5
438.278	1020.5
438.5	1046.5
438.721	1049.5
438.943	1024.5
439.165	1045.5
439.386	1049.5
439.608	1063.5
439.829	1112.5
440.05	1089.5
440.272	1093.5
440.493	1114.5
440.715	1113.5
440.936	1134.5
441.158	1153.5
441.379	1157.5
441.6	1238.5
441.822	1241.5
442.043	1252.5
442.264	1246.5
442.486	1201.5
442.707	1203.5
442.928	1197.5
443.149	1240.5
443.371	1230.5
443.592	1220.5
443.813	1229.5
444.034	1239.5
444.255	1286.5
444.476	1372.5
444.698	1458.5
444.919	1495.5
445.14	1598.5
445.361	1417.5
445.582	1275.5
445.803	1228.5
446.024	1190.5
446.245	1171.5
446.466	1159.5
446.687	1116.5
446.908	1106.5
447.129	1095.5
447.35	1076.5
447.571	1080.5
447.792	1036.5
448.013	1040.5
448.234	1037.5
448.455	1027.5
448.675	1038.5
448.896	1019.5
449.117	987.5
449.338	1025.5
449.559	970.5
449.779	1002.5
450	982.5
450.221	1011.5
450.442	1006.5
450.662	1027.5
450.883	1010.5
451.104	1062.5
451.324	1035.5
451.545	1006.5
451.766	996.5
451.986	1040.5
452.207	1036.5
452.428	1001.5
452.648	987.5
452.869	984.5
453.089	966.5
453.31	999.5
453.53	981.5
453.751	980.5
453.971	945.5
454.192	956.5
454.412	958.5
454.633	962.5
454.853	957.5
455.073	957.5
455.294	964.5
455.514	942.5
455.734	953.5
455.955	919.5
456.175	940.5
456.395	940.5
456.616	935.5
456.836	939.5
457.056	946.5
457.276	934.5
457.497	931.5
457.717	931.5
457.937	943.5
458.157	961.5
458.377	945.5
458.598	975.5
458.818	1003.5
459.038	1056.5
459.258	1065.5
459.478	1119.5
459.698	1147.5
459.918	1167.5
460.138	1194.5
460.358	1273.5
460.578	1303.5
460.798	1290.5
461.018	1324.5
461.238	1290.5
461.458	1259.5
461.678	1307.5
461.898	1295.5
462.118	1290.5
462.338	1373.5
462.558	1382.5
462.777	1463.5
462.997	1596.5
463.217	1785.5
463.437	1767.5
463.657	1634.5
463.876	1525.5
464.096	1558.5
464.316	1526.5
464.536	1537.5
464.755	1499.5
464.975	1409.5
465.195	1364.5
465.414	1250.5
465.634	1221.5
465.854	1131.5
466.073	1146.5
466.293	1109.5
466.512	1093.5
466.732	1066.5
466.951	1095.5
467.171	1052.5
467.391	1066.5
467.61	1043.5
467.829	1064.5
468.049	1029.5
468.268	991.5
468.488	1003.5
468.707	1020.5
468.927	1029.5
469.146	1013.5
469.365	1046.5
469.585	1037.5
469.804	1068.5
470.023	1073.5
470.243	1086.5
470.462	1108.5
470.681	1086.5
470.901	1084.5
471.12	1090.5
471.339	1058.5
471.558	1010.5
471.777	1012.5
471.997	1000.5
472.216	973.5
472.435	1007.5
472.654	956.5
472.873	949.5
473.092	1005.5
473.311	997.5
473.53	967.5
473.749	973.5
473.968	962.5
474.187	997.5
474.406	949.5
474.625	970.5
474.844	988.5
475.063	999.5
475.282	955.5
475.501	1006.5
475.72	983.5
475.939	1011.5
476.158	1022.5
476.377	1024.5
476.596	1052.5
476.814	1050.5
477.033	1070.5
477.252	1050.5
477.471	1054.5
477.69	1118.5
477.908	1120.5
478.127	1198.5
478.346	1168.5
478.564	1202.5
478.783	1208.5
479.002	1216.5
479.22	1228.5
479.439	1237.5
479.658	1217.5
479.876	1208.5
480.095	1188.5
480.313	1310.5
480.532	1327.5
480.751	1325.5
480.969	1283.5
481.188	1247.5
481.406	1164.5
481.624	1151.5
481.843	1152.5
482.061	1144.5
482.28	1123.5
482.498	1071.5
482.717	1084.5
482.935	1109.5
483.153	1094.5
483.372	1120.5
483.59	1118.5
483.808	1109.5
484.027	1100.5
484.245	1126.5
484.463	1143.5
484.681	1152.5
484.9	1166.5
485.118	1173.5
485.336	1143.5
485.554	1202.5
485.772	1166.5
485.99	1186.5
486.209	1199.5
486.427	1186.5
486.645	1211.5
486.863	1181.5
487.081	1201.5
487.299	1152.5
487.517	1185.5
487.735	1174.5
487.953	1146.5
488.171	1186.5
488.389	1158.5
488.607	1157.5
488.825	1163.5
489.043	1160.5
489.261	1164.5
489.479	1171.5
489.696	1161.5
489.914	1138.5
490.132	1164.5
490.35	1190.5
490.568	1174.5
490.786	1183.5
491.003	1164.5
491.221	1185.5
491.439	1166.5
491.657	1189.5
491.874	1206.5
492.092	1192.5
492.31	1214.5
492.527	1227.5
492.745	1217.5
492.963	1227.5
493.18	1222.5
493.398	1222.5
493.615	1235.5
493.833	1238.5
494.05	1227.5
494.268	1270.5
494.485	1239.5
494.703	1268.5
494.92	1255.5
495.138	1209.5
495.355	1233.5
495.573	1231.5
495.79	1228.5
496.008	1246.5
496.225	1303.5
496.442	1271.5
496.66	1300.5
496.877	1276.5
497.094	1355.5
497.312	1324.5
497.529	1391.5
497.746	1388.5
497.963	1424.5
498.181	1509.5
498.398	1580.5
498.615	1629.5
498.832	1770.5
499.049	1939.5
499.267	2051.5
499.484	2293.5
499.701	2511.5
499.918	2809.5
500.135	3176.5
500.352	3719.5
500.569	3907.5
500.786	3842.5
501.003	3598.5
501.22	3175.5
501.437	2777.5
501.654	2428.5
501.871	2239.5
502.088	2035.5
502.305	1886.5
502.522	1762.5
502.739	1750.5
502.956	1607.5
503.172	1582.5
503.389	1502.5
503.606	1435.5
503.823	1441.5
504.04	1412.5
504.256	1455.5
504.473	1456.5
504.69	1499.5
504.907	1482.5
505.123	1357.5
505.34	1314.5
505.557	1253.5
505.773	1223.5
505.99	1195.5
506.207	1169.5
506.423	1177.5
506.64	1147.5
506.856	1113.5
507.073	1103.5
507.289	1104.5
507.506	1089.5
507.722	1113.5
507.939	1096.5
508.155	1064.5
508.372	1084.5
508.588	1061.5
508.805	1037.5
509.021	1035.5
509.238	1017.5
509.454	1032.5
509.67	1038.5
509.887	1030.5
510.103	1001.5
510.319	994.5
510.536	1045.5
510.752	1004.5
510.968	1016.5
511.184	1001.5
511.401	1009.5
511.617	1009.5
511.833	1015.5
512.049	1002.5
512.265	996.5
512.481	1005.5
512.698	991.5
512.914	1011.5
513.13	1016.5
513.346	1000.5
513.562	1004.5
513.778	979.5
513.994	1025.5
514.21	993.5
514.426	987.5
514.642	1014.5
514.858	1033.5
515.074	1015.5
515.29	1011.5
515.506	1066.5
515.721	1066.5
515.937	1072.5
516.153	1084.5
516.369	1116.5
516.585	1146.5
516.801	1207.5
517.016	1233.5
517.232	1294.5
517.448	1337.5
517.664	1379.5
517.879	1409.5
518.095	1420.5
518.311	1402.5
518.527	1357.5
518.742	1265.5
518.958	1201.5
519.173	1171.5
519.389	1138.5
519.605	1102.5
519.82	1092.5
520.036	1066.5
520.251	1027.5
520.467	1039.5
520.682	1006.5
520.898	985.5
521.113	972.5
521.329	1008.5
521.544	986.5
521.76	997.5
521.975	966.5
522.19	938.5
522.406	936.5
522.621	973.5
522.836	960.5
523.052	940.5
523.267	939.5
523.482	960.5
523.698	949.5
523.913	922.5
524.128	922.5
524.343	922.5
524.559	908.5
524.774	910.5
524.989	929.5
525.204	949.5
525.419	941.5
525.634	894.5
525.849	882.5
526.064	899.5
526.28	898.5
526.495	914.5
526.71	929.5
526.925	893.5
527.14	904.5
527.355	924.5
527.57	897.5
527.785	899.5
527.999	903.5
528.214	922.5
528.429	928.5
528.644	907.5
528.859	922.5
529.074	902.5
529.289	895.5
529.503	936.5
529.718	912.5
529.933	874.5
530.148	899.5
530.363	926.5
530.577	882.5
530.792	893.5
531.007	866.5
531.221	886.5
531.436	894.5
531.651	922.5
531.865	924.5
532.08	910.5
532.295	912.5
532.509	915.5
532.724	898.5
532.938	903.5
533.153	923.5
533.367	869.5
533.582	893.5
533.796	876.5
534.011	919.5
534.225	897.5
534.44	901.5
534.654	902.5
534.868	871.5
535.083	888.5
535.297	888.5
535.511	865.5
535.726	893.5
535.94	874.5
536.154	859.5
536.369	844.5
536.583	852.5
536.797	867.5
537.011	875.5
537.225	848.5
537.44	825.5
537.654	848.5
537.868	798.5
538.082	826.5
538.296	818.5
538.51	798.5
538.724	845.5
538.938	812.5
539.153	830.5
539.367	805.5
539.581	823.5
539.795	802.5
540.009	830.5
540.222	811.5
540.436	821.5
540.65	821.5
540.864	798.5
541.078	819.5
541.292	805.5
541.506	821.5
541.72	799.5
541.934	797.5
542.147	811.5
542.361	821.5
542.575	821.5
542.789	812.5
543.002	801.5
543.216	775.5
543.43	782.5
543.644	784.5
543.857	824.5
544.071	800.5
544.285	812.5
544.498	821.5
544.712	817.5
544.925	809.5
545.139	829.5
545.352	825.5
545.566	838.5
545.779	817.5
545.993	829.5
546.206	849.5
546.42	832.5
546.633	838.5
546.847	837.5
547.06	809.5
547.274	809.5
547.487	822.5
547.7	801.5
547.914	834.5
548.127	846.5
548.34	853.5
548.554	854.5
548.767	857.5
548.98	857.5
549.193	853.5
549.407	843.5
549.62	866.5
549.833	846.5
550.046	846.5
550.259	868.5
550.473	818.5
550.686	810.5
550.899	830.5
551.112	789.5
551.325	800.5
551.538	826.5
551.751	815.5
551.964	819.5
552.177	810.5
552.39	833.5
552.603	841.5
552.816	886.5
553.029	915.5
553.242	905.5
553.455	918.5
553.667	893.5
553.88	897.5
554.093	860.5
554.306	873.5
554.519	842.5
554.732	814.5
554.944	813.5
555.157	810.5
555.37	796.5
555.583	783.5
555.795	769.5
556.008	786.5
556.221	733.5
556.433	720.5
556.646	725.5
556.859	717.5
557.071	710.5
557.284	733.5
557.496	743.5
557.709	701.5
557.921	718.5
558.134	704.5
558.346	718.5
558.559	709.5
558.771	709.5
558.984	703.5
559.196	691.5
559.409	689.5
559.621	677.5
559.833	681.5
560.046	682.5
560.258	674.5
560.47	690.5
560.683	701.5
560.895	663.5
561.107	673.5
561.32	668.5
561.532	667.5
561.744	691.5
561.956	659.5
562.168	700.5
562.381	655.5
562.593	675.5
562.805	687.5
563.017	683.5
563.229	679.5
563.441	705.5
563.653	705.5
563.865	679.5
564.077	707.5
564.289	701.5
564.501	722.5
564.713	711.5
564.925	725.5
565.137	743.5
565.349	759.5
565.561	795.5
565.773	823.5
565.985	848.5
566.197	901.5
566.408	931.5
566.62	1027.5
566.832	1144.5
567.044	1179.5
567.255	1122.5
567.467	1167.5
567.679	1243.5
567.891	1357.5
568.102	1393.5
568.314	1339.5
568.526	1190.5
568.737	1077.5
568.949	974.5
569.161	885.5
569.372	828.5
569.584	777.5
569.795	750.5
570.007	733.5
570.218	725.5
570.43	687.5
570.641	723.5
570.853	712.5
571.064	722.5
571.276	732.5
571.487	705.5
571.698	651.5
571.91	655.5
572.121	637.5
572.333	629.5
572.544	625.5
572.755	583.5
572.966	590.5
573.178	582.5
573.389	602.5
573.6	557.5
573.811	581.5
574.023	553.5
574.234	558.5
574.445	559.5
574.656	564.5
574.867	576.5
575.078	549.5
575.289	567.5
575.501	565.5
575.712	549.5
575.923	543.5
576.134	553.5
576.345	549.5
576.556	562.5
576.767	520.5
576.978	515.5
577.188	537.5
577.399	520.5
577.61	517.5
577.821	514.5
578.032	512.5
578.243	518.5
578.454	500.5
578.665	501.5
578.875	477.5
579.086	491.5
579.297	504.5
579.508	494.5
579.718	519.5
579.929	495.5
580.14	485.5
580.35	513.5
580.561	492.5
580.772	467.5
580.982	500.5
581.193	462.5
581.403	474.5
581.614	479.5
581.825	487.5
582.035	478.5
582.246	475.5
582.456	484.5
582.667	467.5
582.877	463.5
583.087	463.5
583.298	476.5
583.508	485.5
583.719	477.5
583.929	481.5
584.139	471.5
584.35	468.5
584.56	468.5
584.77	462.5
584.981	461.5
585.191	451.5
585.401	465.5
585.611	461.5
585.821	443.5
586.032	441.5
586.242	452.5
586.452	454.5
586.662	448.5
586.872	463.5
587.082	469.5
587.292	476.5
587.502	453.5
587.713	443.5
587.923	449.5
588.133	448.5
588.343	449.5
588.553	455.5
588.762	462.5
588.972	485.5
589.182	465.5
589.392	454.5
589.602	445.5
589.812	456.5
590.022	452.5
590.232	459.5
590.441	467.5
590.651	453.5
590.861	453.5
591.071	460.5
591.281	474.5
591.49	487.5
591.7	470.5
591.91	490.5
592.119	474.5
592.329	500.5
592.539	521.5
592.748	528.5
592.958	548.5
593.167	576.5
593.377	584.5
593.587	576.5
593.796	579.5
594.006	589.5
594.215	614.5
594.424	591.5
594.634	579.5
594.843	601.5
595.053	552.5
595.262	518.5
595.472	487.5
595.681	501.5
595.89	440.5
596.1	457.5
596.309	433.5
596.518	450.5
596.727	428.5
596.937	442.5
597.146	429.5
597.355	411.5
597.564	427.5
597.774	400.5
597.983	398.5
598.192	405.5
598.401	400.5
598.61	395.5
598.819	405.5
599.028	390.5
599.237	392.5
599.446	369.5
599.655	382.5
599.864	394.5
600.073	372.5
600.282	378.5
600.491	385.5
600.7	373.5
600.909	378.5
601.118	385.5
601.327	382.5
601.536	373.5
601.745	377.5
601.953	373.5
602.162	370.5
602.371	391.5
602.58	393.5
602.789	369.5
602.997	370.5
603.206	361.5
603.415	371.5
603.623	382.5
603.832	365.5
604.041	366.5
604.249	355.5
604.458	361.5
604.666	372.5
604.875	346.5
605.084	346.5
605.292	348.5
605.501	364.5
605.709	346.5
605.918	364.5
606.126	347.5
606.334	349.5
606.543	337.5
606.751	334.5
606.96	347.5
607.168	332.5
607.376	348.5
607.585	333.5
607.793	341.5
608.001	352.5
608.21	340.5
608.418	354.5
608.626	343.5
608.834	348.5
609.043	349.5
609.251	336.5
609.459	341.5
609.667	335.5
609.875	331.5
610.083	338.5
610.291	339.5
610.499	338.5
610.707	324.5
610.916	329.5
611.124	332.5
611.332	341.5
611.54	334.5
611.748	329.5
611.955	326.5
612.163	350.5
612.371	325.5
612.579	330.5
612.787	344.5
612.995	340.5
613.203	325.5
613.411	333.5
613.618	348.5
613.826	325.5
614.034	345.5
614.242	323.5
614.449	333.5
614.657	319.5
614.865	331.5
615.072	325.5
615.28	324.5
615.488	323.5
615.695	334.5
615.903	333.5
616.111	328.5
616.318	325.5
616.526	338.5
616.733	314.5
616.941	337.5
617.148	330.5
617.356	322.5
617.563	333.5
617.771	332.5
617.978	322.5
618.185	320.5
618.393	324.5
618.6	318.5
618.807	325.5
619.015	322.5
619.222	297.5
619.429	325.5
619.637	314.5
619.844	325.5
620.051	318.5
620.258	322.5
620.466	317.5
620.673	307.5
620.88	314.5
621.087	317.5
621.294	300.5
621.501	333.5
621.708	291.5
621.915	299.5
622.122	295.5
622.329	301.5
622.536	315.5
622.743	318.5
622.95	284.5
623.157	297.5
623.364	299.5
623.571	293.5
623.778	292.5
623.985	305.5
624.192	301.5
624.399	285.5
624.606	305.5
624.812	312.5
625.019	285.5
625.226	294.5
625.433	297.5
625.639	278.5
625.846	282.5
626.053	268.5
626.259	281.5
626.466	275.5
626.673	293.5
626.879	270.5
627.086	273.5
627.293	282.5
627.499	279.5
627.706	268.5
627.912	283.5
628.119	281.5
628.325	258.5
628.532	259.5
628.738	266.5
628.945	268.5
629.151	272.5
629.357	282.5
629.564	268.5
629.77	281.5
629.976	267.5
630.183	277.5
630.389	253.5
630.595	252.5
630.802	250.5
631.008	242.5
631.214	246.5
631.42	252.5
631.627	277.5
631.833	251.5
632.039	261.5
632.245	254.5
632.451	253.5
632.657	236.5
632.863	241.5
633.069	259.5
633.275	247.5
633.481	237.5
633.688	254.5
633.893	235.5
634.099	244.5
634.305	254.5
634.511	228.5
634.717	250.5
634.923	230.5
635.129	227.5
635.335	252.5
635.541	237.5
635.747	250.5
635.952	238.5
636.158	238.5
636.364	234.5
636.57	230.5
636.775	245.5
636.981	246.5
637.187	237.5
637.392	231.5
637.598	236.5
637.804	233.5
638.009	234.5
638.215	241.5
638.421	217.5
638.626	228.5
638.832	227.5
639.037	235.5
639.243	229.5
639.448	228.5
639.654	209.5
639.859	220.5
640.065	228.5
640.27	229.5
640.475	223.5
640.681	242.5
640.886	220.5
641.091	216.5
641.297	229.5
641.502	210.5
641.707	203.5
641.913	212.5
642.118	218.5
642.323	202.5
642.528	211.5
642.733	211.5
642.939	234.5
643.144	201.5
643.349	211.5
643.554	205.5
643.759	216.5
643.964	219.5
644.169	223.5
644.374	211.5
644.579	218.5
644.784	204.5
644.989	206.5
645.194	218.5
645.399	214.5
645.604	225.5
645.809	208.5
646.014	213.5
646.219	199.5
646.423	199.5
646.628	197.5
646.833	226.5
647.038	221.5
647.243	215.5
647.447	229.5
647.652	217.5
647.857	235.5
648.062	227.5
648.266	227.5
648.471	227.5
648.676	223.5
648.88	216.5
649.085	225.5
649.289	219.5
649.494	220.5
649.698	195.5
649.903	211.5
650.107	217.5
650.312	197.5
650.516	178.5
650.721	193.5
650.925	203.5
651.13	185.5
651.334	175.5
651.539	189.5
651.743	175.5
651.947	185.5
652.152	203.5
652.356	179.5
652.56	178.5
652.764	163.5
652.969	191.5
653.173	164.5
653.377	159.5
653.581	169.5
653.785	171.5
653.99	174.5
654.194	161.5
654.398	160.5
654.602	169.5
654.806	158.5
655.01	161.5
655.214	141.5
655.418	155.5
655.622	173.5
655.826	144.5
656.03	152.5
656.234	149.5
656.438	151.5
656.642	151.5
656.846	154.5
657.049	133.5
657.253	137.5
657.457	139.5
657.661	142.5
657.865	130.5
658.068	131.5
658.272	117.5
658.476	137.5
658.68	122.5
658.883	121.5
659.087	102.5
659.291	100.5
659.494	113.5
659.698	115.5
659.901	105.5
660.105	104.5
660.309	97.5
660.512	96.5
660.716	93.5
660.919	89.5
661.123	102.5
661.326	80.5
661.53	103.5
661.733	94.5
661.936	89.5
662.14	88.5
662.343	81.5
662.546	91.5
662.75	78.5
662.953	90.5
663.156	104.5
663.36	94.5
663.563	90.5
663.766	71.5
663.969	77.5
664.173	79.5
664.376	93.5
664.579	81.5
664.782	70.5
664.985	71.5
665.188	82.5
665.391	88.5
665.594	74.5
665.797	68.5
666	86.5
666.203	76.5
666.406	86.5
666.609	76.5
666.812	85.5
667.015	71.5
667.218	91.5
667.421	82.5
667.624	81.5
667.827	101.5
668.03	90.5
668.232	69.5
668.435	85.5
668.638	98.5
668.841	84.5
669.043	86.5
669.246	71.5
669.449	74.5
669.651	78.5
669.854	78.5
670.057	87.5
670.259	89.5
670.462	79.5
670.665	89.5
670.867	86.5
671.07	94.5
671.272	76.5
671.475	92.5
671.677	85.5
671.88	75.5
672.082	82.5
672.284	81.5
672.487	92.5
672.689	83.5
672.892	83.5
