Data from NiCl2@0.25M.TitratingCurve.Agarose3%dH2O.NegLispCup.LampEnergy10.LIBS07252019_HRD10591_18-25-54-573.txt Node
Date: Thu Jul 25 18:25:54 EDT 2019
User: cochatt
Spectrometer: HR+D1059
Trigger mode: 1
Integration Time (sec): 1.000000E-1
Scans to average: 1
Electric dark correction enabled: true
Nonlinearity correction enabled: false
Boxcar width: 0
XAxis mode: Wavelengths
Number of Pixels in Spectrum: 2048
>>>>>Begin Spectral Data<<<<<
223.165	-14.5
223.4	-14.5
223.635	-14.5
223.869	-14.5
224.104	-18.5
224.338	-14.5
224.573	0.5
224.808	-17.5
225.042	-3.5
225.277	-11.5
225.511	0.5
225.746	-0.5
225.98	-4.5
226.215	2.5
226.449	18.5
226.683	25.5
226.918	13.5
227.152	38.5
227.387	36.5
227.621	46.5
227.856	33.5
228.09	58.5
228.324	52.5
228.559	52.5
228.793	72.5
229.027	145.5
229.262	136.5
229.496	119.5
229.73	138.5
229.964	138.5
230.199	143.5
230.433	165.5
230.667	166.5
230.901	161.5
231.136	165.5
231.37	140.5
231.604	157.5
231.838	166.5
232.072	172.5
232.306	194.5
232.541	185.5
232.775	181.5
233.009	162.5
233.243	185.5
233.477	178.5
233.711	180.5
233.945	181.5
234.179	186.5
234.413	187.5
234.647	192.5
234.881	183.5
235.115	188.5
235.349	174.5
235.583	197.5
235.817	186.5
236.051	190.5
236.285	212.5
236.519	194.5
236.753	191.5
236.987	196.5
237.221	205.5
237.455	190.5
237.689	192.5
237.922	198.5
238.156	198.5
238.39	219.5
238.624	220.5
238.858	206.5
239.091	210.5
239.325	212.5
239.559	219.5
239.793	225.5
240.027	234.5
240.26	235.5
240.494	233.5
240.728	242.5
240.961	210.5
241.195	232.5
241.429	261.5
241.662	250.5
241.896	257.5
242.13	245.5
242.363	234.5
242.597	251.5
242.83	252.5
243.064	260.5
243.298	263.5
243.531	264.5
243.765	264.5
243.998	280.5
244.232	248.5
244.465	251.5
244.699	288.5
244.932	274.5
245.166	265.5
245.399	289.5
245.633	273.5
245.866	283.5
246.099	295.5
246.333	290.5
246.566	281.5
246.8	289.5
247.033	295.5
247.266	289.5
247.5	303.5
247.733	314.5
247.966	278.5
248.2	311.5
248.433	317.5
248.666	316.5
248.899	306.5
249.133	317.5
249.366	310.5
249.599	328.5
249.832	302.5
250.066	347.5
250.299	340.5
250.532	350.5
250.765	346.5
250.998	337.5
251.231	328.5
251.465	339.5
251.698	332.5
251.931	327.5
252.164	345.5
252.397	357.5
252.63	357.5
252.863	355.5
253.096	349.5
253.329	374.5
253.562	368.5
253.795	385.5
254.028	385.5
254.261	369.5
254.494	376.5
254.727	373.5
254.96	353.5
255.193	364.5
255.426	384.5
255.659	377.5
255.892	406.5
256.124	375.5
256.357	388.5
256.59	372.5
256.823	387.5
257.056	388.5
257.289	403.5
257.521	409.5
257.754	400.5
257.987	398.5
258.22	402.5
258.452	391.5
258.685	441.5
258.918	411.5
259.151	414.5
259.383	432.5
259.616	425.5
259.849	430.5
260.081	439.5
260.314	432.5
260.547	425.5
260.779	420.5
261.012	425.5
261.244	440.5
261.477	426.5
261.71	416.5
261.942	421.5
262.175	422.5
262.407	462.5
262.64	433.5
262.872	446.5
263.105	443.5
263.337	466.5
263.57	454.5
263.802	481.5
264.035	460.5
264.267	445.5
264.499	476.5
264.732	441.5
264.964	470.5
265.197	494.5
265.429	468.5
265.661	470.5
265.894	467.5
266.126	478.5
266.358	483.5
266.591	473.5
266.823	485.5
267.055	493.5
267.287	498.5
267.52	493.5
267.752	478.5
267.984	493.5
268.216	497.5
268.448	511.5
268.681	492.5
268.913	487.5
269.145	516.5
269.377	501.5
269.609	513.5
269.841	498.5
270.073	501.5
270.306	517.5
270.538	513.5
270.77	515.5
271.002	511.5
271.234	515.5
271.466	532.5
271.698	532.5
271.93	521.5
272.162	551.5
272.394	526.5
272.626	544.5
272.858	539.5
273.09	542.5
273.322	534.5
273.553	518.5
273.785	557.5
274.017	556.5
274.249	562.5
274.481	555.5
274.713	556.5
274.945	586.5
275.176	561.5
275.408	553.5
275.64	555.5
275.872	584.5
276.104	579.5
276.335	574.5
276.567	571.5
276.799	574.5
277.031	567.5
277.262	599.5
277.494	580.5
277.726	590.5
277.957	604.5
278.189	596.5
278.421	580.5
278.652	577.5
278.884	588.5
279.115	610.5
279.347	615.5
279.579	619.5
279.81	605.5
280.042	631.5
280.273	601.5
280.505	629.5
280.736	626.5
280.968	628.5
281.199	641.5
281.431	639.5
281.662	628.5
281.894	652.5
282.125	624.5
282.356	663.5
282.588	666.5
282.819	638.5
283.051	632.5
283.282	648.5
283.513	660.5
283.745	696.5
283.976	644.5
284.207	643.5
284.439	657.5
284.67	640.5
284.901	688.5
285.132	686.5
285.364	656.5
285.595	646.5
285.826	677.5
286.057	697.5
286.288	677.5
286.52	707.5
286.751	682.5
286.982	704.5
287.213	696.5
287.444	694.5
287.675	672.5
287.906	686.5
288.138	696.5
288.369	699.5
288.6	694.5
288.831	728.5
289.062	690.5
289.293	732.5
289.524	730.5
289.755	698.5
289.986	700.5
290.217	721.5
290.448	706.5
290.679	742.5
290.91	748.5
291.141	724.5
291.371	755.5
291.602	729.5
291.833	716.5
292.064	733.5
292.295	718.5
292.526	729.5
292.757	719.5
292.987	717.5
293.218	734.5
293.449	734.5
293.68	730.5
293.91	709.5
294.141	713.5
294.372	728.5
294.603	741.5
294.833	762.5
295.064	754.5
295.295	724.5
295.525	748.5
295.756	743.5
295.987	736.5
296.217	763.5
296.448	750.5
296.679	786.5
296.909	768.5
297.14	793.5
297.37	782.5
297.601	782.5
297.831	773.5
298.062	780.5
298.292	798.5
298.523	814.5
298.753	792.5
298.984	793.5
299.214	801.5
299.445	800.5
299.675	786.5
299.905	792.5
300.136	792.5
300.366	784.5
300.597	813.5
300.827	804.5
301.057	831.5
301.288	820.5
301.518	816.5
301.748	850.5
301.979	850.5
302.209	851.5
302.439	821.5
302.669	816.5
302.9	833.5
303.13	822.5
303.36	810.5
303.59	816.5
303.82	837.5
304.051	839.5
304.281	805.5
304.511	823.5
304.741	815.5
304.971	822.5
305.201	822.5
305.431	823.5
305.661	821.5
305.891	829.5
306.121	802.5
306.352	812.5
306.582	816.5
306.812	824.5
307.042	806.5
307.272	821.5
307.502	802.5
307.731	814.5
307.961	801.5
308.191	796.5
308.421	813.5
308.651	806.5
308.881	789.5
309.111	798.5
309.341	800.5
309.571	792.5
309.8	799.5
310.03	817.5
310.26	811.5
310.49	818.5
310.72	806.5
310.949	793.5
311.179	803.5
311.409	826.5
311.639	832.5
311.868	845.5
312.098	844.5
312.328	819.5
312.557	824.5
312.787	848.5
313.017	846.5
313.246	868.5
313.476	891.5
313.706	855.5
313.935	861.5
314.165	857.5
314.394	869.5
314.624	891.5
314.853	889.5
315.083	845.5
315.312	878.5
315.542	834.5
315.771	873.5
316.001	834.5
316.23	858.5
316.46	838.5
316.689	844.5
316.919	822.5
317.148	843.5
317.377	896.5
317.607	847.5
317.836	848.5
318.065	835.5
318.295	830.5
318.524	825.5
318.753	825.5
318.983	839.5
319.212	854.5
319.441	832.5
319.67	835.5
319.9	864.5
320.129	832.5
320.358	829.5
320.587	850.5
320.816	849.5
321.046	825.5
321.275	852.5
321.504	874.5
321.733	853.5
321.962	863.5
322.191	860.5
322.42	864.5
322.649	833.5
322.878	850.5
323.108	860.5
323.337	872.5
323.566	872.5
323.795	872.5
324.024	881.5
324.253	885.5
324.482	889.5
324.71	897.5
324.939	879.5
325.168	900.5
325.397	892.5
325.626	901.5
325.855	931.5
326.084	938.5
326.313	936.5
326.542	940.5
326.77	952.5
326.999	927.5
327.228	919.5
327.457	923.5
327.686	928.5
327.914	897.5
328.143	920.5
328.372	934.5
328.6	920.5
328.829	918.5
329.058	941.5
329.287	953.5
329.515	942.5
329.744	953.5
329.972	938.5
330.201	934.5
330.43	960.5
330.658	965.5
330.887	970.5
331.115	1024.5
331.344	977.5
331.572	981.5
331.801	1017.5
332.03	992.5
332.258	1040.5
332.486	1051.5
332.715	1092.5
332.943	1160.5
333.172	1172.5
333.4	1232.5
333.629	1237.5
333.857	1276.5
334.085	1274.5
334.314	1223.5
334.542	1241.5
334.771	1265.5
334.999	1218.5
335.227	1220.5
335.455	1178.5
335.684	1190.5
335.912	1202.5
336.14	1165.5
336.369	1127.5
336.597	1162.5
336.825	1149.5
337.053	1124.5
337.281	1123.5
337.51	1107.5
337.738	1088.5
337.966	1061.5
338.194	1050.5
338.422	1064.5
338.65	1032.5
338.878	1021.5
339.106	1018.5
339.334	1020.5
339.562	997.5
339.79	979.5
340.018	952.5
340.246	949.5
340.474	997.5
340.702	968.5
340.93	980.5
341.158	984.5
341.386	977.5
341.614	989.5
341.842	969.5
342.07	976.5
342.298	969.5
342.526	965.5
342.754	981.5
342.981	962.5
343.209	1013.5
343.437	1032.5
343.665	1098.5
343.893	1152.5
344.12	1213.5
344.348	1152.5
344.576	1121.5
344.804	1073.5
345.031	1043.5
345.259	1014.5
345.487	1000.5
345.714	959.5
345.942	965.5
346.17	965.5
346.397	939.5
346.625	974.5
346.853	959.5
347.08	944.5
347.308	928.5
347.535	970.5
347.763	953.5
347.99	938.5
348.218	961.5
348.445	904.5
348.673	924.5
348.9	952.5
349.128	955.5
349.355	929.5
349.583	934.5
349.81	945.5
350.037	914.5
350.265	909.5
350.492	880.5
350.72	914.5
350.947	897.5
351.174	921.5
351.402	913.5
351.629	904.5
351.856	897.5
352.083	877.5
352.311	902.5
352.538	889.5
352.765	892.5
352.992	862.5
353.22	884.5
353.447	921.5
353.674	913.5
353.901	876.5
354.128	880.5
354.355	868.5
354.583	896.5
354.81	873.5
355.037	887.5
355.264	902.5
355.491	910.5
355.718	930.5
355.945	889.5
356.172	898.5
356.399	935.5
356.626	914.5
356.853	907.5
357.08	926.5
357.307	919.5
357.534	889.5
357.761	911.5
357.988	919.5
358.215	892.5
358.441	905.5
358.668	868.5
358.895	894.5
359.122	890.5
359.349	925.5
359.576	894.5
359.802	909.5
360.029	894.5
360.256	902.5
360.483	911.5
360.709	908.5
360.936	892.5
361.163	892.5
361.39	942.5
361.616	908.5
361.843	897.5
362.07	906.5
362.296	907.5
362.523	916.5
362.749	914.5
362.976	913.5
363.203	926.5
363.429	934.5
363.656	925.5
363.882	900.5
364.109	900.5
364.335	885.5
364.562	923.5
364.788	903.5
365.015	918.5
365.241	919.5
365.468	914.5
365.694	868.5
365.92	893.5
366.147	908.5
366.373	877.5
366.599	899.5
366.826	892.5
367.052	916.5
367.278	875.5
367.505	903.5
367.731	907.5
367.957	909.5
368.184	906.5
368.41	900.5
368.636	907.5
368.862	919.5
369.089	894.5
369.315	930.5
369.541	922.5
369.767	955.5
369.993	950.5
370.219	955.5
370.445	959.5
370.672	967.5
370.898	966.5
371.124	1005.5
371.35	977.5
371.576	981.5
371.802	956.5
372.028	978.5
372.254	1000.5
372.48	990.5
372.706	1029.5
372.932	1031.5
373.158	1016.5
373.384	989.5
373.61	1003.5
373.835	999.5
374.061	980.5
374.287	1038.5
374.513	1018.5
374.739	1042.5
374.965	1092.5
375.191	1077.5
375.416	1078.5
375.642	1084.5
375.868	1037.5
376.094	1012.5
376.319	1020.5
376.545	998.5
376.771	995.5
376.997	988.5
377.222	982.5
377.448	988.5
377.674	977.5
377.899	1015.5
378.125	982.5
378.35	961.5
378.576	998.5
378.802	974.5
379.027	971.5
379.253	998.5
379.478	1018.5
379.704	991.5
379.929	1008.5
380.155	1003.5
380.38	1000.5
380.606	972.5
380.831	958.5
381.057	956.5
381.282	1002.5
381.507	988.5
381.733	989.5
381.958	1000.5
382.184	1002.5
382.409	994.5
382.634	1027.5
382.86	1067.5
383.085	1061.5
383.31	1066.5
383.535	1109.5
383.761	1104.5
383.986	1101.5
384.211	1099.5
384.436	1154.5
384.662	1156.5
384.887	1172.5
385.112	1185.5
385.337	1190.5
385.562	1164.5
385.787	1181.5
386.013	1236.5
386.238	1231.5
386.463	1234.5
386.688	1235.5
386.913	1193.5
387.138	1240.5
387.363	1213.5
387.588	1187.5
387.813	1207.5
388.038	1212.5
388.263	1221.5
388.488	1228.5
388.713	1232.5
388.938	1232.5
389.163	1195.5
389.387	1177.5
389.612	1176.5
389.837	1192.5
390.062	1177.5
390.287	1187.5
390.512	1207.5
390.736	1192.5
390.961	1227.5
391.186	1265.5
391.411	1271.5
391.636	1304.5
391.86	1334.5
392.085	1371.5
392.31	1366.5
392.534	1348.5
392.759	1311.5
392.984	1314.5
393.208	1271.5
393.433	1274.5
393.658	1275.5
393.882	1295.5
394.107	1261.5
394.331	1301.5
394.556	1295.5
394.78	1305.5
395.005	1320.5
395.229	1348.5
395.454	1324.5
395.678	1364.5
395.903	1360.5
396.127	1369.5
396.352	1338.5
396.576	1291.5
396.801	1293.5
397.025	1329.5
397.249	1305.5
397.474	1362.5
397.698	1377.5
397.922	1397.5
398.147	1402.5
398.371	1433.5
398.595	1485.5
398.82	1547.5
399.044	1673.5
399.268	1817.5
399.492	2059.5
399.717	2210.5
399.941	2314.5
400.165	2149.5
400.389	1938.5
400.613	1756.5
400.837	1652.5
401.062	1634.5
401.286	1619.5
401.51	1577.5
401.734	1555.5
401.958	1571.5
402.182	1620.5
402.406	1595.5
402.63	1597.5
402.854	1659.5
403.078	1666.5
403.302	1667.5
403.526	1737.5
403.75	1724.5
403.974	1732.5
404.198	1732.5
404.422	1767.5
404.645	1721.5
404.869	1741.5
405.093	1753.5
405.317	1688.5
405.541	1706.5
405.765	1696.5
405.988	1656.5
406.212	1729.5
406.436	1716.5
406.66	1798.5
406.883	1761.5
407.107	1871.5
407.331	1921.5
407.555	2017.5
407.778	1997.5
408.002	2002.5
408.226	1899.5
408.449	1895.5
408.673	1769.5
408.896	1764.5
409.12	1767.5
409.344	1781.5
409.567	1714.5
409.791	1739.5
410.014	1702.5
410.238	1733.5
410.461	1721.5
410.685	1656.5
410.908	1665.5
411.132	1628.5
411.355	1566.5
411.578	1611.5
411.802	1617.5
412.025	1582.5
412.249	1662.5
412.472	1673.5
412.695	1594.5
412.919	1552.5
413.142	1523.5
413.365	1547.5
413.589	1565.5
413.812	1509.5
414.035	1538.5
414.258	1508.5
414.482	1531.5
414.705	1570.5
414.928	1550.5
415.151	1544.5
415.374	1537.5
415.597	1541.5
415.821	1472.5
416.044	1464.5
416.267	1490.5
416.49	1494.5
416.713	1501.5
416.936	1506.5
417.159	1464.5
417.382	1474.5
417.605	1490.5
417.828	1484.5
418.051	1509.5
418.274	1507.5
418.497	1502.5
418.72	1585.5
418.943	1605.5
419.166	1659.5
419.389	1809.5
419.611	1748.5
419.834	1617.5
420.057	1610.5
420.28	1529.5
420.503	1485.5
420.726	1492.5
420.948	1496.5
421.171	1514.5
421.394	1519.5
421.617	1479.5
421.839	1530.5
422.062	1524.5
422.285	1481.5
422.507	1562.5
422.73	1528.5
422.953	1504.5
423.175	1590.5
423.398	1566.5
423.621	1542.5
423.843	1580.5
424.066	1568.5
424.288	1545.5
424.511	1562.5
424.733	1505.5
424.956	1529.5
425.178	1532.5
425.401	1499.5
425.623	1518.5
425.846	1464.5
426.068	1451.5
426.291	1451.5
426.513	1402.5
426.735	1428.5
426.958	1438.5
427.18	1410.5
427.402	1411.5
427.625	1393.5
427.847	1342.5
428.069	1360.5
428.292	1356.5
428.514	1355.5
428.736	1322.5
428.958	1343.5
429.181	1318.5
429.403	1323.5
429.625	1272.5
429.847	1287.5
430.069	1303.5
430.292	1269.5
430.514	1261.5
430.736	1293.5
430.958	1325.5
431.18	1306.5
431.402	1320.5
431.624	1308.5
431.846	1326.5
432.068	1332.5
432.29	1352.5
432.512	1320.5
432.734	1333.5
432.956	1335.5
433.178	1347.5
433.4	1331.5
433.622	1328.5
433.844	1337.5
434.066	1335.5
434.287	1360.5
434.509	1413.5
434.731	1460.5
434.953	1480.5
435.175	1514.5
435.397	1509.5
435.618	1413.5
435.84	1400.5
436.062	1383.5
436.284	1336.5
436.505	1335.5
436.727	1317.5
436.949	1298.5
437.17	1307.5
437.392	1290.5
437.614	1266.5
437.835	1252.5
438.057	1233.5
438.278	1245.5
438.5	1253.5
438.721	1309.5
438.943	1299.5
439.165	1259.5
439.386	1269.5
439.608	1318.5
439.829	1334.5
440.05	1285.5
440.272	1326.5
440.493	1301.5
440.715	1359.5
440.936	1389.5
441.158	1421.5
441.379	1416.5
441.6	1504.5
441.822	1528.5
442.043	1523.5
442.264	1479.5
442.486	1445.5
442.707	1425.5
442.928	1446.5
443.149	1456.5
443.371	1451.5
443.592	1437.5
443.813	1495.5
444.034	1499.5
444.255	1559.5
444.476	1667.5
444.698	1703.5
444.919	1761.5
445.14	1793.5
445.361	1644.5
445.582	1550.5
445.803	1494.5
446.024	1393.5
446.245	1421.5
446.466	1346.5
446.687	1344.5
446.908	1335.5
447.129	1293.5
447.35	1290.5
447.571	1250.5
447.792	1237.5
448.013	1244.5
448.234	1230.5
448.455	1230.5
448.675	1196.5
448.896	1200.5
449.117	1209.5
449.338	1205.5
449.559	1167.5
449.779	1205.5
450	1181.5
450.221	1204.5
450.442	1208.5
450.662	1221.5
450.883	1192.5
451.104	1230.5
451.324	1237.5
451.545	1225.5
451.766	1187.5
451.986	1196.5
452.207	1197.5
452.428	1160.5
452.648	1212.5
452.869	1168.5
453.089	1129.5
453.31	1164.5
453.53	1156.5
453.751	1117.5
453.971	1178.5
454.192	1162.5
454.412	1132.5
454.633	1124.5
454.853	1127.5
455.073	1127.5
455.294	1105.5
455.514	1106.5
455.734	1150.5
455.955	1091.5
456.175	1096.5
456.395	1107.5
456.616	1115.5
456.836	1114.5
457.056	1119.5
457.276	1130.5
457.497	1140.5
457.717	1110.5
457.937	1130.5
458.157	1172.5
458.377	1148.5
458.598	1226.5
458.818	1255.5
459.038	1294.5
459.258	1334.5
459.478	1358.5
459.698	1351.5
459.918	1425.5
460.138	1458.5
460.358	1539.5
460.578	1545.5
460.798	1596.5
461.018	1564.5
461.238	1596.5
461.458	1596.5
461.678	1595.5
461.898	1591.5
462.118	1601.5
462.338	1712.5
462.558	1771.5
462.777	1800.5
462.997	1955.5
463.217	2075.5
463.437	2102.5
463.657	1971.5
463.876	1920.5
464.096	1903.5
464.316	1829.5
464.536	1829.5
464.755	1764.5
464.975	1716.5
465.195	1660.5
465.414	1554.5
465.634	1456.5
465.854	1409.5
466.073	1372.5
466.293	1376.5
466.512	1333.5
466.732	1302.5
466.951	1264.5
467.171	1279.5
467.391	1269.5
467.61	1250.5
467.829	1253.5
468.049	1252.5
468.268	1234.5
468.488	1224.5
468.707	1227.5
468.927	1207.5
469.146	1210.5
469.365	1269.5
469.585	1230.5
469.804	1280.5
470.023	1266.5
470.243	1308.5
470.462	1314.5
470.681	1329.5
470.901	1308.5
471.12	1316.5
471.339	1268.5
471.558	1225.5
471.777	1220.5
471.997	1224.5
472.216	1201.5
472.435	1198.5
472.654	1170.5
472.873	1167.5
473.092	1192.5
473.311	1194.5
473.53	1202.5
473.749	1189.5
473.968	1196.5
474.187	1194.5
474.406	1150.5
474.625	1177.5
474.844	1190.5
475.063	1197.5
475.282	1204.5
475.501	1226.5
475.72	1226.5
475.939	1196.5
476.158	1222.5
476.377	1226.5
476.596	1235.5
476.814	1285.5
477.033	1289.5
477.252	1264.5
477.471	1312.5
477.69	1332.5
477.908	1375.5
478.127	1404.5
478.346	1404.5
478.564	1441.5
478.783	1460.5
479.002	1503.5
479.22	1501.5
479.439	1509.5
479.658	1502.5
479.876	1514.5
480.095	1505.5
480.313	1569.5
480.532	1624.5
480.751	1592.5
480.969	1526.5
481.188	1479.5
481.406	1488.5
481.624	1420.5
481.843	1416.5
482.061	1381.5
482.28	1381.5
482.498	1347.5
482.717	1347.5
482.935	1336.5
483.153	1344.5
483.372	1339.5
483.59	1350.5
483.808	1349.5
484.027	1374.5
484.245	1365.5
484.463	1388.5
484.681	1400.5
484.9	1394.5
485.118	1399.5
485.336	1420.5
485.554	1403.5
485.772	1433.5
485.99	1418.5
486.209	1438.5
486.427	1453.5
486.645	1436.5
486.863	1432.5
487.081	1427.5
487.299	1433.5
487.517	1411.5
487.735	1386.5
487.953	1438.5
488.171	1440.5
488.389	1404.5
488.607	1412.5
488.825	1390.5
489.043	1429.5
489.261	1387.5
489.479	1394.5
489.696	1428.5
489.914	1408.5
490.132	1399.5
490.35	1440.5
490.568	1387.5
490.786	1436.5
491.003	1430.5
491.221	1484.5
491.439	1486.5
491.657	1457.5
491.874	1433.5
492.092	1460.5
492.31	1473.5
492.527	1483.5
492.745	1453.5
492.963	1468.5
493.18	1481.5
493.398	1482.5
493.615	1493.5
493.833	1506.5
494.05	1520.5
494.268	1522.5
494.485	1548.5
494.703	1538.5
494.92	1529.5
495.138	1510.5
495.355	1540.5
495.573	1546.5
495.79	1546.5
496.008	1556.5
496.225	1576.5
496.442	1594.5
496.66	1621.5
496.877	1623.5
497.094	1664.5
497.312	1708.5
497.529	1730.5
497.746	1816.5
497.963	1885.5
498.181	1969.5
498.398	2015.5
498.615	2191.5
498.832	2328.5
499.049	2477.5
499.267	2704.5
499.484	2942.5
499.701	3307.5
499.918	3628.5
500.135	4018.5
500.352	4372.5
500.569	4616.5
500.786	4621.5
501.003	4357.5
501.22	3977.5
501.437	3582.5
501.654	3165.5
501.871	2934.5
502.088	2661.5
502.305	2513.5
502.522	2332.5
502.739	2286.5
502.956	2119.5
503.172	2035.5
503.389	1944.5
503.606	1895.5
503.823	1844.5
504.04	1780.5
504.256	1860.5
504.473	1870.5
504.69	1842.5
504.907	1844.5
505.123	1740.5
505.34	1652.5
505.557	1589.5
505.773	1500.5
505.99	1495.5
506.207	1472.5
506.423	1418.5
506.64	1449.5
506.856	1369.5
507.073	1357.5
507.289	1367.5
507.506	1405.5
507.722	1366.5
507.939	1348.5
508.155	1321.5
508.372	1316.5
508.588	1293.5
508.805	1292.5
509.021	1300.5
509.238	1270.5
509.454	1268.5
509.67	1271.5
509.887	1273.5
510.103	1238.5
510.319	1257.5
510.536	1252.5
510.752	1237.5
510.968	1243.5
511.184	1253.5
511.401	1216.5
511.617	1233.5
511.833	1219.5
512.049	1225.5
512.265	1190.5
512.481	1203.5
512.698	1178.5
512.914	1204.5
513.13	1244.5
513.346	1214.5
513.562	1223.5
513.778	1225.5
513.994	1253.5
514.21	1250.5
514.426	1238.5
514.642	1255.5
514.858	1275.5
515.074	1267.5
515.29	1289.5
515.506	1304.5
515.721	1344.5
515.937	1344.5
516.153	1357.5
516.369	1402.5
516.585	1447.5
516.801	1489.5
517.016	1534.5
517.232	1621.5
517.448	1664.5
517.664	1714.5
517.879	1741.5
518.095	1738.5
518.311	1705.5
518.527	1666.5
518.742	1581.5
518.958	1516.5
519.173	1463.5
519.389	1436.5
519.605	1380.5
519.82	1362.5
520.036	1333.5
520.251	1293.5
520.467	1291.5
520.682	1246.5
520.898	1231.5
521.113	1227.5
521.329	1211.5
521.544	1180.5
521.76	1196.5
521.975	1194.5
522.19	1206.5
522.406	1132.5
522.621	1175.5
522.836	1123.5
523.052	1160.5
523.267	1140.5
523.482	1155.5
523.698	1138.5
523.913	1155.5
524.128	1142.5
524.343	1128.5
524.559	1099.5
524.774	1109.5
524.989	1088.5
525.204	1138.5
525.419	1088.5
525.634	1097.5
525.849	1098.5
526.064	1088.5
526.28	1088.5
526.495	1072.5
526.71	1113.5
526.925	1089.5
527.14	1053.5
527.355	1120.5
527.57	1108.5
527.785	1096.5
527.999	1115.5
528.214	1106.5
528.429	1099.5
528.644	1097.5
528.859	1112.5
529.074	1089.5
529.289	1115.5
529.503	1099.5
529.718	1074.5
529.933	1094.5
530.148	1097.5
530.363	1106.5
530.577	1073.5
530.792	1054.5
531.007	1109.5
531.221	1084.5
531.436	1113.5
531.651	1090.5
531.865	1101.5
532.08	1115.5
532.295	1110.5
532.509	1085.5
532.724	1099.5
532.938	1072.5
533.153	1086.5
533.367	1118.5
533.582	1091.5
533.796	1109.5
534.011	1081.5
534.225	1101.5
534.44	1082.5
534.654	1080.5
534.868	1073.5
535.083	1078.5
535.297	1055.5
535.511	1082.5
535.726	1061.5
535.94	1033.5
536.154	1063.5
536.369	1020.5
536.583	1028.5
536.797	1044.5
537.011	1011.5
537.225	1019.5
537.44	1021.5
537.654	1016.5
537.868	988.5
538.082	974.5
538.296	977.5
538.51	980.5
538.724	988.5
538.938	986.5
539.153	977.5
539.367	996.5
539.581	957.5
539.795	968.5
540.009	980.5
540.222	969.5
540.436	1004.5
540.65	952.5
540.864	974.5
541.078	966.5
541.292	945.5
541.506	985.5
541.72	973.5
541.934	987.5
542.147	1008.5
542.361	980.5
542.575	938.5
542.789	966.5
543.002	962.5
543.216	976.5
543.43	946.5
543.644	963.5
543.857	967.5
544.071	957.5
544.285	985.5
544.498	980.5
544.712	951.5
544.925	972.5
545.139	979.5
545.352	996.5
545.566	990.5
545.779	1010.5
545.993	1008.5
546.206	975.5
546.42	991.5
546.633	1000.5
546.847	982.5
547.06	986.5
547.274	975.5
547.487	1001.5
547.7	997.5
547.914	1006.5
548.127	1016.5
548.34	1027.5
548.554	1018.5
548.767	1022.5
548.98	1005.5
549.193	1011.5
549.407	997.5
549.62	1021.5
549.833	1060.5
550.046	1043.5
550.259	1000.5
550.473	993.5
550.686	996.5
550.899	996.5
551.112	1003.5
551.325	978.5
551.538	975.5
551.751	990.5
551.964	984.5
552.177	1011.5
552.39	1012.5
552.603	1064.5
552.816	1070.5
553.029	1098.5
553.242	1095.5
553.455	1108.5
553.667	1100.5
553.88	1082.5
554.093	1098.5
554.306	1024.5
554.519	1012.5
554.732	996.5
554.944	991.5
555.157	975.5
555.37	953.5
555.583	951.5
555.795	952.5
556.008	893.5
556.221	914.5
556.433	895.5
556.646	877.5
556.859	881.5
557.071	870.5
557.284	844.5
557.496	848.5
557.709	850.5
557.921	844.5
558.134	864.5
558.346	828.5
558.559	826.5
558.771	846.5
558.984	812.5
559.196	818.5
559.409	844.5
559.621	801.5
559.833	828.5
560.046	848.5
560.258	833.5
560.47	784.5
560.683	804.5
560.895	823.5
561.107	807.5
561.32	819.5
561.532	827.5
561.744	817.5
561.956	821.5
562.168	818.5
562.381	812.5
562.593	826.5
562.805	816.5
563.017	834.5
563.229	826.5
563.441	828.5
563.653	832.5
563.865	848.5
564.077	846.5
564.289	854.5
564.501	873.5
564.713	881.5
564.925	936.5
565.137	901.5
565.349	912.5
565.561	974.5
565.773	993.5
565.985	1037.5
566.197	1114.5
566.408	1225.5
566.62	1272.5
566.832	1351.5
567.044	1409.5
567.255	1421.5
567.467	1426.5
567.679	1479.5
567.891	1581.5
568.102	1568.5
568.314	1481.5
568.526	1402.5
568.737	1281.5
568.949	1179.5
569.161	1110.5
569.372	1030.5
569.584	960.5
569.795	922.5
570.007	908.5
570.218	887.5
570.43	874.5
570.641	867.5
570.853	886.5
571.064	851.5
571.276	846.5
571.487	836.5
571.698	804.5
571.91	739.5
572.121	749.5
572.333	766.5
572.544	744.5
572.755	726.5
572.966	716.5
573.178	696.5
573.389	686.5
573.6	715.5
573.811	676.5
574.023	679.5
574.234	696.5
574.445	677.5
574.656	653.5
574.867	681.5
575.078	670.5
575.289	668.5
575.501	684.5
575.712	652.5
575.923	626.5
576.134	646.5
576.345	628.5
576.556	636.5
576.767	639.5
576.978	640.5
577.188	629.5
577.399	621.5
577.61	595.5
577.821	625.5
578.032	625.5
578.243	602.5
578.454	612.5
578.665	615.5
578.875	598.5
579.086	581.5
579.297	561.5
579.508	604.5
579.718	583.5
579.929	589.5
580.14	597.5
580.35	565.5
580.561	573.5
580.772	556.5
580.982	565.5
581.193	582.5
581.403	589.5
581.614	567.5
581.825	569.5
582.035	574.5
582.246	552.5
582.456	547.5
582.667	572.5
582.877	575.5
583.087	547.5
583.298	570.5
583.508	555.5
583.719	569.5
583.929	554.5
584.139	579.5
584.35	534.5
584.56	540.5
584.77	551.5
584.981	540.5
585.191	557.5
585.401	540.5
585.611	561.5
585.821	562.5
586.032	531.5
586.242	544.5
586.452	530.5
586.662	544.5
586.872	530.5
587.082	547.5
587.292	542.5
587.502	551.5
587.713	522.5
587.923	520.5
588.133	529.5
588.343	538.5
588.553	564.5
588.762	521.5
588.972	554.5
589.182	548.5
589.392	568.5
589.602	551.5
589.812	536.5
590.022	530.5
590.232	553.5
590.441	545.5
590.651	561.5
590.861	540.5
591.071	565.5
591.281	574.5
591.49	559.5
591.7	581.5
591.91	586.5
592.119	600.5
592.329	621.5
592.539	636.5
592.748	630.5
592.958	669.5
593.167	684.5
593.377	689.5
593.587	714.5
593.796	670.5
594.006	685.5
594.215	697.5
594.424	696.5
594.634	665.5
594.843	628.5
595.053	640.5
595.262	602.5
595.472	587.5
595.681	596.5
595.89	585.5
596.1	560.5
596.309	532.5
596.518	525.5
596.727	499.5
596.937	523.5
597.146	493.5
597.355	469.5
597.564	487.5
597.774	486.5
597.983	465.5
598.192	461.5
598.401	497.5
598.61	476.5
598.819	468.5
599.028	472.5
599.237	461.5
599.446	456.5
599.655	430.5
599.864	447.5
600.073	456.5
600.282	462.5
600.491	449.5
600.7	466.5
600.909	456.5
601.118	443.5
601.327	446.5
601.536	425.5
601.745	444.5
601.953	420.5
602.162	443.5
602.371	416.5
602.58	457.5
602.789	437.5
602.997	410.5
603.206	422.5
603.415	419.5
603.623	425.5
603.832	419.5
604.041	424.5
604.249	399.5
604.458	416.5
604.666	405.5
604.875	406.5
605.084	402.5
605.292	391.5
605.501	407.5
605.709	401.5
605.918	399.5
606.126	393.5
606.334	405.5
606.543	403.5
606.751	413.5
606.96	390.5
607.168	394.5
607.376	398.5
607.585	390.5
607.793	402.5
608.001	399.5
608.21	396.5
608.418	393.5
608.626	397.5
608.834	391.5
609.043	397.5
609.251	396.5
609.459	375.5
609.667	392.5
609.875	399.5
610.083	391.5
610.291	413.5
610.499	376.5
610.707	382.5
610.916	388.5
611.124	393.5
611.332	389.5
611.54	398.5
611.748	392.5
611.955	377.5
612.163	374.5
612.371	390.5
612.579	384.5
612.787	374.5
612.995	380.5
613.203	385.5
613.411	372.5
613.618	380.5
613.826	361.5
614.034	390.5
614.242	354.5
614.449	376.5
614.657	361.5
614.865	366.5
615.072	374.5
615.28	388.5
615.488	377.5
615.695	376.5
615.903	376.5
616.111	381.5
616.318	359.5
616.526	374.5
616.733	370.5
616.941	355.5
617.148	368.5
617.356	368.5
617.563	356.5
617.771	370.5
617.978	364.5
618.185	365.5
618.393	373.5
618.6	370.5
618.807	378.5
619.015	357.5
619.222	371.5
619.429	384.5
619.637	372.5
619.844	370.5
620.051	345.5
620.258	344.5
620.466	357.5
620.673	352.5
620.88	349.5
621.087	337.5
621.294	356.5
621.501	332.5
621.708	337.5
621.915	326.5
622.122	343.5
622.329	352.5
622.536	340.5
622.743	354.5
622.95	344.5
623.157	338.5
623.364	335.5
623.571	343.5
623.778	341.5
623.985	343.5
624.192	317.5
624.399	319.5
624.606	306.5
624.812	338.5
625.019	334.5
625.226	344.5
625.433	327.5
625.639	318.5
625.846	318.5
626.053	324.5
626.259	322.5
626.466	311.5
626.673	308.5
626.879	306.5
627.086	325.5
627.293	301.5
627.499	304.5
627.706	293.5
627.912	309.5
628.119	323.5
628.325	294.5
628.532	310.5
628.738	304.5
628.945	286.5
629.151	305.5
629.357	296.5
629.564	308.5
629.77	302.5
629.976	299.5
630.183	291.5
630.389	312.5
630.595	301.5
630.802	301.5
631.008	293.5
631.214	285.5
631.42	290.5
631.627	309.5
631.833	291.5
632.039	288.5
632.245	292.5
632.451	289.5
632.657	274.5
632.863	281.5
633.069	277.5
633.275	290.5
633.481	290.5
633.688	279.5
633.893	282.5
634.099	276.5
634.305	263.5
634.511	282.5
634.717	277.5
634.923	281.5
635.129	264.5
635.335	265.5
635.541	271.5
635.747	258.5
635.952	266.5
636.158	277.5
636.364	267.5
636.57	235.5
636.775	250.5
636.981	272.5
637.187	259.5
637.392	250.5
637.598	267.5
637.804	276.5
638.009	264.5
638.215	244.5
638.421	248.5
638.626	260.5
638.832	241.5
639.037	249.5
639.243	256.5
639.448	244.5
639.654	253.5
639.859	243.5
640.065	252.5
640.27	262.5
640.475	253.5
640.681	259.5
640.886	250.5
641.091	244.5
641.297	236.5
641.502	256.5
641.707	223.5
641.913	240.5
642.118	245.5
642.323	246.5
642.528	246.5
642.733	240.5
642.939	246.5
643.144	245.5
643.349	236.5
643.554	236.5
643.759	222.5
643.964	222.5
644.169	235.5
644.374	242.5
644.579	241.5
644.784	247.5
644.989	220.5
645.194	236.5
645.399	232.5
645.604	236.5
645.809	254.5
646.014	255.5
646.219	221.5
646.423	223.5
646.628	226.5
646.833	243.5
647.038	220.5
647.243	248.5
647.447	234.5
647.652	231.5
647.857	256.5
648.062	249.5
648.266	228.5
648.471	237.5
648.676	263.5
648.88	240.5
649.085	255.5
649.289	227.5
649.494	237.5
649.698	220.5
649.903	251.5
650.107	235.5
650.312	222.5
650.516	214.5
650.721	213.5
650.925	193.5
651.13	203.5
651.334	202.5
651.539	198.5
651.743	202.5
651.947	182.5
652.152	199.5
652.356	216.5
652.56	172.5
652.764	189.5
652.969	204.5
653.173	196.5
653.377	182.5
653.581	151.5
653.785	162.5
653.99	180.5
654.194	178.5
654.398	172.5
654.602	181.5
654.806	176.5
655.01	168.5
655.214	167.5
655.418	158.5
655.622	176.5
655.826	157.5
656.03	163.5
656.234	146.5
656.438	157.5
656.642	155.5
656.846	169.5
657.049	137.5
657.253	140.5
657.457	131.5
657.661	124.5
657.865	138.5
658.068	116.5
658.272	115.5
658.476	117.5
658.68	116.5
658.883	114.5
659.087	109.5
659.291	126.5
659.494	120.5
659.698	116.5
659.901	100.5
660.105	94.5
660.309	100.5
660.512	117.5
660.716	104.5
660.919	105.5
661.123	92.5
661.326	102.5
661.53	95.5
661.733	100.5
661.936	90.5
662.14	88.5
662.343	95.5
662.546	84.5
662.75	93.5
662.953	90.5
663.156	86.5
663.36	83.5
663.563	80.5
663.766	91.5
663.969	75.5
664.173	85.5
664.376	81.5
664.579	87.5
664.782	70.5
664.985	84.5
665.188	88.5
665.391	89.5
665.594	72.5
665.797	87.5
666	98.5
666.203	89.5
666.406	91.5
666.609	89.5
666.812	83.5
667.015	76.5
667.218	94.5
667.421	70.5
667.624	86.5
667.827	77.5
668.03	78.5
668.232	94.5
668.435	78.5
668.638	69.5
668.841	83.5
669.043	78.5
669.246	79.5
669.449	68.5
669.651	83.5
669.854	78.5
670.057	96.5
670.259	82.5
670.462	78.5
670.665	82.5
670.867	78.5
671.07	84.5
671.272	72.5
671.475	77.5
671.677	88.5
671.88	85.5
672.082	85.5
672.284	70.5
672.487	85.5
672.689	83.5
672.892	70.5
