Data from NiCl2@0.25M.TitratingCurve.Agarose3%dH2O.NegLispCup.LampEnergy10.LIBS07252019_HRD10591_18-25-20-573.txt Node
Date: Thu Jul 25 18:25:20 EDT 2019
User: cochatt
Spectrometer: HR+D1059
Trigger mode: 1
Integration Time (sec): 1.000000E-1
Scans to average: 1
Electric dark correction enabled: true
Nonlinearity correction enabled: false
Boxcar width: 0
XAxis mode: Wavelengths
Number of Pixels in Spectrum: 2048
>>>>>Begin Spectral Data<<<<<
223.165	-11.38
223.4	-11.38
223.635	-11.38
223.869	-1.38
224.104	-15.38
224.338	-10.38
224.573	-9.38
224.808	-23.38
225.042	4.62
225.277	-0.38
225.511	-0.38
225.746	0.62
225.98	2.62
226.215	-2.38
226.449	17.62
226.683	11.62
226.918	24.62
227.152	12.62
227.387	34.62
227.621	42.62
227.856	42.62
228.09	55.62
228.324	54.62
228.559	44.62
228.793	59.62
229.027	80.62
229.262	123.62
229.496	98.62
229.73	122.62
229.964	114.62
230.199	111.62
230.433	131.62
230.667	128.62
230.901	125.62
231.136	123.62
231.37	134.62
231.604	123.62
231.838	140.62
232.072	131.62
232.306	163.62
232.541	139.62
232.775	136.62
233.009	140.62
233.243	130.62
233.477	152.62
233.711	152.62
233.945	141.62
234.179	150.62
234.413	148.62
234.647	132.62
234.881	149.62
235.115	144.62
235.349	161.62
235.583	155.62
235.817	138.62
236.051	160.62
236.285	156.62
236.519	152.62
236.753	149.62
236.987	173.62
237.221	153.62
237.455	150.62
237.689	153.62
237.922	157.62
238.156	156.62
238.39	164.62
238.624	160.62
238.858	169.62
239.091	170.62
239.325	173.62
239.559	166.62
239.793	169.62
240.027	183.62
240.26	168.62
240.494	158.62
240.728	178.62
240.961	169.62
241.195	177.62
241.429	171.62
241.662	162.62
241.896	184.62
242.13	190.62
242.363	170.62
242.597	206.62
242.83	188.62
243.064	199.62
243.298	193.62
243.531	192.62
243.765	198.62
243.998	203.62
244.232	185.62
244.465	205.62
244.699	193.62
244.932	198.62
245.166	191.62
245.399	199.62
245.633	190.62
245.866	198.62
246.099	196.62
246.333	216.62
246.566	211.62
246.8	204.62
247.033	213.62
247.266	208.62
247.5	223.62
247.733	221.62
247.966	208.62
248.2	213.62
248.433	225.62
248.666	239.62
248.899	237.62
249.133	215.62
249.366	236.62
249.599	232.62
249.832	210.62
250.066	251.62
250.299	217.62
250.532	230.62
250.765	246.62
250.998	236.62
251.231	242.62
251.465	228.62
251.698	233.62
251.931	257.62
252.164	258.62
252.397	235.62
252.63	236.62
252.863	273.62
253.096	252.62
253.329	243.62
253.562	256.62
253.795	250.62
254.028	260.62
254.261	232.62
254.494	261.62
254.727	260.62
254.96	246.62
255.193	262.62
255.426	255.62
255.659	269.62
255.892	276.62
256.124	252.62
256.357	266.62
256.59	280.62
256.823	296.62
257.056	280.62
257.289	281.62
257.521	277.62
257.754	280.62
257.987	274.62
258.22	277.62
258.452	306.62
258.685	279.62
258.918	293.62
259.151	279.62
259.383	287.62
259.616	295.62
259.849	277.62
260.081	285.62
260.314	301.62
260.547	309.62
260.779	285.62
261.012	304.62
261.244	280.62
261.477	298.62
261.71	328.62
261.942	300.62
262.175	308.62
262.407	322.62
262.64	300.62
262.872	326.62
263.105	308.62
263.337	323.62
263.57	310.62
263.802	325.62
264.035	325.62
264.267	313.62
264.499	320.62
264.732	292.62
264.964	330.62
265.197	328.62
265.429	328.62
265.661	323.62
265.894	341.62
266.126	333.62
266.358	347.62
266.591	348.62
266.823	312.62
267.055	322.62
267.287	326.62
267.52	342.62
267.752	335.62
267.984	330.62
268.216	326.62
268.448	357.62
268.681	348.62
268.913	360.62
269.145	360.62
269.377	340.62
269.609	333.62
269.841	343.62
270.073	346.62
270.306	340.62
270.538	349.62
270.77	372.62
271.002	346.62
271.234	366.62
271.466	376.62
271.698	374.62
271.93	365.62
272.162	366.62
272.394	370.62
272.626	368.62
272.858	372.62
273.09	374.62
273.322	372.62
273.553	371.62
273.785	371.62
274.017	360.62
274.249	365.62
274.481	368.62
274.713	406.62
274.945	370.62
275.176	381.62
275.408	382.62
275.64	381.62
275.872	388.62
276.104	398.62
276.335	402.62
276.567	400.62
276.799	405.62
277.031	408.62
277.262	390.62
277.494	408.62
277.726	402.62
277.957	412.62
278.189	381.62
278.421	412.62
278.652	387.62
278.884	406.62
279.115	413.62
279.347	416.62
279.579	417.62
279.81	419.62
280.042	388.62
280.273	390.62
280.505	417.62
280.736	426.62
280.968	424.62
281.199	416.62
281.431	433.62
281.662	436.62
281.894	420.62
282.125	430.62
282.356	444.62
282.588	421.62
282.819	422.62
283.051	440.62
283.282	432.62
283.513	444.62
283.745	422.62
283.976	460.62
284.207	441.62
284.439	445.62
284.67	476.62
284.901	464.62
285.132	437.62
285.364	433.62
285.595	457.62
285.826	450.62
286.057	453.62
286.288	457.62
286.52	451.62
286.751	457.62
286.982	451.62
287.213	490.62
287.444	456.62
287.675	478.62
287.906	472.62
288.138	480.62
288.369	491.62
288.6	473.62
288.831	478.62
289.062	471.62
289.293	455.62
289.524	496.62
289.755	486.62
289.986	468.62
290.217	474.62
290.448	452.62
290.679	487.62
290.91	474.62
291.141	484.62
291.371	474.62
291.602	464.62
291.833	467.62
292.064	460.62
292.295	485.62
292.526	490.62
292.757	472.62
292.987	488.62
293.218	473.62
293.449	496.62
293.68	493.62
293.91	496.62
294.141	490.62
294.372	479.62
294.603	472.62
294.833	483.62
295.064	497.62
295.295	518.62
295.525	481.62
295.756	482.62
295.987	501.62
296.217	520.62
296.448	493.62
296.679	506.62
296.909	524.62
297.14	505.62
297.37	514.62
297.601	518.62
297.831	517.62
298.062	509.62
298.292	523.62
298.523	513.62
298.753	541.62
298.984	537.62
299.214	531.62
299.445	524.62
299.675	531.62
299.905	545.62
300.136	546.62
300.366	567.62
300.597	538.62
300.827	550.62
301.057	548.62
301.288	566.62
301.518	571.62
301.748	541.62
301.979	562.62
302.209	539.62
302.439	551.62
302.669	557.62
302.9	556.62
303.13	554.62
303.36	546.62
303.59	544.62
303.82	538.62
304.051	542.62
304.281	561.62
304.511	561.62
304.741	551.62
304.971	545.62
305.201	525.62
305.431	557.62
305.661	539.62
305.891	554.62
306.121	547.62
306.352	569.62
306.582	546.62
306.812	555.62
307.042	533.62
307.272	537.62
307.502	536.62
307.731	550.62
307.961	552.62
308.191	533.62
308.421	542.62
308.651	544.62
308.881	532.62
309.111	535.62
309.341	501.62
309.571	542.62
309.8	538.62
310.03	552.62
310.26	569.62
310.49	543.62
310.72	548.62
310.949	514.62
311.179	577.62
311.409	532.62
311.639	555.62
311.868	556.62
312.098	548.62
312.328	587.62
312.557	582.62
312.787	558.62
313.017	572.62
313.246	573.62
313.476	581.62
313.706	585.62
313.935	583.62
314.165	579.62
314.394	591.62
314.624	588.62
314.853	592.62
315.083	581.62
315.312	597.62
315.542	569.62
315.771	589.62
316.001	574.62
316.23	548.62
316.46	570.62
316.689	569.62
316.919	585.62
317.148	569.62
317.377	581.62
317.607	570.62
317.836	558.62
318.065	565.62
318.295	564.62
318.524	570.62
318.753	557.62
318.983	551.62
319.212	574.62
319.441	576.62
319.67	572.62
319.9	570.62
320.129	576.62
320.358	578.62
320.587	556.62
320.816	573.62
321.046	566.62
321.275	567.62
321.504	568.62
321.733	573.62
321.962	597.62
322.191	566.62
322.42	570.62
322.649	562.62
322.878	583.62
323.108	560.62
323.337	590.62
323.566	597.62
323.795	603.62
324.024	613.62
324.253	576.62
324.482	598.62
324.71	597.62
324.939	616.62
325.168	589.62
325.397	582.62
325.626	589.62
325.855	618.62
326.084	619.62
326.313	643.62
326.542	613.62
326.77	634.62
326.999	624.62
327.228	621.62
327.457	612.62
327.686	612.62
327.914	634.62
328.143	628.62
328.372	622.62
328.6	642.62
328.829	630.62
329.058	611.62
329.287	632.62
329.515	636.62
329.744	628.62
329.972	632.62
330.201	636.62
330.43	630.62
330.658	611.62
330.887	638.62
331.115	669.62
331.344	652.62
331.572	652.62
331.801	666.62
332.03	675.62
332.258	715.62
332.486	733.62
332.715	739.62
332.943	795.62
333.172	796.62
333.4	835.62
333.629	856.62
333.857	856.62
334.085	840.62
334.314	801.62
334.542	789.62
334.771	825.62
334.999	791.62
335.227	780.62
335.455	783.62
335.684	763.62
335.912	768.62
336.14	754.62
336.369	757.62
336.597	796.62
336.825	793.62
337.053	745.62
337.281	743.62
337.51	715.62
337.738	715.62
337.966	711.62
338.194	712.62
338.422	695.62
338.65	682.62
338.878	683.62
339.106	664.62
339.334	688.62
339.562	699.62
339.79	673.62
340.018	665.62
340.246	648.62
340.474	662.62
340.702	658.62
340.93	655.62
341.158	636.62
341.386	651.62
341.614	658.62
341.842	658.62
342.07	650.62
342.298	650.62
342.526	647.62
342.754	662.62
342.981	676.62
343.209	662.62
343.437	709.62
343.665	768.62
343.893	789.62
344.12	832.62
344.348	768.62
344.576	723.62
344.804	693.62
345.031	654.62
345.259	653.62
345.487	672.62
345.714	658.62
345.942	653.62
346.17	628.62
346.397	642.62
346.625	656.62
346.853	647.62
347.08	640.62
347.308	659.62
347.535	643.62
347.763	624.62
347.99	647.62
348.218	634.62
348.445	623.62
348.673	638.62
348.9	628.62
349.128	630.62
349.355	624.62
349.583	658.62
349.81	628.62
350.037	636.62
350.265	614.62
350.492	630.62
350.72	622.62
350.947	622.62
351.174	611.62
351.402	616.62
351.629	621.62
351.856	600.62
352.083	605.62
352.311	613.62
352.538	594.62
352.765	611.62
352.992	609.62
353.22	595.62
353.447	601.62
353.674	590.62
353.901	593.62
354.128	596.62
354.355	599.62
354.583	620.62
354.81	614.62
355.037	612.62
355.264	599.62
355.491	605.62
355.718	617.62
355.945	606.62
356.172	600.62
356.399	599.62
356.626	590.62
356.853	591.62
357.08	633.62
357.307	611.62
357.534	611.62
357.761	615.62
357.988	628.62
358.215	604.62
358.441	614.62
358.668	619.62
358.895	609.62
359.122	606.62
359.349	616.62
359.576	651.62
359.802	600.62
360.029	632.62
360.256	631.62
360.483	617.62
360.709	620.62
360.936	655.62
361.163	602.62
361.39	589.62
361.616	601.62
361.843	623.62
362.07	587.62
362.296	607.62
362.523	607.62
362.749	608.62
362.976	590.62
363.203	596.62
363.429	590.62
363.656	608.62
363.882	614.62
364.109	605.62
364.335	608.62
364.562	617.62
364.788	624.62
365.015	601.62
365.241	601.62
365.468	605.62
365.694	595.62
365.92	612.62
366.147	620.62
366.373	614.62
366.599	603.62
366.826	602.62
367.052	592.62
367.278	597.62
367.505	616.62
367.731	613.62
367.957	610.62
368.184	612.62
368.41	630.62
368.636	632.62
368.862	629.62
369.089	621.62
369.315	617.62
369.541	626.62
369.767	621.62
369.993	614.62
370.219	627.62
370.445	645.62
370.672	629.62
370.898	657.62
371.124	680.62
371.35	668.62
371.576	691.62
371.802	690.62
372.028	662.62
372.254	640.62
372.48	667.62
372.706	712.62
372.932	719.62
373.158	698.62
373.384	664.62
373.61	648.62
373.835	669.62
374.061	646.62
374.287	661.62
374.513	686.62
374.739	714.62
374.965	725.62
375.191	765.62
375.416	735.62
375.642	704.62
375.868	713.62
376.094	667.62
376.319	680.62
376.545	670.62
376.771	674.62
376.997	649.62
377.222	677.62
377.448	685.62
377.674	660.62
377.899	665.62
378.125	668.62
378.35	640.62
378.576	673.62
378.802	671.62
379.027	660.62
379.253	667.62
379.478	660.62
379.704	660.62
379.929	679.62
380.155	649.62
380.38	643.62
380.606	674.62
380.831	685.62
381.057	647.62
381.282	650.62
381.507	670.62
381.733	649.62
381.958	664.62
382.184	691.62
382.409	705.62
382.634	690.62
382.86	728.62
383.085	715.62
383.31	724.62
383.535	752.62
383.761	750.62
383.986	757.62
384.211	752.62
384.436	772.62
384.662	793.62
384.887	810.62
385.112	779.62
385.337	794.62
385.562	799.62
385.787	796.62
386.013	792.62
386.238	817.62
386.463	810.62
386.688	800.62
386.913	802.62
387.138	790.62
387.363	788.62
387.588	838.62
387.813	799.62
388.038	776.62
388.263	794.62
388.488	821.62
388.713	808.62
388.938	778.62
389.163	772.62
389.387	788.62
389.612	770.62
389.837	771.62
390.062	785.62
390.287	778.62
390.512	789.62
390.736	788.62
390.961	830.62
391.186	827.62
391.411	846.62
391.636	874.62
391.86	900.62
392.085	893.62
392.31	910.62
392.534	893.62
392.759	877.62
392.984	861.62
393.208	846.62
393.433	854.62
393.658	836.62
393.882	872.62
394.107	856.62
394.331	840.62
394.556	866.62
394.78	835.62
395.005	870.62
395.229	876.62
395.454	896.62
395.678	909.62
395.903	917.62
396.127	867.62
396.352	856.62
396.576	853.62
396.801	864.62
397.025	887.62
397.249	887.62
397.474	916.62
397.698	904.62
397.922	913.62
398.147	905.62
398.371	923.62
398.595	956.62
398.82	1001.62
399.044	1038.62
399.268	1146.62
399.492	1334.62
399.717	1506.62
399.941	1508.62
400.165	1344.62
400.389	1212.62
400.613	1122.62
400.837	1057.62
401.062	1033.62
401.286	1008.62
401.51	1012.62
401.734	1000.62
401.958	1005.62
402.182	1017.62
402.406	1029.62
402.63	1061.62
402.854	1075.62
403.078	1086.62
403.302	1083.62
403.526	1144.62
403.75	1159.62
403.974	1174.62
404.198	1146.62
404.422	1178.62
404.645	1166.62
404.869	1163.62
405.093	1129.62
405.317	1102.62
405.541	1110.62
405.765	1132.62
405.988	1069.62
406.212	1110.62
406.436	1078.62
406.66	1149.62
406.883	1156.62
407.107	1212.62
407.331	1248.62
407.555	1305.62
407.778	1298.62
408.002	1235.62
408.226	1204.62
408.449	1238.62
408.673	1162.62
408.896	1110.62
409.12	1127.62
409.344	1123.62
409.567	1138.62
409.791	1161.62
410.014	1143.62
410.238	1129.62
410.461	1108.62
410.685	1113.62
410.908	1065.62
411.132	1086.62
411.355	1026.62
411.578	1043.62
411.802	1021.62
412.025	1033.62
412.249	1035.62
412.472	1078.62
412.695	1039.62
412.919	1033.62
413.142	1022.62
413.365	995.62
413.589	1002.62
413.812	1011.62
414.035	1002.62
414.258	1008.62
414.482	992.62
414.705	1025.62
414.928	1058.62
415.151	1010.62
415.374	1008.62
415.597	984.62
415.821	986.62
416.044	966.62
416.267	979.62
416.49	980.62
416.713	974.62
416.936	1017.62
417.159	964.62
417.382	992.62
417.605	997.62
417.828	1003.62
418.051	982.62
418.274	977.62
418.497	997.62
418.72	1021.62
418.943	1041.62
419.166	1088.62
419.389	1150.62
419.611	1093.62
419.834	1085.62
420.057	1054.62
420.28	1021.62
420.503	972.62
420.726	998.62
420.948	992.62
421.171	971.62
421.394	991.62
421.617	979.62
421.839	1000.62
422.062	1015.62
422.285	968.62
422.507	965.62
422.73	1003.62
422.953	1010.62
423.175	1024.62
423.398	1042.62
423.621	1038.62
423.843	1072.62
424.066	1064.62
424.288	1053.62
424.511	1032.62
424.733	1016.62
424.956	1003.62
425.178	997.62
425.401	977.62
425.623	975.62
425.846	952.62
426.068	979.62
426.291	926.62
426.513	959.62
426.735	920.62
426.958	910.62
427.18	901.62
427.402	906.62
427.625	925.62
427.847	846.62
428.069	896.62
428.292	890.62
428.514	880.62
428.736	891.62
428.958	906.62
429.181	869.62
429.403	844.62
429.625	876.62
429.847	858.62
430.069	882.62
430.292	885.62
430.514	858.62
430.736	860.62
430.958	861.62
431.18	845.62
431.402	852.62
431.624	856.62
431.846	909.62
432.068	884.62
432.29	904.62
432.512	860.62
432.734	856.62
432.956	864.62
433.178	905.62
433.4	856.62
433.622	884.62
433.844	892.62
434.066	874.62
434.287	907.62
434.509	910.62
434.731	937.62
434.953	982.62
435.175	985.62
435.397	969.62
435.618	926.62
435.84	889.62
436.062	887.62
436.284	871.62
436.505	861.62
436.727	882.62
436.949	896.62
437.17	871.62
437.392	857.62
437.614	847.62
437.835	836.62
438.057	850.62
438.278	840.62
438.5	836.62
438.721	858.62
438.943	829.62
439.165	848.62
439.386	846.62
439.608	870.62
439.829	871.62
440.05	888.62
440.272	890.62
440.493	888.62
440.715	880.62
440.936	903.62
441.158	915.62
441.379	950.62
441.6	1018.62
441.822	977.62
442.043	984.62
442.264	962.62
442.486	949.62
442.707	962.62
442.928	954.62
443.149	969.62
443.371	955.62
443.592	955.62
443.813	976.62
444.034	999.62
444.255	1024.62
444.476	1096.62
444.698	1122.62
444.919	1156.62
445.14	1221.62
445.361	1095.62
445.582	1020.62
445.803	952.62
446.024	944.62
446.245	939.62
446.466	902.62
446.687	859.62
446.908	884.62
447.129	867.62
447.35	830.62
447.571	832.62
447.792	838.62
448.013	829.62
448.234	794.62
448.455	818.62
448.675	801.62
448.896	803.62
449.117	785.62
449.338	781.62
449.559	806.62
449.779	793.62
450	806.62
450.221	803.62
450.442	809.62
450.662	827.62
450.883	823.62
451.104	822.62
451.324	848.62
451.545	806.62
451.766	794.62
451.986	794.62
452.207	809.62
452.428	785.62
452.648	828.62
452.869	792.62
453.089	778.62
453.31	792.62
453.53	784.62
453.751	778.62
453.971	743.62
454.192	769.62
454.412	770.62
454.633	765.62
454.853	747.62
455.073	769.62
455.294	764.62
455.514	722.62
455.734	749.62
455.955	730.62
456.175	740.62
456.395	737.62
456.616	733.62
456.836	756.62
457.056	737.62
457.276	733.62
457.497	765.62
457.717	758.62
457.937	782.62
458.157	779.62
458.377	781.62
458.598	805.62
458.818	819.62
459.038	824.62
459.258	862.62
459.478	884.62
459.698	915.62
459.918	921.62
460.138	957.62
460.358	1011.62
460.578	1026.62
460.798	1048.62
461.018	1054.62
461.238	1017.62
461.458	1013.62
461.678	1000.62
461.898	1065.62
462.118	1055.62
462.338	1117.62
462.558	1146.62
462.777	1143.62
462.997	1285.62
463.217	1372.62
463.437	1413.62
463.657	1282.62
463.876	1222.62
464.096	1179.62
464.316	1218.62
464.536	1213.62
464.755	1175.62
464.975	1127.62
465.195	1085.62
465.414	1002.62
465.634	954.62
465.854	907.62
466.073	882.62
466.293	871.62
466.512	860.62
466.732	857.62
466.951	856.62
467.171	830.62
467.391	856.62
467.61	830.62
467.829	835.62
468.049	846.62
468.268	809.62
468.488	808.62
468.707	831.62
468.927	809.62
469.146	816.62
469.365	793.62
469.585	804.62
469.804	830.62
470.023	864.62
470.243	863.62
470.462	864.62
470.681	887.62
470.901	875.62
471.12	837.62
471.339	838.62
471.558	829.62
471.777	822.62
471.997	823.62
472.216	809.62
472.435	826.62
472.654	789.62
472.873	781.62
473.092	781.62
473.311	804.62
473.53	794.62
473.749	811.62
473.968	786.62
474.187	773.62
474.406	768.62
474.625	794.62
474.844	786.62
475.063	814.62
475.282	796.62
475.501	804.62
475.72	798.62
475.939	798.62
476.158	803.62
476.377	859.62
476.596	820.62
476.814	852.62
477.033	838.62
477.252	848.62
477.471	870.62
477.69	917.62
477.908	939.62
478.127	956.62
478.346	931.62
478.564	948.62
478.783	984.62
479.002	983.62
479.22	1001.62
479.439	992.62
479.658	978.62
479.876	988.62
480.095	1013.62
480.313	1047.62
480.532	1087.62
480.751	1097.62
480.969	981.62
481.188	981.62
481.406	967.62
481.624	945.62
481.843	930.62
482.061	896.62
482.28	920.62
482.498	927.62
482.717	913.62
482.935	891.62
483.153	896.62
483.372	901.62
483.59	903.62
483.808	939.62
484.027	925.62
484.245	914.62
484.463	902.62
484.681	924.62
484.9	919.62
485.118	947.62
485.336	960.62
485.554	925.62
485.772	953.62
485.99	950.62
486.209	948.62
486.427	945.62
486.645	952.62
486.863	973.62
487.081	946.62
487.299	966.62
487.517	953.62
487.735	940.62
487.953	957.62
488.171	958.62
488.389	974.62
488.607	932.62
488.825	959.62
489.043	917.62
489.261	935.62
489.479	935.62
489.696	973.62
489.914	931.62
490.132	942.62
490.35	945.62
490.568	935.62
490.786	965.62
491.003	972.62
491.221	947.62
491.439	951.62
491.657	968.62
491.874	1000.62
492.092	979.62
492.31	967.62
492.527	989.62
492.745	964.62
492.963	1012.62
493.18	1005.62
493.398	994.62
493.615	999.62
493.833	1007.62
494.05	1017.62
494.268	1001.62
494.485	997.62
494.703	1033.62
494.92	1037.62
495.138	1005.62
495.355	1009.62
495.573	1020.62
495.79	1031.62
496.008	1022.62
496.225	1006.62
496.442	1049.62
496.66	1054.62
496.877	1056.62
497.094	1081.62
497.312	1109.62
497.529	1092.62
497.746	1136.62
497.963	1174.62
498.181	1225.62
498.398	1287.62
498.615	1377.62
498.832	1454.62
499.049	1568.62
499.267	1717.62
499.484	1867.62
499.701	2038.62
499.918	2270.62
500.135	2593.62
500.352	2978.62
500.569	3104.62
500.786	3092.62
501.003	2869.62
501.22	2544.62
501.437	2244.62
501.654	1949.62
501.871	1766.62
502.088	1632.62
502.305	1536.62
502.522	1478.62
502.739	1404.62
502.956	1360.62
503.172	1276.62
503.389	1196.62
503.606	1205.62
503.823	1146.62
504.04	1162.62
504.256	1179.62
504.473	1200.62
504.69	1251.62
504.907	1184.62
505.123	1131.62
505.34	1083.62
505.557	1028.62
505.773	984.62
505.99	964.62
506.207	950.62
506.423	949.62
506.64	938.62
506.856	899.62
507.073	918.62
507.289	914.62
507.506	905.62
507.722	887.62
507.939	891.62
508.155	891.62
508.372	882.62
508.588	844.62
508.805	853.62
509.021	844.62
509.238	855.62
509.454	848.62
509.67	851.62
509.887	848.62
510.103	861.62
510.319	814.62
510.536	834.62
510.752	832.62
510.968	828.62
511.184	809.62
511.401	828.62
511.617	806.62
511.833	801.62
512.049	821.62
512.265	837.62
512.481	829.62
512.698	812.62
512.914	813.62
513.13	840.62
513.346	817.62
513.562	818.62
513.778	820.62
513.994	834.62
514.21	839.62
514.426	826.62
514.642	822.62
514.858	819.62
515.074	855.62
515.29	870.62
515.506	827.62
515.721	874.62
515.937	906.62
516.153	858.62
516.369	917.62
516.585	924.62
516.801	961.62
517.016	986.62
517.232	1067.62
517.448	1111.62
517.664	1125.62
517.879	1125.62
518.095	1158.62
518.311	1140.62
518.527	1092.62
518.742	1032.62
518.958	970.62
519.173	946.62
519.389	918.62
519.605	901.62
519.82	880.62
520.036	866.62
520.251	869.62
520.467	871.62
520.682	846.62
520.898	830.62
521.113	824.62
521.329	803.62
521.544	796.62
521.76	801.62
521.975	804.62
522.19	804.62
522.406	772.62
522.621	775.62
522.836	768.62
523.052	748.62
523.267	768.62
523.482	752.62
523.698	778.62
523.913	764.62
524.128	779.62
524.343	747.62
524.559	762.62
524.774	762.62
524.989	752.62
525.204	741.62
525.419	740.62
525.634	768.62
525.849	752.62
526.064	744.62
526.28	754.62
526.495	718.62
526.71	733.62
526.925	718.62
527.14	720.62
527.355	723.62
527.57	723.62
527.785	727.62
527.999	741.62
528.214	746.62
528.429	726.62
528.644	726.62
528.859	723.62
529.074	758.62
529.289	758.62
529.503	754.62
529.718	743.62
529.933	734.62
530.148	729.62
530.363	732.62
530.577	728.62
530.792	722.62
531.007	728.62
531.221	754.62
531.436	726.62
531.651	729.62
531.865	734.62
532.08	739.62
532.295	732.62
532.509	719.62
532.724	728.62
532.938	723.62
533.153	722.62
533.367	723.62
533.582	703.62
533.796	735.62
534.011	737.62
534.225	717.62
534.44	722.62
534.654	697.62
534.868	729.62
535.083	734.62
535.297	729.62
535.511	707.62
535.726	700.62
535.94	723.62
536.154	694.62
536.369	684.62
536.583	684.62
536.797	692.62
537.011	677.62
537.225	669.62
537.44	682.62
537.654	700.62
537.868	678.62
538.082	680.62
538.296	675.62
538.51	707.62
538.724	678.62
538.938	652.62
539.153	661.62
539.367	684.62
539.581	644.62
539.795	664.62
540.009	676.62
540.222	651.62
540.436	652.62
540.65	660.62
540.864	640.62
541.078	658.62
541.292	686.62
541.506	650.62
541.72	665.62
541.934	685.62
542.147	665.62
542.361	676.62
542.575	665.62
542.789	657.62
543.002	646.62
543.216	655.62
543.43	687.62
543.644	641.62
543.857	647.62
544.071	649.62
544.285	654.62
544.498	647.62
544.712	664.62
544.925	661.62
545.139	683.62
545.352	690.62
545.566	671.62
545.779	678.62
545.993	699.62
546.206	692.62
546.42	650.62
546.633	656.62
546.847	672.62
547.06	667.62
547.274	666.62
547.487	686.62
547.7	668.62
547.914	650.62
548.127	665.62
548.34	683.62
548.554	685.62
548.767	665.62
548.98	686.62
549.193	664.62
549.407	681.62
549.62	677.62
549.833	697.62
550.046	692.62
550.259	725.62
550.473	672.62
550.686	658.62
550.899	672.62
551.112	648.62
551.325	632.62
551.538	653.62
551.751	685.62
551.964	673.62
552.177	666.62
552.39	683.62
552.603	676.62
552.816	713.62
553.029	731.62
553.242	721.62
553.455	756.62
553.667	745.62
553.88	739.62
554.093	708.62
554.306	683.62
554.519	677.62
554.732	654.62
554.944	666.62
555.157	626.62
555.37	642.62
555.583	635.62
555.795	601.62
556.008	610.62
556.221	594.62
556.433	583.62
556.646	600.62
556.859	605.62
557.071	598.62
557.284	587.62
557.496	589.62
557.709	562.62
557.921	590.62
558.134	566.62
558.346	565.62
558.559	583.62
558.771	601.62
558.984	550.62
559.196	552.62
559.409	554.62
559.621	555.62
559.833	558.62
560.046	556.62
560.258	562.62
560.47	555.62
560.683	580.62
560.895	544.62
561.107	581.62
561.32	521.62
561.532	536.62
561.744	538.62
561.956	555.62
562.168	557.62
562.381	542.62
562.593	555.62
562.805	553.62
563.017	550.62
563.229	568.62
563.441	557.62
563.653	564.62
563.865	573.62
564.077	562.62
564.289	570.62
564.501	572.62
564.713	580.62
564.925	606.62
565.137	590.62
565.349	636.62
565.561	646.62
565.773	660.62
565.985	685.62
566.197	698.62
566.408	770.62
566.62	830.62
566.832	898.62
567.044	929.62
567.255	902.62
567.467	932.62
567.679	999.62
567.891	1052.62
568.102	1088.62
568.314	1017.62
568.526	916.62
568.737	826.62
568.949	752.62
569.161	709.62
569.372	636.62
569.584	645.62
569.795	597.62
570.007	612.62
570.218	600.62
570.43	563.62
570.641	566.62
570.853	565.62
571.064	577.62
571.276	593.62
571.487	567.62
571.698	542.62
571.91	512.62
572.121	496.62
572.333	511.62
572.544	495.62
572.755	481.62
572.966	486.62
573.178	474.62
573.389	455.62
573.6	462.62
573.811	461.62
574.023	456.62
574.234	477.62
574.445	466.62
574.656	474.62
574.867	483.62
575.078	469.62
575.289	470.62
575.501	464.62
575.712	448.62
575.923	450.62
576.134	455.62
576.345	428.62
576.556	437.62
576.767	426.62
576.978	435.62
577.188	436.62
577.399	428.62
577.61	410.62
577.821	418.62
578.032	412.62
578.243	423.62
578.454	403.62
578.665	411.62
578.875	418.62
579.086	412.62
579.297	390.62
579.508	406.62
579.718	412.62
579.929	396.62
580.14	386.62
580.35	393.62
580.561	394.62
580.772	385.62
580.982	401.62
581.193	384.62
581.403	390.62
581.614	394.62
581.825	383.62
582.035	384.62
582.246	389.62
582.456	380.62
582.667	378.62
582.877	371.62
583.087	391.62
583.298	370.62
583.508	378.62
583.719	382.62
583.929	389.62
584.139	386.62
584.35	362.62
584.56	377.62
584.77	379.62
584.981	379.62
585.191	353.62
585.401	366.62
585.611	361.62
585.821	382.62
586.032	380.62
586.242	381.62
586.452	376.62
586.662	368.62
586.872	359.62
587.082	377.62
587.292	379.62
587.502	372.62
587.713	358.62
587.923	370.62
588.133	375.62
588.343	365.62
588.553	357.62
588.762	380.62
588.972	358.62
589.182	371.62
589.392	370.62
589.602	365.62
589.812	372.62
590.022	376.62
590.232	368.62
590.441	362.62
590.651	372.62
590.861	363.62
591.071	362.62
591.281	385.62
591.49	385.62
591.7	381.62
591.91	416.62
592.119	396.62
592.329	404.62
592.539	420.62
592.748	428.62
592.958	455.62
593.167	453.62
593.377	462.62
593.587	477.62
593.796	454.62
594.006	470.62
594.215	441.62
594.424	463.62
594.634	444.62
594.843	438.62
595.053	423.62
595.262	419.62
595.472	398.62
595.681	386.62
595.89	368.62
596.1	372.62
596.309	363.62
596.518	360.62
596.727	344.62
596.937	353.62
597.146	350.62
597.355	345.62
597.564	359.62
597.774	345.62
597.983	320.62
598.192	346.62
598.401	322.62
598.61	336.62
598.819	331.62
599.028	318.62
599.237	337.62
599.446	319.62
599.655	320.62
599.864	311.62
600.073	311.62
600.282	322.62
600.491	300.62
600.7	314.62
600.909	314.62
601.118	288.62
601.327	299.62
601.536	290.62
601.745	313.62
601.953	312.62
602.162	308.62
602.371	329.62
602.58	306.62
602.789	303.62
602.997	298.62
603.206	304.62
603.415	296.62
603.623	289.62
603.832	270.62
604.041	299.62
604.249	288.62
604.458	313.62
604.666	284.62
604.875	289.62
605.084	301.62
605.292	315.62
605.501	291.62
605.709	291.62
605.918	277.62
606.126	313.62
606.334	293.62
606.543	304.62
606.751	276.62
606.96	261.62
607.168	282.62
607.376	290.62
607.585	276.62
607.793	281.62
608.001	267.62
608.21	266.62
608.418	279.62
608.626	270.62
608.834	283.62
609.043	273.62
609.251	282.62
609.459	282.62
609.667	284.62
609.875	289.62
610.083	276.62
610.291	278.62
610.499	286.62
610.707	273.62
610.916	283.62
611.124	260.62
611.332	272.62
611.54	272.62
611.748	278.62
611.955	269.62
612.163	266.62
612.371	270.62
612.579	297.62
612.787	268.62
612.995	268.62
613.203	276.62
613.411	270.62
613.618	257.62
613.826	260.62
614.034	283.62
614.242	261.62
614.449	285.62
614.657	254.62
614.865	269.62
615.072	268.62
615.28	265.62
615.488	270.62
615.695	259.62
615.903	265.62
616.111	285.62
616.318	266.62
616.526	263.62
616.733	272.62
616.941	257.62
617.148	264.62
617.356	264.62
617.563	267.62
617.771	270.62
617.978	265.62
618.185	280.62
618.393	285.62
618.6	261.62
618.807	275.62
619.015	255.62
619.222	252.62
619.429	264.62
619.637	280.62
619.844	249.62
620.051	261.62
620.258	245.62
620.466	244.62
620.673	237.62
620.88	246.62
621.087	241.62
621.294	251.62
621.501	256.62
621.708	249.62
621.915	248.62
622.122	240.62
622.329	244.62
622.536	250.62
622.743	249.62
622.95	244.62
623.157	244.62
623.364	234.62
623.571	240.62
623.778	232.62
623.985	252.62
624.192	245.62
624.399	246.62
624.606	229.62
624.812	238.62
625.019	253.62
625.226	249.62
625.433	260.62
625.639	242.62
625.846	244.62
626.053	234.62
626.259	233.62
626.466	232.62
626.673	236.62
626.879	244.62
627.086	229.62
627.293	243.62
627.499	216.62
627.706	237.62
627.912	203.62
628.119	231.62
628.325	232.62
628.532	225.62
628.738	218.62
628.945	212.62
629.151	225.62
629.357	205.62
629.564	229.62
629.77	221.62
629.976	216.62
630.183	205.62
630.389	206.62
630.595	208.62
630.802	219.62
631.008	208.62
631.214	192.62
631.42	213.62
631.627	210.62
631.833	198.62
632.039	212.62
632.245	205.62
632.451	208.62
632.657	208.62
632.863	209.62
633.069	220.62
633.275	210.62
633.481	199.62
633.688	205.62
633.893	189.62
634.099	213.62
634.305	197.62
634.511	205.62
634.717	206.62
634.923	190.62
635.129	206.62
635.335	206.62
635.541	217.62
635.747	194.62
635.952	197.62
636.158	196.62
636.364	213.62
636.57	176.62
636.775	197.62
636.981	184.62
637.187	211.62
637.392	186.62
637.598	184.62
637.804	197.62
638.009	198.62
638.215	199.62
638.421	177.62
638.626	188.62
638.832	182.62
639.037	193.62
639.243	191.62
639.448	200.62
639.654	187.62
639.859	185.62
640.065	192.62
640.27	184.62
640.475	185.62
640.681	191.62
640.886	195.62
641.091	191.62
641.297	182.62
641.502	177.62
641.707	173.62
641.913	181.62
642.118	187.62
642.323	171.62
642.528	180.62
642.733	193.62
642.939	177.62
643.144	186.62
643.349	177.62
643.554	176.62
643.759	172.62
643.964	161.62
644.169	188.62
644.374	164.62
644.579	171.62
644.784	178.62
644.989	168.62
645.194	167.62
645.399	177.62
645.604	188.62
645.809	182.62
646.014	180.62
646.219	185.62
646.423	176.62
646.628	172.62
646.833	171.62
647.038	178.62
647.243	178.62
647.447	192.62
647.652	184.62
647.857	177.62
648.062	195.62
648.266	211.62
648.471	188.62
648.676	194.62
648.88	203.62
649.085	186.62
649.289	188.62
649.494	199.62
649.698	169.62
649.903	173.62
650.107	169.62
650.312	187.62
650.516	182.62
650.721	161.62
650.925	157.62
651.13	165.62
651.334	165.62
651.539	149.62
651.743	165.62
651.947	160.62
652.152	156.62
652.356	167.62
652.56	157.62
652.764	151.62
652.969	165.62
653.173	155.62
653.377	161.62
653.581	136.62
653.785	135.62
653.99	148.62
654.194	162.62
654.398	142.62
654.602	142.62
654.806	137.62
655.01	133.62
655.214	132.62
655.418	133.62
655.622	127.62
655.826	140.62
656.03	154.62
656.234	150.62
656.438	141.62
656.642	133.62
656.846	135.62
657.049	118.62
657.253	126.62
657.457	121.62
657.661	116.62
657.865	128.62
658.068	120.62
658.272	105.62
658.476	116.62
658.68	108.62
658.883	102.62
659.087	108.62
659.291	92.62
659.494	107.62
659.698	105.62
659.901	109.62
660.105	105.62
660.309	102.62
660.512	82.62
660.716	83.62
660.919	92.62
661.123	114.62
661.326	105.62
661.53	115.62
661.733	90.62
661.936	106.62
662.14	91.62
662.343	100.62
662.546	72.62
662.75	84.62
662.953	95.62
663.156	77.62
663.36	83.62
663.563	85.62
663.766	82.62
663.969	82.62
664.173	81.62
664.376	84.62
664.579	89.62
664.782	66.62
664.985	87.62
665.188	82.62
665.391	89.62
665.594	74.62
665.797	90.62
666	81.62
666.203	71.62
666.406	76.62
666.609	75.62
666.812	68.62
667.015	77.62
667.218	76.62
667.421	84.62
667.624	70.62
667.827	94.62
668.03	69.62
668.232	87.62
668.435	86.62
668.638	80.62
668.841	73.62
669.043	84.62
669.246	81.62
669.449	83.62
669.651	93.62
669.854	80.62
670.057	82.62
670.259	73.62
670.462	73.62
670.665	74.62
670.867	79.62
671.07	79.62
671.272	82.62
671.475	94.62
671.677	85.62
671.88	72.62
672.082	84.62
672.284	77.62
672.487	80.62
672.689	85.62
672.892	82.62
