Data from NiCl2@0.25M.TitratingCurve.Agarose3%dH2O.NegLispCup.LampEnergy10.LIBS07252019_HRD10591_18-25-44-573.txt Node
Date: Thu Jul 25 18:25:44 EDT 2019
User: cochatt
Spectrometer: HR+D1059
Trigger mode: 1
Integration Time (sec): 1.000000E-1
Scans to average: 1
Electric dark correction enabled: true
Nonlinearity correction enabled: false
Boxcar width: 0
XAxis mode: Wavelengths
Number of Pixels in Spectrum: 2048
>>>>>Begin Spectral Data<<<<<
223.165	0.12
223.4	0.12
223.635	0.12
223.869	-21.88
224.104	-14.88
224.338	-20.88
224.573	-19.88
224.808	-8.88
225.042	-10.88
225.277	-12.88
225.511	7.12
225.746	-1.88
225.98	13.12
226.215	6.12
226.449	18.12
226.683	20.12
226.918	24.12
227.152	23.12
227.387	22.12
227.621	59.12
227.856	51.12
228.09	46.12
228.324	46.12
228.559	64.12
228.793	66.12
229.027	111.12
229.262	136.12
229.496	122.12
229.73	129.12
229.964	139.12
230.199	139.12
230.433	142.12
230.667	153.12
230.901	147.12
231.136	138.12
231.37	155.12
231.604	159.12
231.838	158.12
232.072	170.12
232.306	163.12
232.541	171.12
232.775	185.12
233.009	163.12
233.243	159.12
233.477	169.12
233.711	166.12
233.945	171.12
234.179	177.12
234.413	170.12
234.647	172.12
234.881	172.12
235.115	165.12
235.349	175.12
235.583	178.12
235.817	171.12
236.051	169.12
236.285	178.12
236.519	189.12
236.753	179.12
236.987	189.12
237.221	204.12
237.455	193.12
237.689	190.12
237.922	191.12
238.156	190.12
238.39	176.12
238.624	193.12
238.858	204.12
239.091	200.12
239.325	194.12
239.559	205.12
239.793	192.12
240.027	207.12
240.26	209.12
240.494	210.12
240.728	215.12
240.961	215.12
241.195	225.12
241.429	205.12
241.662	214.12
241.896	236.12
242.13	220.12
242.363	231.12
242.597	243.12
242.83	224.12
243.064	259.12
243.298	219.12
243.531	251.12
243.765	231.12
243.998	251.12
244.232	225.12
244.465	257.12
244.699	249.12
244.932	239.12
245.166	267.12
245.399	268.12
245.633	248.12
245.866	262.12
246.099	264.12
246.333	255.12
246.566	275.12
246.8	269.12
247.033	273.12
247.266	263.12
247.5	282.12
247.733	261.12
247.966	267.12
248.2	297.12
248.433	269.12
248.666	283.12
248.899	300.12
249.133	275.12
249.366	291.12
249.599	279.12
249.832	286.12
250.066	300.12
250.299	297.12
250.532	307.12
250.765	301.12
250.998	298.12
251.231	309.12
251.465	311.12
251.698	316.12
251.931	325.12
252.164	325.12
252.397	313.12
252.63	325.12
252.863	322.12
253.096	321.12
253.329	332.12
253.562	336.12
253.795	328.12
254.028	329.12
254.261	319.12
254.494	313.12
254.727	335.12
254.96	326.12
255.193	331.12
255.426	332.12
255.659	332.12
255.892	355.12
256.124	362.12
256.357	335.12
256.59	347.12
256.823	341.12
257.056	350.12
257.289	374.12
257.521	351.12
257.754	360.12
257.987	364.12
258.22	364.12
258.452	349.12
258.685	364.12
258.918	379.12
259.151	376.12
259.383	373.12
259.616	367.12
259.849	360.12
260.081	374.12
260.314	397.12
260.547	397.12
260.779	367.12
261.012	388.12
261.244	383.12
261.477	401.12
261.71	390.12
261.942	385.12
262.175	383.12
262.407	394.12
262.64	401.12
262.872	385.12
263.105	421.12
263.337	415.12
263.57	399.12
263.802	419.12
264.035	401.12
264.267	418.12
264.499	417.12
264.732	443.12
264.964	428.12
265.197	418.12
265.429	424.12
265.661	406.12
265.894	433.12
266.126	427.12
266.358	412.12
266.591	429.12
266.823	429.12
267.055	437.12
267.287	429.12
267.52	467.12
267.752	437.12
267.984	484.12
268.216	459.12
268.448	455.12
268.681	440.12
268.913	455.12
269.145	441.12
269.377	451.12
269.609	478.12
269.841	442.12
270.073	452.12
270.306	472.12
270.538	471.12
270.77	465.12
271.002	469.12
271.234	465.12
271.466	477.12
271.698	475.12
271.93	466.12
272.162	484.12
272.394	492.12
272.626	478.12
272.858	484.12
273.09	489.12
273.322	499.12
273.553	491.12
273.785	478.12
274.017	460.12
274.249	491.12
274.481	488.12
274.713	510.12
274.945	517.12
275.176	520.12
275.408	501.12
275.64	518.12
275.872	509.12
276.104	503.12
276.335	499.12
276.567	526.12
276.799	515.12
277.031	549.12
277.262	491.12
277.494	520.12
277.726	529.12
277.957	539.12
278.189	543.12
278.421	495.12
278.652	573.12
278.884	523.12
279.115	549.12
279.347	553.12
279.579	525.12
279.81	552.12
280.042	541.12
280.273	566.12
280.505	546.12
280.736	569.12
280.968	541.12
281.199	570.12
281.431	556.12
281.662	560.12
281.894	572.12
282.125	567.12
282.356	573.12
282.588	585.12
282.819	560.12
283.051	583.12
283.282	575.12
283.513	593.12
283.745	585.12
283.976	562.12
284.207	579.12
284.439	593.12
284.67	592.12
284.901	603.12
285.132	585.12
285.364	620.12
285.595	590.12
285.826	597.12
286.057	609.12
286.288	597.12
286.52	595.12
286.751	624.12
286.982	627.12
287.213	597.12
287.444	607.12
287.675	623.12
287.906	635.12
288.138	635.12
288.369	606.12
288.6	622.12
288.831	618.12
289.062	636.12
289.293	629.12
289.524	635.12
289.755	643.12
289.986	639.12
290.217	629.12
290.448	625.12
290.679	625.12
290.91	640.12
291.141	632.12
291.371	663.12
291.602	647.12
291.833	632.12
292.064	638.12
292.295	667.12
292.526	649.12
292.757	632.12
292.987	632.12
293.218	650.12
293.449	655.12
293.68	631.12
293.91	660.12
294.141	660.12
294.372	651.12
294.603	649.12
294.833	645.12
295.064	663.12
295.295	649.12
295.525	660.12
295.756	663.12
295.987	645.12
296.217	662.12
296.448	641.12
296.679	658.12
296.909	678.12
297.14	695.12
297.37	707.12
297.601	677.12
297.831	692.12
298.062	674.12
298.292	676.12
298.523	729.12
298.753	711.12
298.984	709.12
299.214	718.12
299.445	693.12
299.675	688.12
299.905	697.12
300.136	684.12
300.366	687.12
300.597	729.12
300.827	719.12
301.057	734.12
301.288	755.12
301.518	728.12
301.748	723.12
301.979	742.12
302.209	751.12
302.439	746.12
302.669	726.12
302.9	715.12
303.13	727.12
303.36	731.12
303.59	743.12
303.82	723.12
304.051	733.12
304.281	739.12
304.511	743.12
304.741	755.12
304.971	745.12
305.201	732.12
305.431	733.12
305.661	740.12
305.891	739.12
306.121	711.12
306.352	732.12
306.582	719.12
306.812	729.12
307.042	706.12
307.272	716.12
307.502	683.12
307.731	713.12
307.961	744.12
308.191	707.12
308.421	731.12
308.651	719.12
308.881	698.12
309.111	712.12
309.341	724.12
309.571	721.12
309.8	719.12
310.03	710.12
310.26	724.12
310.49	737.12
310.72	737.12
310.949	711.12
311.179	743.12
311.409	720.12
311.639	740.12
311.868	731.12
312.098	743.12
312.328	742.12
312.557	760.12
312.787	766.12
313.017	759.12
313.246	759.12
313.476	769.12
313.706	771.12
313.935	769.12
314.165	777.12
314.394	785.12
314.624	777.12
314.853	768.12
315.083	779.12
315.312	770.12
315.542	783.12
315.771	749.12
316.001	748.12
316.23	769.12
316.46	760.12
316.689	757.12
316.919	792.12
317.148	742.12
317.377	762.12
317.607	750.12
317.836	752.12
318.065	743.12
318.295	766.12
318.524	741.12
318.753	732.12
318.983	753.12
319.212	750.12
319.441	769.12
319.67	747.12
319.9	747.12
320.129	743.12
320.358	734.12
320.587	763.12
320.816	759.12
321.046	768.12
321.275	750.12
321.504	750.12
321.733	753.12
321.962	764.12
322.191	773.12
322.42	775.12
322.649	767.12
322.878	776.12
323.108	719.12
323.337	769.12
323.566	784.12
323.795	767.12
324.024	784.12
324.253	780.12
324.482	765.12
324.71	773.12
324.939	807.12
325.168	789.12
325.397	764.12
325.626	781.12
325.855	793.12
326.084	812.12
326.313	811.12
326.542	809.12
326.77	820.12
326.999	827.12
327.228	812.12
327.457	816.12
327.686	829.12
327.914	806.12
328.143	827.12
328.372	832.12
328.6	808.12
328.829	797.12
329.058	816.12
329.287	827.12
329.515	871.12
329.744	819.12
329.972	843.12
330.201	833.12
330.43	829.12
330.658	842.12
330.887	872.12
331.115	856.12
331.344	867.12
331.572	876.12
331.801	903.12
332.03	905.12
332.258	938.12
332.486	960.12
332.715	977.12
332.943	996.12
333.172	1047.12
333.4	1032.12
333.629	1063.12
333.857	1081.12
334.085	1118.12
334.314	1077.12
334.542	1082.12
334.771	1067.12
334.999	1012.12
335.227	1037.12
335.455	1041.12
335.684	1028.12
335.912	1059.12
336.14	1035.12
336.369	1001.12
336.597	983.12
336.825	1000.12
337.053	1012.12
337.281	993.12
337.51	981.12
337.738	952.12
337.966	920.12
338.194	949.12
338.422	903.12
338.65	932.12
338.878	911.12
339.106	880.12
339.334	929.12
339.562	882.12
339.79	908.12
340.018	881.12
340.246	844.12
340.474	877.12
340.702	886.12
340.93	859.12
341.158	876.12
341.386	864.12
341.614	877.12
341.842	878.12
342.07	858.12
342.298	845.12
342.526	867.12
342.754	855.12
342.981	854.12
343.209	883.12
343.437	939.12
343.665	956.12
343.893	987.12
344.12	1066.12
344.348	1036.12
344.576	1004.12
344.804	960.12
345.031	910.12
345.259	891.12
345.487	881.12
345.714	867.12
345.942	881.12
346.17	885.12
346.397	857.12
346.625	849.12
346.853	842.12
347.08	841.12
347.308	830.12
347.535	848.12
347.763	847.12
347.99	846.12
348.218	864.12
348.445	847.12
348.673	826.12
348.9	835.12
349.128	846.12
349.355	827.12
349.583	859.12
349.81	830.12
350.037	838.12
350.265	824.12
350.492	810.12
350.72	806.12
350.947	798.12
351.174	815.12
351.402	809.12
351.629	782.12
351.856	830.12
352.083	812.12
352.311	797.12
352.538	815.12
352.765	799.12
352.992	796.12
353.22	834.12
353.447	796.12
353.674	809.12
353.901	795.12
354.128	832.12
354.355	789.12
354.583	783.12
354.81	791.12
355.037	800.12
355.264	811.12
355.491	777.12
355.718	825.12
355.945	813.12
356.172	803.12
356.399	840.12
356.626	817.12
356.853	824.12
357.08	821.12
357.307	804.12
357.534	783.12
357.761	812.12
357.988	848.12
358.215	829.12
358.441	821.12
358.668	793.12
358.895	823.12
359.122	792.12
359.349	809.12
359.576	814.12
359.802	816.12
360.029	791.12
360.256	807.12
360.483	796.12
360.709	792.12
360.936	819.12
361.163	809.12
361.39	799.12
361.616	782.12
361.843	800.12
362.07	796.12
362.296	820.12
362.523	788.12
362.749	821.12
362.976	823.12
363.203	809.12
363.429	798.12
363.656	805.12
363.882	819.12
364.109	795.12
364.335	804.12
364.562	796.12
364.788	800.12
365.015	799.12
365.241	781.12
365.468	821.12
365.694	823.12
365.92	824.12
366.147	799.12
366.373	811.12
366.599	815.12
366.826	817.12
367.052	803.12
367.278	816.12
367.505	831.12
367.731	809.12
367.957	798.12
368.184	803.12
368.41	803.12
368.636	811.12
368.862	805.12
369.089	829.12
369.315	817.12
369.541	829.12
369.767	837.12
369.993	839.12
370.219	853.12
370.445	863.12
370.672	848.12
370.898	872.12
371.124	867.12
371.35	866.12
371.576	893.12
371.802	894.12
372.028	873.12
372.254	872.12
372.48	908.12
372.706	915.12
372.932	924.12
373.158	911.12
373.384	904.12
373.61	876.12
373.835	892.12
374.061	883.12
374.287	890.12
374.513	914.12
374.739	940.12
374.965	949.12
375.191	998.12
375.416	976.12
375.642	933.12
375.868	931.12
376.094	909.12
376.319	895.12
376.545	905.12
376.771	905.12
376.997	883.12
377.222	889.12
377.448	892.12
377.674	897.12
377.899	895.12
378.125	878.12
378.35	881.12
378.576	904.12
378.802	881.12
379.027	884.12
379.253	880.12
379.478	862.12
379.704	853.12
379.929	859.12
380.155	882.12
380.38	883.12
380.606	887.12
380.831	886.12
381.057	883.12
381.282	901.12
381.507	897.12
381.733	906.12
381.958	888.12
382.184	915.12
382.409	911.12
382.634	921.12
382.86	904.12
383.085	912.12
383.31	940.12
383.535	960.12
383.761	935.12
383.986	955.12
384.211	963.12
384.436	998.12
384.662	1016.12
384.887	1028.12
385.112	1037.12
385.337	1039.12
385.562	1052.12
385.787	1065.12
386.013	1086.12
386.238	1070.12
386.463	1078.12
386.688	1095.12
386.913	1092.12
387.138	1076.12
387.363	1061.12
387.588	1065.12
387.813	1077.12
388.038	1079.12
388.263	1064.12
388.488	1068.12
388.713	1045.12
388.938	1063.12
389.163	1040.12
389.387	1040.12
389.612	1049.12
389.837	1067.12
390.062	1027.12
390.287	1040.12
390.512	1069.12
390.736	1062.12
390.961	1080.12
391.186	1103.12
391.411	1107.12
391.636	1152.12
391.86	1203.12
392.085	1187.12
392.31	1215.12
392.534	1199.12
392.759	1169.12
392.984	1152.12
393.208	1127.12
393.433	1148.12
393.658	1143.12
393.882	1099.12
394.107	1129.12
394.331	1130.12
394.556	1133.12
394.78	1152.12
395.005	1169.12
395.229	1133.12
395.454	1193.12
395.678	1220.12
395.903	1212.12
396.127	1230.12
396.352	1148.12
396.576	1116.12
396.801	1143.12
397.025	1174.12
397.249	1173.12
397.474	1220.12
397.698	1223.12
397.922	1223.12
398.147	1212.12
398.371	1250.12
398.595	1303.12
398.82	1325.12
399.044	1428.12
399.268	1547.12
399.492	1689.12
399.717	1887.12
399.941	1936.12
400.165	1810.12
400.389	1692.12
400.613	1551.12
400.837	1476.12
401.062	1435.12
401.286	1365.12
401.51	1402.12
401.734	1347.12
401.958	1340.12
402.182	1335.12
402.406	1376.12
402.63	1353.12
402.854	1419.12
403.078	1424.12
403.302	1491.12
403.526	1473.12
403.75	1501.12
403.974	1499.12
404.198	1509.12
404.422	1508.12
404.645	1465.12
404.869	1513.12
405.093	1510.12
405.317	1464.12
405.541	1498.12
405.765	1515.12
405.988	1432.12
406.212	1482.12
406.436	1504.12
406.66	1521.12
406.883	1545.12
407.107	1635.12
407.331	1678.12
407.555	1744.12
407.778	1712.12
408.002	1707.12
408.226	1671.12
408.449	1624.12
408.673	1575.12
408.896	1548.12
409.12	1538.12
409.344	1515.12
409.567	1544.12
409.791	1551.12
410.014	1510.12
410.238	1510.12
410.461	1490.12
410.685	1459.12
410.908	1440.12
411.132	1439.12
411.355	1416.12
411.578	1429.12
411.802	1400.12
412.025	1399.12
412.249	1425.12
412.472	1403.12
412.695	1360.12
412.919	1371.12
413.142	1379.12
413.365	1360.12
413.589	1360.12
413.812	1342.12
414.035	1318.12
414.258	1373.12
414.482	1356.12
414.705	1387.12
414.928	1364.12
415.151	1337.12
415.374	1338.12
415.597	1331.12
415.821	1303.12
416.044	1308.12
416.267	1276.12
416.49	1294.12
416.713	1307.12
416.936	1334.12
417.159	1287.12
417.382	1294.12
417.605	1301.12
417.828	1280.12
418.051	1307.12
418.274	1331.12
418.497	1306.12
418.72	1307.12
418.943	1322.12
419.166	1438.12
419.389	1561.12
419.611	1489.12
419.834	1438.12
420.057	1388.12
420.28	1365.12
420.503	1332.12
420.726	1301.12
420.948	1324.12
421.171	1296.12
421.394	1308.12
421.617	1327.12
421.839	1324.12
422.062	1353.12
422.285	1319.12
422.507	1327.12
422.73	1342.12
422.953	1358.12
423.175	1349.12
423.398	1347.12
423.621	1355.12
423.843	1386.12
424.066	1341.12
424.288	1340.12
424.511	1371.12
424.733	1339.12
424.956	1325.12
425.178	1321.12
425.401	1304.12
425.623	1324.12
425.846	1287.12
426.068	1289.12
426.291	1303.12
426.513	1269.12
426.735	1250.12
426.958	1251.12
427.18	1217.12
427.402	1243.12
427.625	1198.12
427.847	1170.12
428.069	1201.12
428.292	1187.12
428.514	1163.12
428.736	1207.12
428.958	1175.12
429.181	1132.12
429.403	1149.12
429.625	1136.12
429.847	1165.12
430.069	1148.12
430.292	1136.12
430.514	1135.12
430.736	1158.12
430.958	1158.12
431.18	1167.12
431.402	1172.12
431.624	1133.12
431.846	1161.12
432.068	1187.12
432.29	1217.12
432.512	1201.12
432.734	1215.12
432.956	1156.12
433.178	1189.12
433.4	1158.12
433.622	1214.12
433.844	1181.12
434.066	1170.12
434.287	1209.12
434.509	1232.12
434.731	1277.12
434.953	1296.12
435.175	1343.12
435.397	1287.12
435.618	1234.12
435.84	1198.12
436.062	1199.12
436.284	1204.12
436.505	1192.12
436.727	1198.12
436.949	1197.12
437.17	1191.12
437.392	1131.12
437.614	1157.12
437.835	1118.12
438.057	1106.12
438.278	1152.12
438.5	1110.12
438.721	1088.12
438.943	1103.12
439.165	1117.12
439.386	1125.12
439.608	1124.12
439.829	1155.12
440.05	1167.12
440.272	1177.12
440.493	1195.12
440.715	1222.12
440.936	1191.12
441.158	1228.12
441.379	1260.12
441.6	1305.12
441.822	1299.12
442.043	1312.12
442.264	1283.12
442.486	1278.12
442.707	1265.12
442.928	1259.12
443.149	1297.12
443.371	1276.12
443.592	1262.12
443.813	1296.12
444.034	1299.12
444.255	1375.12
444.476	1430.12
444.698	1505.12
444.919	1507.12
445.14	1563.12
445.361	1462.12
445.582	1347.12
445.803	1310.12
446.024	1279.12
446.245	1207.12
446.466	1244.12
446.687	1180.12
446.908	1173.12
447.129	1146.12
447.35	1123.12
447.571	1135.12
447.792	1120.12
448.013	1097.12
448.234	1104.12
448.455	1100.12
448.675	1081.12
448.896	1068.12
449.117	1079.12
449.338	1067.12
449.559	1051.12
449.779	1063.12
450	1080.12
450.221	1068.12
450.442	1065.12
450.662	1107.12
450.883	1092.12
451.104	1119.12
451.324	1068.12
451.545	1077.12
451.766	1056.12
451.986	1066.12
452.207	1079.12
452.428	1054.12
452.648	1070.12
452.869	1018.12
453.089	1048.12
453.31	1050.12
453.53	1039.12
453.751	1053.12
453.971	1037.12
454.192	1051.12
454.412	1015.12
454.633	1009.12
454.853	1031.12
455.073	995.12
455.294	1024.12
455.514	1007.12
455.734	1019.12
455.955	981.12
456.175	999.12
456.395	983.12
456.616	985.12
456.836	1022.12
457.056	1000.12
457.276	999.12
457.497	999.12
457.717	1032.12
457.937	1011.12
458.157	1024.12
458.377	1041.12
458.598	1075.12
458.818	1085.12
459.038	1121.12
459.258	1153.12
459.478	1179.12
459.698	1206.12
459.918	1265.12
460.138	1276.12
460.358	1374.12
460.578	1353.12
460.798	1361.12
461.018	1372.12
461.238	1393.12
461.458	1403.12
461.678	1386.12
461.898	1416.12
462.118	1397.12
462.338	1497.12
462.558	1520.12
462.777	1579.12
462.997	1683.12
463.217	1782.12
463.437	1827.12
463.657	1696.12
463.876	1635.12
464.096	1649.12
464.316	1610.12
464.536	1610.12
464.755	1561.12
464.975	1508.12
465.195	1427.12
465.414	1403.12
465.634	1284.12
465.854	1242.12
466.073	1214.12
466.293	1177.12
466.512	1161.12
466.732	1158.12
466.951	1136.12
467.171	1118.12
467.391	1130.12
467.61	1126.12
467.829	1151.12
468.049	1120.12
468.268	1053.12
468.488	1064.12
468.707	1061.12
468.927	1091.12
469.146	1068.12
469.365	1097.12
469.585	1090.12
469.804	1129.12
470.023	1169.12
470.243	1127.12
470.462	1153.12
470.681	1179.12
470.901	1182.12
471.12	1145.12
471.339	1121.12
471.558	1122.12
471.777	1119.12
471.997	1114.12
472.216	1072.12
472.435	1079.12
472.654	1055.12
472.873	1079.12
473.092	1059.12
473.311	1060.12
473.53	1040.12
473.749	1051.12
473.968	1023.12
474.187	1042.12
474.406	1059.12
474.625	1049.12
474.844	1051.12
475.063	1070.12
475.282	1057.12
475.501	1086.12
475.72	1101.12
475.939	1097.12
476.158	1097.12
476.377	1121.12
476.596	1084.12
476.814	1132.12
477.033	1157.12
477.252	1142.12
477.471	1158.12
477.69	1214.12
477.908	1206.12
478.127	1217.12
478.346	1302.12
478.564	1301.12
478.783	1302.12
479.002	1350.12
479.22	1329.12
479.439	1319.12
479.658	1306.12
479.876	1319.12
480.095	1349.12
480.313	1361.12
480.532	1417.12
480.751	1396.12
480.969	1375.12
481.188	1318.12
481.406	1310.12
481.624	1253.12
481.843	1247.12
482.061	1217.12
482.28	1220.12
482.498	1211.12
482.717	1214.12
482.935	1211.12
483.153	1223.12
483.372	1231.12
483.59	1226.12
483.808	1232.12
484.027	1214.12
484.245	1251.12
484.463	1274.12
484.681	1246.12
484.9	1243.12
485.118	1263.12
485.336	1270.12
485.554	1272.12
485.772	1273.12
485.99	1304.12
486.209	1292.12
486.427	1289.12
486.645	1294.12
486.863	1312.12
487.081	1298.12
487.299	1258.12
487.517	1256.12
487.735	1254.12
487.953	1273.12
488.171	1274.12
488.389	1279.12
488.607	1274.12
488.825	1254.12
489.043	1265.12
489.261	1285.12
489.479	1264.12
489.696	1263.12
489.914	1271.12
490.132	1260.12
490.35	1289.12
490.568	1297.12
490.786	1287.12
491.003	1297.12
491.221	1273.12
491.439	1336.12
491.657	1333.12
491.874	1323.12
492.092	1324.12
492.31	1332.12
492.527	1312.12
492.745	1322.12
492.963	1315.12
493.18	1357.12
493.398	1344.12
493.615	1364.12
493.833	1361.12
494.05	1350.12
494.268	1375.12
494.485	1367.12
494.703	1381.12
494.92	1367.12
495.138	1373.12
495.355	1387.12
495.573	1390.12
495.79	1402.12
496.008	1439.12
496.225	1407.12
496.442	1465.12
496.66	1450.12
496.877	1450.12
497.094	1514.12
497.312	1534.12
497.529	1543.12
497.746	1621.12
497.963	1672.12
498.181	1719.12
498.398	1821.12
498.615	1915.12
498.832	2027.12
499.049	2175.12
499.267	2321.12
499.484	2553.12
499.701	2780.12
499.918	3046.12
500.135	3427.12
500.352	3688.12
500.569	3929.12
500.786	3877.12
501.003	3674.12
501.22	3328.12
501.437	3069.12
501.654	2785.12
501.871	2508.12
502.088	2334.12
502.305	2191.12
502.522	2081.12
502.739	1981.12
502.956	1891.12
503.172	1780.12
503.389	1725.12
503.606	1659.12
503.823	1657.12
504.04	1620.12
504.256	1639.12
504.473	1657.12
504.69	1659.12
504.907	1606.12
505.123	1532.12
505.34	1466.12
505.557	1428.12
505.773	1404.12
505.99	1363.12
506.207	1323.12
506.423	1303.12
506.64	1271.12
506.856	1263.12
507.073	1231.12
507.289	1233.12
507.506	1235.12
507.722	1251.12
507.939	1208.12
508.155	1187.12
508.372	1191.12
508.588	1200.12
508.805	1181.12
509.021	1153.12
509.238	1158.12
509.454	1152.12
509.67	1149.12
509.887	1133.12
510.103	1131.12
510.319	1133.12
510.536	1108.12
510.752	1117.12
510.968	1145.12
511.184	1121.12
511.401	1100.12
511.617	1119.12
511.833	1134.12
512.049	1102.12
512.265	1096.12
512.481	1087.12
512.698	1111.12
512.914	1097.12
513.13	1110.12
513.346	1084.12
513.562	1085.12
513.778	1091.12
513.994	1123.12
514.21	1128.12
514.426	1128.12
514.642	1144.12
514.858	1132.12
515.074	1155.12
515.29	1152.12
515.506	1161.12
515.721	1157.12
515.937	1212.12
516.153	1195.12
516.369	1229.12
516.585	1287.12
516.801	1293.12
517.016	1380.12
517.232	1415.12
517.448	1457.12
517.664	1505.12
517.879	1498.12
518.095	1489.12
518.311	1490.12
518.527	1437.12
518.742	1396.12
518.958	1335.12
519.173	1268.12
519.389	1275.12
519.605	1231.12
519.82	1209.12
520.036	1169.12
520.251	1159.12
520.467	1110.12
520.682	1120.12
520.898	1114.12
521.113	1100.12
521.329	1062.12
521.544	1078.12
521.76	1087.12
521.975	1091.12
522.19	1055.12
522.406	1071.12
522.621	1019.12
522.836	1031.12
523.052	1039.12
523.267	1042.12
523.482	1058.12
523.698	1015.12
523.913	1008.12
524.128	1001.12
524.343	1015.12
524.559	1031.12
524.774	1004.12
524.989	1017.12
525.204	999.12
525.419	1006.12
525.634	991.12
525.849	1007.12
526.064	989.12
526.28	978.12
526.495	988.12
526.71	1003.12
526.925	969.12
527.14	979.12
527.355	982.12
527.57	977.12
527.785	983.12
527.999	1002.12
528.214	998.12
528.429	981.12
528.644	982.12
528.859	982.12
529.074	997.12
529.289	1010.12
529.503	997.12
529.718	1002.12
529.933	983.12
530.148	985.12
530.363	987.12
530.577	1011.12
530.792	974.12
531.007	977.12
531.221	988.12
531.436	980.12
531.651	1007.12
531.865	1003.12
532.08	1004.12
532.295	991.12
532.509	953.12
532.724	977.12
532.938	996.12
533.153	982.12
533.367	984.12
533.582	1000.12
533.796	968.12
534.011	989.12
534.225	972.12
534.44	973.12
534.654	952.12
534.868	965.12
535.083	959.12
535.297	960.12
535.511	957.12
535.726	957.12
535.94	920.12
536.154	934.12
536.369	943.12
536.583	910.12
536.797	944.12
537.011	918.12
537.225	889.12
537.44	889.12
537.654	929.12
537.868	880.12
538.082	895.12
538.296	901.12
538.51	905.12
538.724	917.12
538.938	901.12
539.153	877.12
539.367	895.12
539.581	875.12
539.795	887.12
540.009	893.12
540.222	862.12
540.436	885.12
540.65	873.12
540.864	901.12
541.078	920.12
541.292	895.12
541.506	910.12
541.72	873.12
541.934	885.12
542.147	891.12
542.361	892.12
542.575	883.12
542.789	873.12
543.002	885.12
543.216	880.12
543.43	878.12
543.644	833.12
543.857	871.12
544.071	884.12
544.285	859.12
544.498	891.12
544.712	875.12
544.925	895.12
545.139	904.12
545.352	908.12
545.566	900.12
545.779	922.12
545.993	920.12
546.206	914.12
546.42	895.12
546.633	907.12
546.847	896.12
547.06	885.12
547.274	891.12
547.487	915.12
547.7	892.12
547.914	918.12
548.127	923.12
548.34	914.12
548.554	903.12
548.767	866.12
548.98	913.12
549.193	901.12
549.407	911.12
549.62	912.12
549.833	922.12
550.046	921.12
550.259	918.12
550.473	897.12
550.686	914.12
550.899	917.12
551.112	875.12
551.325	901.12
551.538	895.12
551.751	886.12
551.964	899.12
552.177	915.12
552.39	913.12
552.603	929.12
552.816	956.12
553.029	989.12
553.242	974.12
553.455	993.12
553.667	966.12
553.88	963.12
554.093	948.12
554.306	925.12
554.519	929.12
554.732	890.12
554.944	891.12
555.157	867.12
555.37	857.12
555.583	848.12
555.795	844.12
556.008	807.12
556.221	805.12
556.433	788.12
556.646	789.12
556.859	800.12
557.071	782.12
557.284	769.12
557.496	785.12
557.709	770.12
557.921	765.12
558.134	748.12
558.346	771.12
558.559	759.12
558.771	742.12
558.984	749.12
559.196	748.12
559.409	757.12
559.621	764.12
559.833	736.12
560.046	732.12
560.258	779.12
560.47	743.12
560.683	737.12
560.895	745.12
561.107	739.12
561.32	743.12
561.532	716.12
561.744	748.12
561.956	759.12
562.168	779.12
562.381	727.12
562.593	758.12
562.805	756.12
563.017	725.12
563.229	737.12
563.441	762.12
563.653	750.12
563.865	779.12
564.077	771.12
564.289	789.12
564.501	749.12
564.713	816.12
564.925	828.12
565.137	827.12
565.349	853.12
565.561	910.12
565.773	905.12
565.985	956.12
566.197	988.12
566.408	1052.12
566.62	1095.12
566.832	1165.12
567.044	1219.12
567.255	1243.12
567.467	1231.12
567.679	1308.12
567.891	1338.12
568.102	1331.12
568.314	1304.12
568.526	1179.12
568.737	1124.12
568.949	1041.12
569.161	971.12
569.372	892.12
569.584	894.12
569.795	848.12
570.007	821.12
570.218	811.12
570.43	783.12
570.641	777.12
570.853	755.12
571.064	737.12
571.276	743.12
571.487	759.12
571.698	691.12
571.91	701.12
572.121	692.12
572.333	695.12
572.544	661.12
572.755	645.12
572.966	636.12
573.178	635.12
573.389	633.12
573.6	639.12
573.811	615.12
574.023	631.12
574.234	623.12
574.445	605.12
574.656	618.12
574.867	637.12
575.078	643.12
575.289	621.12
575.501	585.12
575.712	598.12
575.923	597.12
576.134	585.12
576.345	569.12
576.556	576.12
576.767	580.12
576.978	584.12
577.188	571.12
577.399	560.12
577.61	568.12
577.821	568.12
578.032	540.12
578.243	550.12
578.454	533.12
578.665	548.12
578.875	546.12
579.086	556.12
579.297	529.12
579.508	539.12
579.718	537.12
579.929	571.12
580.14	532.12
580.35	540.12
580.561	544.12
580.772	527.12
580.982	526.12
581.193	549.12
581.403	520.12
581.614	512.12
581.825	516.12
582.035	523.12
582.246	517.12
582.456	517.12
582.667	541.12
582.877	514.12
583.087	519.12
583.298	516.12
583.508	539.12
583.719	496.12
583.929	505.12
584.139	500.12
584.35	494.12
584.56	501.12
584.77	507.12
584.981	502.12
585.191	481.12
585.401	495.12
585.611	515.12
585.821	500.12
586.032	505.12
586.242	484.12
586.452	501.12
586.662	476.12
586.872	493.12
587.082	472.12
587.292	485.12
587.502	473.12
587.713	476.12
587.923	486.12
588.133	510.12
588.343	499.12
588.553	507.12
588.762	475.12
588.972	487.12
589.182	503.12
589.392	488.12
589.602	521.12
589.812	493.12
590.022	499.12
590.232	491.12
590.441	494.12
590.651	495.12
590.861	488.12
591.071	512.12
591.281	506.12
591.49	534.12
591.7	529.12
591.91	523.12
592.119	551.12
592.329	532.12
592.539	565.12
592.748	585.12
592.958	552.12
593.167	600.12
593.377	583.12
593.587	619.12
593.796	596.12
594.006	633.12
594.215	621.12
594.424	607.12
594.634	599.12
594.843	574.12
595.053	579.12
595.262	555.12
595.472	536.12
595.681	520.12
595.89	526.12
596.1	503.12
596.309	494.12
596.518	473.12
596.727	488.12
596.937	472.12
597.146	449.12
597.355	464.12
597.564	457.12
597.774	471.12
597.983	441.12
598.192	439.12
598.401	428.12
598.61	435.12
598.819	414.12
599.028	419.12
599.237	416.12
599.446	420.12
599.655	417.12
599.864	409.12
600.073	398.12
600.282	415.12
600.491	399.12
600.7	405.12
600.909	400.12
601.118	433.12
601.327	395.12
601.536	407.12
601.745	397.12
601.953	401.12
602.162	398.12
602.371	395.12
602.58	384.12
602.789	404.12
602.997	381.12
603.206	388.12
603.415	402.12
603.623	394.12
603.832	375.12
604.041	384.12
604.249	377.12
604.458	365.12
604.666	381.12
604.875	359.12
605.084	371.12
605.292	375.12
605.501	376.12
605.709	380.12
605.918	382.12
606.126	372.12
606.334	382.12
606.543	385.12
606.751	380.12
606.96	387.12
607.168	377.12
607.376	371.12
607.585	372.12
607.793	358.12
608.001	368.12
608.21	363.12
608.418	389.12
608.626	361.12
608.834	371.12
609.043	359.12
609.251	347.12
609.459	366.12
609.667	366.12
609.875	355.12
610.083	362.12
610.291	363.12
610.499	360.12
610.707	345.12
610.916	342.12
611.124	353.12
611.332	354.12
611.54	362.12
611.748	341.12
611.955	360.12
612.163	348.12
612.371	352.12
612.579	354.12
612.787	345.12
612.995	319.12
613.203	345.12
613.411	359.12
613.618	359.12
613.826	332.12
614.034	352.12
614.242	348.12
614.449	335.12
614.657	338.12
614.865	339.12
615.072	333.12
615.28	348.12
615.488	321.12
615.695	344.12
615.903	346.12
616.111	324.12
616.318	335.12
616.526	327.12
616.733	360.12
616.941	329.12
617.148	332.12
617.356	345.12
617.563	328.12
617.771	337.12
617.978	358.12
618.185	349.12
618.393	334.12
618.6	334.12
618.807	324.12
619.015	322.12
619.222	343.12
619.429	325.12
619.637	343.12
619.844	319.12
620.051	324.12
620.258	348.12
620.466	306.12
620.673	308.12
620.88	315.12
621.087	327.12
621.294	325.12
621.501	316.12
621.708	320.12
621.915	325.12
622.122	314.12
622.329	314.12
622.536	319.12
622.743	313.12
622.95	302.12
623.157	311.12
623.364	295.12
623.571	313.12
623.778	302.12
623.985	315.12
624.192	316.12
624.399	295.12
624.606	292.12
624.812	294.12
625.019	295.12
625.226	301.12
625.433	301.12
625.639	296.12
625.846	292.12
626.053	324.12
626.259	284.12
626.466	288.12
626.673	286.12
626.879	309.12
627.086	299.12
627.293	292.12
627.499	287.12
627.706	285.12
627.912	300.12
628.119	287.12
628.325	282.12
628.532	270.12
628.738	278.12
628.945	286.12
629.151	284.12
629.357	305.12
629.564	270.12
629.77	274.12
629.976	281.12
630.183	272.12
630.389	264.12
630.595	267.12
630.802	265.12
631.008	267.12
631.214	275.12
631.42	253.12
631.627	275.12
631.833	268.12
632.039	269.12
632.245	280.12
632.451	252.12
632.657	267.12
632.863	276.12
633.069	270.12
633.275	258.12
633.481	258.12
633.688	257.12
633.893	259.12
634.099	254.12
634.305	259.12
634.511	259.12
634.717	236.12
634.923	246.12
635.129	215.12
635.335	243.12
635.541	258.12
635.747	261.12
635.952	238.12
636.158	233.12
636.364	240.12
636.57	232.12
636.775	234.12
636.981	237.12
637.187	238.12
637.392	238.12
637.598	264.12
637.804	239.12
638.009	229.12
638.215	244.12
638.421	240.12
638.626	247.12
638.832	232.12
639.037	228.12
639.243	233.12
639.448	248.12
639.654	228.12
639.859	217.12
640.065	236.12
640.27	243.12
640.475	237.12
640.681	234.12
640.886	239.12
641.091	209.12
641.297	239.12
641.502	232.12
641.707	231.12
641.913	220.12
642.118	222.12
642.323	235.12
642.528	238.12
642.733	219.12
642.939	217.12
643.144	221.12
643.349	236.12
643.554	245.12
643.759	242.12
643.964	208.12
644.169	227.12
644.374	223.12
644.579	225.12
644.784	239.12
644.989	223.12
645.194	210.12
645.399	228.12
645.604	228.12
645.809	226.12
646.014	224.12
646.219	227.12
646.423	222.12
646.628	233.12
646.833	223.12
647.038	229.12
647.243	233.12
647.447	214.12
647.652	212.12
647.857	217.12
648.062	216.12
648.266	226.12
648.471	212.12
648.676	234.12
648.88	219.12
649.085	226.12
649.289	230.12
649.494	213.12
649.698	217.12
649.903	201.12
650.107	213.12
650.312	212.12
650.516	202.12
650.721	200.12
650.925	203.12
651.13	206.12
651.334	190.12
651.539	188.12
651.743	183.12
651.947	183.12
652.152	207.12
652.356	205.12
652.56	185.12
652.764	183.12
652.969	180.12
653.173	182.12
653.377	159.12
653.581	163.12
653.785	187.12
653.99	171.12
654.194	167.12
654.398	161.12
654.602	168.12
654.806	170.12
655.01	154.12
655.214	160.12
655.418	175.12
655.622	156.12
655.826	156.12
656.03	141.12
656.234	154.12
656.438	149.12
656.642	155.12
656.846	139.12
657.049	147.12
657.253	139.12
657.457	146.12
657.661	124.12
657.865	133.12
658.068	128.12
658.272	122.12
658.476	136.12
658.68	112.12
658.883	120.12
659.087	111.12
659.291	119.12
659.494	117.12
659.698	113.12
659.901	104.12
660.105	112.12
660.309	101.12
660.512	117.12
660.716	93.12
660.919	111.12
661.123	108.12
661.326	96.12
661.53	95.12
661.733	106.12
661.936	99.12
662.14	79.12
662.343	98.12
662.546	80.12
662.75	97.12
662.953	107.12
663.156	92.12
663.36	83.12
663.563	85.12
663.766	76.12
663.969	89.12
664.173	85.12
664.376	90.12
664.579	79.12
664.782	92.12
664.985	91.12
665.188	91.12
665.391	82.12
665.594	87.12
665.797	82.12
666	95.12
666.203	87.12
666.406	91.12
666.609	84.12
666.812	93.12
667.015	86.12
667.218	63.12
667.421	71.12
667.624	82.12
667.827	81.12
668.03	99.12
668.232	95.12
668.435	87.12
668.638	87.12
668.841	96.12
669.043	74.12
669.246	85.12
669.449	106.12
669.651	102.12
669.854	82.12
670.057	94.12
670.259	90.12
670.462	83.12
670.665	95.12
670.867	84.12
671.07	87.12
671.272	95.12
671.475	95.12
671.677	91.12
671.88	95.12
672.082	81.12
672.284	87.12
672.487	92.12
672.689	79.12
672.892	71.12
