Data from NiCl2@0.0625M.TitratingCurve.Agarose3%dH2O.NegLispCup.LampEnergy10.LIBS07252019_HRD10591_18-32-36-575.txt Node
Date: Thu Jul 25 18:32:36 EDT 2019
User: cochatt
Spectrometer: HR+D1059
Trigger mode: 1
Integration Time (sec): 1.000000E-1
Scans to average: 1
Electric dark correction enabled: true
Nonlinearity correction enabled: false
Boxcar width: 0
XAxis mode: Wavelengths
Number of Pixels in Spectrum: 2048
>>>>>Begin Spectral Data<<<<<
223.165	-11.44
223.4	-11.44
223.635	-11.44
223.869	-8.44
224.104	-29.44
224.338	-17.44
224.573	-32.44
224.808	-11.44
225.042	5.56
225.277	-6.44
225.511	-7.44
225.746	8.56
225.98	2.56
226.215	13.56
226.449	21.56
226.683	28.56
226.918	25.56
227.152	18.56
227.387	33.56
227.621	39.56
227.856	29.56
228.09	41.56
228.324	45.56
228.559	51.56
228.793	77.56
229.027	142.56
229.262	173.56
229.496	169.56
229.73	167.56
229.964	180.56
230.199	201.56
230.433	188.56
230.667	191.56
230.901	199.56
231.136	201.56
231.37	214.56
231.604	205.56
231.838	216.56
232.072	218.56
232.306	214.56
232.541	216.56
232.775	204.56
233.009	210.56
233.243	219.56
233.477	231.56
233.711	231.56
233.945	237.56
234.179	223.56
234.413	227.56
234.647	242.56
234.881	226.56
235.115	227.56
235.349	235.56
235.583	244.56
235.817	232.56
236.051	242.56
236.285	244.56
236.519	270.56
236.753	249.56
236.987	241.56
237.221	244.56
237.455	246.56
237.689	253.56
237.922	251.56
238.156	270.56
238.39	270.56
238.624	252.56
238.858	277.56
239.091	278.56
239.325	278.56
239.559	286.56
239.793	306.56
240.027	301.56
240.26	283.56
240.494	284.56
240.728	282.56
240.961	295.56
241.195	294.56
241.429	325.56
241.662	302.56
241.896	316.56
242.13	297.56
242.363	320.56
242.597	335.56
242.83	312.56
243.064	316.56
243.298	319.56
243.531	335.56
243.765	324.56
243.998	353.56
244.232	357.56
244.465	352.56
244.699	358.56
244.932	356.56
245.166	352.56
245.399	370.56
245.633	361.56
245.866	348.56
246.099	365.56
246.333	363.56
246.566	359.56
246.8	359.56
247.033	379.56
247.266	368.56
247.5	390.56
247.733	375.56
247.966	414.56
248.2	419.56
248.433	420.56
248.666	408.56
248.899	396.56
249.133	420.56
249.366	391.56
249.599	418.56
249.832	438.56
250.066	422.56
250.299	440.56
250.532	424.56
250.765	454.56
250.998	445.56
251.231	429.56
251.465	441.56
251.698	461.56
251.931	437.56
252.164	456.56
252.397	465.56
252.63	452.56
252.863	470.56
253.096	477.56
253.329	455.56
253.562	462.56
253.795	495.56
254.028	472.56
254.261	494.56
254.494	481.56
254.727	501.56
254.96	498.56
255.193	467.56
255.426	489.56
255.659	479.56
255.892	502.56
256.124	498.56
256.357	519.56
256.59	518.56
256.823	509.56
257.056	511.56
257.289	511.56
257.521	519.56
257.754	541.56
257.987	516.56
258.22	532.56
258.452	531.56
258.685	536.56
258.918	567.56
259.151	540.56
259.383	544.56
259.616	532.56
259.849	541.56
260.081	567.56
260.314	578.56
260.547	566.56
260.779	550.56
261.012	582.56
261.244	570.56
261.477	569.56
261.71	562.56
261.942	570.56
262.175	569.56
262.407	573.56
262.64	580.56
262.872	591.56
263.105	576.56
263.337	607.56
263.57	582.56
263.802	603.56
264.035	590.56
264.267	618.56
264.499	608.56
264.732	589.56
264.964	608.56
265.197	611.56
265.429	621.56
265.661	604.56
265.894	599.56
266.126	633.56
266.358	623.56
266.591	615.56
266.823	640.56
267.055	611.56
267.287	642.56
267.52	632.56
267.752	661.56
267.984	636.56
268.216	660.56
268.448	686.56
268.681	659.56
268.913	671.56
269.145	628.56
269.377	653.56
269.609	676.56
269.841	679.56
270.073	662.56
270.306	667.56
270.538	661.56
270.77	666.56
271.002	696.56
271.234	658.56
271.466	660.56
271.698	709.56
271.93	686.56
272.162	706.56
272.394	707.56
272.626	707.56
272.858	709.56
273.09	693.56
273.322	734.56
273.553	718.56
273.785	718.56
274.017	730.56
274.249	754.56
274.481	750.56
274.713	732.56
274.945	759.56
275.176	768.56
275.408	746.56
275.64	760.56
275.872	766.56
276.104	778.56
276.335	754.56
276.567	768.56
276.799	738.56
277.031	776.56
277.262	783.56
277.494	760.56
277.726	766.56
277.957	793.56
278.189	794.56
278.421	751.56
278.652	786.56
278.884	790.56
279.115	806.56
279.347	794.56
279.579	822.56
279.81	843.56
280.042	844.56
280.273	843.56
280.505	832.56
280.736	823.56
280.968	821.56
281.199	833.56
281.431	829.56
281.662	831.56
281.894	845.56
282.125	829.56
282.356	845.56
282.588	855.56
282.819	886.56
283.051	845.56
283.282	846.56
283.513	863.56
283.745	855.56
283.976	866.56
284.207	844.56
284.439	894.56
284.67	867.56
284.901	860.56
285.132	895.56
285.364	912.56
285.595	895.56
285.826	878.56
286.057	876.56
286.288	868.56
286.52	891.56
286.751	890.56
286.982	895.56
287.213	926.56
287.444	910.56
287.675	930.56
287.906	935.56
288.138	911.56
288.369	933.56
288.6	914.56
288.831	944.56
289.062	886.56
289.293	952.56
289.524	929.56
289.755	970.56
289.986	926.56
290.217	918.56
290.448	953.56
290.679	909.56
290.91	924.56
291.141	947.56
291.371	968.56
291.602	969.56
291.833	913.56
292.064	948.56
292.295	956.56
292.526	991.56
292.757	959.56
292.987	973.56
293.218	950.56
293.449	927.56
293.68	951.56
293.91	960.56
294.141	934.56
294.372	961.56
294.603	984.56
294.833	928.56
295.064	975.56
295.295	1003.56
295.525	963.56
295.756	963.56
295.987	952.56
296.217	990.56
296.448	965.56
296.679	973.56
296.909	986.56
297.14	987.56
297.37	1006.56
297.601	1020.56
297.831	1007.56
298.062	1022.56
298.292	1010.56
298.523	1023.56
298.753	1050.56
298.984	1050.56
299.214	1024.56
299.445	1051.56
299.675	1035.56
299.905	1046.56
300.136	1074.56
300.366	1031.56
300.597	1063.56
300.827	1059.56
301.057	1070.56
301.288	1077.56
301.518	1044.56
301.748	1074.56
301.979	1088.56
302.209	1126.56
302.439	1096.56
302.669	1086.56
302.9	1061.56
303.13	1059.56
303.36	1090.56
303.59	1082.56
303.82	1098.56
304.051	1097.56
304.281	1096.56
304.511	1051.56
304.741	1098.56
304.971	1118.56
305.201	1102.56
305.431	1095.56
305.661	1074.56
305.891	1050.56
306.121	1093.56
306.352	1086.56
306.582	1053.56
306.812	1047.56
307.042	1078.56
307.272	1082.56
307.502	1081.56
307.731	1083.56
307.961	1075.56
308.191	1089.56
308.421	1078.56
308.651	1058.56
308.881	1091.56
309.111	1067.56
309.341	1075.56
309.571	1079.56
309.8	1068.56
310.03	1060.56
310.26	1057.56
310.49	1064.56
310.72	1092.56
310.949	1087.56
311.179	1080.56
311.409	1088.56
311.639	1094.56
311.868	1105.56
312.098	1115.56
312.328	1123.56
312.557	1096.56
312.787	1135.56
313.017	1143.56
313.246	1130.56
313.476	1135.56
313.706	1148.56
313.935	1168.56
314.165	1163.56
314.394	1189.56
314.624	1176.56
314.853	1139.56
315.083	1153.56
315.312	1146.56
315.542	1143.56
315.771	1164.56
316.001	1142.56
316.23	1122.56
316.46	1146.56
316.689	1185.56
316.919	1156.56
317.148	1154.56
317.377	1140.56
317.607	1146.56
317.836	1172.56
318.065	1154.56
318.295	1138.56
318.524	1145.56
318.753	1127.56
318.983	1146.56
319.212	1146.56
319.441	1153.56
319.67	1182.56
319.9	1141.56
320.129	1140.56
320.358	1156.56
320.587	1145.56
320.816	1166.56
321.046	1164.56
321.275	1143.56
321.504	1160.56
321.733	1170.56
321.962	1156.56
322.191	1211.56
322.42	1168.56
322.649	1153.56
322.878	1157.56
323.108	1158.56
323.337	1180.56
323.566	1173.56
323.795	1193.56
324.024	1210.56
324.253	1228.56
324.482	1205.56
324.71	1215.56
324.939	1225.56
325.168	1213.56
325.397	1241.56
325.626	1223.56
325.855	1203.56
326.084	1256.56
326.313	1253.56
326.542	1228.56
326.77	1282.56
326.999	1245.56
327.228	1188.56
327.457	1268.56
327.686	1258.56
327.914	1256.56
328.143	1250.56
328.372	1263.56
328.6	1258.56
328.829	1265.56
329.058	1253.56
329.287	1241.56
329.515	1255.56
329.744	1244.56
329.972	1276.56
330.201	1319.56
330.43	1250.56
330.658	1266.56
330.887	1299.56
331.115	1320.56
331.344	1324.56
331.572	1333.56
331.801	1334.56
332.03	1364.56
332.258	1387.56
332.486	1439.56
332.715	1438.56
332.943	1479.56
333.172	1505.56
333.4	1574.56
333.629	1635.56
333.857	1639.56
334.085	1638.56
334.314	1648.56
334.542	1616.56
334.771	1533.56
334.999	1556.56
335.227	1569.56
335.455	1549.56
335.684	1548.56
335.912	1566.56
336.14	1533.56
336.369	1524.56
336.597	1533.56
336.825	1513.56
337.053	1485.56
337.281	1491.56
337.51	1468.56
337.738	1449.56
337.966	1396.56
338.194	1392.56
338.422	1410.56
338.65	1386.56
338.878	1390.56
339.106	1347.56
339.334	1392.56
339.562	1335.56
339.79	1344.56
340.018	1338.56
340.246	1312.56
340.474	1364.56
340.702	1316.56
340.93	1320.56
341.158	1328.56
341.386	1348.56
341.614	1327.56
341.842	1302.56
342.07	1286.56
342.298	1308.56
342.526	1307.56
342.754	1325.56
342.981	1310.56
343.209	1344.56
343.437	1373.56
343.665	1444.56
343.893	1517.56
344.12	1585.56
344.348	1550.56
344.576	1512.56
344.804	1475.56
345.031	1388.56
345.259	1378.56
345.487	1348.56
345.714	1310.56
345.942	1289.56
346.17	1312.56
346.397	1280.56
346.625	1258.56
346.853	1273.56
347.08	1279.56
347.308	1250.56
347.535	1263.56
347.763	1264.56
347.99	1240.56
348.218	1282.56
348.445	1270.56
348.673	1263.56
348.9	1268.56
349.128	1250.56
349.355	1257.56
349.583	1278.56
349.81	1220.56
350.037	1217.56
350.265	1238.56
350.492	1215.56
350.72	1188.56
350.947	1217.56
351.174	1217.56
351.402	1235.56
351.629	1240.56
351.856	1219.56
352.083	1205.56
352.311	1205.56
352.538	1225.56
352.765	1205.56
352.992	1206.56
353.22	1202.56
353.447	1185.56
353.674	1200.56
353.901	1197.56
354.128	1169.56
354.355	1207.56
354.583	1199.56
354.81	1190.56
355.037	1228.56
355.264	1208.56
355.491	1197.56
355.718	1212.56
355.945	1220.56
356.172	1213.56
356.399	1224.56
356.626	1238.56
356.853	1224.56
357.08	1266.56
357.307	1221.56
357.534	1199.56
357.761	1244.56
357.988	1232.56
358.215	1234.56
358.441	1240.56
358.668	1227.56
358.895	1225.56
359.122	1237.56
359.349	1244.56
359.576	1239.56
359.802	1228.56
360.029	1244.56
360.256	1231.56
360.483	1251.56
360.709	1231.56
360.936	1214.56
361.163	1224.56
361.39	1225.56
361.616	1206.56
361.843	1230.56
362.07	1287.56
362.296	1205.56
362.523	1256.56
362.749	1232.56
362.976	1222.56
363.203	1215.56
363.429	1223.56
363.656	1228.56
363.882	1222.56
364.109	1251.56
364.335	1232.56
364.562	1222.56
364.788	1181.56
365.015	1231.56
365.241	1215.56
365.468	1232.56
365.694	1233.56
365.92	1189.56
366.147	1217.56
366.373	1202.56
366.599	1234.56
366.826	1188.56
367.052	1224.56
367.278	1214.56
367.505	1237.56
367.731	1226.56
367.957	1225.56
368.184	1260.56
368.41	1272.56
368.636	1242.56
368.862	1264.56
369.089	1274.56
369.315	1267.56
369.541	1266.56
369.767	1270.56
369.993	1291.56
370.219	1266.56
370.445	1284.56
370.672	1310.56
370.898	1298.56
371.124	1303.56
371.35	1325.56
371.576	1323.56
371.802	1352.56
372.028	1332.56
372.254	1364.56
372.48	1385.56
372.706	1367.56
372.932	1387.56
373.158	1354.56
373.384	1342.56
373.61	1352.56
373.835	1355.56
374.061	1326.56
374.287	1354.56
374.513	1364.56
374.739	1394.56
374.965	1445.56
375.191	1466.56
375.416	1478.56
375.642	1405.56
375.868	1413.56
376.094	1411.56
376.319	1397.56
376.545	1358.56
376.771	1357.56
376.997	1332.56
377.222	1307.56
377.448	1319.56
377.674	1354.56
377.899	1302.56
378.125	1285.56
378.35	1325.56
378.576	1326.56
378.802	1333.56
379.027	1315.56
379.253	1326.56
379.478	1321.56
379.704	1332.56
379.929	1298.56
380.155	1302.56
380.38	1287.56
380.606	1338.56
380.831	1313.56
381.057	1328.56
381.282	1316.56
381.507	1342.56
381.733	1379.56
381.958	1337.56
382.184	1368.56
382.409	1418.56
382.634	1396.56
382.86	1375.56
383.085	1384.56
383.31	1439.56
383.535	1428.56
383.761	1424.56
383.986	1439.56
384.211	1499.56
384.436	1484.56
384.662	1518.56
384.887	1532.56
385.112	1547.56
385.337	1609.56
385.562	1591.56
385.787	1616.56
386.013	1637.56
386.238	1621.56
386.463	1589.56
386.688	1596.56
386.913	1591.56
387.138	1571.56
387.363	1586.56
387.588	1577.56
387.813	1575.56
388.038	1590.56
388.263	1590.56
388.488	1615.56
388.713	1572.56
388.938	1585.56
389.163	1550.56
389.387	1551.56
389.612	1507.56
389.837	1589.56
390.062	1542.56
390.287	1555.56
390.512	1564.56
390.736	1596.56
390.961	1566.56
391.186	1641.56
391.411	1675.56
391.636	1707.56
391.86	1755.56
392.085	1794.56
392.31	1753.56
392.534	1742.56
392.759	1714.56
392.984	1727.56
393.208	1715.56
393.433	1797.56
393.658	1873.56
393.882	1689.56
394.107	1666.56
394.331	1675.56
394.556	1698.56
394.78	1672.56
395.005	1693.56
395.229	1724.56
395.454	1684.56
395.678	1788.56
395.903	1819.56
396.127	1773.56
396.352	1726.56
396.576	1703.56
396.801	1752.56
397.025	1796.56
397.249	1817.56
397.474	1788.56
397.698	1804.56
397.922	1823.56
398.147	1802.56
398.371	1845.56
398.595	1829.56
398.82	1998.56
399.044	2088.56
399.268	2283.56
399.492	2543.56
399.717	2755.56
399.941	2772.56
400.165	2505.56
400.389	2344.56
400.613	2221.56
400.837	2092.56
401.062	2012.56
401.286	2004.56
401.51	1979.56
401.734	1939.56
401.958	2004.56
402.182	2005.56
402.406	2006.56
402.63	2017.56
402.854	2067.56
403.078	2062.56
403.302	2116.56
403.526	2153.56
403.75	2143.56
403.974	2195.56
404.198	2186.56
404.422	2191.56
404.645	2173.56
404.869	2132.56
405.093	2181.56
405.317	2118.56
405.541	2100.56
405.765	2134.56
405.988	2146.56
406.212	2140.56
406.436	2185.56
406.66	2238.56
406.883	2270.56
407.107	2315.56
407.331	2400.56
407.555	2466.56
407.778	2466.56
408.002	2407.56
408.226	2364.56
408.449	2362.56
408.673	2250.56
408.896	2173.56
409.12	2176.56
409.344	2215.56
409.567	2188.56
409.791	2195.56
410.014	2124.56
410.238	2110.56
410.461	2167.56
410.685	2111.56
410.908	2094.56
411.132	2074.56
411.355	2039.56
411.578	2079.56
411.802	2050.56
412.025	2024.56
412.249	2098.56
412.472	2059.56
412.695	2014.56
412.919	1974.56
413.142	1985.56
413.365	1992.56
413.589	1992.56
413.812	2005.56
414.035	1954.56
414.258	1964.56
414.482	1995.56
414.705	2011.56
414.928	1990.56
415.151	1986.56
415.374	1967.56
415.597	1940.56
415.821	1901.56
416.044	1866.56
416.267	1898.56
416.49	1878.56
416.713	1933.56
416.936	1937.56
417.159	1892.56
417.382	1858.56
417.605	1913.56
417.828	1865.56
418.051	1915.56
418.274	1920.56
418.497	1919.56
418.72	1941.56
418.943	1937.56
419.166	2064.56
419.389	2194.56
419.611	2152.56
419.834	2093.56
420.057	2037.56
420.28	1946.56
420.503	1883.56
420.726	1890.56
420.948	1884.56
421.171	1895.56
421.394	1917.56
421.617	1912.56
421.839	1912.56
422.062	1892.56
422.285	1858.56
422.507	1903.56
422.73	1941.56
422.953	1954.56
423.175	1951.56
423.398	1955.56
423.621	1932.56
423.843	2030.56
424.066	1999.56
424.288	1945.56
424.511	1919.56
424.733	1934.56
424.956	1892.56
425.178	1913.56
425.401	1899.56
425.623	1902.56
425.846	1896.56
426.068	1877.56
426.291	1880.56
426.513	1847.56
426.735	1787.56
426.958	1824.56
427.18	1769.56
427.402	1810.56
427.625	1800.56
427.847	1768.56
428.069	1739.56
428.292	1743.56
428.514	1728.56
428.736	1694.56
428.958	1766.56
429.181	1723.56
429.403	1698.56
429.625	1706.56
429.847	1661.56
430.069	1674.56
430.292	1682.56
430.514	1705.56
430.736	1687.56
430.958	1736.56
431.18	1691.56
431.402	1738.56
431.624	1734.56
431.846	1730.56
432.068	1724.56
432.29	1785.56
432.512	1733.56
432.734	1725.56
432.956	1724.56
433.178	1743.56
433.4	1737.56
433.622	1786.56
433.844	1776.56
434.066	1784.56
434.287	1771.56
434.509	1896.56
434.731	1836.56
434.953	1883.56
435.175	1901.56
435.397	1926.56
435.618	1830.56
435.84	1792.56
436.062	1762.56
436.284	1771.56
436.505	1743.56
436.727	1759.56
436.949	1761.56
437.17	1741.56
437.392	1700.56
437.614	1712.56
437.835	1648.56
438.057	1637.56
438.278	1644.56
438.5	1631.56
438.721	1672.56
438.943	1683.56
439.165	1677.56
439.386	1683.56
439.608	1682.56
439.829	1671.56
440.05	1708.56
440.272	1681.56
440.493	1728.56
440.715	1718.56
440.936	1765.56
441.158	1784.56
441.379	1798.56
441.6	1854.56
441.822	1903.56
442.043	1875.56
442.264	1868.56
442.486	1772.56
442.707	1847.56
442.928	1869.56
443.149	1879.56
443.371	1832.56
443.592	1892.56
443.813	1861.56
444.034	1899.56
444.255	1941.56
444.476	2025.56
444.698	2094.56
444.919	2175.56
445.14	2195.56
445.361	2025.56
445.582	1984.56
445.803	1858.56
446.024	1791.56
446.245	1758.56
446.466	1755.56
446.687	1714.56
446.908	1711.56
447.129	1654.56
447.35	1666.56
447.571	1605.56
447.792	1620.56
448.013	1566.56
448.234	1567.56
448.455	1594.56
448.675	1532.56
448.896	1559.56
449.117	1507.56
449.338	1535.56
449.559	1560.56
449.779	1504.56
450	1507.56
450.221	1516.56
450.442	1551.56
450.662	1546.56
450.883	1584.56
451.104	1562.56
451.324	1590.56
451.545	1534.56
451.766	1576.56
451.986	1540.56
452.207	1497.56
452.428	1572.56
452.648	1525.56
452.869	1493.56
453.089	1490.56
453.31	1539.56
453.53	1510.56
453.751	1503.56
453.971	1475.56
454.192	1484.56
454.412	1461.56
454.633	1496.56
454.853	1460.56
455.073	1448.56
455.294	1435.56
455.514	1413.56
455.734	1464.56
455.955	1427.56
456.175	1471.56
456.395	1435.56
456.616	1422.56
456.836	1445.56
457.056	1440.56
457.276	1434.56
457.497	1464.56
457.717	1427.56
457.937	1452.56
458.157	1503.56
458.377	1507.56
458.598	1571.56
458.818	1574.56
459.038	1598.56
459.258	1651.56
459.478	1696.56
459.698	1772.56
459.918	1822.56
460.138	1818.56
460.358	1903.56
460.578	1912.56
460.798	1984.56
461.018	1970.56
461.238	1965.56
461.458	1955.56
461.678	1925.56
461.898	2001.56
462.118	1985.56
462.338	2046.56
462.558	2177.56
462.777	2201.56
462.997	2332.56
463.217	2499.56
463.437	2496.56
463.657	2345.56
463.876	2282.56
464.096	2275.56
464.316	2241.56
464.536	2240.56
464.755	2158.56
464.975	2110.56
465.195	1987.56
465.414	1959.56
465.634	1853.56
465.854	1766.56
466.073	1692.56
466.293	1695.56
466.512	1670.56
466.732	1668.56
466.951	1674.56
467.171	1624.56
467.391	1627.56
467.61	1638.56
467.829	1589.56
468.049	1638.56
468.268	1579.56
468.488	1571.56
468.707	1596.56
468.927	1576.56
469.146	1564.56
469.365	1583.56
469.585	1595.56
469.804	1592.56
470.023	1632.56
470.243	1611.56
470.462	1659.56
470.681	1694.56
470.901	1671.56
471.12	1618.56
471.339	1623.56
471.558	1577.56
471.777	1621.56
471.997	1597.56
472.216	1602.56
472.435	1572.56
472.654	1545.56
472.873	1515.56
473.092	1524.56
473.311	1547.56
473.53	1531.56
473.749	1543.56
473.968	1539.56
474.187	1517.56
474.406	1536.56
474.625	1542.56
474.844	1580.56
475.063	1551.56
475.282	1574.56
475.501	1554.56
475.72	1601.56
475.939	1618.56
476.158	1619.56
476.377	1655.56
476.596	1626.56
476.814	1648.56
477.033	1660.56
477.252	1683.56
477.471	1691.56
477.69	1756.56
477.908	1773.56
478.127	1842.56
478.346	1871.56
478.564	1871.56
478.783	1939.56
479.002	1922.56
479.22	1944.56
479.439	1934.56
479.658	1918.56
479.876	1947.56
480.095	1961.56
480.313	2063.56
480.532	2035.56
480.751	2079.56
480.969	1979.56
481.188	1972.56
481.406	1895.56
481.624	1886.56
481.843	1886.56
482.061	1825.56
482.28	1852.56
482.498	1906.56
482.717	1871.56
482.935	1882.56
483.153	1850.56
483.372	1895.56
483.59	1901.56
483.808	1878.56
484.027	1888.56
484.245	1902.56
484.463	1949.56
484.681	1952.56
484.9	1951.56
485.118	1965.56
485.336	1964.56
485.554	1989.56
485.772	1974.56
485.99	2016.56
486.209	2011.56
486.427	1981.56
486.645	1991.56
486.863	1989.56
487.081	1976.56
487.299	1994.56
487.517	1992.56
487.735	1973.56
487.953	1983.56
488.171	1960.56
488.389	1967.56
488.607	1918.56
488.825	1951.56
489.043	1910.56
489.261	1922.56
489.479	1928.56
489.696	1919.56
489.914	1917.56
490.132	1951.56
490.35	1955.56
490.568	1915.56
490.786	1922.56
491.003	1887.56
491.221	1929.56
491.439	1893.56
491.657	1877.56
491.874	1940.56
492.092	1940.56
492.31	1927.56
492.527	1926.56
492.745	1963.56
492.963	1947.56
493.18	1935.56
493.398	1962.56
493.615	1979.56
493.833	1999.56
494.05	1958.56
494.268	1989.56
494.485	1936.56
494.703	2011.56
494.92	1983.56
495.138	1951.56
495.355	1968.56
495.573	1971.56
495.79	1988.56
496.008	2088.56
496.225	2052.56
496.442	2024.56
496.66	2081.56
496.877	2129.56
497.094	2127.56
497.312	2143.56
497.529	2200.56
497.746	2249.56
497.963	2308.56
498.181	2423.56
498.398	2563.56
498.615	2629.56
498.832	2762.56
499.049	2994.56
499.267	3164.56
499.484	3467.56
499.701	3771.56
499.918	3979.56
500.135	4452.56
500.352	4927.56
500.569	5112.56
500.786	5034.56
501.003	4810.56
501.22	4457.56
501.437	3939.56
501.654	3620.56
501.871	3360.56
502.088	3133.56
502.305	2896.56
502.522	2790.56
502.739	2700.56
502.956	2576.56
503.172	2430.56
503.389	2327.56
503.606	2315.56
503.823	2217.56
504.04	2195.56
504.256	2221.56
504.473	2236.56
504.69	2234.56
504.907	2230.56
505.123	2144.56
505.34	2030.56
505.557	1927.56
505.773	1898.56
505.99	1863.56
506.207	1818.56
506.423	1822.56
506.64	1768.56
506.856	1757.56
507.073	1742.56
507.289	1725.56
507.506	1726.56
507.722	1725.56
507.939	1669.56
508.155	1665.56
508.372	1671.56
508.588	1665.56
508.805	1649.56
509.021	1619.56
509.238	1592.56
509.454	1610.56
509.67	1597.56
509.887	1551.56
510.103	1573.56
510.319	1566.56
510.536	1560.56
510.752	1565.56
510.968	1555.56
511.184	1536.56
511.401	1560.56
511.617	1541.56
511.833	1573.56
512.049	1518.56
512.265	1528.56
512.481	1546.56
512.698	1542.56
512.914	1555.56
513.13	1552.56
513.346	1518.56
513.562	1558.56
513.778	1588.56
513.994	1524.56
514.21	1546.56
514.426	1559.56
514.642	1580.56
514.858	1586.56
515.074	1600.56
515.29	1566.56
515.506	1630.56
515.721	1631.56
515.937	1680.56
516.153	1678.56
516.369	1712.56
516.585	1734.56
516.801	1803.56
517.016	1826.56
517.232	1897.56
517.448	2000.56
517.664	2049.56
517.879	2024.56
518.095	2025.56
518.311	1981.56
518.527	1932.56
518.742	1868.56
518.958	1799.56
519.173	1754.56
519.389	1709.56
519.605	1701.56
519.82	1669.56
520.036	1635.56
520.251	1566.56
520.467	1582.56
520.682	1570.56
520.898	1533.56
521.113	1498.56
521.329	1464.56
521.544	1444.56
521.76	1476.56
521.975	1507.56
522.19	1461.56
522.406	1422.56
522.621	1420.56
522.836	1399.56
523.052	1452.56
523.267	1415.56
523.482	1401.56
523.698	1395.56
523.913	1379.56
524.128	1399.56
524.343	1404.56
524.559	1414.56
524.774	1411.56
524.989	1429.56
525.204	1415.56
525.419	1432.56
525.634	1382.56
525.849	1412.56
526.064	1386.56
526.28	1338.56
526.495	1368.56
526.71	1371.56
526.925	1362.56
527.14	1345.56
527.355	1332.56
527.57	1338.56
527.785	1351.56
527.999	1340.56
528.214	1350.56
528.429	1355.56
528.644	1364.56
528.859	1387.56
529.074	1349.56
529.289	1344.56
529.503	1380.56
529.718	1353.56
529.933	1324.56
530.148	1348.56
530.363	1358.56
530.577	1372.56
530.792	1335.56
531.007	1365.56
531.221	1344.56
531.436	1330.56
531.651	1346.56
531.865	1340.56
532.08	1333.56
532.295	1340.56
532.509	1309.56
532.724	1326.56
532.938	1352.56
533.153	1348.56
533.367	1367.56
533.582	1328.56
533.796	1330.56
534.011	1323.56
534.225	1330.56
534.44	1331.56
534.654	1326.56
534.868	1318.56
535.083	1311.56
535.297	1304.56
535.511	1308.56
535.726	1268.56
535.94	1296.56
536.154	1275.56
536.369	1254.56
536.583	1250.56
536.797	1236.56
537.011	1244.56
537.225	1227.56
537.44	1238.56
537.654	1226.56
537.868	1229.56
538.082	1251.56
538.296	1236.56
538.51	1228.56
538.724	1234.56
538.938	1220.56
539.153	1207.56
539.367	1212.56
539.581	1226.56
539.795	1212.56
540.009	1218.56
540.222	1196.56
540.436	1194.56
540.65	1210.56
540.864	1205.56
541.078	1214.56
541.292	1220.56
541.506	1222.56
541.72	1188.56
541.934	1156.56
542.147	1208.56
542.361	1163.56
542.575	1197.56
542.789	1181.56
543.002	1163.56
543.216	1169.56
543.43	1182.56
543.644	1151.56
543.857	1172.56
544.071	1187.56
544.285	1184.56
544.498	1156.56
544.712	1172.56
544.925	1194.56
545.139	1176.56
545.352	1224.56
545.566	1220.56
545.779	1210.56
545.993	1188.56
546.206	1229.56
546.42	1210.56
546.633	1226.56
546.847	1230.56
547.06	1198.56
547.274	1212.56
547.487	1174.56
547.7	1204.56
547.914	1197.56
548.127	1206.56
548.34	1230.56
548.554	1222.56
548.767	1195.56
548.98	1215.56
549.193	1191.56
549.407	1204.56
549.62	1271.56
549.833	1258.56
550.046	1238.56
550.259	1215.56
550.473	1199.56
550.686	1204.56
550.899	1204.56
551.112	1174.56
551.325	1165.56
551.538	1208.56
551.751	1152.56
551.964	1211.56
552.177	1226.56
552.39	1218.56
552.603	1244.56
552.816	1250.56
553.029	1284.56
553.242	1298.56
553.455	1315.56
553.667	1330.56
553.88	1229.56
554.093	1230.56
554.306	1236.56
554.519	1235.56
554.732	1196.56
554.944	1152.56
555.157	1138.56
555.37	1143.56
555.583	1135.56
555.795	1118.56
556.008	1078.56
556.221	1099.56
556.433	1074.56
556.646	1083.56
556.859	1040.56
557.071	1059.56
557.284	1020.56
557.496	1017.56
557.709	1034.56
557.921	1023.56
558.134	1046.56
558.346	1029.56
558.559	1010.56
558.771	1031.56
558.984	1007.56
559.196	994.56
559.409	1021.56
559.621	1036.56
559.833	995.56
560.046	996.56
560.258	989.56
560.47	992.56
560.683	977.56
560.895	959.56
561.107	975.56
561.32	960.56
561.532	976.56
561.744	980.56
561.956	966.56
562.168	984.56
562.381	985.56
562.593	997.56
562.805	1008.56
563.017	956.56
563.229	992.56
563.441	987.56
563.653	1037.56
563.865	1017.56
564.077	990.56
564.289	1015.56
564.501	1036.56
564.713	1078.56
564.925	1084.56
565.137	1105.56
565.349	1102.56
565.561	1135.56
565.773	1195.56
565.985	1232.56
566.197	1294.56
566.408	1323.56
566.62	1416.56
566.832	1581.56
567.044	1580.56
567.255	1573.56
567.467	1630.56
567.679	1690.56
567.891	1749.56
568.102	1750.56
568.314	1671.56
568.526	1524.56
568.737	1458.56
568.949	1335.56
569.161	1235.56
569.372	1208.56
569.584	1124.56
569.795	1093.56
570.007	1069.56
570.218	1034.56
570.43	1032.56
570.641	1040.56
570.853	1037.56
571.064	1014.56
571.276	996.56
571.487	978.56
571.698	959.56
571.91	917.56
572.121	902.56
572.333	896.56
572.544	863.56
572.755	890.56
572.966	857.56
573.178	850.56
573.389	843.56
573.6	836.56
573.811	814.56
574.023	822.56
574.234	786.56
574.445	807.56
574.656	802.56
574.867	798.56
575.078	816.56
575.289	802.56
575.501	810.56
575.712	799.56
575.923	784.56
576.134	751.56
576.345	754.56
576.556	784.56
576.767	770.56
576.978	782.56
577.188	764.56
577.399	750.56
577.61	743.56
577.821	728.56
578.032	711.56
578.243	730.56
578.454	730.56
578.665	712.56
578.875	714.56
579.086	706.56
579.297	712.56
579.508	703.56
579.718	697.56
579.929	709.56
580.14	691.56
580.35	697.56
580.561	719.56
580.772	699.56
580.982	713.56
581.193	678.56
581.403	678.56
581.614	707.56
581.825	684.56
582.035	660.56
582.246	672.56
582.456	686.56
582.667	656.56
582.877	660.56
583.087	655.56
583.298	669.56
583.508	671.56
583.719	663.56
583.929	670.56
584.139	666.56
584.35	672.56
584.56	661.56
584.77	654.56
584.981	659.56
585.191	650.56
585.401	652.56
585.611	652.56
585.821	650.56
586.032	650.56
586.242	650.56
586.452	659.56
586.662	676.56
586.872	639.56
587.082	653.56
587.292	658.56
587.502	621.56
587.713	654.56
587.923	664.56
588.133	650.56
588.343	640.56
588.553	642.56
588.762	619.56
588.972	632.56
589.182	655.56
589.392	660.56
589.602	639.56
589.812	650.56
590.022	636.56
590.232	657.56
590.441	640.56
590.651	635.56
590.861	638.56
591.071	644.56
591.281	640.56
591.49	691.56
591.7	656.56
591.91	693.56
592.119	691.56
592.329	659.56
592.539	722.56
592.748	716.56
592.958	741.56
593.167	796.56
593.377	786.56
593.587	811.56
593.796	790.56
594.006	768.56
594.215	789.56
594.424	793.56
594.634	762.56
594.843	743.56
595.053	710.56
595.262	716.56
595.472	683.56
595.681	656.56
595.89	650.56
596.1	650.56
596.309	616.56
596.518	600.56
596.727	599.56
596.937	615.56
597.146	599.56
597.355	580.56
597.564	568.56
597.774	585.56
597.983	571.56
598.192	564.56
598.401	548.56
598.61	565.56
598.819	558.56
599.028	550.56
599.237	557.56
599.446	548.56
599.655	531.56
599.864	517.56
600.073	523.56
600.282	520.56
600.491	536.56
600.7	527.56
600.909	516.56
601.118	534.56
601.327	546.56
601.536	504.56
601.745	515.56
601.953	501.56
602.162	487.56
602.371	515.56
602.58	522.56
602.789	531.56
602.997	506.56
603.206	525.56
603.415	512.56
603.623	494.56
603.832	510.56
604.041	514.56
604.249	493.56
604.458	485.56
604.666	493.56
604.875	481.56
605.084	472.56
605.292	474.56
605.501	487.56
605.709	505.56
605.918	469.56
606.126	473.56
606.334	488.56
606.543	479.56
606.751	490.56
606.96	488.56
607.168	462.56
607.376	466.56
607.585	475.56
607.793	478.56
608.001	460.56
608.21	481.56
608.418	444.56
608.626	479.56
608.834	456.56
609.043	471.56
609.251	463.56
609.459	452.56
609.667	461.56
609.875	484.56
610.083	476.56
610.291	479.56
610.499	454.56
610.707	458.56
610.916	439.56
611.124	456.56
611.332	455.56
611.54	450.56
611.748	452.56
611.955	443.56
612.163	433.56
612.371	458.56
612.579	455.56
612.787	434.56
612.995	450.56
613.203	437.56
613.411	448.56
613.618	459.56
613.826	422.56
614.034	439.56
614.242	446.56
614.449	454.56
614.657	441.56
614.865	454.56
615.072	449.56
615.28	428.56
615.488	450.56
615.695	446.56
615.903	428.56
616.111	440.56
616.318	464.56
616.526	446.56
616.733	465.56
616.941	434.56
617.148	443.56
617.356	441.56
617.563	440.56
617.771	441.56
617.978	448.56
618.185	446.56
618.393	457.56
618.6	454.56
618.807	441.56
619.015	450.56
619.222	433.56
619.429	446.56
619.637	435.56
619.844	423.56
620.051	417.56
620.258	414.56
620.466	414.56
620.673	393.56
620.88	420.56
621.087	410.56
621.294	413.56
621.501	400.56
621.708	406.56
621.915	404.56
622.122	400.56
622.329	396.56
622.536	417.56
622.743	410.56
622.95	390.56
623.157	377.56
623.364	394.56
623.571	390.56
623.778	393.56
623.985	391.56
624.192	378.56
624.399	399.56
624.606	374.56
624.812	394.56
625.019	362.56
625.226	378.56
625.433	377.56
625.639	388.56
625.846	364.56
626.053	364.56
626.259	379.56
626.466	382.56
626.673	380.56
626.879	388.56
627.086	379.56
627.293	374.56
627.499	363.56
627.706	366.56
627.912	367.56
628.119	368.56
628.325	354.56
628.532	348.56
628.738	346.56
628.945	363.56
629.151	360.56
629.357	340.56
629.564	355.56
629.77	365.56
629.976	344.56
630.183	347.56
630.389	347.56
630.595	359.56
630.802	364.56
631.008	348.56
631.214	348.56
631.42	343.56
631.627	357.56
631.833	326.56
632.039	343.56
632.245	350.56
632.451	332.56
632.657	323.56
632.863	338.56
633.069	351.56
633.275	318.56
633.481	311.56
633.688	321.56
633.893	339.56
634.099	336.56
634.305	326.56
634.511	333.56
634.717	342.56
634.923	315.56
635.129	307.56
635.335	316.56
635.541	315.56
635.747	332.56
635.952	315.56
636.158	321.56
636.364	312.56
636.57	302.56
636.775	324.56
636.981	304.56
637.187	341.56
637.392	310.56
637.598	309.56
637.804	300.56
638.009	308.56
638.215	309.56
638.421	314.56
638.626	311.56
638.832	313.56
639.037	301.56
639.243	308.56
639.448	304.56
639.654	311.56
639.859	316.56
640.065	298.56
640.27	320.56
640.475	307.56
640.681	309.56
640.886	286.56
641.091	292.56
641.297	286.56
641.502	292.56
641.707	305.56
641.913	298.56
642.118	307.56
642.323	288.56
642.528	290.56
642.733	290.56
642.939	265.56
643.144	295.56
643.349	299.56
643.554	300.56
643.759	281.56
643.964	283.56
644.169	285.56
644.374	269.56
644.579	284.56
644.784	286.56
644.989	291.56
645.194	286.56
645.399	296.56
645.604	294.56
645.809	289.56
646.014	296.56
646.219	300.56
646.423	309.56
646.628	310.56
646.833	292.56
647.038	310.56
647.243	301.56
647.447	306.56
647.652	323.56
647.857	298.56
648.062	314.56
648.266	334.56
648.471	326.56
648.676	306.56
648.88	319.56
649.085	335.56
649.289	315.56
649.494	298.56
649.698	317.56
649.903	305.56
650.107	312.56
650.312	300.56
650.516	295.56
650.721	294.56
650.925	303.56
651.13	282.56
651.334	276.56
651.539	280.56
651.743	290.56
651.947	293.56
652.152	279.56
652.356	270.56
652.56	270.56
652.764	288.56
652.969	261.56
653.173	277.56
653.377	275.56
653.581	282.56
653.785	280.56
653.99	282.56
654.194	284.56
654.398	275.56
654.602	275.56
654.806	289.56
655.01	300.56
655.214	292.56
655.418	297.56
655.622	285.56
655.826	330.56
656.03	326.56
656.234	336.56
656.438	358.56
656.642	362.56
656.846	331.56
657.049	303.56
657.253	290.56
657.457	271.56
657.661	231.56
657.865	225.56
658.068	203.56
658.272	191.56
658.476	175.56
658.68	166.56
658.883	172.56
659.087	152.56
659.291	162.56
659.494	138.56
659.698	147.56
659.901	138.56
660.105	138.56
660.309	122.56
660.512	127.56
660.716	116.56
660.919	114.56
661.123	107.56
661.326	110.56
661.53	110.56
661.733	126.56
661.936	106.56
662.14	102.56
662.343	91.56
662.546	91.56
662.75	93.56
662.953	104.56
663.156	91.56
663.36	85.56
663.563	78.56
663.766	81.56
663.969	83.56
664.173	91.56
664.376	89.56
664.579	74.56
664.782	88.56
664.985	87.56
665.188	86.56
665.391	81.56
665.594	86.56
665.797	94.56
666	84.56
666.203	107.56
666.406	77.56
666.609	80.56
666.812	80.56
667.015	88.56
667.218	75.56
667.421	83.56
667.624	79.56
667.827	82.56
668.03	76.56
668.232	87.56
668.435	89.56
668.638	90.56
668.841	79.56
669.043	85.56
669.246	89.56
669.449	83.56
669.651	97.56
669.854	75.56
670.057	86.56
670.259	77.56
670.462	95.56
670.665	89.56
670.867	93.56
671.07	76.56
671.272	84.56
671.475	95.56
671.677	84.56
671.88	78.56
672.082	89.56
672.284	90.56
672.487	89.56
672.689	91.56
672.892	95.56
