Data from NiCl2@0.25M.TitratingCurve.Agarose3%dH2O.NegLispCup.LampEnergy10.LIBS07252019_HRD10591_18-25-32-574.txt Node
Date: Thu Jul 25 18:25:32 EDT 2019
User: cochatt
Spectrometer: HR+D1059
Trigger mode: 1
Integration Time (sec): 1.000000E-1
Scans to average: 1
Electric dark correction enabled: true
Nonlinearity correction enabled: false
Boxcar width: 0
XAxis mode: Wavelengths
Number of Pixels in Spectrum: 2048
>>>>>Begin Spectral Data<<<<<
223.165	-13.94
223.4	-13.94
223.635	-13.94
223.869	-19.94
224.104	-14.94
224.338	-12.94
224.573	-10.94
224.808	-13.94
225.042	-0.94
225.277	-7.94
225.511	-10.94
225.746	14.06
225.98	15.06
226.215	17.06
226.449	11.06
226.683	16.06
226.918	17.06
227.152	16.06
227.387	38.06
227.621	28.06
227.856	42.06
228.09	56.06
228.324	49.06
228.559	58.06
228.793	84.06
229.027	118.06
229.262	152.06
229.496	123.06
229.73	155.06
229.964	150.06
230.199	160.06
230.433	155.06
230.667	155.06
230.901	172.06
231.136	158.06
231.37	155.06
231.604	168.06
231.838	178.06
232.072	176.06
232.306	186.06
232.541	182.06
232.775	181.06
233.009	188.06
233.243	190.06
233.477	188.06
233.711	190.06
233.945	196.06
234.179	187.06
234.413	192.06
234.647	191.06
234.881	186.06
235.115	199.06
235.349	205.06
235.583	198.06
235.817	186.06
236.051	206.06
236.285	173.06
236.519	190.06
236.753	191.06
236.987	199.06
237.221	206.06
237.455	213.06
237.689	236.06
237.922	224.06
238.156	232.06
238.39	218.06
238.624	210.06
238.858	236.06
239.091	212.06
239.325	225.06
239.559	221.06
239.793	227.06
240.027	248.06
240.26	272.06
240.494	215.06
240.728	241.06
240.961	242.06
241.195	239.06
241.429	246.06
241.662	259.06
241.896	251.06
242.13	245.06
242.363	268.06
242.597	262.06
242.83	274.06
243.064	274.06
243.298	276.06
243.531	274.06
243.765	289.06
243.998	264.06
244.232	288.06
244.465	290.06
244.699	284.06
244.932	288.06
245.166	289.06
245.399	316.06
245.633	310.06
245.866	311.06
246.099	305.06
246.333	291.06
246.566	307.06
246.8	306.06
247.033	300.06
247.266	308.06
247.5	306.06
247.733	314.06
247.966	311.06
248.2	307.06
248.433	329.06
248.666	321.06
248.899	321.06
249.133	347.06
249.366	331.06
249.599	326.06
249.832	349.06
250.066	350.06
250.299	356.06
250.532	346.06
250.765	351.06
250.998	333.06
251.231	359.06
251.465	364.06
251.698	372.06
251.931	367.06
252.164	363.06
252.397	355.06
252.63	359.06
252.863	370.06
253.096	380.06
253.329	368.06
253.562	387.06
253.795	378.06
254.028	387.06
254.261	386.06
254.494	383.06
254.727	374.06
254.96	390.06
255.193	394.06
255.426	400.06
255.659	387.06
255.892	376.06
256.124	386.06
256.357	417.06
256.59	414.06
256.823	406.06
257.056	393.06
257.289	418.06
257.521	443.06
257.754	437.06
257.987	438.06
258.22	414.06
258.452	417.06
258.685	428.06
258.918	431.06
259.151	456.06
259.383	455.06
259.616	424.06
259.849	430.06
260.081	444.06
260.314	439.06
260.547	457.06
260.779	418.06
261.012	458.06
261.244	443.06
261.477	463.06
261.71	465.06
261.942	459.06
262.175	458.06
262.407	465.06
262.64	469.06
262.872	462.06
263.105	454.06
263.337	469.06
263.57	480.06
263.802	466.06
264.035	489.06
264.267	468.06
264.499	486.06
264.732	480.06
264.964	505.06
265.197	496.06
265.429	515.06
265.661	506.06
265.894	513.06
266.126	522.06
266.358	513.06
266.591	499.06
266.823	508.06
267.055	502.06
267.287	517.06
267.52	516.06
267.752	543.06
267.984	518.06
268.216	536.06
268.448	533.06
268.681	509.06
268.913	528.06
269.145	536.06
269.377	529.06
269.609	536.06
269.841	530.06
270.073	531.06
270.306	534.06
270.538	528.06
270.77	516.06
271.002	545.06
271.234	533.06
271.466	552.06
271.698	570.06
271.93	567.06
272.162	566.06
272.394	562.06
272.626	552.06
272.858	557.06
273.09	549.06
273.322	587.06
273.553	589.06
273.785	577.06
274.017	591.06
274.249	562.06
274.481	600.06
274.713	582.06
274.945	573.06
275.176	600.06
275.408	608.06
275.64	605.06
275.872	612.06
276.104	638.06
276.335	605.06
276.567	590.06
276.799	611.06
277.031	618.06
277.262	606.06
277.494	615.06
277.726	624.06
277.957	613.06
278.189	633.06
278.421	619.06
278.652	644.06
278.884	630.06
279.115	639.06
279.347	640.06
279.579	636.06
279.81	642.06
280.042	649.06
280.273	660.06
280.505	671.06
280.736	653.06
280.968	665.06
281.199	668.06
281.431	682.06
281.662	681.06
281.894	664.06
282.125	702.06
282.356	696.06
282.588	678.06
282.819	671.06
283.051	692.06
283.282	671.06
283.513	690.06
283.745	698.06
283.976	690.06
284.207	674.06
284.439	695.06
284.67	694.06
284.901	704.06
285.132	706.06
285.364	706.06
285.595	712.06
285.826	734.06
286.057	714.06
286.288	700.06
286.52	718.06
286.751	720.06
286.982	743.06
287.213	726.06
287.444	703.06
287.675	740.06
287.906	722.06
288.138	732.06
288.369	729.06
288.6	745.06
288.831	756.06
289.062	737.06
289.293	746.06
289.524	739.06
289.755	746.06
289.986	707.06
290.217	757.06
290.448	754.06
290.679	764.06
290.91	744.06
291.141	744.06
291.371	771.06
291.602	790.06
291.833	786.06
292.064	700.06
292.295	767.06
292.526	752.06
292.757	775.06
292.987	760.06
293.218	755.06
293.449	778.06
293.68	755.06
293.91	772.06
294.141	769.06
294.372	793.06
294.603	782.06
294.833	796.06
295.064	775.06
295.295	797.06
295.525	792.06
295.756	786.06
295.987	802.06
296.217	802.06
296.448	805.06
296.679	812.06
296.909	779.06
297.14	821.06
297.37	807.06
297.601	844.06
297.831	778.06
298.062	812.06
298.292	841.06
298.523	844.06
298.753	868.06
298.984	848.06
299.214	864.06
299.445	826.06
299.675	838.06
299.905	858.06
300.136	841.06
300.366	838.06
300.597	854.06
300.827	866.06
301.057	876.06
301.288	883.06
301.518	844.06
301.748	884.06
301.979	903.06
302.209	885.06
302.439	845.06
302.669	887.06
302.9	887.06
303.13	839.06
303.36	867.06
303.59	864.06
303.82	850.06
304.051	876.06
304.281	891.06
304.511	877.06
304.741	867.06
304.971	864.06
305.201	883.06
305.431	869.06
305.661	900.06
305.891	875.06
306.121	859.06
306.352	863.06
306.582	863.06
306.812	877.06
307.042	864.06
307.272	873.06
307.502	851.06
307.731	858.06
307.961	852.06
308.191	843.06
308.421	852.06
308.651	853.06
308.881	847.06
309.111	857.06
309.341	849.06
309.571	862.06
309.8	832.06
310.03	859.06
310.26	871.06
310.49	891.06
310.72	834.06
310.949	888.06
311.179	886.06
311.409	851.06
311.639	868.06
311.868	884.06
312.098	884.06
312.328	897.06
312.557	878.06
312.787	873.06
313.017	883.06
313.246	894.06
313.476	898.06
313.706	886.06
313.935	920.06
314.165	900.06
314.394	914.06
314.624	921.06
314.853	888.06
315.083	910.06
315.312	909.06
315.542	891.06
315.771	891.06
316.001	882.06
316.23	906.06
316.46	907.06
316.689	909.06
316.919	909.06
317.148	883.06
317.377	875.06
317.607	899.06
317.836	882.06
318.065	904.06
318.295	880.06
318.524	887.06
318.753	883.06
318.983	907.06
319.212	887.06
319.441	882.06
319.67	914.06
319.9	902.06
320.129	890.06
320.358	915.06
320.587	875.06
320.816	930.06
321.046	930.06
321.275	889.06
321.504	880.06
321.733	886.06
321.962	910.06
322.191	929.06
322.42	899.06
322.649	907.06
322.878	921.06
323.108	898.06
323.337	936.06
323.566	956.06
323.795	939.06
324.024	939.06
324.253	921.06
324.482	914.06
324.71	956.06
324.939	938.06
325.168	922.06
325.397	907.06
325.626	939.06
325.855	963.06
326.084	996.06
326.313	1005.06
326.542	976.06
326.77	991.06
326.999	979.06
327.228	964.06
327.457	952.06
327.686	962.06
327.914	960.06
328.143	1011.06
328.372	987.06
328.6	966.06
328.829	971.06
329.058	996.06
329.287	988.06
329.515	976.06
329.744	1002.06
329.972	1035.06
330.201	991.06
330.43	973.06
330.658	983.06
330.887	1036.06
331.115	1030.06
331.344	1028.06
331.572	1050.06
331.801	1050.06
332.03	1103.06
332.258	1081.06
332.486	1142.06
332.715	1151.06
332.943	1192.06
333.172	1248.06
333.4	1259.06
333.629	1299.06
333.857	1314.06
334.085	1304.06
334.314	1360.06
334.542	1336.06
334.771	1316.06
334.999	1268.06
335.227	1302.06
335.455	1275.06
335.684	1266.06
335.912	1255.06
336.14	1223.06
336.369	1220.06
336.597	1220.06
336.825	1205.06
337.053	1213.06
337.281	1184.06
337.51	1154.06
337.738	1135.06
337.966	1154.06
338.194	1133.06
338.422	1111.06
338.65	1095.06
338.878	1097.06
339.106	1081.06
339.334	1095.06
339.562	1085.06
339.79	1056.06
340.018	1051.06
340.246	1041.06
340.474	1040.06
340.702	1046.06
340.93	1041.06
341.158	1025.06
341.386	1072.06
341.614	1060.06
341.842	1030.06
342.07	1027.06
342.298	1032.06
342.526	1023.06
342.754	1044.06
342.981	1006.06
343.209	1064.06
343.437	1092.06
343.665	1137.06
343.893	1178.06
344.12	1240.06
344.348	1255.06
344.576	1215.06
344.804	1200.06
345.031	1136.06
345.259	1074.06
345.487	1078.06
345.714	1058.06
345.942	1042.06
346.17	1035.06
346.397	1046.06
346.625	1009.06
346.853	1002.06
347.08	989.06
347.308	1004.06
347.535	1007.06
347.763	1003.06
347.99	994.06
348.218	988.06
348.445	1004.06
348.673	994.06
348.9	971.06
349.128	968.06
349.355	971.06
349.583	1014.06
349.81	955.06
350.037	963.06
350.265	959.06
350.492	972.06
350.72	955.06
350.947	950.06
351.174	954.06
351.402	958.06
351.629	950.06
351.856	950.06
352.083	960.06
352.311	953.06
352.538	964.06
352.765	982.06
352.992	942.06
353.22	932.06
353.447	976.06
353.674	919.06
353.901	944.06
354.128	932.06
354.355	976.06
354.583	970.06
354.81	937.06
355.037	970.06
355.264	912.06
355.491	970.06
355.718	934.06
355.945	974.06
356.172	949.06
356.399	955.06
356.626	959.06
356.853	982.06
357.08	981.06
357.307	939.06
357.534	976.06
357.761	938.06
357.988	986.06
358.215	943.06
358.441	951.06
358.668	939.06
358.895	958.06
359.122	944.06
359.349	948.06
359.576	948.06
359.802	952.06
360.029	952.06
360.256	982.06
360.483	960.06
360.709	944.06
360.936	965.06
361.163	961.06
361.39	948.06
361.616	922.06
361.843	965.06
362.07	947.06
362.296	978.06
362.523	960.06
362.749	976.06
362.976	931.06
363.203	942.06
363.429	923.06
363.656	976.06
363.882	938.06
364.109	951.06
364.335	946.06
364.562	969.06
364.788	938.06
365.015	977.06
365.241	919.06
365.468	955.06
365.694	932.06
365.92	938.06
366.147	928.06
366.373	931.06
366.599	955.06
366.826	945.06
367.052	939.06
367.278	983.06
367.505	962.06
367.731	976.06
367.957	942.06
368.184	943.06
368.41	961.06
368.636	965.06
368.862	961.06
369.089	982.06
369.315	987.06
369.541	975.06
369.767	985.06
369.993	1004.06
370.219	994.06
370.445	995.06
370.672	1001.06
370.898	1042.06
371.124	1036.06
371.35	1024.06
371.576	1020.06
371.802	1065.06
372.028	1050.06
372.254	1054.06
372.48	1081.06
372.706	1068.06
372.932	1090.06
373.158	1098.06
373.384	1066.06
373.61	1058.06
373.835	1076.06
374.061	1050.06
374.287	1067.06
374.513	1083.06
374.739	1114.06
374.965	1135.06
375.191	1143.06
375.416	1161.06
375.642	1109.06
375.868	1112.06
376.094	1119.06
376.319	1103.06
376.545	1075.06
376.771	1053.06
376.997	1040.06
377.222	1025.06
377.448	1038.06
377.674	1036.06
377.899	1036.06
378.125	985.06
378.35	1017.06
378.576	1023.06
378.802	1042.06
379.027	1044.06
379.253	1047.06
379.478	1019.06
379.704	1027.06
379.929	1044.06
380.155	1026.06
380.38	1035.06
380.606	1035.06
380.831	1031.06
381.057	1043.06
381.282	1027.06
381.507	1023.06
381.733	1064.06
381.958	1071.06
382.184	1076.06
382.409	1036.06
382.634	1092.06
382.86	1076.06
383.085	1107.06
383.31	1118.06
383.535	1152.06
383.761	1152.06
383.986	1098.06
384.211	1175.06
384.436	1199.06
384.662	1182.06
384.887	1220.06
385.112	1217.06
385.337	1236.06
385.562	1257.06
385.787	1272.06
386.013	1259.06
386.238	1275.06
386.463	1267.06
386.688	1265.06
386.913	1246.06
387.138	1255.06
387.363	1285.06
387.588	1256.06
387.813	1288.06
388.038	1264.06
388.263	1280.06
388.488	1274.06
388.713	1276.06
388.938	1257.06
389.163	1282.06
389.387	1285.06
389.612	1202.06
389.837	1280.06
390.062	1236.06
390.287	1227.06
390.512	1258.06
390.736	1269.06
390.961	1322.06
391.186	1315.06
391.411	1369.06
391.636	1385.06
391.86	1435.06
392.085	1405.06
392.31	1444.06
392.534	1404.06
392.759	1403.06
392.984	1332.06
393.208	1348.06
393.433	1362.06
393.658	1378.06
393.882	1373.06
394.107	1340.06
394.331	1346.06
394.556	1355.06
394.78	1368.06
395.005	1398.06
395.229	1408.06
395.454	1405.06
395.678	1422.06
395.903	1407.06
396.127	1428.06
396.352	1414.06
396.576	1377.06
396.801	1357.06
397.025	1445.06
397.249	1419.06
397.474	1448.06
397.698	1478.06
397.922	1464.06
398.147	1468.06
398.371	1502.06
398.595	1578.06
398.82	1611.06
399.044	1735.06
399.268	1886.06
399.492	2133.06
399.717	2271.06
399.941	2341.06
400.165	2246.06
400.389	2020.06
400.613	1883.06
400.837	1786.06
401.062	1729.06
401.286	1708.06
401.51	1673.06
401.734	1652.06
401.958	1633.06
402.182	1694.06
402.406	1666.06
402.63	1690.06
402.854	1712.06
403.078	1713.06
403.302	1744.06
403.526	1760.06
403.75	1775.06
403.974	1802.06
404.198	1788.06
404.422	1854.06
404.645	1805.06
404.869	1822.06
405.093	1775.06
405.317	1787.06
405.541	1804.06
405.765	1802.06
405.988	1793.06
406.212	1804.06
406.436	1786.06
406.66	1805.06
406.883	1844.06
407.107	1932.06
407.331	2018.06
407.555	2104.06
407.778	2091.06
408.002	2057.06
408.226	2032.06
408.449	1982.06
408.673	1894.06
408.896	1908.06
409.12	1799.06
409.344	1840.06
409.567	1816.06
409.791	1843.06
410.014	1860.06
410.238	1819.06
410.461	1812.06
410.685	1808.06
410.908	1738.06
411.132	1726.06
411.355	1719.06
411.578	1684.06
411.802	1686.06
412.025	1715.06
412.249	1702.06
412.472	1704.06
412.695	1655.06
412.919	1654.06
413.142	1658.06
413.365	1607.06
413.589	1644.06
413.812	1616.06
414.035	1621.06
414.258	1618.06
414.482	1620.06
414.705	1641.06
414.928	1635.06
415.151	1652.06
415.374	1633.06
415.597	1565.06
415.821	1575.06
416.044	1549.06
416.267	1520.06
416.49	1543.06
416.713	1568.06
416.936	1568.06
417.159	1569.06
417.382	1524.06
417.605	1530.06
417.828	1595.06
418.051	1602.06
418.274	1600.06
418.497	1606.06
418.72	1602.06
418.943	1602.06
419.166	1720.06
419.389	1878.06
419.611	1802.06
419.834	1716.06
420.057	1682.06
420.28	1627.06
420.503	1554.06
420.726	1586.06
420.948	1598.06
421.171	1576.06
421.394	1582.06
421.617	1552.06
421.839	1580.06
422.062	1580.06
422.285	1532.06
422.507	1630.06
422.73	1586.06
422.953	1582.06
423.175	1642.06
423.398	1619.06
423.621	1578.06
423.843	1641.06
424.066	1624.06
424.288	1611.06
424.511	1611.06
424.733	1615.06
424.956	1577.06
425.178	1586.06
425.401	1599.06
425.623	1580.06
425.846	1549.06
426.068	1540.06
426.291	1534.06
426.513	1535.06
426.735	1503.06
426.958	1496.06
427.18	1491.06
427.402	1446.06
427.625	1467.06
427.847	1443.06
428.069	1458.06
428.292	1430.06
428.514	1398.06
428.736	1418.06
428.958	1444.06
429.181	1403.06
429.403	1393.06
429.625	1408.06
429.847	1387.06
430.069	1370.06
430.292	1354.06
430.514	1352.06
430.736	1379.06
430.958	1382.06
431.18	1400.06
431.402	1398.06
431.624	1403.06
431.846	1400.06
432.068	1402.06
432.29	1460.06
432.512	1403.06
432.734	1438.06
432.956	1391.06
433.178	1394.06
433.4	1402.06
433.622	1430.06
433.844	1446.06
434.066	1465.06
434.287	1484.06
434.509	1478.06
434.731	1508.06
434.953	1552.06
435.175	1596.06
435.397	1576.06
435.618	1520.06
435.84	1496.06
436.062	1438.06
436.284	1437.06
436.505	1416.06
436.727	1402.06
436.949	1428.06
437.17	1379.06
437.392	1407.06
437.614	1355.06
437.835	1334.06
438.057	1343.06
438.278	1355.06
438.5	1303.06
438.721	1350.06
438.943	1352.06
439.165	1380.06
439.386	1326.06
439.608	1366.06
439.829	1403.06
440.05	1367.06
440.272	1366.06
440.493	1392.06
440.715	1414.06
440.936	1433.06
441.158	1472.06
441.379	1500.06
441.6	1544.06
441.822	1559.06
442.043	1569.06
442.264	1554.06
442.486	1508.06
442.707	1515.06
442.928	1518.06
443.149	1552.06
443.371	1527.06
443.592	1542.06
443.813	1555.06
444.034	1557.06
444.255	1610.06
444.476	1714.06
444.698	1760.06
444.919	1743.06
445.14	1846.06
445.361	1765.06
445.582	1650.06
445.803	1534.06
446.024	1491.06
446.245	1484.06
446.466	1466.06
446.687	1433.06
446.908	1401.06
447.129	1403.06
447.35	1348.06
447.571	1342.06
447.792	1329.06
448.013	1326.06
448.234	1304.06
448.455	1296.06
448.675	1266.06
448.896	1300.06
449.117	1241.06
449.338	1317.06
449.559	1178.06
449.779	1240.06
450	1263.06
450.221	1274.06
450.442	1283.06
450.662	1291.06
450.883	1278.06
451.104	1329.06
451.324	1312.06
451.545	1268.06
451.766	1291.06
451.986	1275.06
452.207	1289.06
452.428	1246.06
452.648	1282.06
452.869	1235.06
453.089	1235.06
453.31	1228.06
453.53	1246.06
453.751	1208.06
453.971	1232.06
454.192	1201.06
454.412	1206.06
454.633	1213.06
454.853	1204.06
455.073	1198.06
455.294	1249.06
455.514	1178.06
455.734	1214.06
455.955	1190.06
456.175	1182.06
456.395	1167.06
456.616	1180.06
456.836	1189.06
457.056	1177.06
457.276	1183.06
457.497	1243.06
457.717	1180.06
457.937	1251.06
458.157	1241.06
458.377	1272.06
458.598	1310.06
458.818	1309.06
459.038	1311.06
459.258	1370.06
459.478	1406.06
459.698	1478.06
459.918	1486.06
460.138	1539.06
460.358	1584.06
460.578	1613.06
460.798	1633.06
461.018	1680.06
461.238	1672.06
461.458	1655.06
461.678	1647.06
461.898	1688.06
462.118	1721.06
462.338	1789.06
462.558	1798.06
462.777	1907.06
462.997	1985.06
463.217	2138.06
463.437	2146.06
463.657	2058.06
463.876	1960.06
464.096	1964.06
464.316	1975.06
464.536	1892.06
464.755	1864.06
464.975	1798.06
465.195	1707.06
465.414	1634.06
465.634	1570.06
465.854	1482.06
466.073	1451.06
466.293	1440.06
466.512	1385.06
466.732	1364.06
466.951	1321.06
467.171	1338.06
467.391	1346.06
467.61	1359.06
467.829	1306.06
468.049	1305.06
468.268	1241.06
468.488	1278.06
468.707	1294.06
468.927	1300.06
469.146	1291.06
469.365	1311.06
469.585	1323.06
469.804	1330.06
470.023	1382.06
470.243	1351.06
470.462	1355.06
470.681	1390.06
470.901	1374.06
471.12	1385.06
471.339	1365.06
471.558	1347.06
471.777	1335.06
471.997	1308.06
472.216	1285.06
472.435	1297.06
472.654	1284.06
472.873	1251.06
473.092	1262.06
473.311	1247.06
473.53	1264.06
473.749	1259.06
473.968	1230.06
474.187	1258.06
474.406	1214.06
474.625	1288.06
474.844	1239.06
475.063	1239.06
475.282	1305.06
475.501	1302.06
475.72	1287.06
475.939	1276.06
476.158	1327.06
476.377	1306.06
476.596	1298.06
476.814	1338.06
477.033	1322.06
477.252	1370.06
477.471	1399.06
477.69	1442.06
477.908	1458.06
478.127	1486.06
478.346	1486.06
478.564	1515.06
478.783	1537.06
479.002	1572.06
479.22	1588.06
479.439	1598.06
479.658	1584.06
479.876	1572.06
480.095	1612.06
480.313	1671.06
480.532	1662.06
480.751	1663.06
480.969	1674.06
481.188	1605.06
481.406	1594.06
481.624	1516.06
481.843	1465.06
482.061	1474.06
482.28	1491.06
482.498	1415.06
482.717	1446.06
482.935	1437.06
483.153	1434.06
483.372	1481.06
483.59	1445.06
483.808	1451.06
484.027	1427.06
484.245	1483.06
484.463	1459.06
484.681	1495.06
484.9	1504.06
485.118	1466.06
485.336	1487.06
485.554	1536.06
485.772	1538.06
485.99	1576.06
486.209	1564.06
486.427	1530.06
486.645	1541.06
486.863	1545.06
487.081	1535.06
487.299	1540.06
487.517	1510.06
487.735	1519.06
487.953	1507.06
488.171	1532.06
488.389	1505.06
488.607	1512.06
488.825	1499.06
489.043	1478.06
489.261	1468.06
489.479	1482.06
489.696	1463.06
489.914	1524.06
490.132	1521.06
490.35	1563.06
490.568	1522.06
490.786	1514.06
491.003	1528.06
491.221	1547.06
491.439	1570.06
491.657	1550.06
491.874	1567.06
492.092	1558.06
492.31	1566.06
492.527	1544.06
492.745	1545.06
492.963	1581.06
493.18	1611.06
493.398	1577.06
493.615	1609.06
493.833	1607.06
494.05	1595.06
494.268	1640.06
494.485	1628.06
494.703	1658.06
494.92	1602.06
495.138	1644.06
495.355	1654.06
495.573	1666.06
495.79	1651.06
496.008	1702.06
496.225	1715.06
496.442	1716.06
496.66	1727.06
496.877	1767.06
497.094	1802.06
497.312	1802.06
497.529	1894.06
497.746	1913.06
497.963	2013.06
498.181	2100.06
498.398	2179.06
498.615	2279.06
498.832	2454.06
499.049	2638.06
499.267	2845.06
499.484	3117.06
499.701	3392.06
499.918	3652.06
500.135	4087.06
500.352	4470.06
500.569	4590.06
500.786	4573.06
501.003	4392.06
501.22	4071.06
501.437	3659.06
501.654	3378.06
501.871	3097.06
502.088	2844.06
502.305	2661.06
502.522	2505.06
502.739	2388.06
502.956	2280.06
503.172	2139.06
503.389	2072.06
503.606	2008.06
503.823	1977.06
504.04	1922.06
504.256	1971.06
504.473	1948.06
504.69	1936.06
504.907	1929.06
505.123	1816.06
505.34	1752.06
505.557	1637.06
505.773	1656.06
505.99	1579.06
506.207	1570.06
506.423	1522.06
506.64	1504.06
506.856	1539.06
507.073	1489.06
507.289	1498.06
507.506	1459.06
507.722	1438.06
507.939	1413.06
508.155	1409.06
508.372	1418.06
508.588	1380.06
508.805	1354.06
509.021	1383.06
509.238	1406.06
509.454	1351.06
509.67	1360.06
509.887	1330.06
510.103	1307.06
510.319	1294.06
510.536	1349.06
510.752	1316.06
510.968	1321.06
511.184	1329.06
511.401	1310.06
511.617	1272.06
511.833	1280.06
512.049	1301.06
512.265	1276.06
512.481	1301.06
512.698	1303.06
512.914	1293.06
513.13	1287.06
513.346	1298.06
513.562	1326.06
513.778	1322.06
513.994	1330.06
514.21	1316.06
514.426	1319.06
514.642	1334.06
514.858	1322.06
515.074	1355.06
515.29	1378.06
515.506	1391.06
515.721	1422.06
515.937	1445.06
516.153	1458.06
516.369	1493.06
516.585	1538.06
516.801	1614.06
517.016	1639.06
517.232	1685.06
517.448	1744.06
517.664	1780.06
517.879	1799.06
518.095	1774.06
518.311	1811.06
518.527	1723.06
518.742	1682.06
518.958	1588.06
519.173	1551.06
519.389	1515.06
519.605	1478.06
519.82	1408.06
520.036	1385.06
520.251	1362.06
520.467	1340.06
520.682	1332.06
520.898	1330.06
521.113	1282.06
521.329	1284.06
521.544	1259.06
521.76	1253.06
521.975	1286.06
522.19	1211.06
522.406	1239.06
522.621	1223.06
522.836	1230.06
523.052	1228.06
523.267	1201.06
523.482	1186.06
523.698	1212.06
523.913	1198.06
524.128	1209.06
524.343	1194.06
524.559	1224.06
524.774	1195.06
524.989	1184.06
525.204	1149.06
525.419	1201.06
525.634	1173.06
525.849	1160.06
526.064	1198.06
526.28	1191.06
526.495	1154.06
526.71	1167.06
526.925	1170.06
527.14	1171.06
527.355	1167.06
527.57	1140.06
527.785	1187.06
527.999	1126.06
528.214	1163.06
528.429	1164.06
528.644	1163.06
528.859	1166.06
529.074	1143.06
529.289	1180.06
529.503	1182.06
529.718	1156.06
529.933	1134.06
530.148	1150.06
530.363	1142.06
530.577	1143.06
530.792	1147.06
531.007	1157.06
531.221	1170.06
531.436	1165.06
531.651	1129.06
531.865	1127.06
532.08	1157.06
532.295	1179.06
532.509	1167.06
532.724	1144.06
532.938	1162.06
533.153	1157.06
533.367	1170.06
533.582	1161.06
533.796	1147.06
534.011	1156.06
534.225	1147.06
534.44	1135.06
534.654	1110.06
534.868	1125.06
535.083	1126.06
535.297	1134.06
535.511	1107.06
535.726	1119.06
535.94	1095.06
536.154	1140.06
536.369	1082.06
536.583	1122.06
536.797	1097.06
537.011	1081.06
537.225	1070.06
537.44	1084.06
537.654	1073.06
537.868	1070.06
538.082	1057.06
538.296	1020.06
538.51	1063.06
538.724	1064.06
538.938	1026.06
539.153	1054.06
539.367	1073.06
539.581	1036.06
539.795	1043.06
540.009	1042.06
540.222	1020.06
540.436	1032.06
540.65	1007.06
540.864	1028.06
541.078	1012.06
541.292	1030.06
541.506	1035.06
541.72	1042.06
541.934	1028.06
542.147	1040.06
542.361	1025.06
542.575	1027.06
542.789	1005.06
543.002	997.06
543.216	1000.06
543.43	1001.06
543.644	982.06
543.857	1020.06
544.071	1007.06
544.285	1012.06
544.498	1013.06
544.712	1039.06
544.925	1042.06
545.139	1059.06
545.352	1070.06
545.566	1070.06
545.779	1049.06
545.993	1067.06
546.206	1061.06
546.42	1059.06
546.633	1087.06
546.847	1044.06
547.06	1054.06
547.274	1041.06
547.487	1027.06
547.7	1063.06
547.914	1048.06
548.127	1081.06
548.34	1044.06
548.554	1061.06
548.767	1088.06
548.98	1042.06
549.193	1066.06
549.407	1072.06
549.62	1092.06
549.833	1067.06
550.046	1064.06
550.259	1072.06
550.473	1040.06
550.686	1055.06
550.899	1064.06
551.112	1065.06
551.325	1048.06
551.538	1059.06
551.751	1081.06
551.964	1056.06
552.177	1063.06
552.39	1077.06
552.603	1104.06
552.816	1125.06
553.029	1144.06
553.242	1142.06
553.455	1145.06
553.667	1148.06
553.88	1160.06
554.093	1120.06
554.306	1063.06
554.519	1106.06
554.732	1062.06
554.944	1070.06
555.157	1009.06
555.37	982.06
555.583	983.06
555.795	968.06
556.008	993.06
556.221	947.06
556.433	932.06
556.646	927.06
556.859	947.06
557.071	898.06
557.284	926.06
557.496	896.06
557.709	925.06
557.921	910.06
558.134	906.06
558.346	873.06
558.559	896.06
558.771	890.06
558.984	850.06
559.196	861.06
559.409	876.06
559.621	853.06
559.833	871.06
560.046	888.06
560.258	868.06
560.47	874.06
560.683	879.06
560.895	884.06
561.107	855.06
561.32	859.06
561.532	890.06
561.744	880.06
561.956	887.06
562.168	872.06
562.381	880.06
562.593	860.06
562.805	855.06
563.017	880.06
563.229	896.06
563.441	896.06
563.653	930.06
563.865	897.06
564.077	923.06
564.289	915.06
564.501	924.06
564.713	928.06
564.925	974.06
565.137	987.06
565.349	1028.06
565.561	1054.06
565.773	1083.06
565.985	1123.06
566.197	1167.06
566.408	1258.06
566.62	1300.06
566.832	1420.06
567.044	1421.06
567.255	1447.06
567.467	1526.06
567.679	1582.06
567.891	1585.06
568.102	1576.06
568.314	1500.06
568.526	1407.06
568.737	1315.06
568.949	1264.06
569.161	1161.06
569.372	1080.06
569.584	1044.06
569.795	1007.06
570.007	961.06
570.218	940.06
570.43	907.06
570.641	896.06
570.853	944.06
571.064	926.06
571.276	904.06
571.487	888.06
571.698	883.06
571.91	847.06
572.121	803.06
572.333	772.06
572.544	761.06
572.755	753.06
572.966	745.06
573.178	773.06
573.389	730.06
573.6	730.06
573.811	726.06
574.023	746.06
574.234	740.06
574.445	710.06
574.656	704.06
574.867	726.06
575.078	709.06
575.289	750.06
575.501	719.06
575.712	678.06
575.923	688.06
576.134	683.06
576.345	680.06
576.556	689.06
576.767	670.06
576.978	675.06
577.188	661.06
577.399	656.06
577.61	640.06
577.821	643.06
578.032	618.06
578.243	658.06
578.454	646.06
578.665	666.06
578.875	617.06
579.086	632.06
579.297	644.06
579.508	607.06
579.718	640.06
579.929	626.06
580.14	623.06
580.35	619.06
580.561	613.06
580.772	631.06
580.982	615.06
581.193	593.06
581.403	608.06
581.614	594.06
581.825	601.06
582.035	594.06
582.246	598.06
582.456	601.06
582.667	604.06
582.877	593.06
583.087	576.06
583.298	591.06
583.508	576.06
583.719	583.06
583.929	571.06
584.139	576.06
584.35	572.06
584.56	574.06
584.77	587.06
584.981	580.06
585.191	564.06
585.401	564.06
585.611	559.06
585.821	582.06
586.032	579.06
586.242	570.06
586.452	556.06
586.662	552.06
586.872	570.06
587.082	546.06
587.292	587.06
587.502	566.06
587.713	578.06
587.923	550.06
588.133	570.06
588.343	559.06
588.553	551.06
588.762	570.06
588.972	575.06
589.182	575.06
589.392	579.06
589.602	562.06
589.812	564.06
590.022	585.06
590.232	593.06
590.441	600.06
590.651	579.06
590.861	546.06
591.071	594.06
591.281	613.06
591.49	598.06
591.7	595.06
591.91	603.06
592.119	611.06
592.329	628.06
592.539	658.06
592.748	673.06
592.958	686.06
593.167	691.06
593.377	707.06
593.587	712.06
593.796	713.06
594.006	699.06
594.215	720.06
594.424	706.06
594.634	692.06
594.843	670.06
595.053	678.06
595.262	652.06
595.472	620.06
595.681	607.06
595.89	599.06
596.1	577.06
596.309	590.06
596.518	537.06
596.727	534.06
596.937	538.06
597.146	538.06
597.355	515.06
597.564	511.06
597.774	516.06
597.983	487.06
598.192	494.06
598.401	503.06
598.61	524.06
598.819	485.06
599.028	484.06
599.237	496.06
599.446	463.06
599.655	461.06
599.864	483.06
600.073	479.06
600.282	460.06
600.491	470.06
600.7	463.06
600.909	478.06
601.118	462.06
601.327	472.06
601.536	459.06
601.745	453.06
601.953	441.06
602.162	460.06
602.371	450.06
602.58	438.06
602.789	449.06
602.997	439.06
603.206	455.06
603.415	464.06
603.623	446.06
603.832	469.06
604.041	434.06
604.249	440.06
604.458	438.06
604.666	447.06
604.875	404.06
605.084	434.06
605.292	407.06
605.501	432.06
605.709	435.06
605.918	422.06
606.126	428.06
606.334	422.06
606.543	415.06
606.751	433.06
606.96	400.06
607.168	434.06
607.376	430.06
607.585	417.06
607.793	416.06
608.001	404.06
608.21	417.06
608.418	394.06
608.626	424.06
608.834	427.06
609.043	393.06
609.251	394.06
609.459	415.06
609.667	405.06
609.875	399.06
610.083	406.06
610.291	392.06
610.499	394.06
610.707	409.06
610.916	406.06
611.124	400.06
611.332	395.06
611.54	397.06
611.748	391.06
611.955	402.06
612.163	385.06
612.371	395.06
612.579	390.06
612.787	404.06
612.995	396.06
613.203	375.06
613.411	385.06
613.618	398.06
613.826	394.06
614.034	395.06
614.242	396.06
614.449	391.06
614.657	382.06
614.865	372.06
615.072	374.06
615.28	386.06
615.488	372.06
615.695	379.06
615.903	379.06
616.111	389.06
616.318	398.06
616.526	400.06
616.733	379.06
616.941	372.06
617.148	378.06
617.356	407.06
617.563	374.06
617.771	400.06
617.978	400.06
618.185	353.06
618.393	378.06
618.6	361.06
618.807	374.06
619.015	376.06
619.222	360.06
619.429	370.06
619.637	376.06
619.844	386.06
620.051	374.06
620.258	354.06
620.466	359.06
620.673	370.06
620.88	350.06
621.087	362.06
621.294	370.06
621.501	365.06
621.708	351.06
621.915	368.06
622.122	353.06
622.329	347.06
622.536	345.06
622.743	357.06
622.95	345.06
623.157	353.06
623.364	338.06
623.571	355.06
623.778	360.06
623.985	356.06
624.192	325.06
624.399	351.06
624.606	352.06
624.812	332.06
625.019	332.06
625.226	337.06
625.433	334.06
625.639	339.06
625.846	336.06
626.053	343.06
626.259	330.06
626.466	342.06
626.673	336.06
626.879	311.06
627.086	348.06
627.293	337.06
627.499	332.06
627.706	318.06
627.912	309.06
628.119	312.06
628.325	327.06
628.532	310.06
628.738	322.06
628.945	319.06
629.151	315.06
629.357	323.06
629.564	319.06
629.77	291.06
629.976	323.06
630.183	320.06
630.389	298.06
630.595	292.06
630.802	300.06
631.008	295.06
631.214	281.06
631.42	309.06
631.627	290.06
631.833	291.06
632.039	304.06
632.245	283.06
632.451	294.06
632.657	298.06
632.863	289.06
633.069	286.06
633.275	287.06
633.481	300.06
633.688	283.06
633.893	288.06
634.099	302.06
634.305	284.06
634.511	281.06
634.717	282.06
634.923	261.06
635.129	278.06
635.335	266.06
635.541	271.06
635.747	275.06
635.952	280.06
636.158	258.06
636.364	266.06
636.57	264.06
636.775	271.06
636.981	278.06
637.187	274.06
637.392	269.06
637.598	268.06
637.804	268.06
638.009	268.06
638.215	258.06
638.421	260.06
638.626	266.06
638.832	254.06
639.037	250.06
639.243	275.06
639.448	268.06
639.654	257.06
639.859	272.06
640.065	250.06
640.27	276.06
640.475	242.06
640.681	262.06
640.886	253.06
641.091	262.06
641.297	253.06
641.502	247.06
641.707	245.06
641.913	248.06
642.118	256.06
642.323	252.06
642.528	259.06
642.733	265.06
642.939	251.06
643.144	232.06
643.349	262.06
643.554	251.06
643.759	248.06
643.964	240.06
644.169	247.06
644.374	250.06
644.579	243.06
644.784	242.06
644.989	232.06
645.194	233.06
645.399	246.06
645.604	258.06
645.809	233.06
646.014	243.06
646.219	251.06
646.423	225.06
646.628	232.06
646.833	262.06
647.038	243.06
647.243	232.06
647.447	256.06
647.652	231.06
647.857	246.06
648.062	255.06
648.266	256.06
648.471	262.06
648.676	248.06
648.88	251.06
649.085	258.06
649.289	247.06
649.494	235.06
649.698	244.06
649.903	236.06
650.107	228.06
650.312	246.06
650.516	230.06
650.721	235.06
650.925	230.06
651.13	223.06
651.334	214.06
651.539	198.06
651.743	232.06
651.947	216.06
652.152	193.06
652.356	216.06
652.56	208.06
652.764	196.06
652.969	186.06
653.173	194.06
653.377	185.06
653.581	184.06
653.785	186.06
653.99	184.06
654.194	187.06
654.398	168.06
654.602	165.06
654.806	179.06
655.01	184.06
655.214	167.06
655.418	187.06
655.622	165.06
655.826	178.06
656.03	176.06
656.234	166.06
656.438	180.06
656.642	169.06
656.846	162.06
657.049	171.06
657.253	159.06
657.457	146.06
657.661	142.06
657.865	123.06
658.068	139.06
658.272	143.06
658.476	128.06
658.68	136.06
658.883	112.06
659.087	107.06
659.291	110.06
659.494	107.06
659.698	115.06
659.901	114.06
660.105	111.06
660.309	115.06
660.512	93.06
660.716	101.06
660.919	104.06
661.123	112.06
661.326	98.06
661.53	92.06
661.733	94.06
661.936	103.06
662.14	99.06
662.343	94.06
662.546	97.06
662.75	75.06
662.953	93.06
663.156	88.06
663.36	83.06
663.563	93.06
663.766	86.06
663.969	78.06
664.173	91.06
664.376	85.06
664.579	89.06
664.782	87.06
664.985	73.06
665.188	70.06
665.391	85.06
665.594	82.06
665.797	73.06
666	96.06
666.203	70.06
666.406	87.06
666.609	103.06
666.812	67.06
667.015	83.06
667.218	80.06
667.421	84.06
667.624	81.06
667.827	94.06
668.03	86.06
668.232	74.06
668.435	62.06
668.638	76.06
668.841	69.06
669.043	76.06
669.246	90.06
669.449	86.06
669.651	73.06
669.854	71.06
670.057	81.06
670.259	70.06
670.462	98.06
670.665	93.06
670.867	81.06
671.07	87.06
671.272	78.06
671.475	81.06
671.677	72.06
671.88	73.06
672.082	80.06
672.284	78.06
672.487	76.06
672.689	72.06
672.892	83.06
