Data from NiCl2@0.5M.TitratingCurve.Agarose3%dH2O.NegLispCup.LampEnergy10.LIBS07252019_HRD10591_18-19-01-571.txt Node
Date: Thu Jul 25 18:19:01 EDT 2019
User: cochatt
Spectrometer: HR+D1059
Trigger mode: 1
Integration Time (sec): 1.000000E-1
Scans to average: 1
Electric dark correction enabled: true
Nonlinearity correction enabled: false
Boxcar width: 0
XAxis mode: Wavelengths
Number of Pixels in Spectrum: 2048
>>>>>Begin Spectral Data<<<<<
223.165	-1.62
223.4	-1.62
223.635	-1.62
223.869	-14.62
224.104	-17.62
224.338	-29.62
224.573	-20.62
224.808	-14.62
225.042	-2.62
225.277	-3.62
225.511	5.38
225.746	8.38
225.98	-8.62
226.215	4.38
226.449	15.38
226.683	31.38
226.918	18.38
227.152	30.38
227.387	23.38
227.621	30.38
227.856	36.38
228.09	56.38
228.324	69.38
228.559	55.38
228.793	78.38
229.027	109.38
229.262	128.38
229.496	120.38
229.73	122.38
229.964	138.38
230.199	142.38
230.433	148.38
230.667	133.38
230.901	149.38
231.136	142.38
231.37	133.38
231.604	144.38
231.838	142.38
232.072	142.38
232.306	143.38
232.541	159.38
232.775	163.38
233.009	159.38
233.243	146.38
233.477	155.38
233.711	152.38
233.945	154.38
234.179	151.38
234.413	151.38
234.647	152.38
234.881	153.38
235.115	150.38
235.349	171.38
235.583	146.38
235.817	146.38
236.051	156.38
236.285	166.38
236.519	173.38
236.753	149.38
236.987	161.38
237.221	152.38
237.455	150.38
237.689	164.38
237.922	157.38
238.156	164.38
238.39	162.38
238.624	163.38
238.858	187.38
239.091	165.38
239.325	174.38
239.559	197.38
239.793	173.38
240.027	192.38
240.26	175.38
240.494	175.38
240.728	186.38
240.961	199.38
241.195	177.38
241.429	181.38
241.662	180.38
241.896	190.38
242.13	204.38
242.363	188.38
242.597	184.38
242.83	192.38
243.064	186.38
243.298	221.38
243.531	204.38
243.765	210.38
243.998	209.38
244.232	214.38
244.465	192.38
244.699	205.38
244.932	197.38
245.166	201.38
245.399	206.38
245.633	190.38
245.866	203.38
246.099	215.38
246.333	219.38
246.566	201.38
246.8	209.38
247.033	221.38
247.266	213.38
247.5	210.38
247.733	209.38
247.966	217.38
248.2	222.38
248.433	232.38
248.666	232.38
248.899	245.38
249.133	209.38
249.366	250.38
249.599	239.38
249.832	256.38
250.066	238.38
250.299	240.38
250.532	240.38
250.765	240.38
250.998	242.38
251.231	263.38
251.465	264.38
251.698	264.38
251.931	252.38
252.164	242.38
252.397	270.38
252.63	277.38
252.863	254.38
253.096	266.38
253.329	264.38
253.562	274.38
253.795	257.38
254.028	270.38
254.261	257.38
254.494	255.38
254.727	270.38
254.96	267.38
255.193	275.38
255.426	275.38
255.659	283.38
255.892	285.38
256.124	284.38
256.357	292.38
256.59	284.38
256.823	288.38
257.056	288.38
257.289	280.38
257.521	262.38
257.754	282.38
257.987	312.38
258.22	292.38
258.452	280.38
258.685	313.38
258.918	294.38
259.151	283.38
259.383	298.38
259.616	305.38
259.849	294.38
260.081	322.38
260.314	302.38
260.547	295.38
260.779	305.38
261.012	319.38
261.244	309.38
261.477	308.38
261.71	311.38
261.942	315.38
262.175	326.38
262.407	319.38
262.64	333.38
262.872	326.38
263.105	326.38
263.337	319.38
263.57	327.38
263.802	334.38
264.035	331.38
264.267	327.38
264.499	325.38
264.732	322.38
264.964	340.38
265.197	335.38
265.429	328.38
265.661	336.38
265.894	352.38
266.126	363.38
266.358	344.38
266.591	347.38
266.823	354.38
267.055	339.38
267.287	342.38
267.52	361.38
267.752	349.38
267.984	342.38
268.216	343.38
268.448	371.38
268.681	365.38
268.913	378.38
269.145	377.38
269.377	363.38
269.609	396.38
269.841	365.38
270.073	364.38
270.306	383.38
270.538	379.38
270.77	391.38
271.002	374.38
271.234	382.38
271.466	376.38
271.698	368.38
271.93	385.38
272.162	388.38
272.394	391.38
272.626	408.38
272.858	376.38
273.09	369.38
273.322	402.38
273.553	384.38
273.785	398.38
274.017	389.38
274.249	382.38
274.481	411.38
274.713	397.38
274.945	421.38
275.176	381.38
275.408	412.38
275.64	397.38
275.872	416.38
276.104	400.38
276.335	424.38
276.567	417.38
276.799	416.38
277.031	429.38
277.262	418.38
277.494	426.38
277.726	420.38
277.957	427.38
278.189	418.38
278.421	432.38
278.652	420.38
278.884	410.38
279.115	423.38
279.347	428.38
279.579	448.38
279.81	432.38
280.042	457.38
280.273	438.38
280.505	417.38
280.736	446.38
280.968	444.38
281.199	454.38
281.431	444.38
281.662	439.38
281.894	448.38
282.125	461.38
282.356	446.38
282.588	444.38
282.819	457.38
283.051	463.38
283.282	472.38
283.513	458.38
283.745	462.38
283.976	457.38
284.207	476.38
284.439	477.38
284.67	467.38
284.901	475.38
285.132	456.38
285.364	488.38
285.595	487.38
285.826	486.38
286.057	481.38
286.288	490.38
286.52	472.38
286.751	474.38
286.982	476.38
287.213	485.38
287.444	495.38
287.675	485.38
287.906	496.38
288.138	476.38
288.369	480.38
288.6	491.38
288.831	491.38
289.062	511.38
289.293	494.38
289.524	503.38
289.755	516.38
289.986	502.38
290.217	496.38
290.448	490.38
290.679	494.38
290.91	501.38
291.141	517.38
291.371	509.38
291.602	516.38
291.833	489.38
292.064	487.38
292.295	494.38
292.526	495.38
292.757	523.38
292.987	496.38
293.218	500.38
293.449	529.38
293.68	514.38
293.91	510.38
294.141	523.38
294.372	496.38
294.603	527.38
294.833	537.38
295.064	528.38
295.295	518.38
295.525	521.38
295.756	532.38
295.987	532.38
296.217	524.38
296.448	533.38
296.679	521.38
296.909	553.38
297.14	547.38
297.37	550.38
297.601	549.38
297.831	536.38
298.062	576.38
298.292	559.38
298.523	561.38
298.753	577.38
298.984	542.38
299.214	562.38
299.445	554.38
299.675	561.38
299.905	564.38
300.136	590.38
300.366	569.38
300.597	581.38
300.827	578.38
301.057	586.38
301.288	595.38
301.518	600.38
301.748	610.38
301.979	606.38
302.209	620.38
302.439	591.38
302.669	598.38
302.9	598.38
303.13	583.38
303.36	582.38
303.59	593.38
303.82	583.38
304.051	605.38
304.281	607.38
304.511	599.38
304.741	617.38
304.971	609.38
305.201	624.38
305.431	601.38
305.661	612.38
305.891	609.38
306.121	620.38
306.352	584.38
306.582	603.38
306.812	580.38
307.042	584.38
307.272	604.38
307.502	584.38
307.731	588.38
307.961	577.38
308.191	598.38
308.421	619.38
308.651	597.38
308.881	569.38
309.111	602.38
309.341	586.38
309.571	612.38
309.8	602.38
310.03	606.38
310.26	617.38
310.49	623.38
310.72	592.38
310.949	606.38
311.179	602.38
311.409	629.38
311.639	604.38
311.868	608.38
312.098	619.38
312.328	611.38
312.557	622.38
312.787	632.38
313.017	627.38
313.246	633.38
313.476	614.38
313.706	658.38
313.935	640.38
314.165	630.38
314.394	638.38
314.624	642.38
314.853	637.38
315.083	673.38
315.312	626.38
315.542	637.38
315.771	634.38
316.001	623.38
316.23	635.38
316.46	619.38
316.689	629.38
316.919	630.38
317.148	659.38
317.377	630.38
317.607	638.38
317.836	654.38
318.065	630.38
318.295	626.38
318.524	648.38
318.753	630.38
318.983	634.38
319.212	618.38
319.441	606.38
319.67	641.38
319.9	652.38
320.129	641.38
320.358	654.38
320.587	659.38
320.816	654.38
321.046	621.38
321.275	648.38
321.504	648.38
321.733	649.38
321.962	665.38
322.191	658.38
322.42	662.38
322.649	646.38
322.878	678.38
323.108	652.38
323.337	654.38
323.566	654.38
323.795	679.38
324.024	676.38
324.253	649.38
324.482	646.38
324.71	674.38
324.939	643.38
325.168	670.38
325.397	678.38
325.626	672.38
325.855	696.38
326.084	693.38
326.313	696.38
326.542	674.38
326.77	697.38
326.999	682.38
327.228	686.38
327.457	692.38
327.686	701.38
327.914	683.38
328.143	669.38
328.372	703.38
328.6	700.38
328.829	696.38
329.058	679.38
329.287	689.38
329.515	686.38
329.744	696.38
329.972	687.38
330.201	703.38
330.43	710.38
330.658	728.38
330.887	709.38
331.115	704.38
331.344	704.38
331.572	732.38
331.801	736.38
332.03	765.38
332.258	736.38
332.486	763.38
332.715	778.38
332.943	794.38
333.172	784.38
333.4	831.38
333.629	837.38
333.857	864.38
334.085	840.38
334.314	836.38
334.542	853.38
334.771	838.38
334.999	863.38
335.227	809.38
335.455	817.38
335.684	813.38
335.912	830.38
336.14	830.38
336.369	813.38
336.597	823.38
336.825	846.38
337.053	839.38
337.281	842.38
337.51	824.38
337.738	811.38
337.966	785.38
338.194	804.38
338.422	806.38
338.65	761.38
338.878	771.38
339.106	772.38
339.334	760.38
339.562	784.38
339.79	756.38
340.018	741.38
340.246	741.38
340.474	764.38
340.702	712.38
340.93	726.38
341.158	751.38
341.386	739.38
341.614	779.38
341.842	756.38
342.07	747.38
342.298	719.38
342.526	766.38
342.754	744.38
342.981	750.38
343.209	748.38
343.437	767.38
343.665	790.38
343.893	822.38
344.12	816.38
344.348	803.38
344.576	780.38
344.804	803.38
345.031	806.38
345.259	749.38
345.487	737.38
345.714	759.38
345.942	767.38
346.17	762.38
346.397	735.38
346.625	738.38
346.853	708.38
347.08	721.38
347.308	704.38
347.535	708.38
347.763	698.38
347.99	703.38
348.218	705.38
348.445	691.38
348.673	698.38
348.9	712.38
349.128	722.38
349.355	748.38
349.583	734.38
349.81	701.38
350.037	683.38
350.265	679.38
350.492	695.38
350.72	652.38
350.947	697.38
351.174	700.38
351.402	712.38
351.629	706.38
351.856	721.38
352.083	689.38
352.311	708.38
352.538	716.38
352.765	754.38
352.992	664.38
353.22	658.38
353.447	663.38
353.674	659.38
353.901	662.38
354.128	676.38
354.355	687.38
354.583	688.38
354.81	664.38
355.037	659.38
355.264	652.38
355.491	650.38
355.718	658.38
355.945	666.38
356.172	688.38
356.399	662.38
356.626	674.38
356.853	709.38
357.08	672.38
357.307	691.38
357.534	656.38
357.761	672.38
357.988	678.38
358.215	670.38
358.441	666.38
358.668	666.38
358.895	695.38
359.122	670.38
359.349	672.38
359.576	686.38
359.802	679.38
360.029	681.38
360.256	673.38
360.483	656.38
360.709	670.38
360.936	686.38
361.163	673.38
361.39	679.38
361.616	689.38
361.843	687.38
362.07	718.38
362.296	697.38
362.523	655.38
362.749	655.38
362.976	677.38
363.203	666.38
363.429	642.38
363.656	669.38
363.882	658.38
364.109	654.38
364.335	633.38
364.562	650.38
364.788	647.38
365.015	686.38
365.241	666.38
365.468	681.38
365.694	662.38
365.92	664.38
366.147	635.38
366.373	654.38
366.599	651.38
366.826	661.38
367.052	648.38
367.278	659.38
367.505	660.38
367.731	681.38
367.957	660.38
368.184	686.38
368.41	687.38
368.636	672.38
368.862	659.38
369.089	690.38
369.315	674.38
369.541	692.38
369.767	696.38
369.993	678.38
370.219	672.38
370.445	703.38
370.672	668.38
370.898	700.38
371.124	717.38
371.35	710.38
371.576	695.38
371.802	699.38
372.028	672.38
372.254	708.38
372.48	708.38
372.706	728.38
372.932	713.38
373.158	698.38
373.384	718.38
373.61	701.38
373.835	716.38
374.061	704.38
374.287	734.38
374.513	706.38
374.739	729.38
374.965	736.38
375.191	748.38
375.416	775.38
375.642	734.38
375.868	729.38
376.094	730.38
376.319	704.38
376.545	725.38
376.771	722.38
376.997	698.38
377.222	695.38
377.448	706.38
377.674	682.38
377.899	683.38
378.125	687.38
378.35	696.38
378.576	697.38
378.802	687.38
379.027	702.38
379.253	673.38
379.478	699.38
379.704	688.38
379.929	694.38
380.155	689.38
380.38	692.38
380.606	698.38
380.831	682.38
381.057	723.38
381.282	681.38
381.507	706.38
381.733	701.38
381.958	696.38
382.184	703.38
382.409	714.38
382.634	719.38
382.86	725.38
383.085	736.38
383.31	711.38
383.535	743.38
383.761	749.38
383.986	757.38
384.211	756.38
384.436	765.38
384.662	778.38
384.887	777.38
385.112	772.38
385.337	784.38
385.562	796.38
385.787	794.38
386.013	810.38
386.238	840.38
386.463	793.38
386.688	822.38
386.913	787.38
387.138	783.38
387.363	808.38
387.588	806.38
387.813	806.38
388.038	821.38
388.263	809.38
388.488	820.38
388.713	802.38
388.938	805.38
389.163	803.38
389.387	829.38
389.612	809.38
389.837	800.38
390.062	814.38
390.287	786.38
390.512	794.38
390.736	824.38
390.961	813.38
391.186	844.38
391.411	857.38
391.636	864.38
391.86	872.38
392.085	909.38
392.31	856.38
392.534	832.38
392.759	859.38
392.984	831.38
393.208	861.38
393.433	842.38
393.658	830.38
393.882	857.38
394.107	867.38
394.331	870.38
394.556	856.38
394.78	846.38
395.005	862.38
395.229	856.38
395.454	893.38
395.678	859.38
395.903	892.38
396.127	888.38
396.352	870.38
396.576	866.38
396.801	864.38
397.025	859.38
397.249	896.38
397.474	897.38
397.698	943.38
397.922	924.38
398.147	932.38
398.371	929.38
398.595	998.38
398.82	996.38
399.044	1026.38
399.268	1083.38
399.492	1156.38
399.717	1242.38
399.941	1264.38
400.165	1221.38
400.389	1156.38
400.613	1124.38
400.837	1058.38
401.062	1038.38
401.286	1020.38
401.51	1003.38
401.734	1004.38
401.958	1020.38
402.182	981.38
402.406	987.38
402.63	1014.38
402.854	1036.38
403.078	1043.38
403.302	1049.38
403.526	1001.38
403.75	1060.38
403.974	1062.38
404.198	1039.38
404.422	1067.38
404.645	1050.38
404.869	1049.38
405.093	1054.38
405.317	1060.38
405.541	1093.38
405.765	1094.38
405.988	1046.38
406.212	1073.38
406.436	1092.38
406.66	1114.38
406.883	1105.38
407.107	1162.38
407.331	1162.38
407.555	1217.38
407.778	1199.38
408.002	1199.38
408.226	1172.38
408.449	1183.38
408.673	1104.38
408.896	1122.38
409.12	1096.38
409.344	1123.38
409.567	1095.38
409.791	1158.38
410.014	1084.38
410.238	1086.38
410.461	1094.38
410.685	1100.38
410.908	1088.38
411.132	1041.38
411.355	1041.38
411.578	1048.38
411.802	1071.38
412.025	1066.38
412.249	1072.38
412.472	1080.38
412.695	1036.38
412.919	1016.38
413.142	1036.38
413.365	997.38
413.589	1033.38
413.812	1018.38
414.035	1006.38
414.258	1026.38
414.482	1016.38
414.705	1025.38
414.928	991.38
415.151	1001.38
415.374	1013.38
415.597	1030.38
415.821	978.38
416.044	989.38
416.267	980.38
416.49	958.38
416.713	989.38
416.936	998.38
417.159	1017.38
417.382	972.38
417.605	964.38
417.828	960.38
418.051	981.38
418.274	969.38
418.497	988.38
418.72	1048.38
418.943	996.38
419.166	1076.38
419.389	1153.38
419.611	1092.38
419.834	1080.38
420.057	1044.38
420.28	1030.38
420.503	999.38
420.726	987.38
420.948	986.38
421.171	997.38
421.394	975.38
421.617	996.38
421.839	970.38
422.062	987.38
422.285	984.38
422.507	999.38
422.73	987.38
422.953	990.38
423.175	1022.38
423.398	1037.38
423.621	1006.38
423.843	1005.38
424.066	1038.38
424.288	988.38
424.511	1022.38
424.733	990.38
424.956	991.38
425.178	989.38
425.401	972.38
425.623	1001.38
425.846	958.38
426.068	990.38
426.291	986.38
426.513	952.38
426.735	944.38
426.958	964.38
427.18	943.38
427.402	978.38
427.625	950.38
427.847	909.38
428.069	973.38
428.292	968.38
428.514	950.38
428.736	953.38
428.958	935.38
429.181	939.38
429.403	933.38
429.625	925.38
429.847	931.38
430.069	924.38
430.292	927.38
430.514	932.38
430.736	933.38
430.958	947.38
431.18	913.38
431.402	958.38
431.624	950.38
431.846	939.38
432.068	935.38
432.29	960.38
432.512	950.38
432.734	971.38
432.956	950.38
433.178	952.38
433.4	966.38
433.622	965.38
433.844	946.38
434.066	970.38
434.287	1001.38
434.509	1018.38
434.731	1002.38
434.953	1004.38
435.175	1025.38
435.397	1002.38
435.618	989.38
435.84	961.38
436.062	967.38
436.284	938.38
436.505	966.38
436.727	963.38
436.949	954.38
437.17	981.38
437.392	950.38
437.614	939.38
437.835	918.38
438.057	915.38
438.278	909.38
438.5	909.38
438.721	914.38
438.943	940.38
439.165	913.38
439.386	956.38
439.608	925.38
439.829	956.38
440.05	959.38
440.272	948.38
440.493	972.38
440.715	966.38
440.936	986.38
441.158	1014.38
441.379	1008.38
441.6	1036.38
441.822	1040.38
442.043	1035.38
442.264	1033.38
442.486	1036.38
442.707	1026.38
442.928	1018.38
443.149	1020.38
443.371	1040.38
443.592	1085.38
443.813	1061.38
444.034	1042.38
444.255	1060.38
444.476	1101.38
444.698	1145.38
444.919	1130.38
445.14	1216.38
445.361	1131.38
445.582	1088.38
445.803	1033.38
446.024	1013.38
446.245	1010.38
446.466	1014.38
446.687	985.38
446.908	992.38
447.129	957.38
447.35	922.38
447.571	924.38
447.792	935.38
448.013	942.38
448.234	898.38
448.455	878.38
448.675	907.38
448.896	912.38
449.117	869.38
449.338	903.38
449.559	909.38
449.779	898.38
450	884.38
450.221	913.38
450.442	913.38
450.662	904.38
450.883	932.38
451.104	938.38
451.324	934.38
451.545	904.38
451.766	863.38
451.986	878.38
452.207	862.38
452.428	868.38
452.648	856.38
452.869	870.38
453.089	861.38
453.31	893.38
453.53	860.38
453.751	850.38
453.971	854.38
454.192	850.38
454.412	862.38
454.633	855.38
454.853	833.38
455.073	853.38
455.294	858.38
455.514	858.38
455.734	865.38
455.955	850.38
456.175	855.38
456.395	835.38
456.616	836.38
456.836	860.38
457.056	844.38
457.276	823.38
457.497	853.38
457.717	862.38
457.937	885.38
458.157	858.38
458.377	869.38
458.598	892.38
458.818	896.38
459.038	924.38
459.258	936.38
459.478	1001.38
459.698	1017.38
459.918	1040.38
460.138	1043.38
460.358	1098.38
460.578	1105.38
460.798	1087.38
461.018	1116.38
461.238	1092.38
461.458	1087.38
461.678	1105.38
461.898	1112.38
462.118	1117.38
462.338	1168.38
462.558	1181.38
462.777	1220.38
462.997	1236.38
463.217	1327.38
463.437	1354.38
463.657	1294.38
463.876	1255.38
464.096	1220.38
464.316	1212.38
464.536	1209.38
464.755	1176.38
464.975	1158.38
465.195	1116.38
465.414	1099.38
465.634	1032.38
465.854	1037.38
466.073	1018.38
466.293	979.38
466.512	968.38
466.732	958.38
466.951	992.38
467.171	983.38
467.391	928.38
467.61	938.38
467.829	933.38
468.049	942.38
468.268	933.38
468.488	913.38
468.707	932.38
468.927	943.38
469.146	949.38
469.365	954.38
469.585	934.38
469.804	943.38
470.023	963.38
470.243	934.38
470.462	961.38
470.681	961.38
470.901	980.38
471.12	947.38
471.339	942.38
471.558	980.38
471.777	978.38
471.997	948.38
472.216	936.38
472.435	901.38
472.654	926.38
472.873	908.38
473.092	949.38
473.311	923.38
473.53	881.38
473.749	933.38
473.968	910.38
474.187	900.38
474.406	909.38
474.625	910.38
474.844	905.38
475.063	961.38
475.282	928.38
475.501	911.38
475.72	940.38
475.939	946.38
476.158	960.38
476.377	963.38
476.596	970.38
476.814	978.38
477.033	978.38
477.252	994.38
477.471	991.38
477.69	1012.38
477.908	1052.38
478.127	1042.38
478.346	1060.38
478.564	1064.38
478.783	1065.38
479.002	1103.38
479.22	1148.38
479.439	1118.38
479.658	1083.38
479.876	1098.38
480.095	1098.38
480.313	1144.38
480.532	1149.38
480.751	1133.38
480.969	1118.38
481.188	1098.38
481.406	1096.38
481.624	1050.38
481.843	1065.38
482.061	1067.38
482.28	1062.38
482.498	1035.38
482.717	1029.38
482.935	1075.38
483.153	1046.38
483.372	1055.38
483.59	1095.38
483.808	1086.38
484.027	1085.38
484.245	1067.38
484.463	1074.38
484.681	1085.38
484.9	1107.38
485.118	1079.38
485.336	1076.38
485.554	1098.38
485.772	1081.38
485.99	1103.38
486.209	1103.38
486.427	1106.38
486.645	1105.38
486.863	1102.38
487.081	1092.38
487.299	1099.38
487.517	1127.38
487.735	1108.38
487.953	1127.38
488.171	1129.38
488.389	1092.38
488.607	1095.38
488.825	1084.38
489.043	1102.38
489.261	1096.38
489.479	1075.38
489.696	1114.38
489.914	1102.38
490.132	1116.38
490.35	1113.38
490.568	1158.38
490.786	1112.38
491.003	1107.38
491.221	1163.38
491.439	1154.38
491.657	1148.38
491.874	1145.38
492.092	1161.38
492.31	1180.38
492.527	1176.38
492.745	1189.38
492.963	1182.38
493.18	1149.38
493.398	1140.38
493.615	1176.38
493.833	1153.38
494.05	1156.38
494.268	1176.38
494.485	1180.38
494.703	1160.38
494.92	1235.38
495.138	1220.38
495.355	1199.38
495.573	1230.38
495.79	1210.38
496.008	1217.38
496.225	1247.38
496.442	1253.38
496.66	1279.38
496.877	1261.38
497.094	1308.38
497.312	1306.38
497.529	1318.38
497.746	1372.38
497.963	1400.38
498.181	1422.38
498.398	1498.38
498.615	1539.38
498.832	1629.38
499.049	1662.38
499.267	1780.38
499.484	1924.38
499.701	2070.38
499.918	2202.38
500.135	2374.38
500.352	2548.38
500.569	2535.38
500.786	2532.38
501.003	2420.38
501.22	2301.38
501.437	2149.38
501.654	1990.38
501.871	1881.38
502.088	1808.38
502.305	1678.38
502.522	1604.38
502.739	1564.38
502.956	1541.38
503.172	1464.38
503.389	1381.38
503.606	1384.38
503.823	1366.38
504.04	1313.38
504.256	1360.38
504.473	1330.38
504.69	1329.38
504.907	1308.38
505.123	1245.38
505.34	1209.38
505.557	1189.38
505.773	1162.38
505.99	1153.38
506.207	1134.38
506.423	1097.38
506.64	1101.38
506.856	1056.38
507.073	1080.38
507.289	1049.38
507.506	1045.38
507.722	1043.38
507.939	1034.38
508.155	983.38
508.372	1021.38
508.588	1008.38
508.805	1006.38
509.021	983.38
509.238	990.38
509.454	966.38
509.67	976.38
509.887	984.38
510.103	989.38
510.319	958.38
510.536	957.38
510.752	941.38
510.968	935.38
511.184	905.38
511.401	942.38
511.617	929.38
511.833	943.38
512.049	961.38
512.265	962.38
512.481	964.38
512.698	956.38
512.914	961.38
513.13	963.38
513.346	947.38
513.562	938.38
513.778	956.38
513.994	946.38
514.21	949.38
514.426	961.38
514.642	955.38
514.858	977.38
515.074	990.38
515.29	969.38
515.506	988.38
515.721	982.38
515.937	1002.38
516.153	1001.38
516.369	1037.38
516.585	1049.38
516.801	1063.38
517.016	1083.38
517.232	1125.38
517.448	1115.38
517.664	1166.38
517.879	1119.38
518.095	1128.38
518.311	1151.38
518.527	1114.38
518.742	1084.38
518.958	1078.38
519.173	1055.38
519.389	1050.38
519.605	978.38
519.82	977.38
520.036	969.38
520.251	933.38
520.467	961.38
520.682	943.38
520.898	955.38
521.113	929.38
521.329	901.38
521.544	919.38
521.76	915.38
521.975	897.38
522.19	881.38
522.406	885.38
522.621	876.38
522.836	885.38
523.052	884.38
523.267	886.38
523.482	868.38
523.698	904.38
523.913	870.38
524.128	907.38
524.343	872.38
524.559	877.38
524.774	856.38
524.989	846.38
525.204	858.38
525.419	837.38
525.634	853.38
525.849	852.38
526.064	855.38
526.28	884.38
526.495	844.38
526.71	884.38
526.925	832.38
527.14	824.38
527.355	808.38
527.57	828.38
527.785	834.38
527.999	846.38
528.214	830.38
528.429	854.38
528.644	835.38
528.859	838.38
529.074	865.38
529.289	832.38
529.503	861.38
529.718	849.38
529.933	832.38
530.148	828.38
530.363	826.38
530.577	810.38
530.792	849.38
531.007	833.38
531.221	822.38
531.436	817.38
531.651	813.38
531.865	821.38
532.08	834.38
532.295	841.38
532.509	799.38
532.724	804.38
532.938	804.38
533.153	812.38
533.367	821.38
533.582	817.38
533.796	844.38
534.011	834.38
534.225	810.38
534.44	798.38
534.654	816.38
534.868	795.38
535.083	799.38
535.297	813.38
535.511	794.38
535.726	799.38
535.94	784.38
536.154	761.38
536.369	766.38
536.583	768.38
536.797	773.38
537.011	752.38
537.225	751.38
537.44	771.38
537.654	755.38
537.868	775.38
538.082	761.38
538.296	761.38
538.51	765.38
538.724	772.38
538.938	768.38
539.153	766.38
539.367	781.38
539.581	749.38
539.795	730.38
540.009	751.38
540.222	751.38
540.436	738.38
540.65	765.38
540.864	767.38
541.078	775.38
541.292	765.38
541.506	762.38
541.72	753.38
541.934	765.38
542.147	753.38
542.361	769.38
542.575	774.38
542.789	734.38
543.002	737.38
543.216	737.38
543.43	754.38
543.644	762.38
543.857	742.38
544.071	752.38
544.285	767.38
544.498	749.38
544.712	758.38
544.925	760.38
545.139	768.38
545.352	764.38
545.566	780.38
545.779	763.38
545.993	780.38
546.206	807.38
546.42	749.38
546.633	725.38
546.847	770.38
547.06	750.38
547.274	744.38
547.487	741.38
547.7	761.38
547.914	747.38
548.127	782.38
548.34	767.38
548.554	765.38
548.767	761.38
548.98	781.38
549.193	776.38
549.407	769.38
549.62	762.38
549.833	773.38
550.046	752.38
550.259	729.38
550.473	763.38
550.686	761.38
550.899	751.38
551.112	762.38
551.325	759.38
551.538	761.38
551.751	763.38
551.964	753.38
552.177	758.38
552.39	745.38
552.603	780.38
552.816	769.38
553.029	776.38
553.242	813.38
553.455	781.38
553.667	803.38
553.88	780.38
554.093	769.38
554.306	780.38
554.519	733.38
554.732	729.38
554.944	748.38
555.157	734.38
555.37	729.38
555.583	720.38
555.795	702.38
556.008	683.38
556.221	684.38
556.433	693.38
556.646	644.38
556.859	699.38
557.071	698.38
557.284	682.38
557.496	656.38
557.709	662.38
557.921	659.38
558.134	670.38
558.346	680.38
558.559	647.38
558.771	657.38
558.984	641.38
559.196	639.38
559.409	638.38
559.621	639.38
559.833	628.38
560.046	615.38
560.258	641.38
560.47	652.38
560.683	660.38
560.895	619.38
561.107	629.38
561.32	620.38
561.532	623.38
561.744	645.38
561.956	664.38
562.168	629.38
562.381	634.38
562.593	614.38
562.805	641.38
563.017	625.38
563.229	641.38
563.441	661.38
563.653	662.38
563.865	657.38
564.077	686.38
564.289	667.38
564.501	663.38
564.713	671.38
564.925	668.38
565.137	697.38
565.349	686.38
565.561	696.38
565.773	737.38
565.985	756.38
566.197	757.38
566.408	786.38
566.62	840.38
566.832	877.38
567.044	898.38
567.255	885.38
567.467	886.38
567.679	907.38
567.891	935.38
568.102	938.38
568.314	921.38
568.526	841.38
568.737	822.38
568.949	773.38
569.161	726.38
569.372	710.38
569.584	687.38
569.795	698.38
570.007	661.38
570.218	676.38
570.43	620.38
570.641	625.38
570.853	628.38
571.064	624.38
571.276	616.38
571.487	625.38
571.698	604.38
571.91	586.38
572.121	580.38
572.333	576.38
572.544	556.38
572.755	532.38
572.966	538.38
573.178	529.38
573.389	535.38
573.6	507.38
573.811	522.38
574.023	516.38
574.234	537.38
574.445	522.38
574.656	540.38
574.867	526.38
575.078	507.38
575.289	515.38
575.501	513.38
575.712	503.38
575.923	496.38
576.134	493.38
576.345	454.38
576.556	460.38
576.767	477.38
576.978	489.38
577.188	486.38
577.399	472.38
577.61	493.38
577.821	478.38
578.032	479.38
578.243	461.38
578.454	452.38
578.665	485.38
578.875	449.38
579.086	474.38
579.297	455.38
579.508	476.38
579.718	432.38
579.929	454.38
580.14	454.38
580.35	451.38
580.561	447.38
580.772	430.38
580.982	436.38
581.193	461.38
581.403	452.38
581.614	449.38
581.825	442.38
582.035	440.38
582.246	443.38
582.456	441.38
582.667	453.38
582.877	438.38
583.087	428.38
583.298	417.38
583.508	434.38
583.719	426.38
583.929	430.38
584.139	419.38
584.35	414.38
584.56	424.38
584.77	421.38
584.981	424.38
585.191	421.38
585.401	422.38
585.611	431.38
585.821	408.38
586.032	406.38
586.242	405.38
586.452	420.38
586.662	407.38
586.872	412.38
587.082	436.38
587.292	409.38
587.502	419.38
587.713	413.38
587.923	434.38
588.133	400.38
588.343	402.38
588.553	415.38
588.762	414.38
588.972	419.38
589.182	452.38
589.392	454.38
589.602	418.38
589.812	447.38
590.022	441.38
590.232	408.38
590.441	397.38
590.651	432.38
590.861	407.38
591.071	412.38
591.281	416.38
591.49	425.38
591.7	422.38
591.91	432.38
592.119	437.38
592.329	438.38
592.539	453.38
592.748	438.38
592.958	464.38
593.167	450.38
593.377	464.38
593.587	449.38
593.796	466.38
594.006	430.38
594.215	473.38
594.424	469.38
594.634	464.38
594.843	446.38
595.053	441.38
595.262	446.38
595.472	426.38
595.681	398.38
595.89	415.38
596.1	408.38
596.309	409.38
596.518	397.38
596.727	391.38
596.937	382.38
597.146	378.38
597.355	385.38
597.564	377.38
597.774	374.38
597.983	359.38
598.192	364.38
598.401	362.38
598.61	360.38
598.819	351.38
599.028	349.38
599.237	353.38
599.446	357.38
599.655	352.38
599.864	347.38
600.073	349.38
600.282	346.38
600.491	339.38
600.7	333.38
600.909	332.38
601.118	337.38
601.327	340.38
601.536	330.38
601.745	324.38
601.953	338.38
602.162	343.38
602.371	338.38
602.58	338.38
602.789	349.38
602.997	359.38
603.206	338.38
603.415	352.38
603.623	330.38
603.832	317.38
604.041	342.38
604.249	331.38
604.458	341.38
604.666	333.38
604.875	327.38
605.084	350.38
605.292	320.38
605.501	319.38
605.709	333.38
605.918	321.38
606.126	314.38
606.334	320.38
606.543	322.38
606.751	331.38
606.96	309.38
607.168	313.38
607.376	304.38
607.585	313.38
607.793	324.38
608.001	317.38
608.21	325.38
608.418	292.38
608.626	291.38
608.834	312.38
609.043	324.38
609.251	303.38
609.459	316.38
609.667	293.38
609.875	320.38
610.083	305.38
610.291	314.38
610.499	284.38
610.707	299.38
610.916	300.38
611.124	299.38
611.332	312.38
611.54	303.38
611.748	309.38
611.955	287.38
612.163	305.38
612.371	303.38
612.579	300.38
612.787	300.38
612.995	295.38
613.203	310.38
613.411	295.38
613.618	300.38
613.826	298.38
614.034	298.38
614.242	288.38
614.449	288.38
614.657	288.38
614.865	285.38
615.072	290.38
615.28	288.38
615.488	300.38
615.695	294.38
615.903	298.38
616.111	287.38
616.318	294.38
616.526	288.38
616.733	286.38
616.941	288.38
617.148	290.38
617.356	292.38
617.563	294.38
617.771	289.38
617.978	288.38
618.185	288.38
618.393	293.38
618.6	290.38
618.807	279.38
619.015	294.38
619.222	289.38
619.429	276.38
619.637	267.38
619.844	280.38
620.051	278.38
620.258	269.38
620.466	280.38
620.673	268.38
620.88	257.38
621.087	278.38
621.294	283.38
621.501	274.38
621.708	266.38
621.915	260.38
622.122	260.38
622.329	261.38
622.536	279.38
622.743	260.38
622.95	254.38
623.157	244.38
623.364	255.38
623.571	266.38
623.778	257.38
623.985	276.38
624.192	270.38
624.399	268.38
624.606	268.38
624.812	265.38
625.019	234.38
625.226	260.38
625.433	266.38
625.639	258.38
625.846	256.38
626.053	263.38
626.259	245.38
626.466	242.38
626.673	242.38
626.879	243.38
627.086	252.38
627.293	254.38
627.499	251.38
627.706	260.38
627.912	250.38
628.119	239.38
628.325	239.38
628.532	239.38
628.738	251.38
628.945	233.38
629.151	240.38
629.357	238.38
629.564	238.38
629.77	241.38
629.976	241.38
630.183	234.38
630.389	230.38
630.595	237.38
630.802	235.38
631.008	268.38
631.214	232.38
631.42	235.38
631.627	245.38
631.833	236.38
632.039	240.38
632.245	234.38
632.451	222.38
632.657	232.38
632.863	229.38
633.069	210.38
633.275	217.38
633.481	221.38
633.688	213.38
633.893	216.38
634.099	226.38
634.305	228.38
634.511	215.38
634.717	230.38
634.923	235.38
635.129	215.38
635.335	218.38
635.541	220.38
635.747	241.38
635.952	224.38
636.158	223.38
636.364	205.38
636.57	214.38
636.775	204.38
636.981	216.38
637.187	228.38
637.392	210.38
637.598	217.38
637.804	222.38
638.009	207.38
638.215	188.38
638.421	209.38
638.626	202.38
638.832	213.38
639.037	207.38
639.243	189.38
639.448	213.38
639.654	207.38
639.859	221.38
640.065	216.38
640.27	203.38
640.475	199.38
640.681	224.38
640.886	222.38
641.091	207.38
641.297	207.38
641.502	204.38
641.707	196.38
641.913	212.38
642.118	191.38
642.323	203.38
642.528	204.38
642.733	199.38
642.939	190.38
643.144	198.38
643.349	195.38
643.554	195.38
643.759	199.38
643.964	204.38
644.169	198.38
644.374	183.38
644.579	195.38
644.784	194.38
644.989	195.38
645.194	200.38
645.399	214.38
645.604	205.38
645.809	200.38
646.014	206.38
646.219	193.38
646.423	199.38
646.628	198.38
646.833	205.38
647.038	203.38
647.243	212.38
647.447	196.38
647.652	191.38
647.857	191.38
648.062	205.38
648.266	208.38
648.471	227.38
648.676	216.38
648.88	187.38
649.085	211.38
649.289	191.38
649.494	197.38
649.698	190.38
649.903	186.38
650.107	192.38
650.312	194.38
650.516	181.38
650.721	207.38
650.925	194.38
651.13	181.38
651.334	173.38
651.539	195.38
651.743	182.38
651.947	185.38
652.152	185.38
652.356	168.38
652.56	176.38
652.764	174.38
652.969	163.38
653.173	175.38
653.377	154.38
653.581	164.38
653.785	170.38
653.99	168.38
654.194	168.38
654.398	162.38
654.602	163.38
654.806	149.38
655.01	157.38
655.214	156.38
655.418	141.38
655.622	151.38
655.826	156.38
656.03	144.38
656.234	160.38
656.438	157.38
656.642	140.38
656.846	138.38
657.049	141.38
657.253	142.38
657.457	151.38
657.661	132.38
657.865	146.38
658.068	134.38
658.272	136.38
658.476	121.38
658.68	134.38
658.883	135.38
659.087	127.38
659.291	110.38
659.494	112.38
659.698	99.38
659.901	106.38
660.105	112.38
660.309	103.38
660.512	108.38
660.716	97.38
660.919	99.38
661.123	113.38
661.326	98.38
661.53	110.38
661.733	95.38
661.936	96.38
662.14	91.38
662.343	85.38
662.546	89.38
662.75	104.38
662.953	102.38
663.156	93.38
663.36	91.38
663.563	97.38
663.766	72.38
663.969	82.38
664.173	86.38
664.376	95.38
664.579	82.38
664.782	89.38
664.985	80.38
665.188	77.38
665.391	70.38
665.594	87.38
665.797	88.38
666	85.38
666.203	84.38
666.406	76.38
666.609	102.38
666.812	96.38
667.015	84.38
667.218	80.38
667.421	79.38
667.624	95.38
667.827	84.38
668.03	83.38
668.232	95.38
668.435	89.38
668.638	92.38
668.841	83.38
669.043	91.38
669.246	98.38
669.449	90.38
669.651	74.38
669.854	86.38
670.057	82.38
670.259	87.38
670.462	85.38
670.665	86.38
670.867	106.38
671.07	73.38
671.272	81.38
671.475	79.38
671.677	90.38
671.88	90.38
672.082	85.38
672.284	83.38
672.487	98.38
672.689	94.38
672.892	83.38
