Data from NiCl2@0.125M.TitratingCurve.Agarose3%dH2O.NegLispCup.LampEnergy10.LIBS07252019_HRD10591_18-27-26-574.txt Node
Date: Thu Jul 25 18:27:26 EDT 2019
User: cochatt
Spectrometer: HR+D1059
Trigger mode: 1
Integration Time (sec): 1.000000E-1
Scans to average: 1
Electric dark correction enabled: true
Nonlinearity correction enabled: false
Boxcar width: 0
XAxis mode: Wavelengths
Number of Pixels in Spectrum: 2048
>>>>>Begin Spectral Data<<<<<
223.165	-4.31
223.4	-4.31
223.635	-4.31
223.869	-24.31
224.104	-22.31
224.338	-21.31
224.573	-21.31
224.808	-15.31
225.042	-19.31
225.277	-13.31
225.511	-13.31
225.746	6.69
225.98	20.69
226.215	13.69
226.449	13.69
226.683	34.69
226.918	28.69
227.152	36.69
227.387	38.69
227.621	43.69
227.856	52.69
228.09	30.69
228.324	56.69
228.559	69.69
228.793	69.69
229.027	107.69
229.262	125.69
229.496	117.69
229.73	140.69
229.964	117.69
230.199	131.69
230.433	149.69
230.667	150.69
230.901	142.69
231.136	132.69
231.37	161.69
231.604	163.69
231.838	157.69
232.072	157.69
232.306	155.69
232.541	158.69
232.775	153.69
233.009	154.69
233.243	136.69
233.477	153.69
233.711	158.69
233.945	171.69
234.179	155.69
234.413	148.69
234.647	152.69
234.881	177.69
235.115	171.69
235.349	166.69
235.583	155.69
235.817	171.69
236.051	173.69
236.285	172.69
236.519	170.69
236.753	160.69
236.987	172.69
237.221	174.69
237.455	158.69
237.689	190.69
237.922	179.69
238.156	171.69
238.39	177.69
238.624	191.69
238.858	185.69
239.091	178.69
239.325	202.69
239.559	193.69
239.793	176.69
240.027	193.69
240.26	199.69
240.494	209.69
240.728	177.69
240.961	187.69
241.195	206.69
241.429	204.69
241.662	198.69
241.896	202.69
242.13	210.69
242.363	221.69
242.597	198.69
242.83	235.69
243.064	204.69
243.298	215.69
243.531	226.69
243.765	216.69
243.998	230.69
244.232	236.69
244.465	225.69
244.699	214.69
244.932	246.69
245.166	240.69
245.399	236.69
245.633	242.69
245.866	244.69
246.099	234.69
246.333	256.69
246.566	254.69
246.8	248.69
247.033	260.69
247.266	235.69
247.5	261.69
247.733	241.69
247.966	243.69
248.2	268.69
248.433	247.69
248.666	250.69
248.899	276.69
249.133	267.69
249.366	271.69
249.599	260.69
249.832	270.69
250.066	289.69
250.299	265.69
250.532	275.69
250.765	288.69
250.998	281.69
251.231	265.69
251.465	289.69
251.698	296.69
251.931	312.69
252.164	294.69
252.397	304.69
252.63	291.69
252.863	304.69
253.096	299.69
253.329	310.69
253.562	315.69
253.795	301.69
254.028	328.69
254.261	307.69
254.494	316.69
254.727	324.69
254.96	311.69
255.193	322.69
255.426	322.69
255.659	334.69
255.892	312.69
256.124	333.69
256.357	310.69
256.59	335.69
256.823	317.69
257.056	335.69
257.289	321.69
257.521	328.69
257.754	340.69
257.987	330.69
258.22	345.69
258.452	345.69
258.685	310.69
258.918	324.69
259.151	345.69
259.383	342.69
259.616	343.69
259.849	358.69
260.081	360.69
260.314	349.69
260.547	342.69
260.779	350.69
261.012	353.69
261.244	362.69
261.477	368.69
261.71	362.69
261.942	363.69
262.175	354.69
262.407	356.69
262.64	359.69
262.872	371.69
263.105	380.69
263.337	372.69
263.57	366.69
263.802	376.69
264.035	373.69
264.267	367.69
264.499	370.69
264.732	374.69
264.964	383.69
265.197	388.69
265.429	395.69
265.661	383.69
265.894	392.69
266.126	397.69
266.358	403.69
266.591	396.69
266.823	390.69
267.055	414.69
267.287	421.69
267.52	399.69
267.752	399.69
267.984	414.69
268.216	417.69
268.448	412.69
268.681	408.69
268.913	401.69
269.145	421.69
269.377	401.69
269.609	419.69
269.841	410.69
270.073	394.69
270.306	435.69
270.538	411.69
270.77	412.69
271.002	429.69
271.234	425.69
271.466	439.69
271.698	428.69
271.93	408.69
272.162	425.69
272.394	460.69
272.626	438.69
272.858	442.69
273.09	450.69
273.322	441.69
273.553	466.69
273.785	432.69
274.017	451.69
274.249	462.69
274.481	454.69
274.713	450.69
274.945	451.69
275.176	456.69
275.408	472.69
275.64	446.69
275.872	469.69
276.104	475.69
276.335	466.69
276.567	454.69
276.799	475.69
277.031	466.69
277.262	467.69
277.494	468.69
277.726	478.69
277.957	489.69
278.189	482.69
278.421	485.69
278.652	504.69
278.884	512.69
279.115	482.69
279.347	510.69
279.579	497.69
279.81	498.69
280.042	498.69
280.273	521.69
280.505	497.69
280.736	494.69
280.968	505.69
281.199	517.69
281.431	513.69
281.662	524.69
281.894	507.69
282.125	533.69
282.356	516.69
282.588	542.69
282.819	515.69
283.051	536.69
283.282	531.69
283.513	537.69
283.745	510.69
283.976	520.69
284.207	530.69
284.439	540.69
284.67	550.69
284.901	557.69
285.132	542.69
285.364	544.69
285.595	522.69
285.826	529.69
286.057	549.69
286.288	567.69
286.52	548.69
286.751	552.69
286.982	542.69
287.213	558.69
287.444	587.69
287.675	570.69
287.906	587.69
288.138	565.69
288.369	573.69
288.6	570.69
288.831	582.69
289.062	578.69
289.293	586.69
289.524	547.69
289.755	590.69
289.986	584.69
290.217	594.69
290.448	606.69
290.679	594.69
290.91	588.69
291.141	573.69
291.371	594.69
291.602	596.69
291.833	593.69
292.064	600.69
292.295	617.69
292.526	574.69
292.757	581.69
292.987	597.69
293.218	588.69
293.449	599.69
293.68	584.69
293.91	588.69
294.141	597.69
294.372	587.69
294.603	583.69
294.833	580.69
295.064	606.69
295.295	608.69
295.525	592.69
295.756	590.69
295.987	605.69
296.217	611.69
296.448	634.69
296.679	609.69
296.909	626.69
297.14	612.69
297.37	635.69
297.601	622.69
297.831	627.69
298.062	642.69
298.292	627.69
298.523	653.69
298.753	651.69
298.984	653.69
299.214	634.69
299.445	634.69
299.675	654.69
299.905	620.69
300.136	621.69
300.366	650.69
300.597	634.69
300.827	670.69
301.057	661.69
301.288	701.69
301.518	680.69
301.748	651.69
301.979	661.69
302.209	689.69
302.439	700.69
302.669	667.69
302.9	660.69
303.13	650.69
303.36	674.69
303.59	672.69
303.82	694.69
304.051	676.69
304.281	677.69
304.511	653.69
304.741	697.69
304.971	681.69
305.201	670.69
305.431	677.69
305.661	683.69
305.891	666.69
306.121	660.69
306.352	661.69
306.582	666.69
306.812	663.69
307.042	650.69
307.272	648.69
307.502	646.69
307.731	640.69
307.961	674.69
308.191	660.69
308.421	658.69
308.651	648.69
308.881	630.69
309.111	648.69
309.341	659.69
309.571	656.69
309.8	666.69
310.03	639.69
310.26	655.69
310.49	658.69
310.72	655.69
310.949	658.69
311.179	678.69
311.409	666.69
311.639	666.69
311.868	658.69
312.098	664.69
312.328	669.69
312.557	697.69
312.787	703.69
313.017	670.69
313.246	704.69
313.476	697.69
313.706	711.69
313.935	708.69
314.165	697.69
314.394	705.69
314.624	723.69
314.853	719.69
315.083	707.69
315.312	716.69
315.542	693.69
315.771	676.69
316.001	679.69
316.23	721.69
316.46	678.69
316.689	710.69
316.919	692.69
317.148	717.69
317.377	711.69
317.607	693.69
317.836	698.69
318.065	708.69
318.295	704.69
318.524	717.69
318.753	684.69
318.983	701.69
319.212	688.69
319.441	696.69
319.67	712.69
319.9	695.69
320.129	716.69
320.358	682.69
320.587	681.69
320.816	690.69
321.046	672.69
321.275	710.69
321.504	693.69
321.733	705.69
321.962	695.69
322.191	717.69
322.42	697.69
322.649	697.69
322.878	717.69
323.108	712.69
323.337	702.69
323.566	729.69
323.795	728.69
324.024	726.69
324.253	685.69
324.482	724.69
324.71	729.69
324.939	716.69
325.168	726.69
325.397	749.69
325.626	733.69
325.855	729.69
326.084	756.69
326.313	760.69
326.542	780.69
326.77	763.69
326.999	767.69
327.228	788.69
327.457	754.69
327.686	779.69
327.914	745.69
328.143	768.69
328.372	766.69
328.6	757.69
328.829	782.69
329.058	766.69
329.287	781.69
329.515	797.69
329.744	787.69
329.972	780.69
330.201	772.69
330.43	774.69
330.658	798.69
330.887	800.69
331.115	802.69
331.344	794.69
331.572	832.69
331.801	830.69
332.03	837.69
332.258	872.69
332.486	906.69
332.715	904.69
332.943	918.69
333.172	984.69
333.4	998.69
333.629	1032.69
333.857	1028.69
334.085	999.69
334.314	1016.69
334.542	960.69
334.771	985.69
334.999	966.69
335.227	992.69
335.455	965.69
335.684	956.69
335.912	933.69
336.14	916.69
336.369	911.69
336.597	928.69
336.825	908.69
337.053	896.69
337.281	913.69
337.51	907.69
337.738	888.69
337.966	863.69
338.194	881.69
338.422	856.69
338.65	835.69
338.878	851.69
339.106	840.69
339.334	848.69
339.562	822.69
339.79	782.69
340.018	789.69
340.246	802.69
340.474	811.69
340.702	773.69
340.93	818.69
341.158	806.69
341.386	818.69
341.614	824.69
341.842	807.69
342.07	785.69
342.298	771.69
342.526	786.69
342.754	809.69
342.981	794.69
343.209	803.69
343.437	852.69
343.665	897.69
343.893	946.69
344.12	1013.69
344.348	972.69
344.576	905.69
344.804	849.69
345.031	834.69
345.259	825.69
345.487	809.69
345.714	801.69
345.942	793.69
346.17	789.69
346.397	780.69
346.625	784.69
346.853	766.69
347.08	758.69
347.308	766.69
347.535	766.69
347.763	787.69
347.99	797.69
348.218	770.69
348.445	764.69
348.673	769.69
348.9	783.69
349.128	764.69
349.355	754.69
349.583	763.69
349.81	792.69
350.037	768.69
350.265	741.69
350.492	770.69
350.72	761.69
350.947	737.69
351.174	748.69
351.402	737.69
351.629	737.69
351.856	742.69
352.083	731.69
352.311	741.69
352.538	732.69
352.765	734.69
352.992	715.69
353.22	716.69
353.447	734.69
353.674	740.69
353.901	736.69
354.128	707.69
354.355	729.69
354.583	726.69
354.81	724.69
355.037	749.69
355.264	752.69
355.491	751.69
355.718	778.69
355.945	738.69
356.172	754.69
356.399	758.69
356.626	728.69
356.853	747.69
357.08	744.69
357.307	732.69
357.534	763.69
357.761	762.69
357.988	732.69
358.215	748.69
358.441	739.69
358.668	717.69
358.895	746.69
359.122	750.69
359.349	733.69
359.576	742.69
359.802	756.69
360.029	739.69
360.256	748.69
360.483	764.69
360.709	743.69
360.936	754.69
361.163	771.69
361.39	758.69
361.616	748.69
361.843	752.69
362.07	732.69
362.296	736.69
362.523	738.69
362.749	755.69
362.976	733.69
363.203	766.69
363.429	751.69
363.656	735.69
363.882	756.69
364.109	743.69
364.335	730.69
364.562	737.69
364.788	760.69
365.015	760.69
365.241	738.69
365.468	752.69
365.694	749.69
365.92	770.69
366.147	705.69
366.373	753.69
366.599	746.69
366.826	742.69
367.052	743.69
367.278	758.69
367.505	753.69
367.731	772.69
367.957	759.69
368.184	739.69
368.41	769.69
368.636	757.69
368.862	774.69
369.089	782.69
369.315	794.69
369.541	761.69
369.767	803.69
369.993	778.69
370.219	780.69
370.445	791.69
370.672	796.69
370.898	801.69
371.124	787.69
371.35	812.69
371.576	804.69
371.802	804.69
372.028	814.69
372.254	806.69
372.48	833.69
372.706	829.69
372.932	854.69
373.158	851.69
373.384	843.69
373.61	817.69
373.835	818.69
374.061	824.69
374.287	820.69
374.513	833.69
374.739	878.69
374.965	877.69
375.191	901.69
375.416	890.69
375.642	888.69
375.868	863.69
376.094	870.69
376.319	838.69
376.545	823.69
376.771	824.69
376.997	825.69
377.222	857.69
377.448	836.69
377.674	840.69
377.899	802.69
378.125	810.69
378.35	800.69
378.576	800.69
378.802	810.69
379.027	804.69
379.253	813.69
379.478	814.69
379.704	804.69
379.929	822.69
380.155	809.69
380.38	801.69
380.606	793.69
380.831	805.69
381.057	801.69
381.282	827.69
381.507	815.69
381.733	830.69
381.958	817.69
382.184	832.69
382.409	849.69
382.634	861.69
382.86	853.69
383.085	865.69
383.31	884.69
383.535	906.69
383.761	886.69
383.986	887.69
384.211	928.69
384.436	958.69
384.662	956.69
384.887	932.69
385.112	972.69
385.337	1001.69
385.562	997.69
385.787	987.69
386.013	1001.69
386.238	965.69
386.463	983.69
386.688	997.69
386.913	956.69
387.138	960.69
387.363	965.69
387.588	965.69
387.813	958.69
388.038	967.69
388.263	978.69
388.488	1013.69
388.713	986.69
388.938	953.69
389.163	925.69
389.387	960.69
389.612	988.69
389.837	1001.69
390.062	941.69
390.287	954.69
390.512	996.69
390.736	991.69
390.961	1005.69
391.186	990.69
391.411	1036.69
391.636	1036.69
391.86	1100.69
392.085	1104.69
392.31	1131.69
392.534	1125.69
392.759	1039.69
392.984	1050.69
393.208	1042.69
393.433	1020.69
393.658	1025.69
393.882	1037.69
394.107	1037.69
394.331	1042.69
394.556	1039.69
394.78	1052.69
395.005	1056.69
395.229	1081.69
395.454	1078.69
395.678	1089.69
395.903	1118.69
396.127	1088.69
396.352	1063.69
396.576	1042.69
396.801	1000.69
397.025	1031.69
397.249	1084.69
397.474	1100.69
397.698	1107.69
397.922	1105.69
398.147	1086.69
398.371	1141.69
398.595	1165.69
398.82	1185.69
399.044	1305.69
399.268	1431.69
399.492	1648.69
399.717	1835.69
399.941	1802.69
400.165	1592.69
400.389	1474.69
400.613	1369.69
400.837	1276.69
401.062	1253.69
401.286	1238.69
401.51	1245.69
401.734	1227.69
401.958	1231.69
402.182	1246.69
402.406	1275.69
402.63	1264.69
402.854	1320.69
403.078	1330.69
403.302	1361.69
403.526	1363.69
403.75	1415.69
403.974	1414.69
404.198	1402.69
404.422	1400.69
404.645	1414.69
404.869	1379.69
405.093	1383.69
405.317	1367.69
405.541	1359.69
405.765	1363.69
405.988	1354.69
406.212	1373.69
406.436	1363.69
406.66	1376.69
406.883	1364.69
407.107	1485.69
407.331	1542.69
407.555	1588.69
407.778	1578.69
408.002	1565.69
408.226	1505.69
408.449	1461.69
408.673	1416.69
408.896	1377.69
409.12	1370.69
409.344	1396.69
409.567	1398.69
409.791	1370.69
410.014	1402.69
410.238	1366.69
410.461	1378.69
410.685	1351.69
410.908	1349.69
411.132	1290.69
411.355	1300.69
411.578	1290.69
411.802	1278.69
412.025	1289.69
412.249	1333.69
412.472	1298.69
412.695	1251.69
412.919	1224.69
413.142	1224.69
413.365	1260.69
413.589	1244.69
413.812	1243.69
414.035	1265.69
414.258	1223.69
414.482	1206.69
414.705	1248.69
414.928	1272.69
415.151	1288.69
415.374	1253.69
415.597	1219.69
415.821	1193.69
416.044	1219.69
416.267	1221.69
416.49	1173.69
416.713	1207.69
416.936	1224.69
417.159	1205.69
417.382	1174.69
417.605	1230.69
417.828	1186.69
418.051	1217.69
418.274	1221.69
418.497	1197.69
418.72	1265.69
418.943	1242.69
419.166	1311.69
419.389	1400.69
419.611	1408.69
419.834	1304.69
420.057	1273.69
420.28	1242.69
420.503	1173.69
420.726	1227.69
420.948	1238.69
421.171	1207.69
421.394	1219.69
421.617	1220.69
421.839	1220.69
422.062	1240.69
422.285	1201.69
422.507	1226.69
422.73	1230.69
422.953	1251.69
423.175	1261.69
423.398	1283.69
423.621	1251.69
423.843	1264.69
424.066	1315.69
424.288	1241.69
424.511	1244.69
424.733	1286.69
424.956	1236.69
425.178	1197.69
425.401	1233.69
425.623	1236.69
425.846	1193.69
426.068	1174.69
426.291	1162.69
426.513	1186.69
426.735	1157.69
426.958	1162.69
427.18	1119.69
427.402	1095.69
427.625	1105.69
427.847	1112.69
428.069	1093.69
428.292	1088.69
428.514	1094.69
428.736	1093.69
428.958	1067.69
429.181	1078.69
429.403	1036.69
429.625	1074.69
429.847	1057.69
430.069	1034.69
430.292	1061.69
430.514	1060.69
430.736	1075.69
430.958	1035.69
431.18	1089.69
431.402	1072.69
431.624	1075.69
431.846	1057.69
432.068	1075.69
432.29	1070.69
432.512	1072.69
432.734	1104.69
432.956	1069.69
433.178	1084.69
433.4	1097.69
433.622	1086.69
433.844	1114.69
434.066	1124.69
434.287	1096.69
434.509	1148.69
434.731	1160.69
434.953	1197.69
435.175	1242.69
435.397	1198.69
435.618	1172.69
435.84	1122.69
436.062	1078.69
436.284	1075.69
436.505	1083.69
436.727	1089.69
436.949	1087.69
437.17	1081.69
437.392	1089.69
437.614	1068.69
437.835	1044.69
438.057	1057.69
438.278	1038.69
438.5	1027.69
438.721	1065.69
438.943	1063.69
439.165	1076.69
439.386	1077.69
439.608	1078.69
439.829	1072.69
440.05	1102.69
440.272	1092.69
440.493	1103.69
440.715	1129.69
440.936	1174.69
441.158	1140.69
441.379	1176.69
441.6	1202.69
441.822	1216.69
442.043	1208.69
442.264	1204.69
442.486	1176.69
442.707	1161.69
442.928	1204.69
443.149	1184.69
443.371	1182.69
443.592	1179.69
443.813	1226.69
444.034	1235.69
444.255	1266.69
444.476	1301.69
444.698	1383.69
444.919	1456.69
445.14	1505.69
445.361	1376.69
445.582	1291.69
445.803	1191.69
446.024	1158.69
446.245	1139.69
446.466	1147.69
446.687	1102.69
446.908	1109.69
447.129	1068.69
447.35	1066.69
447.571	1051.69
447.792	1028.69
448.013	1035.69
448.234	1000.69
448.455	1003.69
448.675	993.69
448.896	988.69
449.117	968.69
449.338	1005.69
449.559	978.69
449.779	980.69
450	981.69
450.221	1016.69
450.442	1007.69
450.662	1008.69
450.883	1034.69
451.104	1015.69
451.324	1000.69
451.545	993.69
451.766	1020.69
451.986	1006.69
452.207	1011.69
452.428	982.69
452.648	1008.69
452.869	958.69
453.089	964.69
453.31	956.69
453.53	951.69
453.751	957.69
453.971	953.69
454.192	965.69
454.412	935.69
454.633	946.69
454.853	928.69
455.073	931.69
455.294	929.69
455.514	915.69
455.734	913.69
455.955	924.69
456.175	926.69
456.395	890.69
456.616	912.69
456.836	936.69
457.056	913.69
457.276	883.69
457.497	918.69
457.717	913.69
457.937	925.69
458.157	908.69
458.377	937.69
458.598	955.69
458.818	985.69
459.038	1029.69
459.258	1063.69
459.478	1081.69
459.698	1102.69
459.918	1134.69
460.138	1139.69
460.358	1238.69
460.578	1253.69
460.798	1257.69
461.018	1291.69
461.238	1255.69
461.458	1248.69
461.678	1256.69
461.898	1268.69
462.118	1294.69
462.338	1351.69
462.558	1355.69
462.777	1403.69
462.997	1540.69
463.217	1663.69
463.437	1675.69
463.657	1542.69
463.876	1479.69
464.096	1468.69
464.316	1433.69
464.536	1470.69
464.755	1410.69
464.975	1349.69
465.195	1323.69
465.414	1235.69
465.634	1186.69
465.854	1128.69
466.073	1133.69
466.293	1089.69
466.512	1073.69
466.732	1040.69
466.951	1012.69
467.171	996.69
467.391	1019.69
467.61	1059.69
467.829	985.69
468.049	1008.69
468.268	976.69
468.488	993.69
468.707	1008.69
468.927	981.69
469.146	996.69
469.365	986.69
469.585	997.69
469.804	1021.69
470.023	1057.69
470.243	1084.69
470.462	1058.69
470.681	1084.69
470.901	1069.69
471.12	1097.69
471.339	1061.69
471.558	999.69
471.777	1008.69
471.997	998.69
472.216	984.69
472.435	995.69
472.654	971.69
472.873	972.69
473.092	967.69
473.311	972.69
473.53	949.69
473.749	966.69
473.968	948.69
474.187	968.69
474.406	950.69
474.625	952.69
474.844	952.69
475.063	957.69
475.282	957.69
475.501	988.69
475.72	984.69
475.939	972.69
476.158	1004.69
476.377	984.69
476.596	985.69
476.814	1001.69
477.033	996.69
477.252	1039.69
477.471	1038.69
477.69	1053.69
477.908	1085.69
478.127	1127.69
478.346	1176.69
478.564	1142.69
478.783	1187.69
479.002	1191.69
479.22	1204.69
479.439	1196.69
479.658	1194.69
479.876	1200.69
480.095	1206.69
480.313	1248.69
480.532	1264.69
480.751	1245.69
480.969	1230.69
481.188	1168.69
481.406	1165.69
481.624	1105.69
481.843	1100.69
482.061	1094.69
482.28	1078.69
482.498	1055.69
482.717	1071.69
482.935	1088.69
483.153	1105.69
483.372	1101.69
483.59	1117.69
483.808	1107.69
484.027	1106.69
484.245	1100.69
484.463	1094.69
484.681	1138.69
484.9	1134.69
485.118	1093.69
485.336	1123.69
485.554	1155.69
485.772	1114.69
485.99	1148.69
486.209	1181.69
486.427	1133.69
486.645	1146.69
486.863	1142.69
487.081	1180.69
487.299	1132.69
487.517	1128.69
487.735	1125.69
487.953	1140.69
488.171	1140.69
488.389	1133.69
488.607	1163.69
488.825	1139.69
489.043	1124.69
489.261	1134.69
489.479	1150.69
489.696	1118.69
489.914	1143.69
490.132	1164.69
490.35	1137.69
490.568	1148.69
490.786	1131.69
491.003	1152.69
491.221	1166.69
491.439	1149.69
491.657	1172.69
491.874	1174.69
492.092	1179.69
492.31	1214.69
492.527	1167.69
492.745	1169.69
492.963	1217.69
493.18	1197.69
493.398	1194.69
493.615	1168.69
493.833	1194.69
494.05	1196.69
494.268	1212.69
494.485	1202.69
494.703	1203.69
494.92	1206.69
495.138	1214.69
495.355	1197.69
495.573	1228.69
495.79	1235.69
496.008	1252.69
496.225	1240.69
496.442	1261.69
496.66	1259.69
496.877	1258.69
497.094	1315.69
497.312	1323.69
497.529	1379.69
497.746	1383.69
497.963	1411.69
498.181	1461.69
498.398	1572.69
498.615	1625.69
498.832	1721.69
499.049	1855.69
499.267	2012.69
499.484	2187.69
499.701	2411.69
499.918	2639.69
500.135	3021.69
500.352	3449.69
500.569	3567.69
500.786	3495.69
501.003	3272.69
501.22	2954.69
501.437	2649.69
501.654	2363.69
501.871	2128.69
502.088	1946.69
502.305	1786.69
502.522	1707.69
502.739	1637.69
502.956	1626.69
503.172	1540.69
503.389	1479.69
503.606	1410.69
503.823	1365.69
504.04	1399.69
504.256	1373.69
504.473	1440.69
504.69	1462.69
504.907	1409.69
505.123	1337.69
505.34	1282.69
505.557	1202.69
505.773	1165.69
505.99	1152.69
506.207	1119.69
506.423	1097.69
506.64	1120.69
506.856	1097.69
507.073	1059.69
507.289	1064.69
507.506	1053.69
507.722	1077.69
507.939	1050.69
508.155	1070.69
508.372	1063.69
508.588	1041.69
508.805	1031.69
509.021	1039.69
509.238	1026.69
509.454	997.69
509.67	982.69
509.887	960.69
510.103	966.69
510.319	994.69
510.536	987.69
510.752	959.69
510.968	976.69
511.184	957.69
511.401	961.69
511.617	923.69
511.833	988.69
512.049	936.69
512.265	965.69
512.481	981.69
512.698	979.69
512.914	968.69
513.13	995.69
513.346	973.69
513.562	975.69
513.778	1005.69
513.994	959.69
514.21	996.69
514.426	980.69
514.642	997.69
514.858	1002.69
515.074	983.69
515.29	1013.69
515.506	1019.69
515.721	1029.69
515.937	1044.69
516.153	1081.69
516.369	1104.69
516.585	1087.69
516.801	1159.69
517.016	1157.69
517.232	1229.69
517.448	1305.69
517.664	1337.69
517.879	1323.69
518.095	1378.69
518.311	1343.69
518.527	1264.69
518.742	1204.69
518.958	1220.69
519.173	1129.69
519.389	1110.69
519.605	1066.69
519.82	1044.69
520.036	1048.69
520.251	975.69
520.467	969.69
520.682	989.69
520.898	982.69
521.113	961.69
521.329	961.69
521.544	955.69
521.76	908.69
521.975	932.69
522.19	920.69
522.406	938.69
522.621	902.69
522.836	940.69
523.052	916.69
523.267	909.69
523.482	935.69
523.698	901.69
523.913	913.69
524.128	903.69
524.343	908.69
524.559	895.69
524.774	897.69
524.989	889.69
525.204	914.69
525.419	907.69
525.634	896.69
525.849	911.69
526.064	871.69
526.28	882.69
526.495	866.69
526.71	852.69
526.925	872.69
527.14	841.69
527.355	864.69
527.57	852.69
527.785	864.69
527.999	864.69
528.214	857.69
528.429	861.69
528.644	900.69
528.859	861.69
529.074	873.69
529.289	868.69
529.503	869.69
529.718	878.69
529.933	868.69
530.148	891.69
530.363	878.69
530.577	882.69
530.792	862.69
531.007	886.69
531.221	889.69
531.436	877.69
531.651	850.69
531.865	867.69
532.08	887.69
532.295	860.69
532.509	857.69
532.724	851.69
532.938	857.69
533.153	845.69
533.367	872.69
533.582	880.69
533.796	854.69
534.011	860.69
534.225	861.69
534.44	835.69
534.654	866.69
534.868	858.69
535.083	850.69
535.297	850.69
535.511	852.69
535.726	816.69
535.94	832.69
536.154	810.69
536.369	791.69
536.583	777.69
536.797	810.69
537.011	831.69
537.225	811.69
537.44	798.69
537.654	833.69
537.868	790.69
538.082	797.69
538.296	813.69
538.51	803.69
538.724	788.69
538.938	773.69
539.153	795.69
539.367	805.69
539.581	790.69
539.795	801.69
540.009	800.69
540.222	785.69
540.436	801.69
540.65	772.69
540.864	773.69
541.078	756.69
541.292	777.69
541.506	800.69
541.72	803.69
541.934	790.69
542.147	814.69
542.361	769.69
542.575	759.69
542.789	800.69
543.002	765.69
543.216	753.69
543.43	788.69
543.644	778.69
543.857	742.69
544.071	771.69
544.285	794.69
544.498	763.69
544.712	802.69
544.925	790.69
545.139	804.69
545.352	808.69
545.566	806.69
545.779	825.69
545.993	793.69
546.206	823.69
546.42	797.69
546.633	818.69
546.847	776.69
547.06	795.69
547.274	806.69
547.487	806.69
547.7	787.69
547.914	800.69
548.127	814.69
548.34	831.69
548.554	792.69
548.767	820.69
548.98	796.69
549.193	792.69
549.407	820.69
549.62	827.69
549.833	852.69
550.046	824.69
550.259	794.69
550.473	788.69
550.686	797.69
550.899	790.69
551.112	792.69
551.325	782.69
551.538	786.69
551.751	784.69
551.964	757.69
552.177	816.69
552.39	801.69
552.603	835.69
552.816	849.69
553.029	869.69
553.242	872.69
553.455	860.69
553.667	884.69
553.88	870.69
554.093	851.69
554.306	811.69
554.519	806.69
554.732	771.69
554.944	792.69
555.157	763.69
555.37	758.69
555.583	750.69
555.795	723.69
556.008	732.69
556.221	694.69
556.433	690.69
556.646	684.69
556.859	694.69
557.071	721.69
557.284	680.69
557.496	678.69
557.709	681.69
557.921	676.69
558.134	688.69
558.346	666.69
558.559	697.69
558.771	691.69
558.984	678.69
559.196	692.69
559.409	656.69
559.621	666.69
559.833	654.69
560.046	640.69
560.258	660.69
560.47	645.69
560.683	662.69
560.895	652.69
561.107	657.69
561.32	636.69
561.532	685.69
561.744	668.69
561.956	660.69
562.168	673.69
562.381	680.69
562.593	667.69
562.805	650.69
563.017	652.69
563.229	649.69
563.441	653.69
563.653	673.69
563.865	677.69
564.077	670.69
564.289	671.69
564.501	690.69
564.713	688.69
564.925	712.69
565.137	742.69
565.349	732.69
565.561	761.69
565.773	780.69
565.985	824.69
566.197	838.69
566.408	930.69
566.62	950.69
566.832	1035.69
567.044	1065.69
567.255	1072.69
567.467	1110.69
567.679	1180.69
567.891	1247.69
568.102	1262.69
568.314	1184.69
568.526	1063.69
568.737	958.69
568.949	904.69
569.161	851.69
569.372	781.69
569.584	743.69
569.795	726.69
570.007	684.69
570.218	667.69
570.43	681.69
570.641	646.69
570.853	675.69
571.064	673.69
571.276	680.69
571.487	640.69
571.698	646.69
571.91	628.69
572.121	605.69
572.333	580.69
572.544	570.69
572.755	553.69
572.966	564.69
573.178	546.69
573.389	561.69
573.6	557.69
573.811	531.69
574.023	545.69
574.234	550.69
574.445	538.69
574.656	546.69
574.867	533.69
575.078	546.69
575.289	523.69
575.501	516.69
575.712	550.69
575.923	521.69
576.134	515.69
576.345	524.69
576.556	500.69
576.767	501.69
576.978	507.69
577.188	526.69
577.399	501.69
577.61	497.69
577.821	499.69
578.032	479.69
578.243	478.69
578.454	466.69
578.665	480.69
578.875	489.69
579.086	469.69
579.297	486.69
579.508	480.69
579.718	485.69
579.929	468.69
580.14	462.69
580.35	469.69
580.561	467.69
580.772	460.69
580.982	463.69
581.193	434.69
581.403	454.69
581.614	451.69
581.825	451.69
582.035	449.69
582.246	438.69
582.456	440.69
582.667	462.69
582.877	458.69
583.087	461.69
583.298	438.69
583.508	430.69
583.719	450.69
583.929	435.69
584.139	444.69
584.35	440.69
584.56	453.69
584.77	432.69
584.981	436.69
585.191	432.69
585.401	437.69
585.611	438.69
585.821	421.69
586.032	432.69
586.242	415.69
586.452	420.69
586.662	424.69
586.872	415.69
587.082	416.69
587.292	426.69
587.502	424.69
587.713	443.69
587.923	415.69
588.133	407.69
588.343	428.69
588.553	438.69
588.762	423.69
588.972	406.69
589.182	429.69
589.392	434.69
589.602	434.69
589.812	429.69
590.022	421.69
590.232	416.69
590.441	431.69
590.651	448.69
590.861	458.69
591.071	449.69
591.281	443.69
591.49	440.69
591.7	469.69
591.91	469.69
592.119	482.69
592.329	472.69
592.539	503.69
592.748	502.69
592.958	530.69
593.167	533.69
593.377	544.69
593.587	531.69
593.796	534.69
594.006	520.69
594.215	558.69
594.424	549.69
594.634	557.69
594.843	525.69
595.053	502.69
595.262	472.69
595.472	444.69
595.681	449.69
595.89	436.69
596.1	429.69
596.309	425.69
596.518	421.69
596.727	425.69
596.937	415.69
597.146	402.69
597.355	410.69
597.564	394.69
597.774	406.69
597.983	389.69
598.192	382.69
598.401	396.69
598.61	374.69
598.819	346.69
599.028	371.69
599.237	363.69
599.446	376.69
599.655	378.69
599.864	379.69
600.073	361.69
600.282	349.69
600.491	371.69
600.7	366.69
600.909	346.69
601.118	356.69
601.327	374.69
601.536	369.69
601.745	377.69
601.953	370.69
602.162	363.69
602.371	344.69
602.58	346.69
602.789	356.69
602.997	345.69
603.206	341.69
603.415	356.69
603.623	358.69
603.832	345.69
604.041	342.69
604.249	331.69
604.458	316.69
604.666	349.69
604.875	324.69
605.084	335.69
605.292	336.69
605.501	357.69
605.709	347.69
605.918	335.69
606.126	355.69
606.334	340.69
606.543	343.69
606.751	329.69
606.96	345.69
607.168	352.69
607.376	322.69
607.585	329.69
607.793	328.69
608.001	343.69
608.21	341.69
608.418	318.69
608.626	339.69
608.834	355.69
609.043	332.69
609.251	335.69
609.459	325.69
609.667	314.69
609.875	316.69
610.083	321.69
610.291	312.69
610.499	311.69
610.707	336.69
610.916	334.69
611.124	326.69
611.332	309.69
611.54	312.69
611.748	327.69
611.955	321.69
612.163	322.69
612.371	326.69
612.579	304.69
612.787	327.69
612.995	321.69
613.203	324.69
613.411	308.69
613.618	299.69
613.826	304.69
614.034	310.69
614.242	308.69
614.449	313.69
614.657	324.69
614.865	311.69
615.072	308.69
615.28	289.69
615.488	305.69
615.695	313.69
615.903	310.69
616.111	314.69
616.318	311.69
616.526	324.69
616.733	312.69
616.941	301.69
617.148	334.69
617.356	334.69
617.563	309.69
617.771	324.69
617.978	315.69
618.185	319.69
618.393	298.69
618.6	307.69
618.807	294.69
619.015	320.69
619.222	305.69
619.429	323.69
619.637	320.69
619.844	315.69
620.051	314.69
620.258	300.69
620.466	300.69
620.673	291.69
620.88	298.69
621.087	282.69
621.294	292.69
621.501	271.69
621.708	287.69
621.915	270.69
622.122	289.69
622.329	280.69
622.536	288.69
622.743	281.69
622.95	275.69
623.157	264.69
623.364	274.69
623.571	269.69
623.778	276.69
623.985	292.69
624.192	294.69
624.399	285.69
624.606	275.69
624.812	288.69
625.019	280.69
625.226	273.69
625.433	283.69
625.639	274.69
625.846	260.69
626.053	280.69
626.259	255.69
626.466	259.69
626.673	249.69
626.879	256.69
627.086	268.69
627.293	282.69
627.499	270.69
627.706	260.69
627.912	272.69
628.119	267.69
628.325	276.69
628.532	256.69
628.738	278.69
628.945	275.69
629.151	270.69
629.357	251.69
629.564	250.69
629.77	267.69
629.976	242.69
630.183	244.69
630.389	234.69
630.595	254.69
630.802	242.69
631.008	245.69
631.214	251.69
631.42	240.69
631.627	240.69
631.833	242.69
632.039	234.69
632.245	221.69
632.451	246.69
632.657	284.69
632.863	234.69
633.069	240.69
633.275	232.69
633.481	227.69
633.688	227.69
633.893	219.69
634.099	231.69
634.305	220.69
634.511	230.69
634.717	233.69
634.923	233.69
635.129	228.69
635.335	218.69
635.541	233.69
635.747	235.69
635.952	227.69
636.158	241.69
636.364	242.69
636.57	233.69
636.775	219.69
636.981	209.69
637.187	220.69
637.392	226.69
637.598	222.69
637.804	217.69
638.009	238.69
638.215	232.69
638.421	217.69
638.626	218.69
638.832	222.69
639.037	226.69
639.243	217.69
639.448	218.69
639.654	228.69
639.859	220.69
640.065	204.69
640.27	222.69
640.475	224.69
640.681	216.69
640.886	204.69
641.091	208.69
641.297	202.69
641.502	215.69
641.707	196.69
641.913	206.69
642.118	196.69
642.323	216.69
642.528	218.69
642.733	197.69
642.939	218.69
643.144	200.69
643.349	195.69
643.554	187.69
643.759	207.69
643.964	211.69
644.169	220.69
644.374	196.69
644.579	211.69
644.784	192.69
644.989	203.69
645.194	216.69
645.399	224.69
645.604	177.69
645.809	200.69
646.014	214.69
646.219	198.69
646.423	198.69
646.628	210.69
646.833	195.69
647.038	221.69
647.243	218.69
647.447	208.69
647.652	205.69
647.857	210.69
648.062	202.69
648.266	210.69
648.471	224.69
648.676	233.69
648.88	200.69
649.085	204.69
649.289	189.69
649.494	192.69
649.698	204.69
649.903	194.69
650.107	196.69
650.312	198.69
650.516	182.69
650.721	183.69
650.925	192.69
651.13	189.69
651.334	177.69
651.539	182.69
651.743	178.69
651.947	179.69
652.152	172.69
652.356	167.69
652.56	181.69
652.764	168.69
652.969	168.69
653.173	145.69
653.377	170.69
653.581	171.69
653.785	158.69
653.99	148.69
654.194	156.69
654.398	160.69
654.602	156.69
654.806	155.69
655.01	159.69
655.214	164.69
655.418	164.69
655.622	176.69
655.826	157.69
656.03	150.69
656.234	144.69
656.438	163.69
656.642	157.69
656.846	146.69
657.049	137.69
657.253	130.69
657.457	127.69
657.661	121.69
657.865	128.69
658.068	132.69
658.272	129.69
658.476	118.69
658.68	108.69
658.883	114.69
659.087	124.69
659.291	114.69
659.494	103.69
659.698	103.69
659.901	101.69
660.105	101.69
660.309	98.69
660.512	114.69
660.716	100.69
660.919	105.69
661.123	97.69
661.326	87.69
661.53	98.69
661.733	106.69
661.936	100.69
662.14	92.69
662.343	74.69
662.546	92.69
662.75	89.69
662.953	97.69
663.156	90.69
663.36	91.69
663.563	96.69
663.766	85.69
663.969	89.69
664.173	88.69
664.376	86.69
664.579	86.69
664.782	98.69
664.985	80.69
665.188	80.69
665.391	82.69
665.594	86.69
665.797	86.69
666	88.69
666.203	89.69
666.406	75.69
666.609	85.69
666.812	82.69
667.015	83.69
667.218	78.69
667.421	89.69
667.624	79.69
667.827	88.69
668.03	94.69
668.232	73.69
668.435	70.69
668.638	91.69
668.841	79.69
669.043	82.69
669.246	87.69
669.449	85.69
669.651	86.69
669.854	76.69
670.057	73.69
670.259	80.69
670.462	71.69
670.665	87.69
670.867	85.69
671.07	74.69
671.272	70.69
671.475	90.69
671.677	73.69
671.88	83.69
672.082	71.69
672.284	83.69
672.487	88.69
672.689	71.69
672.892	96.69
