Data from NiCl2@0.25M.TitratingCurve.Agarose3%dH2O.NegLispCup.LampEnergy10.LIBS07252019_HRD10591_18-25-41-573.txt Node
Date: Thu Jul 25 18:25:41 EDT 2019
User: cochatt
Spectrometer: HR+D1059
Trigger mode: 1
Integration Time (sec): 1.000000E-1
Scans to average: 1
Electric dark correction enabled: true
Nonlinearity correction enabled: false
Boxcar width: 0
XAxis mode: Wavelengths
Number of Pixels in Spectrum: 2048
>>>>>Begin Spectral Data<<<<<
223.165	-14.44
223.4	-14.44
223.635	-14.44
223.869	-18.44
224.104	-21.44
224.338	-1.44
224.573	-8.44
224.808	-7.44
225.042	-3.44
225.277	0.56
225.511	-12.44
225.746	-3.44
225.98	-4.44
226.215	6.56
226.449	17.56
226.683	21.56
226.918	22.56
227.152	26.56
227.387	16.56
227.621	44.56
227.856	38.56
228.09	46.56
228.324	57.56
228.559	54.56
228.793	66.56
229.027	94.56
229.262	111.56
229.496	116.56
229.73	121.56
229.964	127.56
230.199	122.56
230.433	117.56
230.667	127.56
230.901	119.56
231.136	116.56
231.37	138.56
231.604	137.56
231.838	138.56
232.072	144.56
232.306	139.56
232.541	145.56
232.775	141.56
233.009	137.56
233.243	141.56
233.477	149.56
233.711	138.56
233.945	140.56
234.179	142.56
234.413	157.56
234.647	147.56
234.881	134.56
235.115	145.56
235.349	138.56
235.583	155.56
235.817	141.56
236.051	151.56
236.285	137.56
236.519	163.56
236.753	142.56
236.987	165.56
237.221	157.56
237.455	153.56
237.689	163.56
237.922	147.56
238.156	165.56
238.39	164.56
238.624	152.56
238.858	166.56
239.091	153.56
239.325	172.56
239.559	154.56
239.793	168.56
240.027	173.56
240.26	170.56
240.494	170.56
240.728	166.56
240.961	182.56
241.195	181.56
241.429	194.56
241.662	172.56
241.896	189.56
242.13	195.56
242.363	193.56
242.597	179.56
242.83	175.56
243.064	183.56
243.298	185.56
243.531	191.56
243.765	194.56
243.998	202.56
244.232	194.56
244.465	200.56
244.699	212.56
244.932	207.56
245.166	216.56
245.399	215.56
245.633	221.56
245.866	184.56
246.099	207.56
246.333	211.56
246.566	221.56
246.8	224.56
247.033	221.56
247.266	202.56
247.5	224.56
247.733	235.56
247.966	222.56
248.2	218.56
248.433	238.56
248.666	229.56
248.899	217.56
249.133	222.56
249.366	232.56
249.599	232.56
249.832	224.56
250.066	234.56
250.299	236.56
250.532	249.56
250.765	241.56
250.998	249.56
251.231	265.56
251.465	250.56
251.698	274.56
251.931	271.56
252.164	251.56
252.397	280.56
252.63	266.56
252.863	270.56
253.096	248.56
253.329	256.56
253.562	251.56
253.795	274.56
254.028	248.56
254.261	274.56
254.494	265.56
254.727	281.56
254.96	274.56
255.193	270.56
255.426	247.56
255.659	271.56
255.892	267.56
256.124	285.56
256.357	266.56
256.59	290.56
256.823	273.56
257.056	279.56
257.289	258.56
257.521	289.56
257.754	311.56
257.987	299.56
258.22	287.56
258.452	281.56
258.685	290.56
258.918	291.56
259.151	290.56
259.383	296.56
259.616	279.56
259.849	302.56
260.081	291.56
260.314	311.56
260.547	331.56
260.779	279.56
261.012	306.56
261.244	317.56
261.477	318.56
261.71	305.56
261.942	318.56
262.175	293.56
262.407	320.56
262.64	309.56
262.872	323.56
263.105	320.56
263.337	313.56
263.57	302.56
263.802	321.56
264.035	305.56
264.267	292.56
264.499	324.56
264.732	338.56
264.964	326.56
265.197	322.56
265.429	334.56
265.661	323.56
265.894	331.56
266.126	334.56
266.358	317.56
266.591	331.56
266.823	344.56
267.055	334.56
267.287	350.56
267.52	343.56
267.752	345.56
267.984	343.56
268.216	343.56
268.448	336.56
268.681	353.56
268.913	350.56
269.145	356.56
269.377	329.56
269.609	343.56
269.841	355.56
270.073	357.56
270.306	366.56
270.538	364.56
270.77	343.56
271.002	358.56
271.234	367.56
271.466	377.56
271.698	357.56
271.93	358.56
272.162	379.56
272.394	361.56
272.626	361.56
272.858	364.56
273.09	381.56
273.322	369.56
273.553	377.56
273.785	366.56
274.017	402.56
274.249	368.56
274.481	392.56
274.713	397.56
274.945	414.56
275.176	379.56
275.408	384.56
275.64	395.56
275.872	394.56
276.104	409.56
276.335	395.56
276.567	390.56
276.799	389.56
277.031	407.56
277.262	407.56
277.494	427.56
277.726	383.56
277.957	413.56
278.189	406.56
278.421	435.56
278.652	410.56
278.884	410.56
279.115	423.56
279.347	426.56
279.579	434.56
279.81	431.56
280.042	412.56
280.273	422.56
280.505	446.56
280.736	423.56
280.968	422.56
281.199	429.56
281.431	431.56
281.662	448.56
281.894	437.56
282.125	426.56
282.356	451.56
282.588	463.56
282.819	446.56
283.051	430.56
283.282	442.56
283.513	445.56
283.745	433.56
283.976	465.56
284.207	455.56
284.439	456.56
284.67	460.56
284.901	462.56
285.132	460.56
285.364	480.56
285.595	463.56
285.826	463.56
286.057	479.56
286.288	474.56
286.52	471.56
286.751	472.56
286.982	474.56
287.213	471.56
287.444	495.56
287.675	477.56
287.906	483.56
288.138	483.56
288.369	490.56
288.6	468.56
288.831	497.56
289.062	492.56
289.293	479.56
289.524	490.56
289.755	477.56
289.986	487.56
290.217	498.56
290.448	480.56
290.679	471.56
290.91	496.56
291.141	485.56
291.371	491.56
291.602	493.56
291.833	515.56
292.064	491.56
292.295	471.56
292.526	508.56
292.757	507.56
292.987	511.56
293.218	491.56
293.449	513.56
293.68	491.56
293.91	491.56
294.141	509.56
294.372	487.56
294.603	517.56
294.833	525.56
295.064	515.56
295.295	519.56
295.525	519.56
295.756	516.56
295.987	514.56
296.217	509.56
296.448	507.56
296.679	515.56
296.909	515.56
297.14	527.56
297.37	530.56
297.601	551.56
297.831	539.56
298.062	537.56
298.292	542.56
298.523	563.56
298.753	565.56
298.984	548.56
299.214	517.56
299.445	532.56
299.675	546.56
299.905	550.56
300.136	536.56
300.366	542.56
300.597	555.56
300.827	579.56
301.057	575.56
301.288	588.56
301.518	558.56
301.748	568.56
301.979	573.56
302.209	586.56
302.439	565.56
302.669	564.56
302.9	558.56
303.13	551.56
303.36	546.56
303.59	541.56
303.82	561.56
304.051	581.56
304.281	567.56
304.511	557.56
304.741	567.56
304.971	561.56
305.201	575.56
305.431	556.56
305.661	548.56
305.891	568.56
306.121	558.56
306.352	559.56
306.582	539.56
306.812	532.56
307.042	545.56
307.272	563.56
307.502	541.56
307.731	549.56
307.961	539.56
308.191	547.56
308.421	553.56
308.651	563.56
308.881	552.56
309.111	557.56
309.341	543.56
309.571	566.56
309.8	554.56
310.03	543.56
310.26	548.56
310.49	561.56
310.72	551.56
310.949	557.56
311.179	558.56
311.409	561.56
311.639	565.56
311.868	557.56
312.098	565.56
312.328	556.56
312.557	580.56
312.787	586.56
313.017	589.56
313.246	564.56
313.476	581.56
313.706	591.56
313.935	596.56
314.165	629.56
314.394	613.56
314.624	614.56
314.853	617.56
315.083	599.56
315.312	595.56
315.542	629.56
315.771	563.56
316.001	577.56
316.23	562.56
316.46	578.56
316.689	589.56
316.919	583.56
317.148	583.56
317.377	583.56
317.607	581.56
317.836	568.56
318.065	553.56
318.295	573.56
318.524	589.56
318.753	588.56
318.983	568.56
319.212	575.56
319.441	607.56
319.67	577.56
319.9	569.56
320.129	599.56
320.358	590.56
320.587	594.56
320.816	590.56
321.046	583.56
321.275	598.56
321.504	615.56
321.733	581.56
321.962	580.56
322.191	594.56
322.42	616.56
322.649	575.56
322.878	598.56
323.108	590.56
323.337	627.56
323.566	589.56
323.795	619.56
324.024	609.56
324.253	611.56
324.482	617.56
324.71	582.56
324.939	597.56
325.168	625.56
325.397	633.56
325.626	621.56
325.855	627.56
326.084	626.56
326.313	655.56
326.542	673.56
326.77	651.56
326.999	633.56
327.228	642.56
327.457	634.56
327.686	627.56
327.914	661.56
328.143	643.56
328.372	639.56
328.6	643.56
328.829	649.56
329.058	625.56
329.287	642.56
329.515	647.56
329.744	647.56
329.972	645.56
330.201	649.56
330.43	680.56
330.658	646.56
330.887	685.56
331.115	673.56
331.344	707.56
331.572	698.56
331.801	726.56
332.03	730.56
332.258	720.56
332.486	749.56
332.715	804.56
332.943	803.56
333.172	825.56
333.4	873.56
333.629	866.56
333.857	891.56
334.085	840.56
334.314	842.56
334.542	831.56
334.771	824.56
334.999	808.56
335.227	809.56
335.455	812.56
335.684	802.56
335.912	791.56
336.14	754.56
336.369	790.56
336.597	793.56
336.825	772.56
337.053	757.56
337.281	771.56
337.51	742.56
337.738	758.56
337.966	732.56
338.194	714.56
338.422	711.56
338.65	707.56
338.878	713.56
339.106	699.56
339.334	713.56
339.562	689.56
339.79	679.56
340.018	687.56
340.246	662.56
340.474	663.56
340.702	674.56
340.93	678.56
341.158	667.56
341.386	674.56
341.614	682.56
341.842	692.56
342.07	694.56
342.298	645.56
342.526	657.56
342.754	678.56
342.981	689.56
343.209	661.56
343.437	713.56
343.665	754.56
343.893	801.56
344.12	843.56
344.348	788.56
344.576	747.56
344.804	723.56
345.031	697.56
345.259	701.56
345.487	669.56
345.714	649.56
345.942	639.56
346.17	684.56
346.397	661.56
346.625	629.56
346.853	668.56
347.08	640.56
347.308	641.56
347.535	659.56
347.763	650.56
347.99	641.56
348.218	648.56
348.445	660.56
348.673	667.56
348.9	647.56
349.128	636.56
349.355	649.56
349.583	644.56
349.81	641.56
350.037	611.56
350.265	646.56
350.492	641.56
350.72	609.56
350.947	601.56
351.174	621.56
351.402	638.56
351.629	634.56
351.856	612.56
352.083	626.56
352.311	619.56
352.538	629.56
352.765	598.56
352.992	623.56
353.22	606.56
353.447	600.56
353.674	595.56
353.901	615.56
354.128	615.56
354.355	589.56
354.583	639.56
354.81	640.56
355.037	622.56
355.264	621.56
355.491	626.56
355.718	624.56
355.945	634.56
356.172	638.56
356.399	629.56
356.626	617.56
356.853	611.56
357.08	635.56
357.307	643.56
357.534	614.56
357.761	632.56
357.988	629.56
358.215	618.56
358.441	603.56
358.668	625.56
358.895	596.56
359.122	626.56
359.349	633.56
359.576	628.56
359.802	639.56
360.029	623.56
360.256	625.56
360.483	622.56
360.709	649.56
360.936	629.56
361.163	614.56
361.39	612.56
361.616	630.56
361.843	635.56
362.07	626.56
362.296	626.56
362.523	634.56
362.749	621.56
362.976	628.56
363.203	624.56
363.429	615.56
363.656	622.56
363.882	630.56
364.109	636.56
364.335	629.56
364.562	638.56
364.788	616.56
365.015	618.56
365.241	599.56
365.468	588.56
365.694	609.56
365.92	630.56
366.147	627.56
366.373	628.56
366.599	618.56
366.826	612.56
367.052	602.56
367.278	622.56
367.505	619.56
367.731	628.56
367.957	638.56
368.184	638.56
368.41	640.56
368.636	647.56
368.862	648.56
369.089	627.56
369.315	637.56
369.541	645.56
369.767	660.56
369.993	659.56
370.219	655.56
370.445	663.56
370.672	684.56
370.898	683.56
371.124	701.56
371.35	679.56
371.576	691.56
371.802	684.56
372.028	652.56
372.254	702.56
372.48	664.56
372.706	711.56
372.932	737.56
373.158	713.56
373.384	693.56
373.61	690.56
373.835	698.56
374.061	714.56
374.287	701.56
374.513	697.56
374.739	700.56
374.965	759.56
375.191	763.56
375.416	776.56
375.642	744.56
375.868	710.56
376.094	709.56
376.319	698.56
376.545	695.56
376.771	699.56
376.997	701.56
377.222	695.56
377.448	676.56
377.674	663.56
377.899	690.56
378.125	664.56
378.35	686.56
378.576	678.56
378.802	664.56
379.027	691.56
379.253	694.56
379.478	668.56
379.704	668.56
379.929	661.56
380.155	662.56
380.38	673.56
380.606	708.56
380.831	676.56
381.057	684.56
381.282	695.56
381.507	674.56
381.733	674.56
381.958	685.56
382.184	675.56
382.409	700.56
382.634	718.56
382.86	704.56
383.085	759.56
383.31	753.56
383.535	743.56
383.761	751.56
383.986	788.56
384.211	783.56
384.436	801.56
384.662	804.56
384.887	838.56
385.112	827.56
385.337	845.56
385.562	818.56
385.787	833.56
386.013	846.56
386.238	825.56
386.463	836.56
386.688	833.56
386.913	818.56
387.138	821.56
387.363	817.56
387.588	789.56
387.813	797.56
388.038	823.56
388.263	838.56
388.488	800.56
388.713	813.56
388.938	803.56
389.163	777.56
389.387	788.56
389.612	793.56
389.837	810.56
390.062	786.56
390.287	818.56
390.512	821.56
390.736	789.56
390.961	830.56
391.186	847.56
391.411	827.56
391.636	885.56
391.86	923.56
392.085	920.56
392.31	936.56
392.534	897.56
392.759	882.56
392.984	885.56
393.208	852.56
393.433	864.56
393.658	847.56
393.882	888.56
394.107	891.56
394.331	886.56
394.556	846.56
394.78	884.56
395.005	883.56
395.229	877.56
395.454	929.56
395.678	947.56
395.903	935.56
396.127	912.56
396.352	894.56
396.576	861.56
396.801	855.56
397.025	866.56
397.249	908.56
397.474	924.56
397.698	916.56
397.922	917.56
398.147	911.56
398.371	949.56
398.595	971.56
398.82	1009.56
399.044	1100.56
399.268	1207.56
399.492	1391.56
399.717	1596.56
399.941	1614.56
400.165	1423.56
400.389	1261.56
400.613	1129.56
400.837	1077.56
401.062	1085.56
401.286	1057.56
401.51	1049.56
401.734	1009.56
401.958	1044.56
402.182	1025.56
402.406	1075.56
402.63	1089.56
402.854	1093.56
403.078	1118.56
403.302	1159.56
403.526	1183.56
403.75	1221.56
403.974	1214.56
404.198	1195.56
404.422	1225.56
404.645	1230.56
404.869	1168.56
405.093	1186.56
405.317	1181.56
405.541	1155.56
405.765	1156.56
405.988	1137.56
406.212	1154.56
406.436	1122.56
406.66	1157.56
406.883	1190.56
407.107	1253.56
407.331	1324.56
407.555	1380.56
407.778	1363.56
408.002	1287.56
408.226	1258.56
408.449	1250.56
408.673	1225.56
408.896	1171.56
409.12	1156.56
409.344	1198.56
409.567	1190.56
409.791	1198.56
410.014	1183.56
410.238	1166.56
410.461	1121.56
410.685	1143.56
410.908	1120.56
411.132	1124.56
411.355	1052.56
411.578	1059.56
411.802	1056.56
412.025	1077.56
412.249	1100.56
412.472	1060.56
412.695	1086.56
412.919	1067.56
413.142	1031.56
413.365	1065.56
413.589	1014.56
413.812	1042.56
414.035	1009.56
414.258	1019.56
414.482	1045.56
414.705	1063.56
414.928	1052.56
415.151	1045.56
415.374	1038.56
415.597	1039.56
415.821	1008.56
416.044	1021.56
416.267	976.56
416.49	987.56
416.713	1022.56
416.936	1043.56
417.159	993.56
417.382	1020.56
417.605	1013.56
417.828	1014.56
418.051	1042.56
418.274	1001.56
418.497	993.56
418.72	1018.56
418.943	1045.56
419.166	1097.56
419.389	1171.56
419.611	1142.56
419.834	1095.56
420.057	1057.56
420.28	1048.56
420.503	1005.56
420.726	1006.56
420.948	1015.56
421.171	1012.56
421.394	1015.56
421.617	1009.56
421.839	1043.56
422.062	1013.56
422.285	1022.56
422.507	1057.56
422.73	1041.56
422.953	1064.56
423.175	1078.56
423.398	1086.56
423.621	1073.56
423.843	1129.56
424.066	1116.56
424.288	1092.56
424.511	1077.56
424.733	1071.56
424.956	1059.56
425.178	1043.56
425.401	1029.56
425.623	1023.56
425.846	970.56
426.068	977.56
426.291	961.56
426.513	938.56
426.735	956.56
426.958	945.56
427.18	914.56
427.402	919.56
427.625	941.56
427.847	902.56
428.069	918.56
428.292	917.56
428.514	901.56
428.736	917.56
428.958	902.56
429.181	869.56
429.403	868.56
429.625	881.56
429.847	849.56
430.069	843.56
430.292	884.56
430.514	851.56
430.736	905.56
430.958	865.56
431.18	888.56
431.402	885.56
431.624	892.56
431.846	939.56
432.068	917.56
432.29	939.56
432.512	906.56
432.734	910.56
432.956	905.56
433.178	940.56
433.4	910.56
433.622	915.56
433.844	921.56
434.066	903.56
434.287	901.56
434.509	955.56
434.731	980.56
434.953	1024.56
435.175	1007.56
435.397	1000.56
435.618	958.56
435.84	925.56
436.062	906.56
436.284	913.56
436.505	906.56
436.727	916.56
436.949	892.56
437.17	894.56
437.392	866.56
437.614	881.56
437.835	871.56
438.057	851.56
438.278	837.56
438.5	848.56
438.721	853.56
438.943	871.56
439.165	841.56
439.386	905.56
439.608	898.56
439.829	884.56
440.05	895.56
440.272	890.56
440.493	892.56
440.715	924.56
440.936	919.56
441.158	933.56
441.379	962.56
441.6	1032.56
441.822	1014.56
442.043	1030.56
442.264	997.56
442.486	967.56
442.707	991.56
442.928	999.56
443.149	981.56
443.371	998.56
443.592	1003.56
443.813	1067.56
444.034	1040.56
444.255	1065.56
444.476	1140.56
444.698	1207.56
444.919	1246.56
445.14	1281.56
445.361	1144.56
445.582	1043.56
445.803	967.56
446.024	925.56
446.245	931.56
446.466	933.56
446.687	915.56
446.908	925.56
447.129	887.56
447.35	890.56
447.571	852.56
447.792	842.56
448.013	873.56
448.234	824.56
448.455	833.56
448.675	847.56
448.896	824.56
449.117	838.56
449.338	821.56
449.559	806.56
449.779	818.56
450	821.56
450.221	791.56
450.442	837.56
450.662	823.56
450.883	841.56
451.104	815.56
451.324	837.56
451.545	828.56
451.766	834.56
451.986	815.56
452.207	799.56
452.428	805.56
452.648	829.56
452.869	784.56
453.089	819.56
453.31	826.56
453.53	797.56
453.751	813.56
453.971	792.56
454.192	773.56
454.412	794.56
454.633	765.56
454.853	777.56
455.073	781.56
455.294	791.56
455.514	753.56
455.734	761.56
455.955	762.56
456.175	780.56
456.395	777.56
456.616	782.56
456.836	770.56
457.056	757.56
457.276	741.56
457.497	746.56
457.717	749.56
457.937	754.56
458.157	777.56
458.377	780.56
458.598	799.56
458.818	814.56
459.038	839.56
459.258	871.56
459.478	926.56
459.698	934.56
459.918	940.56
460.138	979.56
460.358	1045.56
460.578	1049.56
460.798	1085.56
461.018	1088.56
461.238	1033.56
461.458	1079.56
461.678	1056.56
461.898	1067.56
462.118	1059.56
462.338	1132.56
462.558	1157.56
462.777	1239.56
462.997	1379.56
463.217	1501.56
463.437	1475.56
463.657	1338.56
463.876	1241.56
464.096	1256.56
464.316	1242.56
464.536	1258.56
464.755	1211.56
464.975	1145.56
465.195	1107.56
465.414	1014.56
465.634	970.56
465.854	955.56
466.073	908.56
466.293	909.56
466.512	864.56
466.732	885.56
466.951	865.56
467.171	868.56
467.391	882.56
467.61	847.56
467.829	857.56
468.049	846.56
468.268	812.56
468.488	845.56
468.707	819.56
468.927	802.56
469.146	809.56
469.365	846.56
469.585	853.56
469.804	845.56
470.023	872.56
470.243	874.56
470.462	891.56
470.681	885.56
470.901	890.56
471.12	894.56
471.339	883.56
471.558	823.56
471.777	842.56
471.997	817.56
472.216	823.56
472.435	829.56
472.654	819.56
472.873	809.56
473.092	813.56
473.311	790.56
473.53	759.56
473.749	810.56
473.968	793.56
474.187	778.56
474.406	775.56
474.625	809.56
474.844	802.56
475.063	804.56
475.282	796.56
475.501	813.56
475.72	801.56
475.939	823.56
476.158	846.56
476.377	851.56
476.596	835.56
476.814	846.56
477.033	828.56
477.252	823.56
477.471	882.56
477.69	887.56
477.908	934.56
478.127	943.56
478.346	956.56
478.564	987.56
478.783	975.56
479.002	1011.56
479.22	1007.56
479.439	1000.56
479.658	979.56
479.876	1002.56
480.095	1019.56
480.313	1034.56
480.532	1091.56
480.751	1105.56
480.969	1053.56
481.188	989.56
481.406	965.56
481.624	950.56
481.843	925.56
482.061	905.56
482.28	899.56
482.498	898.56
482.717	928.56
482.935	873.56
483.153	924.56
483.372	913.56
483.59	903.56
483.808	919.56
484.027	941.56
484.245	911.56
484.463	936.56
484.681	912.56
484.9	942.56
485.118	959.56
485.336	945.56
485.554	942.56
485.772	966.56
485.99	966.56
486.209	967.56
486.427	975.56
486.645	928.56
486.863	958.56
487.081	956.56
487.299	948.56
487.517	956.56
487.735	975.56
487.953	969.56
488.171	959.56
488.389	946.56
488.607	942.56
488.825	930.56
489.043	941.56
489.261	946.56
489.479	931.56
489.696	977.56
489.914	967.56
490.132	954.56
490.35	968.56
490.568	970.56
490.786	958.56
491.003	935.56
491.221	976.56
491.439	1002.56
491.657	955.56
491.874	980.56
492.092	975.56
492.31	985.56
492.527	987.56
492.745	997.56
492.963	979.56
493.18	980.56
493.398	991.56
493.615	1001.56
493.833	1020.56
494.05	1008.56
494.268	1013.56
494.485	1042.56
494.703	1044.56
494.92	1015.56
495.138	1039.56
495.355	1008.56
495.573	1013.56
495.79	1044.56
496.008	1054.56
496.225	1070.56
496.442	1062.56
496.66	1077.56
496.877	1087.56
497.094	1118.56
497.312	1094.56
497.529	1145.56
497.746	1203.56
497.963	1206.56
498.181	1235.56
498.398	1307.56
498.615	1390.56
498.832	1488.56
499.049	1601.56
499.267	1774.56
499.484	1925.56
499.701	2168.56
499.918	2365.56
500.135	2723.56
500.352	3113.56
500.569	3301.56
500.786	3242.56
501.003	3010.56
501.22	2626.56
501.437	2318.56
501.654	2053.56
501.871	1852.56
502.088	1694.56
502.305	1575.56
502.522	1454.56
502.739	1444.56
502.956	1369.56
503.172	1273.56
503.389	1222.56
503.606	1187.56
503.823	1182.56
504.04	1181.56
504.256	1166.56
504.473	1227.56
504.69	1266.56
504.907	1235.56
505.123	1126.56
505.34	1081.56
505.557	1054.56
505.773	1016.56
505.99	967.56
506.207	979.56
506.423	947.56
506.64	937.56
506.856	941.56
507.073	915.56
507.289	915.56
507.506	903.56
507.722	883.56
507.939	899.56
508.155	900.56
508.372	868.56
508.588	870.56
508.805	869.56
509.021	867.56
509.238	840.56
509.454	851.56
509.67	841.56
509.887	857.56
510.103	815.56
510.319	817.56
510.536	823.56
510.752	858.56
510.968	828.56
511.184	840.56
511.401	790.56
511.617	821.56
511.833	821.56
512.049	799.56
512.265	802.56
512.481	860.56
512.698	798.56
512.914	837.56
513.13	819.56
513.346	819.56
513.562	846.56
513.778	834.56
513.994	807.56
514.21	838.56
514.426	842.56
514.642	838.56
514.858	843.56
515.074	843.56
515.29	868.56
515.506	840.56
515.721	853.56
515.937	883.56
516.153	893.56
516.369	932.56
516.585	967.56
516.801	994.56
517.016	1013.56
517.232	1073.56
517.448	1133.56
517.664	1171.56
517.879	1191.56
518.095	1211.56
518.311	1173.56
518.527	1123.56
518.742	1072.56
518.958	994.56
519.173	965.56
519.389	952.56
519.605	932.56
519.82	912.56
520.036	897.56
520.251	866.56
520.467	853.56
520.682	851.56
520.898	808.56
521.113	796.56
521.329	813.56
521.544	824.56
521.76	809.56
521.975	786.56
522.19	781.56
522.406	819.56
522.621	798.56
522.836	759.56
523.052	794.56
523.267	755.56
523.482	770.56
523.698	764.56
523.913	733.56
524.128	767.56
524.343	785.56
524.559	766.56
524.774	751.56
524.989	745.56
525.204	758.56
525.419	757.56
525.634	724.56
525.849	750.56
526.064	762.56
526.28	738.56
526.495	744.56
526.71	719.56
526.925	755.56
527.14	758.56
527.355	743.56
527.57	744.56
527.785	732.56
527.999	734.56
528.214	759.56
528.429	741.56
528.644	720.56
528.859	745.56
529.074	746.56
529.289	746.56
529.503	767.56
529.718	740.56
529.933	724.56
530.148	738.56
530.363	740.56
530.577	710.56
530.792	745.56
531.007	742.56
531.221	748.56
531.436	743.56
531.651	747.56
531.865	741.56
532.08	736.56
532.295	753.56
532.509	756.56
532.724	748.56
532.938	739.56
533.153	737.56
533.367	749.56
533.582	714.56
533.796	738.56
534.011	749.56
534.225	736.56
534.44	706.56
534.654	738.56
534.868	710.56
535.083	703.56
535.297	712.56
535.511	706.56
535.726	731.56
535.94	697.56
536.154	685.56
536.369	696.56
536.583	683.56
536.797	683.56
537.011	702.56
537.225	677.56
537.44	686.56
537.654	697.56
537.868	695.56
538.082	657.56
538.296	662.56
538.51	637.56
538.724	674.56
538.938	666.56
539.153	664.56
539.367	697.56
539.581	682.56
539.795	657.56
540.009	681.56
540.222	654.56
540.436	665.56
540.65	691.56
540.864	676.56
541.078	667.56
541.292	673.56
541.506	658.56
541.72	679.56
541.934	687.56
542.147	668.56
542.361	658.56
542.575	643.56
542.789	653.56
543.002	640.56
543.216	646.56
543.43	665.56
543.644	668.56
543.857	644.56
544.071	673.56
544.285	701.56
544.498	671.56
544.712	668.56
544.925	691.56
545.139	685.56
545.352	673.56
545.566	690.56
545.779	679.56
545.993	693.56
546.206	703.56
546.42	678.56
546.633	681.56
546.847	664.56
547.06	674.56
547.274	685.56
547.487	671.56
547.7	691.56
547.914	686.56
548.127	697.56
548.34	693.56
548.554	673.56
548.767	693.56
548.98	697.56
549.193	710.56
549.407	708.56
549.62	719.56
549.833	692.56
550.046	691.56
550.259	700.56
550.473	676.56
550.686	669.56
550.899	659.56
551.112	667.56
551.325	655.56
551.538	663.56
551.751	651.56
551.964	667.56
552.177	707.56
552.39	702.56
552.603	712.56
552.816	728.56
553.029	734.56
553.242	747.56
553.455	762.56
553.667	756.56
553.88	745.56
554.093	721.56
554.306	690.56
554.519	685.56
554.732	680.56
554.944	662.56
555.157	664.56
555.37	651.56
555.583	647.56
555.795	614.56
556.008	597.56
556.221	591.56
556.433	606.56
556.646	609.56
556.859	612.56
557.071	593.56
557.284	581.56
557.496	586.56
557.709	612.56
557.921	606.56
558.134	585.56
558.346	595.56
558.559	579.56
558.771	555.56
558.984	563.56
559.196	581.56
559.409	560.56
559.621	567.56
559.833	573.56
560.046	548.56
560.258	575.56
560.47	573.56
560.683	573.56
560.895	572.56
561.107	553.56
561.32	553.56
561.532	537.56
561.744	554.56
561.956	557.56
562.168	555.56
562.381	583.56
562.593	568.56
562.805	549.56
563.017	549.56
563.229	564.56
563.441	569.56
563.653	568.56
563.865	565.56
564.077	578.56
564.289	571.56
564.501	579.56
564.713	569.56
564.925	620.56
565.137	620.56
565.349	646.56
565.561	629.56
565.773	679.56
565.985	713.56
566.197	750.56
566.408	798.56
566.62	864.56
566.832	943.56
567.044	965.56
567.255	924.56
567.467	963.56
567.679	1053.56
567.891	1136.56
568.102	1134.56
568.314	1087.56
568.526	957.56
568.737	879.56
568.949	795.56
569.161	706.56
569.372	659.56
569.584	634.56
569.795	619.56
570.007	605.56
570.218	584.56
570.43	572.56
570.641	584.56
570.853	576.56
571.064	584.56
571.276	599.56
571.487	577.56
571.698	540.56
571.91	528.56
572.121	520.56
572.333	509.56
572.544	502.56
572.755	510.56
572.966	493.56
573.178	513.56
573.389	466.56
573.6	463.56
573.811	463.56
574.023	477.56
574.234	473.56
574.445	445.56
574.656	483.56
574.867	450.56
575.078	465.56
575.289	458.56
575.501	435.56
575.712	447.56
575.923	453.56
576.134	441.56
576.345	434.56
576.556	441.56
576.767	422.56
576.978	431.56
577.188	449.56
577.399	411.56
577.61	447.56
577.821	413.56
578.032	416.56
578.243	396.56
578.454	425.56
578.665	407.56
578.875	411.56
579.086	409.56
579.297	409.56
579.508	407.56
579.718	408.56
579.929	426.56
580.14	394.56
580.35	405.56
580.561	407.56
580.772	391.56
580.982	398.56
581.193	391.56
581.403	396.56
581.614	399.56
581.825	405.56
582.035	387.56
582.246	381.56
582.456	379.56
582.667	391.56
582.877	387.56
583.087	386.56
583.298	392.56
583.508	376.56
583.719	380.56
583.929	399.56
584.139	390.56
584.35	364.56
584.56	373.56
584.77	383.56
584.981	382.56
585.191	370.56
585.401	373.56
585.611	372.56
585.821	368.56
586.032	370.56
586.242	383.56
586.452	373.56
586.662	370.56
586.872	384.56
587.082	376.56
587.292	380.56
587.502	350.56
587.713	365.56
587.923	357.56
588.133	385.56
588.343	385.56
588.553	366.56
588.762	377.56
588.972	373.56
589.182	372.56
589.392	382.56
589.602	367.56
589.812	370.56
590.022	373.56
590.232	377.56
590.441	371.56
590.651	366.56
590.861	393.56
591.071	391.56
591.281	376.56
591.49	409.56
591.7	389.56
591.91	394.56
592.119	407.56
592.329	414.56
592.539	425.56
592.748	439.56
592.958	451.56
593.167	476.56
593.377	466.56
593.587	489.56
593.796	485.56
594.006	498.56
594.215	500.56
594.424	515.56
594.634	476.56
594.843	468.56
595.053	433.56
595.262	405.56
595.472	420.56
595.681	370.56
595.89	396.56
596.1	382.56
596.309	379.56
596.518	363.56
596.727	358.56
596.937	368.56
597.146	345.56
597.355	347.56
597.564	346.56
597.774	334.56
597.983	324.56
598.192	353.56
598.401	336.56
598.61	329.56
598.819	314.56
599.028	327.56
599.237	348.56
599.446	291.56
599.655	335.56
599.864	306.56
600.073	302.56
600.282	317.56
600.491	316.56
600.7	305.56
600.909	311.56
601.118	324.56
601.327	316.56
601.536	309.56
601.745	313.56
601.953	324.56
602.162	293.56
602.371	290.56
602.58	307.56
602.789	326.56
602.997	297.56
603.206	296.56
603.415	299.56
603.623	293.56
603.832	315.56
604.041	292.56
604.249	292.56
604.458	297.56
604.666	320.56
604.875	305.56
605.084	286.56
605.292	298.56
605.501	297.56
605.709	285.56
605.918	291.56
606.126	274.56
606.334	283.56
606.543	298.56
606.751	286.56
606.96	269.56
607.168	291.56
607.376	300.56
607.585	279.56
607.793	279.56
608.001	290.56
608.21	289.56
608.418	280.56
608.626	291.56
608.834	276.56
609.043	299.56
609.251	283.56
609.459	281.56
609.667	286.56
609.875	271.56
610.083	285.56
610.291	266.56
610.499	294.56
610.707	276.56
610.916	277.56
611.124	270.56
611.332	283.56
611.54	292.56
611.748	269.56
611.955	288.56
612.163	259.56
612.371	274.56
612.579	292.56
612.787	286.56
612.995	278.56
613.203	272.56
613.411	286.56
613.618	273.56
613.826	278.56
614.034	255.56
614.242	256.56
614.449	269.56
614.657	279.56
614.865	264.56
615.072	278.56
615.28	265.56
615.488	260.56
615.695	272.56
615.903	260.56
616.111	269.56
616.318	269.56
616.526	256.56
616.733	272.56
616.941	271.56
617.148	279.56
617.356	264.56
617.563	283.56
617.771	298.56
617.978	285.56
618.185	287.56
618.393	286.56
618.6	277.56
618.807	277.56
619.015	269.56
619.222	274.56
619.429	262.56
619.637	261.56
619.844	272.56
620.051	261.56
620.258	265.56
620.466	246.56
620.673	234.56
620.88	245.56
621.087	236.56
621.294	239.56
621.501	254.56
621.708	271.56
621.915	259.56
622.122	267.56
622.329	252.56
622.536	233.56
622.743	253.56
622.95	249.56
623.157	242.56
623.364	238.56
623.571	223.56
623.778	225.56
623.985	241.56
624.192	236.56
624.399	234.56
624.606	226.56
624.812	261.56
625.019	249.56
625.226	251.56
625.433	221.56
625.639	237.56
625.846	228.56
626.053	234.56
626.259	225.56
626.466	243.56
626.673	230.56
626.879	241.56
627.086	241.56
627.293	247.56
627.499	221.56
627.706	231.56
627.912	223.56
628.119	231.56
628.325	237.56
628.532	228.56
628.738	214.56
628.945	221.56
629.151	220.56
629.357	220.56
629.564	228.56
629.77	227.56
629.976	217.56
630.183	227.56
630.389	217.56
630.595	222.56
630.802	202.56
631.008	223.56
631.214	217.56
631.42	199.56
631.627	221.56
631.833	214.56
632.039	210.56
632.245	212.56
632.451	195.56
632.657	202.56
632.863	196.56
633.069	193.56
633.275	207.56
633.481	196.56
633.688	204.56
633.893	207.56
634.099	220.56
634.305	205.56
634.511	189.56
634.717	205.56
634.923	210.56
635.129	187.56
635.335	218.56
635.541	209.56
635.747	199.56
635.952	203.56
636.158	202.56
636.364	203.56
636.57	187.56
636.775	194.56
636.981	201.56
637.187	191.56
637.392	186.56
637.598	215.56
637.804	190.56
638.009	181.56
638.215	207.56
638.421	186.56
638.626	191.56
638.832	188.56
639.037	197.56
639.243	182.56
639.448	195.56
639.654	180.56
639.859	170.56
640.065	190.56
640.27	198.56
640.475	194.56
640.681	183.56
640.886	169.56
641.091	163.56
641.297	201.56
641.502	166.56
641.707	193.56
641.913	184.56
642.118	173.56
642.323	189.56
642.528	177.56
642.733	173.56
642.939	173.56
643.144	186.56
643.349	193.56
643.554	197.56
643.759	171.56
643.964	173.56
644.169	174.56
644.374	175.56
644.579	168.56
644.784	174.56
644.989	180.56
645.194	166.56
645.399	172.56
645.604	173.56
645.809	190.56
646.014	171.56
646.219	180.56
646.423	187.56
646.628	185.56
646.833	182.56
647.038	193.56
647.243	174.56
647.447	185.56
647.652	183.56
647.857	199.56
648.062	188.56
648.266	201.56
648.471	187.56
648.676	198.56
648.88	182.56
649.085	196.56
649.289	192.56
649.494	198.56
649.698	173.56
649.903	183.56
650.107	199.56
650.312	181.56
650.516	173.56
650.721	174.56
650.925	162.56
651.13	165.56
651.334	157.56
651.539	155.56
651.743	164.56
651.947	159.56
652.152	159.56
652.356	160.56
652.56	153.56
652.764	156.56
652.969	149.56
653.173	141.56
653.377	147.56
653.581	134.56
653.785	148.56
653.99	140.56
654.194	139.56
654.398	149.56
654.602	144.56
654.806	135.56
655.01	152.56
655.214	144.56
655.418	142.56
655.622	143.56
655.826	141.56
656.03	133.56
656.234	124.56
656.438	120.56
656.642	140.56
656.846	135.56
657.049	113.56
657.253	119.56
657.457	122.56
657.661	127.56
657.865	125.56
658.068	125.56
658.272	103.56
658.476	109.56
658.68	121.56
658.883	102.56
659.087	104.56
659.291	121.56
659.494	106.56
659.698	95.56
659.901	95.56
660.105	96.56
660.309	91.56
660.512	98.56
660.716	92.56
660.919	90.56
661.123	100.56
661.326	92.56
661.53	89.56
661.733	93.56
661.936	99.56
662.14	92.56
662.343	92.56
662.546	91.56
662.75	107.56
662.953	86.56
663.156	85.56
663.36	86.56
663.563	91.56
663.766	95.56
663.969	88.56
664.173	93.56
664.376	87.56
664.579	75.56
664.782	97.56
664.985	81.56
665.188	87.56
665.391	91.56
665.594	94.56
665.797	89.56
666	76.56
666.203	93.56
666.406	94.56
666.609	84.56
666.812	84.56
667.015	81.56
667.218	89.56
667.421	98.56
667.624	94.56
667.827	88.56
668.03	82.56
668.232	82.56
668.435	90.56
668.638	74.56
668.841	73.56
669.043	72.56
669.246	70.56
669.449	82.56
669.651	87.56
669.854	74.56
670.057	83.56
670.259	84.56
670.462	71.56
670.665	70.56
670.867	83.56
671.07	78.56
671.272	109.56
671.475	82.56
671.677	91.56
671.88	66.56
672.082	73.56
672.284	73.56
672.487	86.56
672.689	89.56
672.892	85.56
