Data from NiCl2@0.125M.TitratingCurve.Agarose3%dH2O.NegLispCup.LampEnergy10.LIBS07252019_HRD10591_18-27-41-574.txt Node
Date: Thu Jul 25 18:27:41 EDT 2019
User: cochatt
Spectrometer: HR+D1059
Trigger mode: 1
Integration Time (sec): 1.000000E-1
Scans to average: 1
Electric dark correction enabled: true
Nonlinearity correction enabled: false
Boxcar width: 0
XAxis mode: Wavelengths
Number of Pixels in Spectrum: 2048
>>>>>Begin Spectral Data<<<<<
223.165	-3.31
223.4	-3.31
223.635	-3.31
223.869	-16.31
224.104	-2.31
224.338	-20.31
224.573	-9.31
224.808	0.69
225.042	-8.31
225.277	-18.31
225.511	-6.31
225.746	-3.31
225.98	4.69
226.215	2.69
226.449	12.69
226.683	22.69
226.918	23.69
227.152	20.69
227.387	43.69
227.621	36.69
227.856	35.69
228.09	41.69
228.324	43.69
228.559	50.69
228.793	71.69
229.027	129.69
229.262	136.69
229.496	139.69
229.73	154.69
229.964	158.69
230.199	143.69
230.433	158.69
230.667	175.69
230.901	154.69
231.136	158.69
231.37	170.69
231.604	165.69
231.838	188.69
232.072	181.69
232.306	178.69
232.541	168.69
232.775	181.69
233.009	175.69
233.243	188.69
233.477	187.69
233.711	177.69
233.945	187.69
234.179	190.69
234.413	193.69
234.647	206.69
234.881	179.69
235.115	177.69
235.349	177.69
235.583	186.69
235.817	202.69
236.051	192.69
236.285	199.69
236.519	209.69
236.753	207.69
236.987	197.69
237.221	177.69
237.455	207.69
237.689	204.69
237.922	226.69
238.156	222.69
238.39	210.69
238.624	203.69
238.858	209.69
239.091	218.69
239.325	230.69
239.559	221.69
239.793	214.69
240.027	232.69
240.26	254.69
240.494	232.69
240.728	251.69
240.961	248.69
241.195	228.69
241.429	251.69
241.662	232.69
241.896	231.69
242.13	242.69
242.363	261.69
242.597	267.69
242.83	257.69
243.064	267.69
243.298	267.69
243.531	267.69
243.765	292.69
243.998	269.69
244.232	267.69
244.465	289.69
244.699	290.69
244.932	297.69
245.166	295.69
245.399	302.69
245.633	274.69
245.866	306.69
246.099	313.69
246.333	292.69
246.566	297.69
246.8	323.69
247.033	319.69
247.266	310.69
247.5	313.69
247.733	313.69
247.966	311.69
248.2	317.69
248.433	322.69
248.666	311.69
248.899	335.69
249.133	322.69
249.366	332.69
249.599	344.69
249.832	333.69
250.066	344.69
250.299	331.69
250.532	331.69
250.765	334.69
250.998	355.69
251.231	339.69
251.465	376.69
251.698	365.69
251.931	384.69
252.164	376.69
252.397	359.69
252.63	377.69
252.863	365.69
253.096	388.69
253.329	374.69
253.562	401.69
253.795	371.69
254.028	376.69
254.261	370.69
254.494	371.69
254.727	405.69
254.96	389.69
255.193	392.69
255.426	390.69
255.659	381.69
255.892	407.69
256.124	405.69
256.357	416.69
256.59	402.69
256.823	415.69
257.056	407.69
257.289	420.69
257.521	422.69
257.754	419.69
257.987	428.69
258.22	417.69
258.452	403.69
258.685	423.69
258.918	425.69
259.151	430.69
259.383	412.69
259.616	424.69
259.849	428.69
260.081	444.69
260.314	443.69
260.547	451.69
260.779	418.69
261.012	443.69
261.244	451.69
261.477	457.69
261.71	445.69
261.942	459.69
262.175	468.69
262.407	456.69
262.64	457.69
262.872	458.69
263.105	466.69
263.337	483.69
263.57	482.69
263.802	460.69
264.035	466.69
264.267	489.69
264.499	471.69
264.732	477.69
264.964	509.69
265.197	493.69
265.429	498.69
265.661	478.69
265.894	499.69
266.126	492.69
266.358	506.69
266.591	494.69
266.823	507.69
267.055	518.69
267.287	533.69
267.52	507.69
267.752	515.69
267.984	529.69
268.216	511.69
268.448	533.69
268.681	531.69
268.913	513.69
269.145	519.69
269.377	510.69
269.609	522.69
269.841	526.69
270.073	553.69
270.306	534.69
270.538	550.69
270.77	526.69
271.002	540.69
271.234	539.69
271.466	538.69
271.698	550.69
271.93	558.69
272.162	549.69
272.394	548.69
272.626	543.69
272.858	567.69
273.09	587.69
273.322	579.69
273.553	563.69
273.785	606.69
274.017	579.69
274.249	570.69
274.481	586.69
274.713	566.69
274.945	559.69
275.176	585.69
275.408	606.69
275.64	583.69
275.872	591.69
276.104	594.69
276.335	606.69
276.567	602.69
276.799	595.69
277.031	621.69
277.262	622.69
277.494	602.69
277.726	625.69
277.957	597.69
278.189	615.69
278.421	615.69
278.652	616.69
278.884	613.69
279.115	632.69
279.347	629.69
279.579	665.69
279.81	639.69
280.042	638.69
280.273	650.69
280.505	646.69
280.736	664.69
280.968	655.69
281.199	675.69
281.431	655.69
281.662	667.69
281.894	655.69
282.125	672.69
282.356	677.69
282.588	669.69
282.819	663.69
283.051	686.69
283.282	663.69
283.513	666.69
283.745	698.69
283.976	683.69
284.207	694.69
284.439	669.69
284.67	710.69
284.901	711.69
285.132	710.69
285.364	706.69
285.595	715.69
285.826	711.69
286.057	712.69
286.288	718.69
286.52	729.69
286.751	741.69
286.982	706.69
287.213	747.69
287.444	728.69
287.675	754.69
287.906	765.69
288.138	742.69
288.369	755.69
288.6	732.69
288.831	748.69
289.062	738.69
289.293	750.69
289.524	745.69
289.755	758.69
289.986	750.69
290.217	732.69
290.448	750.69
290.679	755.69
290.91	780.69
291.141	742.69
291.371	769.69
291.602	758.69
291.833	769.69
292.064	769.69
292.295	776.69
292.526	744.69
292.757	781.69
292.987	750.69
293.218	741.69
293.449	780.69
293.68	761.69
293.91	778.69
294.141	768.69
294.372	774.69
294.603	773.69
294.833	778.69
295.064	750.69
295.295	754.69
295.525	769.69
295.756	796.69
295.987	774.69
296.217	764.69
296.448	789.69
296.679	788.69
296.909	803.69
297.14	826.69
297.37	797.69
297.601	830.69
297.831	799.69
298.062	819.69
298.292	801.69
298.523	841.69
298.753	852.69
298.984	830.69
299.214	819.69
299.445	868.69
299.675	832.69
299.905	834.69
300.136	827.69
300.366	855.69
300.597	843.69
300.827	874.69
301.057	870.69
301.288	870.69
301.518	894.69
301.748	867.69
301.979	891.69
302.209	865.69
302.439	873.69
302.669	886.69
302.9	885.69
303.13	851.69
303.36	862.69
303.59	901.69
303.82	853.69
304.051	857.69
304.281	871.69
304.511	860.69
304.741	887.69
304.971	885.69
305.201	874.69
305.431	854.69
305.661	856.69
305.891	869.69
306.121	877.69
306.352	884.69
306.582	877.69
306.812	846.69
307.042	839.69
307.272	850.69
307.502	853.69
307.731	840.69
307.961	859.69
308.191	868.69
308.421	840.69
308.651	837.69
308.881	832.69
309.111	838.69
309.341	883.69
309.571	823.69
309.8	865.69
310.03	852.69
310.26	827.69
310.49	875.69
310.72	871.69
310.949	868.69
311.179	915.69
311.409	853.69
311.639	870.69
311.868	872.69
312.098	887.69
312.328	905.69
312.557	885.69
312.787	885.69
313.017	926.69
313.246	911.69
313.476	919.69
313.706	925.69
313.935	957.69
314.165	931.69
314.394	927.69
314.624	941.69
314.853	923.69
315.083	934.69
315.312	942.69
315.542	924.69
315.771	914.69
316.001	906.69
316.23	893.69
316.46	872.69
316.689	895.69
316.919	897.69
317.148	913.69
317.377	938.69
317.607	890.69
317.836	896.69
318.065	918.69
318.295	923.69
318.524	895.69
318.753	897.69
318.983	891.69
319.212	906.69
319.441	888.69
319.67	894.69
319.9	903.69
320.129	913.69
320.358	895.69
320.587	898.69
320.816	911.69
321.046	932.69
321.275	915.69
321.504	891.69
321.733	887.69
321.962	923.69
322.191	893.69
322.42	927.69
322.649	931.69
322.878	922.69
323.108	927.69
323.337	925.69
323.566	938.69
323.795	957.69
324.024	953.69
324.253	938.69
324.482	925.69
324.71	961.69
324.939	949.69
325.168	944.69
325.397	979.69
325.626	965.69
325.855	983.69
326.084	999.69
326.313	974.69
326.542	992.69
326.77	989.69
326.999	988.69
327.228	976.69
327.457	998.69
327.686	967.69
327.914	982.69
328.143	1004.69
328.372	995.69
328.6	988.69
328.829	982.69
329.058	1011.69
329.287	1002.69
329.515	995.69
329.744	1015.69
329.972	1019.69
330.201	1013.69
330.43	1027.69
330.658	1051.69
330.887	1042.69
331.115	1064.69
331.344	1062.69
331.572	1075.69
331.801	1085.69
332.03	1098.69
332.258	1109.69
332.486	1168.69
332.715	1193.69
332.943	1249.69
333.172	1338.69
333.4	1374.69
333.629	1404.69
333.857	1429.69
334.085	1346.69
334.314	1342.69
334.542	1320.69
334.771	1343.69
334.999	1276.69
335.227	1271.69
335.455	1269.69
335.684	1237.69
335.912	1270.69
336.14	1244.69
336.369	1228.69
336.597	1217.69
336.825	1196.69
337.053	1191.69
337.281	1161.69
337.51	1163.69
337.738	1170.69
337.966	1107.69
338.194	1109.69
338.422	1069.69
338.65	1089.69
338.878	1075.69
339.106	1075.69
339.334	1103.69
339.562	1065.69
339.79	1084.69
340.018	1089.69
340.246	1079.69
340.474	1049.69
340.702	1049.69
340.93	1062.69
341.158	1057.69
341.386	1060.69
341.614	1058.69
341.842	1053.69
342.07	1016.69
342.298	995.69
342.526	1039.69
342.754	1030.69
342.981	1047.69
343.209	1044.69
343.437	1111.69
343.665	1186.69
343.893	1320.69
344.12	1294.69
344.348	1268.69
344.576	1193.69
344.804	1159.69
345.031	1103.69
345.259	1077.69
345.487	1022.69
345.714	1035.69
345.942	1040.69
346.17	1035.69
346.397	1005.69
346.625	986.69
346.853	1013.69
347.08	996.69
347.308	982.69
347.535	997.69
347.763	1035.69
347.99	1002.69
348.218	1005.69
348.445	975.69
348.673	1007.69
348.9	1003.69
349.128	987.69
349.355	999.69
349.583	1004.69
349.81	1009.69
350.037	975.69
350.265	968.69
350.492	940.69
350.72	951.69
350.947	955.69
351.174	966.69
351.402	945.69
351.629	940.69
351.856	941.69
352.083	941.69
352.311	973.69
352.538	956.69
352.765	974.69
352.992	973.69
353.22	957.69
353.447	943.69
353.674	918.69
353.901	968.69
354.128	931.69
354.355	933.69
354.583	977.69
354.81	947.69
355.037	963.69
355.264	964.69
355.491	953.69
355.718	961.69
355.945	961.69
356.172	965.69
356.399	957.69
356.626	997.69
356.853	996.69
357.08	1003.69
357.307	973.69
357.534	990.69
357.761	970.69
357.988	974.69
358.215	963.69
358.441	949.69
358.668	977.69
358.895	962.69
359.122	970.69
359.349	967.69
359.576	963.69
359.802	987.69
360.029	962.69
360.256	967.69
360.483	953.69
360.709	950.69
360.936	957.69
361.163	973.69
361.39	958.69
361.616	964.69
361.843	950.69
362.07	970.69
362.296	982.69
362.523	983.69
362.749	965.69
362.976	936.69
363.203	955.69
363.429	949.69
363.656	970.69
363.882	957.69
364.109	954.69
364.335	945.69
364.562	965.69
364.788	945.69
365.015	947.69
365.241	993.69
365.468	956.69
365.694	942.69
365.92	945.69
366.147	932.69
366.373	955.69
366.599	954.69
366.826	982.69
367.052	990.69
367.278	981.69
367.505	972.69
367.731	964.69
367.957	930.69
368.184	952.69
368.41	972.69
368.636	985.69
368.862	973.69
369.089	970.69
369.315	989.69
369.541	1003.69
369.767	979.69
369.993	1013.69
370.219	995.69
370.445	1036.69
370.672	1004.69
370.898	1015.69
371.124	1013.69
371.35	1050.69
371.576	1030.69
371.802	1074.69
372.028	1073.69
372.254	1065.69
372.48	1054.69
372.706	1077.69
372.932	1103.69
373.158	1094.69
373.384	1069.69
373.61	1057.69
373.835	1045.69
374.061	1058.69
374.287	1062.69
374.513	1064.69
374.739	1083.69
374.965	1179.69
375.191	1201.69
375.416	1174.69
375.642	1145.69
375.868	1127.69
376.094	1083.69
376.319	1070.69
376.545	1079.69
376.771	1054.69
376.997	1054.69
377.222	1049.69
377.448	1060.69
377.674	1078.69
377.899	1073.69
378.125	1037.69
378.35	1053.69
378.576	1046.69
378.802	1054.69
379.027	1060.69
379.253	1046.69
379.478	1042.69
379.704	1021.69
379.929	1045.69
380.155	1051.69
380.38	1026.69
380.606	1042.69
380.831	1035.69
381.057	1035.69
381.282	1052.69
381.507	1032.69
381.733	1059.69
381.958	1043.69
382.184	1095.69
382.409	1078.69
382.634	1086.69
382.86	1111.69
383.085	1122.69
383.31	1162.69
383.535	1193.69
383.761	1151.69
383.986	1201.69
384.211	1210.69
384.436	1271.69
384.662	1301.69
384.887	1273.69
385.112	1305.69
385.337	1316.69
385.562	1306.69
385.787	1297.69
386.013	1331.69
386.238	1321.69
386.463	1330.69
386.688	1316.69
386.913	1247.69
387.138	1237.69
387.363	1290.69
387.588	1251.69
387.813	1253.69
388.038	1286.69
388.263	1290.69
388.488	1288.69
388.713	1299.69
388.938	1269.69
389.163	1228.69
389.387	1240.69
389.612	1224.69
389.837	1228.69
390.062	1234.69
390.287	1257.69
390.512	1242.69
390.736	1262.69
390.961	1307.69
391.186	1327.69
391.411	1376.69
391.636	1403.69
391.86	1467.69
392.085	1497.69
392.31	1436.69
392.534	1430.69
392.759	1358.69
392.984	1358.69
393.208	1378.69
393.433	1383.69
393.658	1368.69
393.882	1348.69
394.107	1377.69
394.331	1376.69
394.556	1357.69
394.78	1377.69
395.005	1383.69
395.229	1373.69
395.454	1474.69
395.678	1487.69
395.903	1428.69
396.127	1416.69
396.352	1380.69
396.576	1333.69
396.801	1367.69
397.025	1364.69
397.249	1432.69
397.474	1455.69
397.698	1399.69
397.922	1441.69
398.147	1450.69
398.371	1497.69
398.595	1522.69
398.82	1647.69
399.044	1727.69
399.268	1922.69
399.492	2268.69
399.717	2624.69
399.941	2557.69
400.165	2249.69
400.389	1957.69
400.613	1820.69
400.837	1704.69
401.062	1677.69
401.286	1618.69
401.51	1611.69
401.734	1601.69
401.958	1649.69
402.182	1622.69
402.406	1706.69
402.63	1737.69
402.854	1769.69
403.078	1782.69
403.302	1879.69
403.526	1858.69
403.75	1957.69
403.974	1945.69
404.198	1963.69
404.422	1972.69
404.645	1934.69
404.869	1915.69
405.093	1892.69
405.317	1815.69
405.541	1814.69
405.765	1863.69
405.988	1793.69
406.212	1768.69
406.436	1770.69
406.66	1885.69
406.883	1891.69
407.107	2020.69
407.331	2083.69
407.555	2163.69
407.778	2133.69
408.002	2075.69
408.226	1992.69
408.449	1964.69
408.673	1886.69
408.896	1872.69
409.12	1817.69
409.344	1865.69
409.567	1823.69
409.791	1835.69
410.014	1827.69
410.238	1781.69
410.461	1778.69
410.685	1771.69
410.908	1759.69
411.132	1752.69
411.355	1688.69
411.578	1693.69
411.802	1695.69
412.025	1714.69
412.249	1733.69
412.472	1708.69
412.695	1665.69
412.919	1585.69
413.142	1610.69
413.365	1602.69
413.589	1644.69
413.812	1571.69
414.035	1565.69
414.258	1609.69
414.482	1609.69
414.705	1640.69
414.928	1696.69
415.151	1657.69
415.374	1652.69
415.597	1608.69
415.821	1586.69
416.044	1558.69
416.267	1603.69
416.49	1593.69
416.713	1580.69
416.936	1561.69
417.159	1601.69
417.382	1603.69
417.605	1594.69
417.828	1566.69
418.051	1605.69
418.274	1595.69
418.497	1621.69
418.72	1671.69
418.943	1683.69
419.166	1740.69
419.389	1799.69
419.611	1817.69
419.834	1711.69
420.057	1721.69
420.28	1609.69
420.503	1618.69
420.726	1600.69
420.948	1626.69
421.171	1611.69
421.394	1610.69
421.617	1579.69
421.839	1632.69
422.062	1612.69
422.285	1568.69
422.507	1671.69
422.73	1633.69
422.953	1653.69
423.175	1656.69
423.398	1685.69
423.621	1709.69
423.843	1736.69
424.066	1731.69
424.288	1737.69
424.511	1673.69
424.733	1686.69
424.956	1677.69
425.178	1669.69
425.401	1617.69
425.623	1614.69
425.846	1581.69
426.068	1531.69
426.291	1482.69
426.513	1496.69
426.735	1473.69
426.958	1511.69
427.18	1442.69
427.402	1461.69
427.625	1444.69
427.847	1406.69
428.069	1385.69
428.292	1454.69
428.514	1377.69
428.736	1421.69
428.958	1403.69
429.181	1377.69
429.403	1357.69
429.625	1378.69
429.847	1335.69
430.069	1367.69
430.292	1400.69
430.514	1343.69
430.736	1359.69
430.958	1378.69
431.18	1364.69
431.402	1385.69
431.624	1365.69
431.846	1357.69
432.068	1406.69
432.29	1421.69
432.512	1403.69
432.734	1409.69
432.956	1370.69
433.178	1415.69
433.4	1393.69
433.622	1457.69
433.844	1423.69
434.066	1419.69
434.287	1427.69
434.509	1464.69
434.731	1563.69
434.953	1589.69
435.175	1620.69
435.397	1554.69
435.618	1491.69
435.84	1461.69
436.062	1411.69
436.284	1413.69
436.505	1393.69
436.727	1398.69
436.949	1421.69
437.17	1397.69
437.392	1352.69
437.614	1350.69
437.835	1313.69
438.057	1350.69
438.278	1322.69
438.5	1315.69
438.721	1343.69
438.943	1362.69
439.165	1313.69
439.386	1382.69
439.608	1366.69
439.829	1423.69
440.05	1431.69
440.272	1405.69
440.493	1438.69
440.715	1451.69
440.936	1465.69
441.158	1518.69
441.379	1534.69
441.6	1622.69
441.822	1625.69
442.043	1634.69
442.264	1591.69
442.486	1559.69
442.707	1541.69
442.928	1573.69
443.149	1565.69
443.371	1559.69
443.592	1555.69
443.813	1613.69
444.034	1637.69
444.255	1643.69
444.476	1769.69
444.698	1885.69
444.919	1948.69
445.14	2008.69
445.361	1781.69
445.582	1659.69
445.803	1533.69
446.024	1488.69
446.245	1505.69
446.466	1473.69
446.687	1413.69
446.908	1423.69
447.129	1396.69
447.35	1367.69
447.571	1333.69
447.792	1317.69
448.013	1289.69
448.234	1330.69
448.455	1289.69
448.675	1258.69
448.896	1295.69
449.117	1230.69
449.338	1243.69
449.559	1226.69
449.779	1255.69
450	1246.69
450.221	1263.69
450.442	1243.69
450.662	1294.69
450.883	1289.69
451.104	1308.69
451.324	1295.69
451.545	1278.69
451.766	1299.69
451.986	1282.69
452.207	1254.69
452.428	1252.69
452.648	1265.69
452.869	1243.69
453.089	1206.69
453.31	1269.69
453.53	1244.69
453.751	1239.69
453.971	1217.69
454.192	1223.69
454.412	1212.69
454.633	1201.69
454.853	1256.69
455.073	1197.69
455.294	1205.69
455.514	1185.69
455.734	1189.69
455.955	1162.69
456.175	1143.69
456.395	1148.69
456.616	1183.69
456.836	1187.69
457.056	1154.69
457.276	1194.69
457.497	1232.69
457.717	1155.69
457.937	1169.69
458.157	1224.69
458.377	1239.69
458.598	1213.69
458.818	1273.69
459.038	1313.69
459.258	1372.69
459.478	1415.69
459.698	1447.69
459.918	1499.69
460.138	1568.69
460.358	1638.69
460.578	1705.69
460.798	1715.69
461.018	1671.69
461.238	1695.69
461.458	1673.69
461.678	1647.69
461.898	1649.69
462.118	1673.69
462.338	1790.69
462.558	1873.69
462.777	1886.69
462.997	2072.69
463.217	2293.69
463.437	2332.69
463.657	2120.69
463.876	1969.69
464.096	1923.69
464.316	1973.69
464.536	1955.69
464.755	1900.69
464.975	1821.69
465.195	1744.69
465.414	1598.69
465.634	1510.69
465.854	1465.69
466.073	1405.69
466.293	1409.69
466.512	1375.69
466.732	1352.69
466.951	1330.69
467.171	1314.69
467.391	1366.69
467.61	1318.69
467.829	1323.69
468.049	1342.69
468.268	1285.69
468.488	1271.69
468.707	1273.69
468.927	1291.69
469.146	1251.69
469.365	1259.69
469.585	1274.69
469.804	1337.69
470.023	1358.69
470.243	1369.69
470.462	1363.69
470.681	1382.69
470.901	1378.69
471.12	1386.69
471.339	1299.69
471.558	1295.69
471.777	1315.69
471.997	1291.69
472.216	1262.69
472.435	1256.69
472.654	1231.69
472.873	1211.69
473.092	1220.69
473.311	1227.69
473.53	1231.69
473.749	1189.69
473.968	1226.69
474.187	1211.69
474.406	1181.69
474.625	1213.69
474.844	1223.69
475.063	1226.69
475.282	1246.69
475.501	1220.69
475.72	1243.69
475.939	1275.69
476.158	1262.69
476.377	1281.69
476.596	1281.69
476.814	1283.69
477.033	1298.69
477.252	1337.69
477.471	1353.69
477.69	1371.69
477.908	1452.69
478.127	1442.69
478.346	1494.69
478.564	1511.69
478.783	1539.69
479.002	1546.69
479.22	1597.69
479.439	1538.69
479.658	1585.69
479.876	1558.69
480.095	1564.69
480.313	1629.69
480.532	1701.69
480.751	1685.69
480.969	1585.69
481.188	1554.69
481.406	1476.69
481.624	1450.69
481.843	1425.69
482.061	1382.69
482.28	1382.69
482.498	1385.69
482.717	1374.69
482.935	1388.69
483.153	1410.69
483.372	1394.69
483.59	1397.69
483.808	1387.69
484.027	1417.69
484.245	1415.69
484.463	1391.69
484.681	1411.69
484.9	1403.69
485.118	1453.69
485.336	1428.69
485.554	1461.69
485.772	1460.69
485.99	1437.69
486.209	1453.69
486.427	1481.69
486.645	1460.69
486.863	1485.69
487.081	1471.69
487.299	1469.69
487.517	1433.69
487.735	1435.69
487.953	1422.69
488.171	1492.69
488.389	1461.69
488.607	1435.69
488.825	1405.69
489.043	1414.69
489.261	1416.69
489.479	1450.69
489.696	1420.69
489.914	1457.69
490.132	1457.69
490.35	1451.69
490.568	1437.69
490.786	1473.69
491.003	1501.69
491.221	1477.69
491.439	1470.69
491.657	1486.69
491.874	1479.69
492.092	1495.69
492.31	1473.69
492.527	1494.69
492.745	1491.69
492.963	1521.69
493.18	1523.69
493.398	1511.69
493.615	1527.69
493.833	1525.69
494.05	1538.69
494.268	1570.69
494.485	1523.69
494.703	1544.69
494.92	1561.69
495.138	1534.69
495.355	1525.69
495.573	1589.69
495.79	1567.69
496.008	1588.69
496.225	1581.69
496.442	1604.69
496.66	1623.69
496.877	1638.69
497.094	1637.69
497.312	1710.69
497.529	1723.69
497.746	1782.69
497.963	1823.69
498.181	1894.69
498.398	2026.69
498.615	2123.69
498.832	2318.69
499.049	2485.69
499.267	2707.69
499.484	2998.69
499.701	3339.69
499.918	3745.69
500.135	4253.69
500.352	4911.69
500.569	5111.69
500.786	5073.69
501.003	4701.69
501.22	4182.69
501.437	3623.69
501.654	3151.69
501.871	2881.69
502.088	2590.69
502.305	2387.69
502.522	2272.69
502.739	2192.69
502.956	2061.69
503.172	1943.69
503.389	1876.69
503.606	1835.69
503.823	1822.69
504.04	1816.69
504.256	1828.69
504.473	1848.69
504.69	1946.69
504.907	1877.69
505.123	1741.69
505.34	1662.69
505.557	1545.69
505.773	1491.69
505.99	1481.69
506.207	1452.69
506.423	1429.69
506.64	1385.69
506.856	1404.69
507.073	1389.69
507.289	1382.69
507.506	1363.69
507.722	1324.69
507.939	1326.69
508.155	1302.69
508.372	1316.69
508.588	1288.69
508.805	1283.69
509.021	1271.69
509.238	1261.69
509.454	1278.69
509.67	1254.69
509.887	1277.69
510.103	1244.69
510.319	1231.69
510.536	1250.69
510.752	1228.69
510.968	1249.69
511.184	1221.69
511.401	1235.69
511.617	1228.69
511.833	1242.69
512.049	1220.69
512.265	1225.69
512.481	1222.69
512.698	1207.69
512.914	1231.69
513.13	1246.69
513.346	1251.69
513.562	1234.69
513.778	1218.69
513.994	1238.69
514.21	1239.69
514.426	1225.69
514.642	1261.69
514.858	1255.69
515.074	1301.69
515.29	1258.69
515.506	1295.69
515.721	1330.69
515.937	1348.69
516.153	1388.69
516.369	1413.69
516.585	1417.69
516.801	1467.69
517.016	1520.69
517.232	1627.69
517.448	1741.69
517.664	1762.69
517.879	1846.69
518.095	1832.69
518.311	1777.69
518.527	1693.69
518.742	1583.69
518.958	1543.69
519.173	1461.69
519.389	1421.69
519.605	1368.69
519.82	1363.69
520.036	1304.69
520.251	1260.69
520.467	1217.69
520.682	1283.69
520.898	1209.69
521.113	1215.69
521.329	1214.69
521.544	1177.69
521.76	1190.69
521.975	1171.69
522.19	1180.69
522.406	1149.69
522.621	1179.69
522.836	1156.69
523.052	1179.69
523.267	1134.69
523.482	1128.69
523.698	1149.69
523.913	1145.69
524.128	1132.69
524.343	1118.69
524.559	1140.69
524.774	1151.69
524.989	1151.69
525.204	1116.69
525.419	1129.69
525.634	1086.69
525.849	1117.69
526.064	1129.69
526.28	1092.69
526.495	1101.69
526.71	1102.69
526.925	1097.69
527.14	1113.69
527.355	1094.69
527.57	1108.69
527.785	1096.69
527.999	1081.69
528.214	1091.69
528.429	1104.69
528.644	1095.69
528.859	1109.69
529.074	1114.69
529.289	1081.69
529.503	1108.69
529.718	1089.69
529.933	1095.69
530.148	1085.69
530.363	1111.69
530.577	1067.69
530.792	1082.69
531.007	1086.69
531.221	1099.69
531.436	1094.69
531.651	1110.69
531.865	1091.69
532.08	1115.69
532.295	1081.69
532.509	1077.69
532.724	1092.69
532.938	1100.69
533.153	1126.69
533.367	1121.69
533.582	1115.69
533.796	1069.69
534.011	1088.69
534.225	1095.69
534.44	1028.69
534.654	1098.69
534.868	1077.69
535.083	1097.69
535.297	1085.69
535.511	1065.69
535.726	1057.69
535.94	1056.69
536.154	1004.69
536.369	1037.69
536.583	1022.69
536.797	1003.69
537.011	1023.69
537.225	1013.69
537.44	1004.69
537.654	1023.69
537.868	1003.69
538.082	965.69
538.296	948.69
538.51	983.69
538.724	1030.69
538.938	1017.69
539.153	981.69
539.367	1008.69
539.581	1001.69
539.795	982.69
540.009	1000.69
540.222	975.69
540.436	983.69
540.65	988.69
540.864	959.69
541.078	975.69
541.292	983.69
541.506	969.69
541.72	978.69
541.934	980.69
542.147	1018.69
542.361	973.69
542.575	992.69
542.789	999.69
543.002	981.69
543.216	948.69
543.43	955.69
543.644	948.69
543.857	978.69
544.071	990.69
544.285	983.69
544.498	975.69
544.712	992.69
544.925	1015.69
545.139	1007.69
545.352	1016.69
545.566	1021.69
545.779	1022.69
545.993	1051.69
546.206	1009.69
546.42	1016.69
546.633	999.69
546.847	1017.69
547.06	1016.69
547.274	991.69
547.487	998.69
547.7	994.69
547.914	997.69
548.127	1020.69
548.34	1031.69
548.554	1012.69
548.767	1005.69
548.98	1043.69
549.193	989.69
549.407	1043.69
549.62	1060.69
549.833	1043.69
550.046	1033.69
550.259	1049.69
550.473	1010.69
550.686	1004.69
550.899	1021.69
551.112	983.69
551.325	973.69
551.538	985.69
551.751	973.69
551.964	1010.69
552.177	993.69
552.39	1021.69
552.603	1073.69
552.816	1092.69
553.029	1110.69
553.242	1120.69
553.455	1143.69
553.667	1159.69
553.88	1127.69
554.093	1099.69
554.306	1044.69
554.519	1031.69
554.732	1049.69
554.944	994.69
555.157	990.69
555.37	963.69
555.583	952.69
555.795	947.69
556.008	918.69
556.221	916.69
556.433	871.69
556.646	892.69
556.859	859.69
557.071	903.69
557.284	868.69
557.496	870.69
557.709	869.69
557.921	882.69
558.134	872.69
558.346	845.69
558.559	858.69
558.771	827.69
558.984	807.69
559.196	825.69
559.409	839.69
559.621	818.69
559.833	848.69
560.046	817.69
560.258	822.69
560.47	817.69
560.683	830.69
560.895	809.69
561.107	807.69
561.32	817.69
561.532	829.69
561.744	838.69
561.956	837.69
562.168	812.69
562.381	814.69
562.593	803.69
562.805	799.69
563.017	835.69
563.229	819.69
563.441	829.69
563.653	838.69
563.865	827.69
564.077	854.69
564.289	847.69
564.501	854.69
564.713	901.69
564.925	911.69
565.137	929.69
565.349	923.69
565.561	951.69
565.773	991.69
565.985	1049.69
566.197	1098.69
566.408	1199.69
566.62	1318.69
566.832	1405.69
567.044	1464.69
567.255	1425.69
567.467	1505.69
567.679	1540.69
567.891	1726.69
568.102	1782.69
568.314	1687.69
568.526	1492.69
568.737	1315.69
568.949	1196.69
569.161	1100.69
569.372	1037.69
569.584	951.69
569.795	923.69
570.007	881.69
570.218	869.69
570.43	862.69
570.641	857.69
570.853	861.69
571.064	860.69
571.276	850.69
571.487	826.69
571.698	834.69
571.91	801.69
572.121	753.69
572.333	723.69
572.544	726.69
572.755	700.69
572.966	707.69
573.178	701.69
573.389	702.69
573.6	677.69
573.811	675.69
574.023	678.69
574.234	685.69
574.445	695.69
574.656	687.69
574.867	684.69
575.078	675.69
575.289	684.69
575.501	675.69
575.712	644.69
575.923	641.69
576.134	632.69
576.345	630.69
576.556	658.69
576.767	617.69
576.978	633.69
577.188	621.69
577.399	627.69
577.61	617.69
577.821	592.69
578.032	591.69
578.243	599.69
578.454	613.69
578.665	596.69
578.875	587.69
579.086	592.69
579.297	589.69
579.508	590.69
579.718	590.69
579.929	558.69
580.14	591.69
580.35	576.69
580.561	571.69
580.772	558.69
580.982	565.69
581.193	575.69
581.403	576.69
581.614	565.69
581.825	548.69
582.035	562.69
582.246	561.69
582.456	541.69
582.667	535.69
582.877	543.69
583.087	551.69
583.298	557.69
583.508	561.69
583.719	544.69
583.929	541.69
584.139	563.69
584.35	531.69
584.56	518.69
584.77	556.69
584.981	523.69
585.191	529.69
585.401	554.69
585.611	537.69
585.821	515.69
586.032	539.69
586.242	532.69
586.452	539.69
586.662	530.69
586.872	506.69
587.082	534.69
587.292	528.69
587.502	539.69
587.713	522.69
587.923	534.69
588.133	545.69
588.343	513.69
588.553	522.69
588.762	521.69
588.972	506.69
589.182	545.69
589.392	520.69
589.602	549.69
589.812	551.69
590.022	518.69
590.232	517.69
590.441	523.69
590.651	536.69
590.861	555.69
591.071	543.69
591.281	567.69
591.49	573.69
591.7	586.69
591.91	590.69
592.119	581.69
592.329	586.69
592.539	619.69
592.748	653.69
592.958	641.69
593.167	671.69
593.377	703.69
593.587	714.69
593.796	699.69
594.006	698.69
594.215	728.69
594.424	738.69
594.634	711.69
594.843	647.69
595.053	600.69
595.262	611.69
595.472	596.69
595.681	567.69
595.89	576.69
596.1	551.69
596.309	550.69
596.518	535.69
596.727	500.69
596.937	494.69
597.146	505.69
597.355	501.69
597.564	498.69
597.774	491.69
597.983	481.69
598.192	462.69
598.401	455.69
598.61	469.69
598.819	445.69
599.028	463.69
599.237	449.69
599.446	440.69
599.655	457.69
599.864	441.69
600.073	471.69
600.282	466.69
600.491	446.69
600.7	437.69
600.909	443.69
601.118	430.69
601.327	447.69
601.536	433.69
601.745	435.69
601.953	425.69
602.162	429.69
602.371	429.69
602.58	421.69
602.789	450.69
602.997	417.69
603.206	427.69
603.415	420.69
603.623	415.69
603.832	420.69
604.041	422.69
604.249	428.69
604.458	399.69
604.666	428.69
604.875	410.69
605.084	423.69
605.292	405.69
605.501	423.69
605.709	412.69
605.918	405.69
606.126	425.69
606.334	406.69
606.543	402.69
606.751	428.69
606.96	407.69
607.168	393.69
607.376	397.69
607.585	407.69
607.793	397.69
608.001	391.69
608.21	395.69
608.418	405.69
608.626	399.69
608.834	411.69
609.043	400.69
609.251	410.69
609.459	402.69
609.667	388.69
609.875	376.69
610.083	370.69
610.291	399.69
610.499	393.69
610.707	395.69
610.916	376.69
611.124	393.69
611.332	400.69
611.54	401.69
611.748	390.69
611.955	364.69
612.163	377.69
612.371	384.69
612.579	391.69
612.787	385.69
612.995	382.69
613.203	378.69
613.411	384.69
613.618	385.69
613.826	388.69
614.034	388.69
614.242	377.69
614.449	377.69
614.657	378.69
614.865	350.69
615.072	379.69
615.28	393.69
615.488	390.69
615.695	376.69
615.903	377.69
616.111	370.69
616.318	397.69
616.526	374.69
616.733	399.69
616.941	377.69
617.148	379.69
617.356	381.69
617.563	390.69
617.771	357.69
617.978	370.69
618.185	375.69
618.393	375.69
618.6	359.69
618.807	350.69
619.015	373.69
619.222	358.69
619.429	351.69
619.637	364.69
619.844	359.69
620.051	363.69
620.258	357.69
620.466	347.69
620.673	343.69
620.88	346.69
621.087	345.69
621.294	347.69
621.501	361.69
621.708	344.69
621.915	358.69
622.122	346.69
622.329	339.69
622.536	362.69
622.743	333.69
622.95	340.69
623.157	342.69
623.364	346.69
623.571	341.69
623.778	346.69
623.985	329.69
624.192	322.69
624.399	318.69
624.606	318.69
624.812	345.69
625.019	329.69
625.226	341.69
625.433	322.69
625.639	322.69
625.846	308.69
626.053	300.69
626.259	329.69
626.466	313.69
626.673	305.69
626.879	346.69
627.086	314.69
627.293	315.69
627.499	307.69
627.706	306.69
627.912	321.69
628.119	318.69
628.325	313.69
628.532	300.69
628.738	309.69
628.945	299.69
629.151	309.69
629.357	309.69
629.564	296.69
629.77	307.69
629.976	299.69
630.183	301.69
630.389	285.69
630.595	295.69
630.802	290.69
631.008	298.69
631.214	303.69
631.42	291.69
631.627	287.69
631.833	274.69
632.039	291.69
632.245	291.69
632.451	306.69
632.657	298.69
632.863	278.69
633.069	275.69
633.275	270.69
633.481	271.69
633.688	266.69
633.893	286.69
634.099	280.69
634.305	276.69
634.511	276.69
634.717	261.69
634.923	274.69
635.129	267.69
635.335	264.69
635.541	265.69
635.747	261.69
635.952	269.69
636.158	269.69
636.364	276.69
636.57	276.69
636.775	249.69
636.981	267.69
637.187	259.69
637.392	261.69
637.598	277.69
637.804	278.69
638.009	261.69
638.215	261.69
638.421	258.69
638.626	262.69
638.832	267.69
639.037	254.69
639.243	248.69
639.448	261.69
639.654	268.69
639.859	277.69
640.065	255.69
640.27	247.69
640.475	264.69
640.681	266.69
640.886	236.69
641.091	262.69
641.297	261.69
641.502	238.69
641.707	255.69
641.913	231.69
642.118	243.69
642.323	228.69
642.528	243.69
642.733	235.69
642.939	247.69
643.144	231.69
643.349	245.69
643.554	233.69
643.759	236.69
643.964	255.69
644.169	245.69
644.374	214.69
644.579	221.69
644.784	235.69
644.989	241.69
645.194	250.69
645.399	248.69
645.604	231.69
645.809	223.69
646.014	237.69
646.219	238.69
646.423	237.69
646.628	244.69
646.833	238.69
647.038	245.69
647.243	253.69
647.447	239.69
647.652	239.69
647.857	260.69
648.062	261.69
648.266	263.69
648.471	256.69
648.676	259.69
648.88	269.69
649.085	262.69
649.289	233.69
649.494	222.69
649.698	232.69
649.903	206.69
650.107	214.69
650.312	228.69
650.516	220.69
650.721	220.69
650.925	216.69
651.13	214.69
651.334	203.69
651.539	208.69
651.743	205.69
651.947	204.69
652.152	203.69
652.356	215.69
652.56	193.69
652.764	193.69
652.969	203.69
653.173	190.69
653.377	169.69
653.581	191.69
653.785	184.69
653.99	179.69
654.194	197.69
654.398	178.69
654.602	169.69
654.806	161.69
655.01	170.69
655.214	166.69
655.418	172.69
655.622	173.69
655.826	167.69
656.03	177.69
656.234	163.69
656.438	147.69
656.642	155.69
656.846	172.69
657.049	141.69
657.253	154.69
657.457	144.69
657.661	139.69
657.865	149.69
658.068	137.69
658.272	130.69
658.476	115.69
658.68	118.69
658.883	120.69
659.087	117.69
659.291	121.69
659.494	108.69
659.698	105.69
659.901	126.69
660.105	112.69
660.309	99.69
660.512	102.69
660.716	95.69
660.919	109.69
661.123	105.69
661.326	111.69
661.53	99.69
661.733	100.69
661.936	89.69
662.14	89.69
662.343	76.69
662.546	80.69
662.75	73.69
662.953	110.69
663.156	86.69
663.36	83.69
663.563	95.69
663.766	87.69
663.969	95.69
664.173	87.69
664.376	74.69
664.579	69.69
664.782	93.69
664.985	93.69
665.188	68.69
665.391	105.69
665.594	92.69
665.797	69.69
666	76.69
666.203	86.69
666.406	81.69
666.609	92.69
666.812	99.69
667.015	91.69
667.218	85.69
667.421	81.69
667.624	69.69
667.827	86.69
668.03	85.69
668.232	75.69
668.435	100.69
668.638	87.69
668.841	80.69
669.043	79.69
669.246	92.69
669.449	80.69
669.651	81.69
669.854	79.69
670.057	84.69
670.259	77.69
670.462	89.69
670.665	81.69
670.867	91.69
671.07	91.69
671.272	83.69
671.475	94.69
671.677	87.69
671.88	107.69
672.082	87.69
672.284	103.69
672.487	73.69
672.689	86.69
672.892	71.69
