Data from NiCl2@0.25M.TitratingCurve.Agarose3%dH2O.NegLispCup.LampEnergy10.LIBS07252019_HRD10591_18-22-35-572.txt Node
Date: Thu Jul 25 18:22:35 EDT 2019
User: cochatt
Spectrometer: HR+D1059
Trigger mode: 1
Integration Time (sec): 1.000000E-1
Scans to average: 1
Electric dark correction enabled: true
Nonlinearity correction enabled: false
Boxcar width: 0
XAxis mode: Wavelengths
Number of Pixels in Spectrum: 2048
>>>>>Begin Spectral Data<<<<<
223.165	-10.25
223.4	-10.25
223.635	-10.25
223.869	-17.25
224.104	-22.25
224.338	-15.25
224.573	-10.25
224.808	-6.25
225.042	-11.25
225.277	-1.25
225.511	-12.25
225.746	16.75
225.98	-1.25
226.215	3.75
226.449	6.75
226.683	18.75
226.918	24.75
227.152	36.75
227.387	11.75
227.621	42.75
227.856	42.75
228.09	42.75
228.324	61.75
228.559	52.75
228.793	72.75
229.027	122.75
229.262	143.75
229.496	131.75
229.73	134.75
229.964	166.75
230.199	192.75
230.433	166.75
230.667	181.75
230.901	166.75
231.136	157.75
231.37	171.75
231.604	185.75
231.838	184.75
232.072	185.75
232.306	201.75
232.541	191.75
232.775	198.75
233.009	181.75
233.243	172.75
233.477	178.75
233.711	173.75
233.945	180.75
234.179	176.75
234.413	176.75
234.647	190.75
234.881	190.75
235.115	188.75
235.349	201.75
235.583	192.75
235.817	179.75
236.051	189.75
236.285	188.75
236.519	186.75
236.753	192.75
236.987	199.75
237.221	197.75
237.455	202.75
237.689	195.75
237.922	191.75
238.156	200.75
238.39	209.75
238.624	207.75
238.858	204.75
239.091	211.75
239.325	204.75
239.559	235.75
239.793	214.75
240.027	234.75
240.26	219.75
240.494	218.75
240.728	246.75
240.961	227.75
241.195	227.75
241.429	230.75
241.662	242.75
241.896	238.75
242.13	260.75
242.363	243.75
242.597	243.75
242.83	249.75
243.064	237.75
243.298	245.75
243.531	265.75
243.765	227.75
243.998	258.75
244.232	256.75
244.465	263.75
244.699	275.75
244.932	280.75
245.166	270.75
245.399	259.75
245.633	280.75
245.866	262.75
246.099	270.75
246.333	274.75
246.566	294.75
246.8	293.75
247.033	286.75
247.266	284.75
247.5	290.75
247.733	294.75
247.966	314.75
248.2	293.75
248.433	306.75
248.666	316.75
248.899	287.75
249.133	308.75
249.366	330.75
249.599	304.75
249.832	320.75
250.066	323.75
250.299	335.75
250.532	334.75
250.765	339.75
250.998	329.75
251.231	312.75
251.465	337.75
251.698	340.75
251.931	331.75
252.164	342.75
252.397	344.75
252.63	341.75
252.863	338.75
253.096	359.75
253.329	353.75
253.562	341.75
253.795	352.75
254.028	368.75
254.261	367.75
254.494	340.75
254.727	353.75
254.96	353.75
255.193	374.75
255.426	368.75
255.659	374.75
255.892	356.75
256.124	371.75
256.357	380.75
256.59	378.75
256.823	371.75
257.056	380.75
257.289	378.75
257.521	376.75
257.754	377.75
257.987	386.75
258.22	386.75
258.452	385.75
258.685	393.75
258.918	385.75
259.151	396.75
259.383	387.75
259.616	390.75
259.849	407.75
260.081	419.75
260.314	413.75
260.547	408.75
260.779	415.75
261.012	414.75
261.244	406.75
261.477	418.75
261.71	414.75
261.942	438.75
262.175	420.75
262.407	419.75
262.64	423.75
262.872	426.75
263.105	440.75
263.337	434.75
263.57	430.75
263.802	437.75
264.035	442.75
264.267	429.75
264.499	432.75
264.732	447.75
264.964	431.75
265.197	438.75
265.429	456.75
265.661	442.75
265.894	463.75
266.126	455.75
266.358	477.75
266.591	455.75
266.823	473.75
267.055	466.75
267.287	473.75
267.52	491.75
267.752	477.75
267.984	474.75
268.216	491.75
268.448	473.75
268.681	498.75
268.913	463.75
269.145	496.75
269.377	487.75
269.609	502.75
269.841	496.75
270.073	466.75
270.306	500.75
270.538	487.75
270.77	466.75
271.002	482.75
271.234	479.75
271.466	489.75
271.698	514.75
271.93	497.75
272.162	511.75
272.394	522.75
272.626	494.75
272.858	505.75
273.09	501.75
273.322	528.75
273.553	530.75
273.785	502.75
274.017	528.75
274.249	523.75
274.481	535.75
274.713	523.75
274.945	547.75
275.176	543.75
275.408	547.75
275.64	558.75
275.872	562.75
276.104	532.75
276.335	563.75
276.567	548.75
276.799	559.75
277.031	555.75
277.262	555.75
277.494	556.75
277.726	571.75
277.957	582.75
278.189	575.75
278.421	555.75
278.652	576.75
278.884	554.75
279.115	588.75
279.347	578.75
279.579	579.75
279.81	593.75
280.042	585.75
280.273	583.75
280.505	612.75
280.736	608.75
280.968	595.75
281.199	607.75
281.431	605.75
281.662	621.75
281.894	641.75
282.125	615.75
282.356	632.75
282.588	630.75
282.819	635.75
283.051	624.75
283.282	628.75
283.513	653.75
283.745	634.75
283.976	615.75
284.207	631.75
284.439	632.75
284.67	630.75
284.901	652.75
285.132	641.75
285.364	645.75
285.595	656.75
285.826	630.75
286.057	646.75
286.288	659.75
286.52	647.75
286.751	653.75
286.982	654.75
287.213	670.75
287.444	688.75
287.675	681.75
287.906	705.75
288.138	691.75
288.369	678.75
288.6	658.75
288.831	661.75
289.062	661.75
289.293	683.75
289.524	670.75
289.755	683.75
289.986	693.75
290.217	694.75
290.448	695.75
290.679	678.75
290.91	691.75
291.141	699.75
291.371	697.75
291.602	700.75
291.833	669.75
292.064	704.75
292.295	690.75
292.526	700.75
292.757	708.75
292.987	735.75
293.218	691.75
293.449	702.75
293.68	672.75
293.91	706.75
294.141	720.75
294.372	691.75
294.603	693.75
294.833	710.75
295.064	726.75
295.295	726.75
295.525	680.75
295.756	726.75
295.987	725.75
296.217	728.75
296.448	728.75
296.679	729.75
296.909	722.75
297.14	747.75
297.37	733.75
297.601	738.75
297.831	726.75
298.062	747.75
298.292	757.75
298.523	762.75
298.753	745.75
298.984	754.75
299.214	768.75
299.445	726.75
299.675	731.75
299.905	788.75
300.136	784.75
300.366	777.75
300.597	804.75
300.827	811.75
301.057	816.75
301.288	802.75
301.518	849.75
301.748	812.75
301.979	784.75
302.209	824.75
302.439	816.75
302.669	817.75
302.9	774.75
303.13	792.75
303.36	818.75
303.59	800.75
303.82	820.75
304.051	798.75
304.281	818.75
304.511	779.75
304.741	792.75
304.971	830.75
305.201	811.75
305.431	844.75
305.661	826.75
305.891	815.75
306.121	807.75
306.352	806.75
306.582	788.75
306.812	774.75
307.042	770.75
307.272	801.75
307.502	766.75
307.731	781.75
307.961	802.75
308.191	791.75
308.421	806.75
308.651	805.75
308.881	782.75
309.111	774.75
309.341	802.75
309.571	807.75
309.8	783.75
310.03	817.75
310.26	832.75
310.49	822.75
310.72	799.75
310.949	800.75
311.179	814.75
311.409	798.75
311.639	787.75
311.868	790.75
312.098	805.75
312.328	810.75
312.557	804.75
312.787	829.75
313.017	818.75
313.246	809.75
313.476	844.75
313.706	859.75
313.935	869.75
314.165	870.75
314.394	827.75
314.624	857.75
314.853	841.75
315.083	883.75
315.312	856.75
315.542	842.75
315.771	856.75
316.001	857.75
316.23	862.75
316.46	829.75
316.689	860.75
316.919	832.75
317.148	822.75
317.377	811.75
317.607	828.75
317.836	827.75
318.065	838.75
318.295	837.75
318.524	803.75
318.753	847.75
318.983	827.75
319.212	822.75
319.441	851.75
319.67	822.75
319.9	836.75
320.129	835.75
320.358	849.75
320.587	827.75
320.816	848.75
321.046	835.75
321.275	845.75
321.504	858.75
321.733	856.75
321.962	866.75
322.191	850.75
322.42	844.75
322.649	873.75
322.878	864.75
323.108	856.75
323.337	841.75
323.566	896.75
323.795	898.75
324.024	881.75
324.253	892.75
324.482	889.75
324.71	853.75
324.939	888.75
325.168	876.75
325.397	894.75
325.626	888.75
325.855	906.75
326.084	878.75
326.313	917.75
326.542	922.75
326.77	934.75
326.999	936.75
327.228	910.75
327.457	918.75
327.686	896.75
327.914	923.75
328.143	942.75
328.372	906.75
328.6	917.75
328.829	941.75
329.058	933.75
329.287	930.75
329.515	930.75
329.744	940.75
329.972	953.75
330.201	966.75
330.43	976.75
330.658	955.75
330.887	943.75
331.115	938.75
331.344	1008.75
331.572	995.75
331.801	1016.75
332.03	1033.75
332.258	1040.75
332.486	1036.75
332.715	1097.75
332.943	1080.75
333.172	1135.75
333.4	1220.75
333.629	1203.75
333.857	1231.75
334.085	1225.75
334.314	1184.75
334.542	1221.75
334.771	1185.75
334.999	1168.75
335.227	1138.75
335.455	1174.75
335.684	1180.75
335.912	1168.75
336.14	1160.75
336.369	1130.75
336.597	1134.75
336.825	1139.75
337.053	1138.75
337.281	1110.75
337.51	1087.75
337.738	1071.75
337.966	1080.75
338.194	1098.75
338.422	1066.75
338.65	1020.75
338.878	1022.75
339.106	1015.75
339.334	1026.75
339.562	1079.75
339.79	1001.75
340.018	970.75
340.246	980.75
340.474	997.75
340.702	967.75
340.93	993.75
341.158	1011.75
341.386	1001.75
341.614	1056.75
341.842	1020.75
342.07	968.75
342.298	982.75
342.526	967.75
342.754	998.75
342.981	988.75
343.209	1006.75
343.437	1055.75
343.665	1104.75
343.893	1127.75
344.12	1197.75
344.348	1140.75
344.576	1099.75
344.804	1086.75
345.031	1070.75
345.259	1040.75
345.487	984.75
345.714	1009.75
345.942	998.75
346.17	1011.75
346.397	989.75
346.625	922.75
346.853	956.75
347.08	946.75
347.308	949.75
347.535	952.75
347.763	915.75
347.99	949.75
348.218	930.75
348.445	916.75
348.673	932.75
348.9	923.75
349.128	936.75
349.355	946.75
349.583	962.75
349.81	910.75
350.037	930.75
350.265	923.75
350.492	930.75
350.72	922.75
350.947	919.75
351.174	912.75
351.402	958.75
351.629	953.75
351.856	955.75
352.083	922.75
352.311	931.75
352.538	960.75
352.765	957.75
352.992	907.75
353.22	906.75
353.447	899.75
353.674	892.75
353.901	896.75
354.128	868.75
354.355	870.75
354.583	880.75
354.81	912.75
355.037	890.75
355.264	890.75
355.491	896.75
355.718	899.75
355.945	898.75
356.172	884.75
356.399	906.75
356.626	927.75
356.853	955.75
357.08	932.75
357.307	888.75
357.534	903.75
357.761	912.75
357.988	899.75
358.215	907.75
358.441	903.75
358.668	875.75
358.895	903.75
359.122	892.75
359.349	916.75
359.576	911.75
359.802	883.75
360.029	893.75
360.256	870.75
360.483	908.75
360.709	908.75
360.936	937.75
361.163	911.75
361.39	887.75
361.616	918.75
361.843	938.75
362.07	947.75
362.296	937.75
362.523	918.75
362.749	914.75
362.976	911.75
363.203	897.75
363.429	884.75
363.656	879.75
363.882	913.75
364.109	905.75
364.335	892.75
364.562	885.75
364.788	878.75
365.015	876.75
365.241	889.75
365.468	907.75
365.694	896.75
365.92	873.75
366.147	904.75
366.373	891.75
366.599	918.75
366.826	871.75
367.052	907.75
367.278	898.75
367.505	908.75
367.731	934.75
367.957	920.75
368.184	915.75
368.41	898.75
368.636	922.75
368.862	909.75
369.089	926.75
369.315	927.75
369.541	931.75
369.767	963.75
369.993	920.75
370.219	906.75
370.445	946.75
370.672	950.75
370.898	946.75
371.124	953.75
371.35	982.75
371.576	982.75
371.802	978.75
372.028	976.75
372.254	960.75
372.48	956.75
372.706	989.75
372.932	1007.75
373.158	995.75
373.384	997.75
373.61	962.75
373.835	971.75
374.061	987.75
374.287	972.75
374.513	993.75
374.739	1016.75
374.965	1060.75
375.191	1057.75
375.416	1055.75
375.642	1049.75
375.868	1014.75
376.094	969.75
376.319	998.75
376.545	971.75
376.771	991.75
376.997	1003.75
377.222	986.75
377.448	988.75
377.674	979.75
377.899	959.75
378.125	946.75
378.35	966.75
378.576	972.75
378.802	967.75
379.027	986.75
379.253	975.75
379.478	964.75
379.704	951.75
379.929	972.75
380.155	985.75
380.38	961.75
380.606	963.75
380.831	951.75
381.057	981.75
381.282	967.75
381.507	969.75
381.733	971.75
381.958	1011.75
382.184	1009.75
382.409	1040.75
382.634	1052.75
382.86	1048.75
383.085	1035.75
383.31	1050.75
383.535	1044.75
383.761	1052.75
383.986	1076.75
384.211	1091.75
384.436	1127.75
384.662	1118.75
384.887	1174.75
385.112	1111.75
385.337	1163.75
385.562	1163.75
385.787	1196.75
386.013	1199.75
386.238	1190.75
386.463	1163.75
386.688	1187.75
386.913	1168.75
387.138	1162.75
387.363	1174.75
387.588	1194.75
387.813	1163.75
388.038	1168.75
388.263	1183.75
388.488	1199.75
388.713	1191.75
388.938	1163.75
389.163	1167.75
389.387	1147.75
389.612	1152.75
389.837	1110.75
390.062	1129.75
390.287	1142.75
390.512	1128.75
390.736	1191.75
390.961	1201.75
391.186	1246.75
391.411	1237.75
391.636	1269.75
391.86	1350.75
392.085	1328.75
392.31	1333.75
392.534	1276.75
392.759	1290.75
392.984	1255.75
393.208	1295.75
393.433	1264.75
393.658	1286.75
393.882	1231.75
394.107	1240.75
394.331	1281.75
394.556	1244.75
394.78	1240.75
395.005	1263.75
395.229	1274.75
395.454	1299.75
395.678	1302.75
395.903	1328.75
396.127	1305.75
396.352	1258.75
396.576	1292.75
396.801	1298.75
397.025	1281.75
397.249	1297.75
397.474	1333.75
397.698	1333.75
397.922	1366.75
398.147	1331.75
398.371	1384.75
398.595	1408.75
398.82	1459.75
399.044	1590.75
399.268	1731.75
399.492	1898.75
399.717	2067.75
399.941	2068.75
400.165	1945.75
400.389	1810.75
400.613	1694.75
400.837	1584.75
401.062	1546.75
401.286	1501.75
401.51	1525.75
401.734	1496.75
401.958	1494.75
402.182	1494.75
402.406	1498.75
402.63	1518.75
402.854	1560.75
403.078	1600.75
403.302	1594.75
403.526	1588.75
403.75	1639.75
403.974	1631.75
404.198	1616.75
404.422	1630.75
404.645	1617.75
404.869	1587.75
405.093	1645.75
405.317	1584.75
405.541	1614.75
405.765	1600.75
405.988	1607.75
406.212	1610.75
406.436	1608.75
406.66	1700.75
406.883	1645.75
407.107	1766.75
407.331	1814.75
407.555	1842.75
407.778	1860.75
408.002	1816.75
408.226	1808.75
408.449	1724.75
408.673	1665.75
408.896	1668.75
409.12	1635.75
409.344	1672.75
409.567	1674.75
409.791	1657.75
410.014	1605.75
410.238	1634.75
410.461	1610.75
410.685	1622.75
410.908	1560.75
411.132	1563.75
411.355	1520.75
411.578	1516.75
411.802	1527.75
412.025	1518.75
412.249	1520.75
412.472	1576.75
412.695	1478.75
412.919	1470.75
413.142	1459.75
413.365	1490.75
413.589	1489.75
413.812	1471.75
414.035	1436.75
414.258	1482.75
414.482	1475.75
414.705	1499.75
414.928	1486.75
415.151	1470.75
415.374	1475.75
415.597	1436.75
415.821	1392.75
416.044	1474.75
416.267	1428.75
416.49	1432.75
416.713	1443.75
416.936	1429.75
417.159	1396.75
417.382	1433.75
417.605	1401.75
417.828	1405.75
418.051	1430.75
418.274	1444.75
418.497	1451.75
418.72	1454.75
418.943	1465.75
419.166	1548.75
419.389	1635.75
419.611	1639.75
419.834	1542.75
420.057	1521.75
420.28	1457.75
420.503	1441.75
420.726	1408.75
420.948	1420.75
421.171	1401.75
421.394	1407.75
421.617	1446.75
421.839	1452.75
422.062	1426.75
422.285	1440.75
422.507	1442.75
422.73	1420.75
422.953	1426.75
423.175	1447.75
423.398	1463.75
423.621	1489.75
423.843	1469.75
424.066	1483.75
424.288	1450.75
424.511	1485.75
424.733	1470.75
424.956	1463.75
425.178	1418.75
425.401	1454.75
425.623	1431.75
425.846	1399.75
426.068	1410.75
426.291	1409.75
426.513	1381.75
426.735	1364.75
426.958	1356.75
427.18	1323.75
427.402	1324.75
427.625	1321.75
427.847	1314.75
428.069	1284.75
428.292	1324.75
428.514	1296.75
428.736	1300.75
428.958	1283.75
429.181	1276.75
429.403	1232.75
429.625	1276.75
429.847	1269.75
430.069	1266.75
430.292	1247.75
430.514	1189.75
430.736	1254.75
430.958	1275.75
431.18	1296.75
431.402	1244.75
431.624	1265.75
431.846	1266.75
432.068	1320.75
432.29	1323.75
432.512	1276.75
432.734	1307.75
432.956	1291.75
433.178	1266.75
433.4	1288.75
433.622	1296.75
433.844	1318.75
434.066	1323.75
434.287	1334.75
434.509	1360.75
434.731	1381.75
434.953	1430.75
435.175	1428.75
435.397	1433.75
435.618	1365.75
435.84	1340.75
436.062	1280.75
436.284	1270.75
436.505	1266.75
436.727	1263.75
436.949	1254.75
437.17	1305.75
437.392	1249.75
437.614	1239.75
437.835	1235.75
438.057	1267.75
438.278	1228.75
438.5	1237.75
438.721	1224.75
438.943	1236.75
439.165	1199.75
439.386	1214.75
439.608	1253.75
439.829	1257.75
440.05	1272.75
440.272	1271.75
440.493	1282.75
440.715	1276.75
440.936	1308.75
441.158	1322.75
441.379	1348.75
441.6	1396.75
441.822	1422.75
442.043	1410.75
442.264	1388.75
442.486	1366.75
442.707	1402.75
442.928	1361.75
443.149	1379.75
443.371	1388.75
443.592	1428.75
443.813	1410.75
444.034	1448.75
444.255	1463.75
444.476	1495.75
444.698	1575.75
444.919	1635.75
445.14	1704.75
445.361	1566.75
445.582	1461.75
445.803	1402.75
446.024	1359.75
446.245	1377.75
446.466	1304.75
446.687	1272.75
446.908	1300.75
447.129	1252.75
447.35	1225.75
447.571	1234.75
447.792	1187.75
448.013	1208.75
448.234	1155.75
448.455	1158.75
448.675	1195.75
448.896	1136.75
449.117	1130.75
449.338	1124.75
449.559	1156.75
449.779	1139.75
450	1154.75
450.221	1132.75
450.442	1148.75
450.662	1148.75
450.883	1169.75
451.104	1160.75
451.324	1166.75
451.545	1163.75
451.766	1169.75
451.986	1159.75
452.207	1152.75
452.428	1159.75
452.648	1142.75
452.869	1138.75
453.089	1098.75
453.31	1120.75
453.53	1130.75
453.751	1097.75
453.971	1101.75
454.192	1096.75
454.412	1078.75
454.633	1072.75
454.853	1100.75
455.073	1114.75
455.294	1095.75
455.514	1085.75
455.734	1104.75
455.955	1090.75
456.175	1104.75
456.395	1059.75
456.616	1074.75
456.836	1083.75
457.056	1091.75
457.276	1072.75
457.497	1105.75
457.717	1118.75
457.937	1097.75
458.157	1135.75
458.377	1119.75
458.598	1161.75
458.818	1162.75
459.038	1196.75
459.258	1223.75
459.478	1311.75
459.698	1377.75
459.918	1372.75
460.138	1378.75
460.358	1434.75
460.578	1475.75
460.798	1487.75
461.018	1530.75
461.238	1454.75
461.458	1441.75
461.678	1435.75
461.898	1499.75
462.118	1554.75
462.338	1571.75
462.558	1627.75
462.777	1680.75
462.997	1819.75
463.217	1893.75
463.437	1887.75
463.657	1851.75
463.876	1731.75
464.096	1713.75
464.316	1708.75
464.536	1682.75
464.755	1658.75
464.975	1555.75
465.195	1531.75
465.414	1438.75
465.634	1350.75
465.854	1318.75
466.073	1310.75
466.293	1272.75
466.512	1247.75
466.732	1204.75
466.951	1217.75
467.171	1219.75
467.391	1227.75
467.61	1209.75
467.829	1234.75
468.049	1208.75
468.268	1170.75
468.488	1165.75
468.707	1179.75
468.927	1174.75
469.146	1168.75
469.365	1190.75
469.585	1225.75
469.804	1207.75
470.023	1219.75
470.243	1248.75
470.462	1231.75
470.681	1240.75
470.901	1238.75
471.12	1251.75
471.339	1242.75
471.558	1226.75
471.777	1219.75
471.997	1164.75
472.216	1180.75
472.435	1163.75
472.654	1158.75
472.873	1159.75
473.092	1136.75
473.311	1138.75
473.53	1129.75
473.749	1147.75
473.968	1159.75
474.187	1161.75
474.406	1131.75
474.625	1095.75
474.844	1162.75
475.063	1146.75
475.282	1152.75
475.501	1130.75
475.72	1185.75
475.939	1192.75
476.158	1227.75
476.377	1189.75
476.596	1211.75
476.814	1213.75
477.033	1234.75
477.252	1286.75
477.471	1269.75
477.69	1316.75
477.908	1326.75
478.127	1326.75
478.346	1382.75
478.564	1386.75
478.783	1395.75
479.002	1432.75
479.22	1494.75
479.439	1432.75
479.658	1456.75
479.876	1436.75
480.095	1459.75
480.313	1510.75
480.532	1511.75
480.751	1490.75
480.969	1486.75
481.188	1431.75
481.406	1425.75
481.624	1378.75
481.843	1390.75
482.061	1306.75
482.28	1355.75
482.498	1366.75
482.717	1345.75
482.935	1345.75
483.153	1324.75
483.372	1373.75
483.59	1374.75
483.808	1334.75
484.027	1318.75
484.245	1352.75
484.463	1348.75
484.681	1388.75
484.9	1398.75
485.118	1399.75
485.336	1368.75
485.554	1412.75
485.772	1378.75
485.99	1413.75
486.209	1374.75
486.427	1406.75
486.645	1385.75
486.863	1402.75
487.081	1391.75
487.299	1395.75
487.517	1362.75
487.735	1394.75
487.953	1364.75
488.171	1404.75
488.389	1406.75
488.607	1362.75
488.825	1393.75
489.043	1340.75
489.261	1330.75
489.479	1399.75
489.696	1392.75
489.914	1400.75
490.132	1370.75
490.35	1392.75
490.568	1383.75
490.786	1400.75
491.003	1422.75
491.221	1419.75
491.439	1394.75
491.657	1409.75
491.874	1427.75
492.092	1413.75
492.31	1443.75
492.527	1426.75
492.745	1447.75
492.963	1419.75
493.18	1441.75
493.398	1435.75
493.615	1458.75
493.833	1439.75
494.05	1438.75
494.268	1489.75
494.485	1461.75
494.703	1471.75
494.92	1464.75
495.138	1502.75
495.355	1490.75
495.573	1492.75
495.79	1532.75
496.008	1507.75
496.225	1513.75
496.442	1557.75
496.66	1589.75
496.877	1599.75
497.094	1619.75
497.312	1638.75
497.529	1664.75
497.746	1743.75
497.963	1784.75
498.181	1826.75
498.398	1897.75
498.615	2057.75
498.832	2144.75
499.049	2314.75
499.267	2475.75
499.484	2730.75
499.701	2928.75
499.918	3185.75
500.135	3534.75
500.352	3854.75
500.569	3990.75
500.786	3931.75
501.003	3805.75
501.22	3438.75
501.437	3137.75
501.654	2838.75
501.871	2661.75
502.088	2462.75
502.305	2295.75
502.522	2186.75
502.739	2088.75
502.956	1959.75
503.172	1917.75
503.389	1833.75
503.606	1797.75
503.823	1753.75
504.04	1707.75
504.256	1706.75
504.473	1733.75
504.69	1721.75
504.907	1703.75
505.123	1598.75
505.34	1526.75
505.557	1481.75
505.773	1443.75
505.99	1435.75
506.207	1404.75
506.423	1366.75
506.64	1361.75
506.856	1342.75
507.073	1309.75
507.289	1286.75
507.506	1303.75
507.722	1334.75
507.939	1316.75
508.155	1261.75
508.372	1255.75
508.588	1276.75
508.805	1237.75
509.021	1229.75
509.238	1217.75
509.454	1192.75
509.67	1219.75
509.887	1192.75
510.103	1169.75
510.319	1176.75
510.536	1215.75
510.752	1178.75
510.968	1174.75
511.184	1160.75
511.401	1194.75
511.617	1190.75
511.833	1159.75
512.049	1156.75
512.265	1180.75
512.481	1173.75
512.698	1166.75
512.914	1178.75
513.13	1158.75
513.346	1163.75
513.562	1186.75
513.778	1182.75
513.994	1202.75
514.21	1189.75
514.426	1168.75
514.642	1227.75
514.858	1198.75
515.074	1201.75
515.29	1196.75
515.506	1204.75
515.721	1219.75
515.937	1247.75
516.153	1286.75
516.369	1298.75
516.585	1330.75
516.801	1367.75
517.016	1448.75
517.232	1482.75
517.448	1550.75
517.664	1595.75
517.879	1568.75
518.095	1642.75
518.311	1601.75
518.527	1530.75
518.742	1488.75
518.958	1421.75
519.173	1366.75
519.389	1321.75
519.605	1302.75
519.82	1239.75
520.036	1288.75
520.251	1223.75
520.467	1184.75
520.682	1182.75
520.898	1165.75
521.113	1146.75
521.329	1141.75
521.544	1095.75
521.76	1128.75
521.975	1127.75
522.19	1123.75
522.406	1074.75
522.621	1090.75
522.836	1053.75
523.052	1091.75
523.267	1085.75
523.482	1082.75
523.698	1081.75
523.913	1063.75
524.128	1081.75
524.343	1065.75
524.559	1065.75
524.774	1035.75
524.989	1060.75
525.204	1024.75
525.419	1050.75
525.634	1061.75
525.849	1032.75
526.064	1055.75
526.28	1048.75
526.495	1011.75
526.71	1037.75
526.925	1003.75
527.14	1037.75
527.355	1031.75
527.57	1031.75
527.785	1040.75
527.999	1043.75
528.214	1036.75
528.429	1032.75
528.644	1070.75
528.859	1044.75
529.074	1031.75
529.289	1030.75
529.503	1036.75
529.718	1046.75
529.933	1051.75
530.148	1018.75
530.363	1023.75
530.577	1029.75
530.792	1011.75
531.007	1024.75
531.221	1035.75
531.436	1038.75
531.651	1029.75
531.865	1026.75
532.08	1042.75
532.295	1020.75
532.509	1033.75
532.724	995.75
532.938	999.75
533.153	1002.75
533.367	991.75
533.582	1040.75
533.796	974.75
534.011	1013.75
534.225	1024.75
534.44	1011.75
534.654	997.75
534.868	1010.75
535.083	995.75
535.297	971.75
535.511	978.75
535.726	968.75
535.94	948.75
536.154	966.75
536.369	978.75
536.583	958.75
536.797	960.75
537.011	952.75
537.225	958.75
537.44	943.75
537.654	933.75
537.868	914.75
538.082	960.75
538.296	928.75
538.51	940.75
538.724	924.75
538.938	922.75
539.153	937.75
539.367	945.75
539.581	914.75
539.795	922.75
540.009	920.75
540.222	925.75
540.436	908.75
540.65	921.75
540.864	910.75
541.078	899.75
541.292	923.75
541.506	932.75
541.72	926.75
541.934	922.75
542.147	923.75
542.361	903.75
542.575	930.75
542.789	903.75
543.002	914.75
543.216	910.75
543.43	894.75
543.644	886.75
543.857	903.75
544.071	906.75
544.285	898.75
544.498	907.75
544.712	896.75
544.925	914.75
545.139	915.75
545.352	936.75
545.566	939.75
545.779	950.75
545.993	935.75
546.206	946.75
546.42	922.75
546.633	938.75
546.847	942.75
547.06	920.75
547.274	952.75
547.487	936.75
547.7	923.75
547.914	962.75
548.127	946.75
548.34	972.75
548.554	950.75
548.767	931.75
548.98	960.75
549.193	935.75
549.407	954.75
549.62	931.75
549.833	953.75
550.046	957.75
550.259	954.75
550.473	909.75
550.686	911.75
550.899	930.75
551.112	910.75
551.325	899.75
551.538	921.75
551.751	934.75
551.964	917.75
552.177	923.75
552.39	937.75
552.603	944.75
552.816	980.75
553.029	980.75
553.242	1016.75
553.455	1042.75
553.667	1042.75
553.88	999.75
554.093	963.75
554.306	954.75
554.519	928.75
554.732	930.75
554.944	885.75
555.157	895.75
555.37	888.75
555.583	881.75
555.795	858.75
556.008	858.75
556.221	832.75
556.433	807.75
556.646	835.75
556.859	823.75
557.071	801.75
557.284	791.75
557.496	801.75
557.709	791.75
557.921	782.75
558.134	791.75
558.346	803.75
558.559	774.75
558.771	785.75
558.984	756.75
559.196	775.75
559.409	758.75
559.621	752.75
559.833	767.75
560.046	758.75
560.258	774.75
560.47	776.75
560.683	777.75
560.895	753.75
561.107	732.75
561.32	765.75
561.532	743.75
561.744	767.75
561.956	754.75
562.168	728.75
562.381	768.75
562.593	769.75
562.805	778.75
563.017	768.75
563.229	780.75
563.441	792.75
563.653	783.75
563.865	791.75
564.077	784.75
564.289	787.75
564.501	810.75
564.713	835.75
564.925	835.75
565.137	856.75
565.349	865.75
565.561	916.75
565.773	970.75
565.985	992.75
566.197	1027.75
566.408	1089.75
566.62	1128.75
566.832	1188.75
567.044	1257.75
567.255	1245.75
567.467	1285.75
567.679	1311.75
567.891	1351.75
568.102	1367.75
568.314	1270.75
568.526	1188.75
568.737	1104.75
568.949	1072.75
569.161	1001.75
569.372	946.75
569.584	867.75
569.795	843.75
570.007	823.75
570.218	784.75
570.43	787.75
570.641	782.75
570.853	778.75
571.064	763.75
571.276	793.75
571.487	778.75
571.698	730.75
571.91	744.75
572.121	720.75
572.333	690.75
572.544	668.75
572.755	657.75
572.966	671.75
573.178	642.75
573.389	646.75
573.6	650.75
573.811	636.75
574.023	626.75
574.234	617.75
574.445	622.75
574.656	628.75
574.867	633.75
575.078	629.75
575.289	622.75
575.501	598.75
575.712	584.75
575.923	587.75
576.134	594.75
576.345	578.75
576.556	582.75
576.767	596.75
576.978	571.75
577.188	572.75
577.399	571.75
577.61	558.75
577.821	552.75
578.032	567.75
578.243	552.75
578.454	589.75
578.665	560.75
578.875	571.75
579.086	551.75
579.297	567.75
579.508	560.75
579.718	542.75
579.929	540.75
580.14	543.75
580.35	580.75
580.561	561.75
580.772	529.75
580.982	516.75
581.193	523.75
581.403	533.75
581.614	530.75
581.825	527.75
582.035	524.75
582.246	534.75
582.456	517.75
582.667	521.75
582.877	518.75
583.087	502.75
583.298	540.75
583.508	518.75
583.719	517.75
583.929	512.75
584.139	520.75
584.35	511.75
584.56	496.75
584.77	508.75
584.981	499.75
585.191	490.75
585.401	504.75
585.611	495.75
585.821	515.75
586.032	527.75
586.242	482.75
586.452	494.75
586.662	486.75
586.872	472.75
587.082	489.75
587.292	515.75
587.502	498.75
587.713	508.75
587.923	496.75
588.133	492.75
588.343	504.75
588.553	510.75
588.762	479.75
588.972	515.75
589.182	603.75
589.392	523.75
589.602	485.75
589.812	555.75
590.022	501.75
590.232	482.75
590.441	518.75
590.651	504.75
590.861	521.75
591.071	502.75
591.281	512.75
591.49	516.75
591.7	523.75
591.91	534.75
592.119	550.75
592.329	545.75
592.539	575.75
592.748	569.75
592.958	591.75
593.167	620.75
593.377	595.75
593.587	624.75
593.796	623.75
594.006	618.75
594.215	622.75
594.424	585.75
594.634	588.75
594.843	602.75
595.053	566.75
595.262	551.75
595.472	524.75
595.681	530.75
595.89	496.75
596.1	497.75
596.309	507.75
596.518	457.75
596.727	487.75
596.937	464.75
597.146	448.75
597.355	469.75
597.564	448.75
597.774	460.75
597.983	432.75
598.192	434.75
598.401	443.75
598.61	421.75
598.819	415.75
599.028	427.75
599.237	440.75
599.446	417.75
599.655	416.75
599.864	421.75
600.073	422.75
600.282	405.75
600.491	411.75
600.7	417.75
600.909	440.75
601.118	409.75
601.327	391.75
601.536	393.75
601.745	390.75
601.953	384.75
602.162	386.75
602.371	412.75
602.58	397.75
602.789	386.75
602.997	374.75
603.206	371.75
603.415	382.75
603.623	398.75
603.832	392.75
604.041	373.75
604.249	394.75
604.458	374.75
604.666	373.75
604.875	383.75
605.084	401.75
605.292	367.75
605.501	377.75
605.709	366.75
605.918	371.75
606.126	358.75
606.334	362.75
606.543	373.75
606.751	372.75
606.96	379.75
607.168	353.75
607.376	342.75
607.585	367.75
607.793	354.75
608.001	372.75
608.21	380.75
608.418	378.75
608.626	366.75
608.834	348.75
609.043	358.75
609.251	371.75
609.459	368.75
609.667	355.75
609.875	371.75
610.083	369.75
610.291	349.75
610.499	390.75
610.707	371.75
610.916	356.75
611.124	382.75
611.332	360.75
611.54	334.75
611.748	339.75
611.955	358.75
612.163	360.75
612.371	344.75
612.579	342.75
612.787	331.75
612.995	340.75
613.203	340.75
613.411	351.75
613.618	326.75
613.826	339.75
614.034	338.75
614.242	352.75
614.449	355.75
614.657	347.75
614.865	328.75
615.072	350.75
615.28	353.75
615.488	357.75
615.695	358.75
615.903	331.75
616.111	346.75
616.318	357.75
616.526	340.75
616.733	337.75
616.941	332.75
617.148	318.75
617.356	345.75
617.563	345.75
617.771	336.75
617.978	310.75
618.185	316.75
618.393	337.75
618.6	338.75
618.807	356.75
619.015	344.75
619.222	346.75
619.429	343.75
619.637	331.75
619.844	330.75
620.051	316.75
620.258	345.75
620.466	322.75
620.673	304.75
620.88	300.75
621.087	314.75
621.294	330.75
621.501	307.75
621.708	314.75
621.915	341.75
622.122	339.75
622.329	316.75
622.536	337.75
622.743	322.75
622.95	332.75
623.157	322.75
623.364	308.75
623.571	302.75
623.778	327.75
623.985	304.75
624.192	304.75
624.399	314.75
624.606	279.75
624.812	298.75
625.019	304.75
625.226	282.75
625.433	309.75
625.639	293.75
625.846	281.75
626.053	277.75
626.259	279.75
626.466	308.75
626.673	292.75
626.879	294.75
627.086	286.75
627.293	284.75
627.499	272.75
627.706	292.75
627.912	274.75
628.119	272.75
628.325	294.75
628.532	302.75
628.738	291.75
628.945	292.75
629.151	273.75
629.357	292.75
629.564	268.75
629.77	279.75
629.976	272.75
630.183	290.75
630.389	264.75
630.595	262.75
630.802	271.75
631.008	274.75
631.214	267.75
631.42	254.75
631.627	282.75
631.833	280.75
632.039	255.75
632.245	268.75
632.451	264.75
632.657	263.75
632.863	242.75
633.069	272.75
633.275	257.75
633.481	264.75
633.688	257.75
633.893	264.75
634.099	275.75
634.305	242.75
634.511	256.75
634.717	244.75
634.923	261.75
635.129	231.75
635.335	253.75
635.541	244.75
635.747	261.75
635.952	248.75
636.158	254.75
636.364	253.75
636.57	244.75
636.775	252.75
636.981	241.75
637.187	249.75
637.392	241.75
637.598	250.75
637.804	247.75
638.009	243.75
638.215	258.75
638.421	229.75
638.626	235.75
638.832	243.75
639.037	236.75
639.243	247.75
639.448	242.75
639.654	234.75
639.859	238.75
640.065	249.75
640.27	241.75
640.475	239.75
640.681	229.75
640.886	237.75
641.091	235.75
641.297	218.75
641.502	221.75
641.707	230.75
641.913	220.75
642.118	228.75
642.323	228.75
642.528	224.75
642.733	242.75
642.939	219.75
643.144	203.75
643.349	230.75
643.554	242.75
643.759	228.75
643.964	218.75
644.169	234.75
644.374	228.75
644.579	219.75
644.784	211.75
644.989	228.75
645.194	225.75
645.399	229.75
645.604	234.75
645.809	224.75
646.014	212.75
646.219	217.75
646.423	225.75
646.628	238.75
646.833	214.75
647.038	232.75
647.243	227.75
647.447	240.75
647.652	233.75
647.857	230.75
648.062	234.75
648.266	250.75
648.471	225.75
648.676	234.75
648.88	235.75
649.085	229.75
649.289	241.75
649.494	228.75
649.698	232.75
649.903	223.75
650.107	235.75
650.312	226.75
650.516	216.75
650.721	215.75
650.925	226.75
651.13	239.75
651.334	224.75
651.539	202.75
651.743	220.75
651.947	198.75
652.152	203.75
652.356	188.75
652.56	199.75
652.764	189.75
652.969	190.75
653.173	180.75
653.377	190.75
653.581	186.75
653.785	189.75
653.99	171.75
654.194	183.75
654.398	191.75
654.602	190.75
654.806	186.75
655.01	184.75
655.214	188.75
655.418	186.75
655.622	183.75
655.826	197.75
656.03	193.75
656.234	201.75
656.438	182.75
656.642	185.75
656.846	176.75
657.049	180.75
657.253	171.75
657.457	154.75
657.661	162.75
657.865	148.75
658.068	140.75
658.272	138.75
658.476	134.75
658.68	126.75
658.883	143.75
659.087	126.75
659.291	120.75
659.494	114.75
659.698	106.75
659.901	119.75
660.105	106.75
660.309	100.75
660.512	94.75
660.716	113.75
660.919	112.75
661.123	103.75
661.326	89.75
661.53	98.75
661.733	86.75
661.936	95.75
662.14	78.75
662.343	91.75
662.546	89.75
662.75	75.75
662.953	112.75
663.156	88.75
663.36	82.75
663.563	97.75
663.766	90.75
663.969	68.75
664.173	60.75
664.376	73.75
664.579	85.75
664.782	84.75
664.985	80.75
665.188	81.75
665.391	78.75
665.594	80.75
665.797	77.75
666	73.75
666.203	85.75
666.406	71.75
666.609	76.75
666.812	80.75
667.015	75.75
667.218	76.75
667.421	79.75
667.624	77.75
667.827	85.75
668.03	87.75
668.232	95.75
668.435	79.75
668.638	76.75
668.841	82.75
669.043	96.75
669.246	54.75
669.449	80.75
669.651	86.75
669.854	78.75
670.057	72.75
670.259	85.75
670.462	74.75
670.665	71.75
670.867	78.75
671.07	82.75
671.272	73.75
671.475	71.75
671.677	85.75
671.88	83.75
672.082	78.75
672.284	97.75
672.487	69.75
672.689	72.75
672.892	74.75
