Data from NiCl2@0.125M.TitratingCurve.Agarose3%dH2O.NegLispCup.LampEnergy10.LIBS07252019_HRD10591_18-28-07-575.txt Node
Date: Thu Jul 25 18:28:07 EDT 2019
User: cochatt
Spectrometer: HR+D1059
Trigger mode: 1
Integration Time (sec): 1.000000E-1
Scans to average: 1
Electric dark correction enabled: true
Nonlinearity correction enabled: false
Boxcar width: 0
XAxis mode: Wavelengths
Number of Pixels in Spectrum: 2048
>>>>>Begin Spectral Data<<<<<
223.165	-24.94
223.4	-24.94
223.635	-24.94
223.869	-21.94
224.104	-18.94
224.338	-11.94
224.573	-19.94
224.808	-24.94
225.042	-15.94
225.277	-13.94
225.511	8.06
225.746	9.06
225.98	8.06
226.215	18.06
226.449	29.06
226.683	24.06
226.918	32.06
227.152	24.06
227.387	47.06
227.621	41.06
227.856	48.06
228.09	54.06
228.324	58.06
228.559	69.06
228.793	68.06
229.027	102.06
229.262	115.06
229.496	121.06
229.73	113.06
229.964	134.06
230.199	128.06
230.433	133.06
230.667	123.06
230.901	119.06
231.136	137.06
231.37	123.06
231.604	126.06
231.838	141.06
232.072	142.06
232.306	146.06
232.541	154.06
232.775	127.06
233.009	150.06
233.243	128.06
233.477	122.06
233.711	142.06
233.945	163.06
234.179	157.06
234.413	132.06
234.647	142.06
234.881	148.06
235.115	141.06
235.349	148.06
235.583	145.06
235.817	156.06
236.051	149.06
236.285	146.06
236.519	169.06
236.753	156.06
236.987	138.06
237.221	169.06
237.455	154.06
237.689	147.06
237.922	155.06
238.156	161.06
238.39	166.06
238.624	173.06
238.858	161.06
239.091	163.06
239.325	177.06
239.559	173.06
239.793	170.06
240.027	172.06
240.26	156.06
240.494	161.06
240.728	190.06
240.961	178.06
241.195	173.06
241.429	177.06
241.662	178.06
241.896	179.06
242.13	169.06
242.363	186.06
242.597	180.06
242.83	192.06
243.064	173.06
243.298	178.06
243.531	190.06
243.765	199.06
243.998	204.06
244.232	221.06
244.465	200.06
244.699	202.06
244.932	208.06
245.166	210.06
245.399	206.06
245.633	201.06
245.866	208.06
246.099	209.06
246.333	227.06
246.566	207.06
246.8	224.06
247.033	227.06
247.266	213.06
247.5	219.06
247.733	233.06
247.966	214.06
248.2	209.06
248.433	200.06
248.666	239.06
248.899	225.06
249.133	228.06
249.366	226.06
249.599	221.06
249.832	224.06
250.066	228.06
250.299	221.06
250.532	230.06
250.765	240.06
250.998	240.06
251.231	250.06
251.465	260.06
251.698	248.06
251.931	251.06
252.164	247.06
252.397	249.06
252.63	256.06
252.863	255.06
253.096	244.06
253.329	258.06
253.562	272.06
253.795	282.06
254.028	266.06
254.261	264.06
254.494	275.06
254.727	251.06
254.96	262.06
255.193	269.06
255.426	269.06
255.659	288.06
255.892	281.06
256.124	264.06
256.357	277.06
256.59	269.06
256.823	280.06
257.056	289.06
257.289	276.06
257.521	296.06
257.754	286.06
257.987	293.06
258.22	301.06
258.452	284.06
258.685	278.06
258.918	291.06
259.151	296.06
259.383	316.06
259.616	280.06
259.849	306.06
260.081	315.06
260.314	296.06
260.547	288.06
260.779	304.06
261.012	307.06
261.244	321.06
261.477	310.06
261.71	312.06
261.942	289.06
262.175	315.06
262.407	317.06
262.64	309.06
262.872	312.06
263.105	311.06
263.337	326.06
263.57	332.06
263.802	332.06
264.035	346.06
264.267	319.06
264.499	321.06
264.732	321.06
264.964	324.06
265.197	325.06
265.429	342.06
265.661	334.06
265.894	343.06
266.126	335.06
266.358	331.06
266.591	337.06
266.823	336.06
267.055	328.06
267.287	348.06
267.52	348.06
267.752	332.06
267.984	352.06
268.216	359.06
268.448	359.06
268.681	366.06
268.913	368.06
269.145	351.06
269.377	361.06
269.609	360.06
269.841	356.06
270.073	344.06
270.306	359.06
270.538	357.06
270.77	342.06
271.002	359.06
271.234	353.06
271.466	354.06
271.698	360.06
271.93	385.06
272.162	368.06
272.394	358.06
272.626	380.06
272.858	374.06
273.09	369.06
273.322	379.06
273.553	367.06
273.785	386.06
274.017	399.06
274.249	384.06
274.481	394.06
274.713	389.06
274.945	386.06
275.176	406.06
275.408	390.06
275.64	390.06
275.872	405.06
276.104	397.06
276.335	379.06
276.567	399.06
276.799	401.06
277.031	400.06
277.262	419.06
277.494	408.06
277.726	413.06
277.957	411.06
278.189	403.06
278.421	386.06
278.652	413.06
278.884	419.06
279.115	437.06
279.347	424.06
279.579	426.06
279.81	421.06
280.042	417.06
280.273	420.06
280.505	453.06
280.736	414.06
280.968	422.06
281.199	446.06
281.431	426.06
281.662	444.06
281.894	451.06
282.125	449.06
282.356	436.06
282.588	437.06
282.819	444.06
283.051	467.06
283.282	446.06
283.513	464.06
283.745	435.06
283.976	428.06
284.207	437.06
284.439	472.06
284.67	446.06
284.901	464.06
285.132	472.06
285.364	437.06
285.595	456.06
285.826	469.06
286.057	464.06
286.288	461.06
286.52	456.06
286.751	450.06
286.982	473.06
287.213	460.06
287.444	468.06
287.675	482.06
287.906	462.06
288.138	477.06
288.369	476.06
288.6	497.06
288.831	480.06
289.062	485.06
289.293	504.06
289.524	486.06
289.755	473.06
289.986	499.06
290.217	503.06
290.448	489.06
290.679	490.06
290.91	484.06
291.141	489.06
291.371	491.06
291.602	484.06
291.833	514.06
292.064	505.06
292.295	487.06
292.526	498.06
292.757	481.06
292.987	491.06
293.218	489.06
293.449	505.06
293.68	491.06
293.91	500.06
294.141	476.06
294.372	524.06
294.603	498.06
294.833	490.06
295.064	495.06
295.295	487.06
295.525	511.06
295.756	504.06
295.987	492.06
296.217	524.06
296.448	528.06
296.679	520.06
296.909	514.06
297.14	522.06
297.37	530.06
297.601	530.06
297.831	541.06
298.062	536.06
298.292	560.06
298.523	537.06
298.753	552.06
298.984	547.06
299.214	561.06
299.445	548.06
299.675	538.06
299.905	554.06
300.136	543.06
300.366	543.06
300.597	574.06
300.827	563.06
301.057	569.06
301.288	565.06
301.518	570.06
301.748	584.06
301.979	581.06
302.209	566.06
302.439	575.06
302.669	574.06
302.9	579.06
303.13	564.06
303.36	562.06
303.59	547.06
303.82	562.06
304.051	568.06
304.281	567.06
304.511	542.06
304.741	568.06
304.971	568.06
305.201	595.06
305.431	557.06
305.661	546.06
305.891	565.06
306.121	569.06
306.352	538.06
306.582	564.06
306.812	554.06
307.042	570.06
307.272	544.06
307.502	527.06
307.731	538.06
307.961	547.06
308.191	549.06
308.421	547.06
308.651	566.06
308.881	536.06
309.111	542.06
309.341	551.06
309.571	549.06
309.8	546.06
310.03	557.06
310.26	553.06
310.49	563.06
310.72	552.06
310.949	564.06
311.179	560.06
311.409	578.06
311.639	562.06
311.868	563.06
312.098	574.06
312.328	580.06
312.557	566.06
312.787	568.06
313.017	604.06
313.246	585.06
313.476	600.06
313.706	604.06
313.935	593.06
314.165	600.06
314.394	607.06
314.624	598.06
314.853	584.06
315.083	601.06
315.312	592.06
315.542	570.06
315.771	588.06
316.001	591.06
316.23	573.06
316.46	569.06
316.689	590.06
316.919	590.06
317.148	592.06
317.377	586.06
317.607	565.06
317.836	582.06
318.065	560.06
318.295	569.06
318.524	570.06
318.753	565.06
318.983	589.06
319.212	577.06
319.441	584.06
319.67	571.06
319.9	578.06
320.129	586.06
320.358	552.06
320.587	598.06
320.816	573.06
321.046	586.06
321.275	571.06
321.504	595.06
321.733	597.06
321.962	597.06
322.191	568.06
322.42	591.06
322.649	580.06
322.878	585.06
323.108	598.06
323.337	600.06
323.566	595.06
323.795	597.06
324.024	563.06
324.253	589.06
324.482	589.06
324.71	572.06
324.939	603.06
325.168	625.06
325.397	606.06
325.626	630.06
325.855	624.06
326.084	642.06
326.313	652.06
326.542	640.06
326.77	633.06
326.999	636.06
327.228	648.06
327.457	636.06
327.686	617.06
327.914	632.06
328.143	652.06
328.372	647.06
328.6	659.06
328.829	642.06
329.058	639.06
329.287	643.06
329.515	657.06
329.744	642.06
329.972	636.06
330.201	640.06
330.43	659.06
330.658	644.06
330.887	663.06
331.115	661.06
331.344	695.06
331.572	667.06
331.801	683.06
332.03	693.06
332.258	691.06
332.486	707.06
332.715	739.06
332.943	792.06
333.172	818.06
333.4	826.06
333.629	840.06
333.857	844.06
334.085	866.06
334.314	843.06
334.542	831.06
334.771	801.06
334.999	793.06
335.227	805.06
335.455	804.06
335.684	789.06
335.912	795.06
336.14	757.06
336.369	752.06
336.597	792.06
336.825	749.06
337.053	764.06
337.281	733.06
337.51	740.06
337.738	716.06
337.966	709.06
338.194	694.06
338.422	704.06
338.65	666.06
338.878	685.06
339.106	677.06
339.334	703.06
339.562	683.06
339.79	681.06
340.018	653.06
340.246	670.06
340.474	672.06
340.702	653.06
340.93	654.06
341.158	671.06
341.386	666.06
341.614	683.06
341.842	699.06
342.07	652.06
342.298	659.06
342.526	656.06
342.754	667.06
342.981	657.06
343.209	664.06
343.437	710.06
343.665	742.06
343.893	765.06
344.12	820.06
344.348	805.06
344.576	774.06
344.804	754.06
345.031	716.06
345.259	712.06
345.487	717.06
345.714	671.06
345.942	680.06
346.17	689.06
346.397	643.06
346.625	654.06
346.853	628.06
347.08	649.06
347.308	660.06
347.535	650.06
347.763	691.06
347.99	650.06
348.218	654.06
348.445	665.06
348.673	660.06
348.9	660.06
349.128	643.06
349.355	631.06
349.583	627.06
349.81	630.06
350.037	615.06
350.265	629.06
350.492	632.06
350.72	593.06
350.947	632.06
351.174	604.06
351.402	614.06
351.629	625.06
351.856	634.06
352.083	636.06
352.311	620.06
352.538	624.06
352.765	634.06
352.992	629.06
353.22	634.06
353.447	626.06
353.674	624.06
353.901	621.06
354.128	638.06
354.355	618.06
354.583	635.06
354.81	618.06
355.037	642.06
355.264	636.06
355.491	626.06
355.718	633.06
355.945	622.06
356.172	644.06
356.399	618.06
356.626	635.06
356.853	642.06
357.08	637.06
357.307	636.06
357.534	621.06
357.761	633.06
357.988	655.06
358.215	617.06
358.441	629.06
358.668	640.06
358.895	632.06
359.122	620.06
359.349	610.06
359.576	636.06
359.802	648.06
360.029	629.06
360.256	612.06
360.483	624.06
360.709	613.06
360.936	638.06
361.163	643.06
361.39	628.06
361.616	622.06
361.843	658.06
362.07	628.06
362.296	668.06
362.523	609.06
362.749	607.06
362.976	635.06
363.203	631.06
363.429	626.06
363.656	631.06
363.882	618.06
364.109	619.06
364.335	636.06
364.562	624.06
364.788	628.06
365.015	616.06
365.241	628.06
365.468	604.06
365.694	620.06
365.92	618.06
366.147	636.06
366.373	632.06
366.599	634.06
366.826	613.06
367.052	605.06
367.278	648.06
367.505	624.06
367.731	634.06
367.957	668.06
368.184	633.06
368.41	638.06
368.636	641.06
368.862	630.06
369.089	638.06
369.315	637.06
369.541	642.06
369.767	648.06
369.993	660.06
370.219	655.06
370.445	666.06
370.672	652.06
370.898	654.06
371.124	682.06
371.35	689.06
371.576	695.06
371.802	716.06
372.028	709.06
372.254	655.06
372.48	686.06
372.706	705.06
372.932	721.06
373.158	698.06
373.384	706.06
373.61	692.06
373.835	666.06
374.061	685.06
374.287	704.06
374.513	697.06
374.739	704.06
374.965	766.06
375.191	752.06
375.416	732.06
375.642	722.06
375.868	732.06
376.094	717.06
376.319	698.06
376.545	681.06
376.771	692.06
376.997	664.06
377.222	696.06
377.448	662.06
377.674	701.06
377.899	690.06
378.125	662.06
378.35	652.06
378.576	666.06
378.802	672.06
379.027	679.06
379.253	686.06
379.478	678.06
379.704	677.06
379.929	684.06
380.155	673.06
380.38	667.06
380.606	688.06
380.831	672.06
381.057	692.06
381.282	681.06
381.507	701.06
381.733	701.06
381.958	698.06
382.184	679.06
382.409	724.06
382.634	691.06
382.86	720.06
383.085	708.06
383.31	741.06
383.535	745.06
383.761	734.06
383.986	746.06
384.211	758.06
384.436	784.06
384.662	787.06
384.887	834.06
385.112	814.06
385.337	809.06
385.562	801.06
385.787	807.06
386.013	832.06
386.238	818.06
386.463	813.06
386.688	845.06
386.913	817.06
387.138	826.06
387.363	805.06
387.588	812.06
387.813	807.06
388.038	800.06
388.263	805.06
388.488	849.06
388.713	846.06
388.938	810.06
389.163	805.06
389.387	813.06
389.612	811.06
389.837	803.06
390.062	809.06
390.287	792.06
390.512	809.06
390.736	809.06
390.961	813.06
391.186	854.06
391.411	867.06
391.636	884.06
391.86	920.06
392.085	926.06
392.31	915.06
392.534	924.06
392.759	866.06
392.984	888.06
393.208	856.06
393.433	866.06
393.658	856.06
393.882	834.06
394.107	832.06
394.331	882.06
394.556	898.06
394.78	876.06
395.005	888.06
395.229	884.06
395.454	886.06
395.678	922.06
395.903	931.06
396.127	925.06
396.352	905.06
396.576	881.06
396.801	856.06
397.025	891.06
397.249	917.06
397.474	927.06
397.698	928.06
397.922	925.06
398.147	896.06
398.371	933.06
398.595	974.06
398.82	1032.06
399.044	1066.06
399.268	1202.06
399.492	1365.06
399.717	1512.06
399.941	1594.06
400.165	1417.06
400.389	1286.06
400.613	1200.06
400.837	1109.06
401.062	1054.06
401.286	1068.06
401.51	1038.06
401.734	1010.06
401.958	1035.06
402.182	1056.06
402.406	1047.06
402.63	1088.06
402.854	1076.06
403.078	1116.06
403.302	1127.06
403.526	1123.06
403.75	1177.06
403.974	1172.06
404.198	1157.06
404.422	1188.06
404.645	1187.06
404.869	1161.06
405.093	1169.06
405.317	1148.06
405.541	1146.06
405.765	1109.06
405.988	1106.06
406.212	1106.06
406.436	1119.06
406.66	1149.06
406.883	1190.06
407.107	1246.06
407.331	1273.06
407.555	1315.06
407.778	1312.06
408.002	1293.06
408.226	1277.06
408.449	1244.06
408.673	1206.06
408.896	1152.06
409.12	1153.06
409.344	1180.06
409.567	1194.06
409.791	1176.06
410.014	1175.06
410.238	1123.06
410.461	1130.06
410.685	1138.06
410.908	1133.06
411.132	1107.06
411.355	1075.06
411.578	1078.06
411.802	1063.06
412.025	1061.06
412.249	1089.06
412.472	1106.06
412.695	1077.06
412.919	1062.06
413.142	1063.06
413.365	1038.06
413.589	1060.06
413.812	1029.06
414.035	1016.06
414.258	1058.06
414.482	1026.06
414.705	1051.06
414.928	1055.06
415.151	1050.06
415.374	1048.06
415.597	1031.06
415.821	1003.06
416.044	1000.06
416.267	999.06
416.49	987.06
416.713	1003.06
416.936	1017.06
417.159	1026.06
417.382	1006.06
417.605	993.06
417.828	1026.06
418.051	1003.06
418.274	1017.06
418.497	1029.06
418.72	1059.06
418.943	1080.06
419.166	1112.06
419.389	1211.06
419.611	1173.06
419.834	1128.06
420.057	1083.06
420.28	1026.06
420.503	1013.06
420.726	1011.06
420.948	1000.06
421.171	1032.06
421.394	1005.06
421.617	1022.06
421.839	1000.06
422.062	997.06
422.285	1042.06
422.507	1031.06
422.73	1049.06
422.953	1045.06
423.175	1072.06
423.398	1053.06
423.621	1062.06
423.843	1084.06
424.066	1075.06
424.288	1090.06
424.511	1081.06
424.733	1053.06
424.956	1075.06
425.178	1047.06
425.401	1029.06
425.623	1050.06
425.846	1010.06
426.068	989.06
426.291	1021.06
426.513	987.06
426.735	992.06
426.958	988.06
427.18	951.06
427.402	918.06
427.625	945.06
427.847	954.06
428.069	940.06
428.292	917.06
428.514	936.06
428.736	932.06
428.958	941.06
429.181	918.06
429.403	926.06
429.625	896.06
429.847	904.06
430.069	894.06
430.292	898.06
430.514	869.06
430.736	914.06
430.958	890.06
431.18	899.06
431.402	912.06
431.624	918.06
431.846	898.06
432.068	938.06
432.29	919.06
432.512	889.06
432.734	922.06
432.956	933.06
433.178	969.06
433.4	938.06
433.622	960.06
433.844	942.06
434.066	956.06
434.287	954.06
434.509	993.06
434.731	1020.06
434.953	1071.06
435.175	1075.06
435.397	1047.06
435.618	978.06
435.84	979.06
436.062	939.06
436.284	920.06
436.505	925.06
436.727	940.06
436.949	925.06
437.17	947.06
437.392	930.06
437.614	915.06
437.835	890.06
438.057	914.06
438.278	877.06
438.5	888.06
438.721	871.06
438.943	926.06
439.165	893.06
439.386	931.06
439.608	901.06
439.829	905.06
440.05	944.06
440.272	946.06
440.493	926.06
440.715	972.06
440.936	964.06
441.158	952.06
441.379	1024.06
441.6	1083.06
441.822	1070.06
442.043	1043.06
442.264	1039.06
442.486	1031.06
442.707	1036.06
442.928	1050.06
443.149	1033.06
443.371	995.06
443.592	1069.06
443.813	1053.06
444.034	1038.06
444.255	1111.06
444.476	1149.06
444.698	1206.06
444.919	1222.06
445.14	1353.06
445.361	1206.06
445.582	1130.06
445.803	1028.06
446.024	1019.06
446.245	1012.06
446.466	982.06
446.687	958.06
446.908	940.06
447.129	910.06
447.35	902.06
447.571	932.06
447.792	887.06
448.013	876.06
448.234	870.06
448.455	866.06
448.675	868.06
448.896	877.06
449.117	825.06
449.338	848.06
449.559	848.06
449.779	855.06
450	840.06
450.221	869.06
450.442	872.06
450.662	876.06
450.883	874.06
451.104	904.06
451.324	868.06
451.545	894.06
451.766	860.06
451.986	869.06
452.207	867.06
452.428	839.06
452.648	850.06
452.869	854.06
453.089	843.06
453.31	850.06
453.53	846.06
453.751	839.06
453.971	817.06
454.192	822.06
454.412	829.06
454.633	845.06
454.853	813.06
455.073	808.06
455.294	820.06
455.514	809.06
455.734	820.06
455.955	809.06
456.175	805.06
456.395	834.06
456.616	788.06
456.836	805.06
457.056	802.06
457.276	792.06
457.497	793.06
457.717	809.06
457.937	804.06
458.157	842.06
458.377	840.06
458.598	859.06
458.818	876.06
459.038	894.06
459.258	926.06
459.478	968.06
459.698	970.06
459.918	990.06
460.138	1055.06
460.358	1102.06
460.578	1131.06
460.798	1122.06
461.018	1151.06
461.238	1136.06
461.458	1117.06
461.678	1080.06
461.898	1106.06
462.118	1154.06
462.338	1195.06
462.558	1223.06
462.777	1288.06
462.997	1373.06
463.217	1452.06
463.437	1462.06
463.657	1410.06
463.876	1331.06
464.096	1328.06
464.316	1302.06
464.536	1324.06
464.755	1276.06
464.975	1220.06
465.195	1152.06
465.414	1084.06
465.634	1045.06
465.854	972.06
466.073	964.06
466.293	951.06
466.512	915.06
466.732	904.06
466.951	907.06
467.171	899.06
467.391	926.06
467.61	910.06
467.829	903.06
468.049	894.06
468.268	861.06
468.488	915.06
468.707	868.06
468.927	885.06
469.146	851.06
469.365	876.06
469.585	880.06
469.804	900.06
470.023	907.06
470.243	932.06
470.462	935.06
470.681	959.06
470.901	952.06
471.12	923.06
471.339	918.06
471.558	893.06
471.777	918.06
471.997	880.06
472.216	895.06
472.435	869.06
472.654	845.06
472.873	859.06
473.092	850.06
473.311	823.06
473.53	821.06
473.749	814.06
473.968	857.06
474.187	852.06
474.406	848.06
474.625	829.06
474.844	842.06
475.063	845.06
475.282	851.06
475.501	856.06
475.72	857.06
475.939	862.06
476.158	878.06
476.377	853.06
476.596	900.06
476.814	919.06
477.033	900.06
477.252	919.06
477.471	912.06
477.69	980.06
477.908	990.06
478.127	1006.06
478.346	1038.06
478.564	1037.06
478.783	1016.06
479.002	1089.06
479.22	1059.06
479.439	1064.06
479.658	1064.06
479.876	1040.06
480.095	1083.06
480.313	1138.06
480.532	1147.06
480.751	1142.06
480.969	1109.06
481.188	1066.06
481.406	1048.06
481.624	1000.06
481.843	1002.06
482.061	989.06
482.28	989.06
482.498	1008.06
482.717	977.06
482.935	992.06
483.153	1006.06
483.372	976.06
483.59	986.06
483.808	954.06
484.027	1014.06
484.245	1047.06
484.463	976.06
484.681	984.06
484.9	1033.06
485.118	1014.06
485.336	1026.06
485.554	1011.06
485.772	1022.06
485.99	1054.06
486.209	1055.06
486.427	1057.06
486.645	1032.06
486.863	1041.06
487.081	1054.06
487.299	1020.06
487.517	1033.06
487.735	1027.06
487.953	1040.06
488.171	1034.06
488.389	1049.06
488.607	1018.06
488.825	1032.06
489.043	1008.06
489.261	1019.06
489.479	1015.06
489.696	1003.06
489.914	1020.06
490.132	1048.06
490.35	1027.06
490.568	1017.06
490.786	1038.06
491.003	1056.06
491.221	1046.06
491.439	1030.06
491.657	1024.06
491.874	1053.06
492.092	1059.06
492.31	1045.06
492.527	1065.06
492.745	1074.06
492.963	1035.06
493.18	1066.06
493.398	1080.06
493.615	1109.06
493.833	1101.06
494.05	1105.06
494.268	1109.06
494.485	1117.06
494.703	1055.06
494.92	1114.06
495.138	1062.06
495.355	1122.06
495.573	1121.06
495.79	1088.06
496.008	1112.06
496.225	1102.06
496.442	1092.06
496.66	1172.06
496.877	1127.06
497.094	1208.06
497.312	1213.06
497.529	1209.06
497.746	1249.06
497.963	1312.06
498.181	1332.06
498.398	1369.06
498.615	1426.06
498.832	1548.06
499.049	1652.06
499.267	1802.06
499.484	1922.06
499.701	2141.06
499.918	2420.06
500.135	2714.06
500.352	2987.06
500.569	3131.06
500.786	3147.06
501.003	2965.06
501.22	2680.06
501.437	2400.06
501.654	2121.06
501.871	1924.06
502.088	1770.06
502.305	1678.06
502.522	1587.06
502.739	1501.06
502.956	1425.06
503.172	1387.06
503.389	1328.06
503.606	1289.06
503.823	1264.06
504.04	1226.06
504.256	1238.06
504.473	1257.06
504.69	1275.06
504.907	1283.06
505.123	1198.06
505.34	1159.06
505.557	1108.06
505.773	1076.06
505.99	1032.06
506.207	1021.06
506.423	1025.06
506.64	1003.06
506.856	974.06
507.073	982.06
507.289	961.06
507.506	962.06
507.722	998.06
507.939	957.06
508.155	937.06
508.372	944.06
508.588	907.06
508.805	939.06
509.021	912.06
509.238	904.06
509.454	884.06
509.67	892.06
509.887	872.06
510.103	884.06
510.319	905.06
510.536	886.06
510.752	877.06
510.968	872.06
511.184	864.06
511.401	882.06
511.617	864.06
511.833	882.06
512.049	836.06
512.265	870.06
512.481	875.06
512.698	858.06
512.914	878.06
513.13	877.06
513.346	878.06
513.562	863.06
513.778	867.06
513.994	856.06
514.21	873.06
514.426	876.06
514.642	878.06
514.858	894.06
515.074	911.06
515.29	881.06
515.506	899.06
515.721	936.06
515.937	950.06
516.153	967.06
516.369	983.06
516.585	989.06
516.801	1039.06
517.016	1030.06
517.232	1096.06
517.448	1160.06
517.664	1190.06
517.879	1189.06
518.095	1194.06
518.311	1172.06
518.527	1132.06
518.742	1088.06
518.958	1045.06
519.173	1025.06
519.389	967.06
519.605	970.06
519.82	941.06
520.036	929.06
520.251	913.06
520.467	898.06
520.682	899.06
520.898	860.06
521.113	852.06
521.329	843.06
521.544	854.06
521.76	863.06
521.975	825.06
522.19	816.06
522.406	866.06
522.621	830.06
522.836	833.06
523.052	842.06
523.267	846.06
523.482	812.06
523.698	824.06
523.913	836.06
524.128	818.06
524.343	822.06
524.559	810.06
524.774	792.06
524.989	787.06
525.204	811.06
525.419	789.06
525.634	798.06
525.849	818.06
526.064	809.06
526.28	806.06
526.495	793.06
526.71	780.06
526.925	786.06
527.14	786.06
527.355	779.06
527.57	792.06
527.785	796.06
527.999	829.06
528.214	801.06
528.429	793.06
528.644	783.06
528.859	787.06
529.074	785.06
529.289	792.06
529.503	805.06
529.718	792.06
529.933	791.06
530.148	800.06
530.363	814.06
530.577	788.06
530.792	780.06
531.007	790.06
531.221	793.06
531.436	781.06
531.651	820.06
531.865	785.06
532.08	770.06
532.295	795.06
532.509	778.06
532.724	787.06
532.938	812.06
533.153	824.06
533.367	781.06
533.582	796.06
533.796	804.06
534.011	773.06
534.225	777.06
534.44	769.06
534.654	786.06
534.868	786.06
535.083	797.06
535.297	770.06
535.511	764.06
535.726	771.06
535.94	760.06
536.154	752.06
536.369	754.06
536.583	731.06
536.797	747.06
537.011	732.06
537.225	731.06
537.44	738.06
537.654	717.06
537.868	741.06
538.082	730.06
538.296	736.06
538.51	722.06
538.724	745.06
538.938	728.06
539.153	724.06
539.367	731.06
539.581	723.06
539.795	708.06
540.009	722.06
540.222	736.06
540.436	737.06
540.65	716.06
540.864	727.06
541.078	721.06
541.292	748.06
541.506	749.06
541.72	718.06
541.934	707.06
542.147	725.06
542.361	747.06
542.575	713.06
542.789	700.06
543.002	710.06
543.216	713.06
543.43	715.06
543.644	707.06
543.857	718.06
544.071	715.06
544.285	717.06
544.498	716.06
544.712	708.06
544.925	728.06
545.139	724.06
545.352	727.06
545.566	740.06
545.779	741.06
545.993	738.06
546.206	724.06
546.42	744.06
546.633	752.06
546.847	744.06
547.06	742.06
547.274	714.06
547.487	729.06
547.7	731.06
547.914	715.06
548.127	733.06
548.34	736.06
548.554	726.06
548.767	755.06
548.98	772.06
549.193	747.06
549.407	741.06
549.62	753.06
549.833	761.06
550.046	747.06
550.259	717.06
550.473	744.06
550.686	745.06
550.899	753.06
551.112	706.06
551.325	704.06
551.538	728.06
551.751	711.06
551.964	734.06
552.177	723.06
552.39	757.06
552.603	757.06
552.816	770.06
553.029	786.06
553.242	807.06
553.455	804.06
553.667	796.06
553.88	792.06
554.093	746.06
554.306	783.06
554.519	752.06
554.732	753.06
554.944	700.06
555.157	709.06
555.37	695.06
555.583	674.06
555.795	682.06
556.008	662.06
556.221	647.06
556.433	680.06
556.646	645.06
556.859	652.06
557.071	647.06
557.284	622.06
557.496	644.06
557.709	634.06
557.921	648.06
558.134	630.06
558.346	615.06
558.559	581.06
558.771	616.06
558.984	635.06
559.196	630.06
559.409	605.06
559.621	613.06
559.833	627.06
560.046	638.06
560.258	612.06
560.47	625.06
560.683	632.06
560.895	617.06
561.107	605.06
561.32	613.06
561.532	615.06
561.744	605.06
561.956	608.06
562.168	615.06
562.381	602.06
562.593	619.06
562.805	600.06
563.017	617.06
563.229	613.06
563.441	615.06
563.653	623.06
563.865	626.06
564.077	639.06
564.289	628.06
564.501	627.06
564.713	660.06
564.925	660.06
565.137	653.06
565.349	665.06
565.561	709.06
565.773	764.06
565.985	779.06
566.197	831.06
566.408	842.06
566.62	913.06
566.832	958.06
567.044	984.06
567.255	1003.06
567.467	1061.06
567.679	1082.06
567.891	1131.06
568.102	1150.06
568.314	1090.06
568.526	1021.06
568.737	929.06
568.949	864.06
569.161	780.06
569.372	754.06
569.584	696.06
569.795	672.06
570.007	682.06
570.218	657.06
570.43	617.06
570.641	639.06
570.853	643.06
571.064	634.06
571.276	630.06
571.487	586.06
571.698	620.06
571.91	569.06
572.121	581.06
572.333	553.06
572.544	554.06
572.755	546.06
572.966	521.06
573.178	520.06
573.389	541.06
573.6	526.06
573.811	516.06
574.023	526.06
574.234	526.06
574.445	526.06
574.656	505.06
574.867	507.06
575.078	521.06
575.289	499.06
575.501	481.06
575.712	483.06
575.923	491.06
576.134	487.06
576.345	482.06
576.556	496.06
576.767	466.06
576.978	497.06
577.188	467.06
577.399	468.06
577.61	478.06
577.821	484.06
578.032	448.06
578.243	481.06
578.454	473.06
578.665	474.06
578.875	454.06
579.086	440.06
579.297	466.06
579.508	469.06
579.718	472.06
579.929	473.06
580.14	448.06
580.35	456.06
580.561	463.06
580.772	446.06
580.982	452.06
581.193	431.06
581.403	448.06
581.614	425.06
581.825	426.06
582.035	440.06
582.246	443.06
582.456	432.06
582.667	457.06
582.877	438.06
583.087	438.06
583.298	421.06
583.508	421.06
583.719	433.06
583.929	436.06
584.139	399.06
584.35	404.06
584.56	420.06
584.77	429.06
584.981	432.06
585.191	413.06
585.401	392.06
585.611	411.06
585.821	408.06
586.032	416.06
586.242	416.06
586.452	403.06
586.662	401.06
586.872	413.06
587.082	404.06
587.292	425.06
587.502	400.06
587.713	391.06
587.923	408.06
588.133	415.06
588.343	420.06
588.553	416.06
588.762	393.06
588.972	401.06
589.182	412.06
589.392	427.06
589.602	398.06
589.812	421.06
590.022	426.06
590.232	438.06
590.441	407.06
590.651	410.06
590.861	432.06
591.071	438.06
591.281	416.06
591.49	434.06
591.7	451.06
591.91	450.06
592.119	430.06
592.329	448.06
592.539	464.06
592.748	501.06
592.958	487.06
593.167	481.06
593.377	519.06
593.587	506.06
593.796	503.06
594.006	544.06
594.215	532.06
594.424	526.06
594.634	513.06
594.843	490.06
595.053	468.06
595.262	463.06
595.472	456.06
595.681	457.06
595.89	437.06
596.1	413.06
596.309	412.06
596.518	417.06
596.727	397.06
596.937	404.06
597.146	382.06
597.355	395.06
597.564	399.06
597.774	374.06
597.983	392.06
598.192	355.06
598.401	357.06
598.61	370.06
598.819	352.06
599.028	356.06
599.237	351.06
599.446	368.06
599.655	359.06
599.864	354.06
600.073	336.06
600.282	354.06
600.491	363.06
600.7	356.06
600.909	365.06
601.118	341.06
601.327	341.06
601.536	374.06
601.745	354.06
601.953	359.06
602.162	363.06
602.371	339.06
602.58	324.06
602.789	349.06
602.997	348.06
603.206	357.06
603.415	364.06
603.623	354.06
603.832	340.06
604.041	334.06
604.249	340.06
604.458	336.06
604.666	353.06
604.875	317.06
605.084	346.06
605.292	328.06
605.501	326.06
605.709	341.06
605.918	343.06
606.126	325.06
606.334	310.06
606.543	335.06
606.751	328.06
606.96	309.06
607.168	307.06
607.376	318.06
607.585	321.06
607.793	320.06
608.001	330.06
608.21	312.06
608.418	323.06
608.626	316.06
608.834	304.06
609.043	327.06
609.251	308.06
609.459	299.06
609.667	321.06
609.875	323.06
610.083	308.06
610.291	322.06
610.499	320.06
610.707	304.06
610.916	313.06
611.124	315.06
611.332	325.06
611.54	301.06
611.748	310.06
611.955	301.06
612.163	309.06
612.371	306.06
612.579	326.06
612.787	312.06
612.995	320.06
613.203	326.06
613.411	306.06
613.618	310.06
613.826	300.06
614.034	305.06
614.242	306.06
614.449	310.06
614.657	287.06
614.865	320.06
615.072	294.06
615.28	297.06
615.488	314.06
615.695	295.06
615.903	324.06
616.111	314.06
616.318	306.06
616.526	290.06
616.733	308.06
616.941	317.06
617.148	304.06
617.356	329.06
617.563	306.06
617.771	301.06
617.978	317.06
618.185	302.06
618.393	297.06
618.6	315.06
618.807	302.06
619.015	304.06
619.222	300.06
619.429	290.06
619.637	285.06
619.844	288.06
620.051	298.06
620.258	313.06
620.466	290.06
620.673	274.06
620.88	266.06
621.087	286.06
621.294	286.06
621.501	300.06
621.708	277.06
621.915	295.06
622.122	291.06
622.329	286.06
622.536	278.06
622.743	272.06
622.95	278.06
623.157	279.06
623.364	289.06
623.571	261.06
623.778	271.06
623.985	283.06
624.192	267.06
624.399	255.06
624.606	275.06
624.812	270.06
625.019	255.06
625.226	264.06
625.433	277.06
625.639	283.06
625.846	274.06
626.053	280.06
626.259	270.06
626.466	266.06
626.673	255.06
626.879	253.06
627.086	265.06
627.293	254.06
627.499	275.06
627.706	269.06
627.912	249.06
628.119	264.06
628.325	240.06
628.532	260.06
628.738	286.06
628.945	258.06
629.151	249.06
629.357	260.06
629.564	240.06
629.77	243.06
629.976	262.06
630.183	253.06
630.389	250.06
630.595	228.06
630.802	245.06
631.008	244.06
631.214	230.06
631.42	251.06
631.627	250.06
631.833	238.06
632.039	250.06
632.245	246.06
632.451	231.06
632.657	228.06
632.863	231.06
633.069	236.06
633.275	231.06
633.481	225.06
633.688	226.06
633.893	232.06
634.099	230.06
634.305	235.06
634.511	236.06
634.717	230.06
634.923	234.06
635.129	231.06
635.335	230.06
635.541	230.06
635.747	227.06
635.952	217.06
636.158	220.06
636.364	246.06
636.57	236.06
636.775	228.06
636.981	235.06
637.187	221.06
637.392	212.06
637.598	218.06
637.804	229.06
638.009	221.06
638.215	226.06
638.421	219.06
638.626	219.06
638.832	215.06
639.037	234.06
639.243	225.06
639.448	216.06
639.654	228.06
639.859	217.06
640.065	234.06
640.27	206.06
640.475	216.06
640.681	217.06
640.886	228.06
641.091	212.06
641.297	219.06
641.502	208.06
641.707	231.06
641.913	206.06
642.118	204.06
642.323	207.06
642.528	210.06
642.733	204.06
642.939	216.06
643.144	201.06
643.349	208.06
643.554	217.06
643.759	197.06
643.964	212.06
644.169	183.06
644.374	197.06
644.579	217.06
644.784	208.06
644.989	217.06
645.194	208.06
645.399	186.06
645.604	211.06
645.809	196.06
646.014	193.06
646.219	201.06
646.423	180.06
646.628	197.06
646.833	205.06
647.038	206.06
647.243	204.06
647.447	210.06
647.652	194.06
647.857	209.06
648.062	237.06
648.266	208.06
648.471	206.06
648.676	220.06
648.88	213.06
649.085	214.06
649.289	213.06
649.494	219.06
649.698	199.06
649.903	193.06
650.107	189.06
650.312	216.06
650.516	203.06
650.721	212.06
650.925	206.06
651.13	170.06
651.334	185.06
651.539	196.06
651.743	186.06
651.947	198.06
652.152	180.06
652.356	193.06
652.56	178.06
652.764	184.06
652.969	187.06
653.173	185.06
653.377	159.06
653.581	163.06
653.785	165.06
653.99	165.06
654.194	179.06
654.398	154.06
654.602	173.06
654.806	171.06
655.01	160.06
655.214	171.06
655.418	161.06
655.622	164.06
655.826	170.06
656.03	189.06
656.234	184.06
656.438	174.06
656.642	173.06
656.846	165.06
657.049	160.06
657.253	151.06
657.457	138.06
657.661	153.06
657.865	149.06
658.068	139.06
658.272	128.06
658.476	124.06
658.68	134.06
658.883	109.06
659.087	101.06
659.291	108.06
659.494	80.06
659.698	117.06
659.901	107.06
660.105	103.06
660.309	101.06
660.512	101.06
660.716	105.06
660.919	95.06
661.123	89.06
661.326	97.06
661.53	106.06
661.733	104.06
661.936	87.06
662.14	90.06
662.343	89.06
662.546	86.06
662.75	109.06
662.953	89.06
663.156	91.06
663.36	78.06
663.563	83.06
663.766	71.06
663.969	89.06
664.173	78.06
664.376	82.06
664.579	88.06
664.782	83.06
664.985	92.06
665.188	91.06
665.391	94.06
665.594	78.06
665.797	78.06
666	82.06
666.203	86.06
666.406	89.06
666.609	84.06
666.812	78.06
667.015	85.06
667.218	77.06
667.421	78.06
667.624	87.06
667.827	78.06
668.03	79.06
668.232	91.06
668.435	79.06
668.638	86.06
668.841	78.06
669.043	76.06
669.246	85.06
669.449	86.06
669.651	76.06
669.854	83.06
670.057	66.06
670.259	81.06
670.462	82.06
670.665	86.06
670.867	85.06
671.07	66.06
671.272	96.06
671.475	90.06
671.677	77.06
671.88	85.06
672.082	78.06
672.284	79.06
672.487	88.06
672.689	77.06
672.892	73.06
