Data from NiCl2@0.0625M.TitratingCurve.Agarose3%dH2O.NegLispCup.LampEnergy10.LIBS07252019_HRD10591_18-34-44-576.txt Node
Date: Thu Jul 25 18:34:44 EDT 2019
User: cochatt
Spectrometer: HR+D1059
Trigger mode: 1
Integration Time (sec): 1.000000E-1
Scans to average: 1
Electric dark correction enabled: true
Nonlinearity correction enabled: false
Boxcar width: 0
XAxis mode: Wavelengths
Number of Pixels in Spectrum: 2048
>>>>>Begin Spectral Data<<<<<
223.165	-10.75
223.4	-10.75
223.635	-10.75
223.869	-1.75
224.104	-12.75
224.338	-6.75
224.573	-14.75
224.808	-5.75
225.042	-9.75
225.277	-10.75
225.511	-10.75
225.746	-2.75
225.98	3.25
226.215	-1.75
226.449	11.25
226.683	28.25
226.918	23.25
227.152	22.25
227.387	30.25
227.621	41.25
227.856	47.25
228.09	55.25
228.324	56.25
228.559	57.25
228.793	89.25
229.027	135.25
229.262	159.25
229.496	160.25
229.73	169.25
229.964	184.25
230.199	168.25
230.433	167.25
230.667	184.25
230.901	162.25
231.136	182.25
231.37	204.25
231.604	179.25
231.838	193.25
232.072	184.25
232.306	189.25
232.541	191.25
232.775	185.25
233.009	197.25
233.243	199.25
233.477	203.25
233.711	210.25
233.945	209.25
234.179	207.25
234.413	200.25
234.647	209.25
234.881	211.25
235.115	210.25
235.349	207.25
235.583	199.25
235.817	216.25
236.051	212.25
236.285	229.25
236.519	218.25
236.753	233.25
236.987	233.25
237.221	234.25
237.455	216.25
237.689	234.25
237.922	233.25
238.156	257.25
238.39	247.25
238.624	245.25
238.858	246.25
239.091	255.25
239.325	259.25
239.559	254.25
239.793	257.25
240.027	261.25
240.26	247.25
240.494	232.25
240.728	254.25
240.961	263.25
241.195	271.25
241.429	288.25
241.662	293.25
241.896	306.25
242.13	298.25
242.363	285.25
242.597	273.25
242.83	294.25
243.064	286.25
243.298	293.25
243.531	322.25
243.765	300.25
243.998	323.25
244.232	301.25
244.465	326.25
244.699	317.25
244.932	317.25
245.166	331.25
245.399	345.25
245.633	319.25
245.866	327.25
246.099	333.25
246.333	334.25
246.566	344.25
246.8	329.25
247.033	354.25
247.266	348.25
247.5	348.25
247.733	370.25
247.966	361.25
248.2	362.25
248.433	364.25
248.666	370.25
248.899	357.25
249.133	381.25
249.366	369.25
249.599	387.25
249.832	384.25
250.066	370.25
250.299	381.25
250.532	395.25
250.765	393.25
250.998	381.25
251.231	417.25
251.465	391.25
251.698	411.25
251.931	400.25
252.164	396.25
252.397	421.25
252.63	390.25
252.863	415.25
253.096	433.25
253.329	439.25
253.562	422.25
253.795	457.25
254.028	439.25
254.261	451.25
254.494	446.25
254.727	443.25
254.96	418.25
255.193	437.25
255.426	438.25
255.659	458.25
255.892	455.25
256.124	461.25
256.357	459.25
256.59	454.25
256.823	452.25
257.056	475.25
257.289	471.25
257.521	493.25
257.754	480.25
257.987	483.25
258.22	486.25
258.452	481.25
258.685	501.25
258.918	480.25
259.151	490.25
259.383	505.25
259.616	506.25
259.849	502.25
260.081	493.25
260.314	503.25
260.547	513.25
260.779	502.25
261.012	516.25
261.244	527.25
261.477	531.25
261.71	516.25
261.942	533.25
262.175	526.25
262.407	537.25
262.64	517.25
262.872	513.25
263.105	535.25
263.337	549.25
263.57	546.25
263.802	528.25
264.035	543.25
264.267	537.25
264.499	561.25
264.732	553.25
264.964	565.25
265.197	546.25
265.429	559.25
265.661	554.25
265.894	572.25
266.126	583.25
266.358	565.25
266.591	583.25
266.823	583.25
267.055	567.25
267.287	591.25
267.52	568.25
267.752	570.25
267.984	625.25
268.216	603.25
268.448	599.25
268.681	588.25
268.913	590.25
269.145	620.25
269.377	597.25
269.609	615.25
269.841	598.25
270.073	615.25
270.306	647.25
270.538	620.25
270.77	603.25
271.002	597.25
271.234	637.25
271.466	634.25
271.698	615.25
271.93	631.25
272.162	651.25
272.394	647.25
272.626	643.25
272.858	615.25
273.09	644.25
273.322	664.25
273.553	645.25
273.785	671.25
274.017	668.25
274.249	662.25
274.481	670.25
274.713	698.25
274.945	666.25
275.176	685.25
275.408	691.25
275.64	686.25
275.872	702.25
276.104	694.25
276.335	678.25
276.567	712.25
276.799	698.25
277.031	686.25
277.262	706.25
277.494	700.25
277.726	721.25
277.957	723.25
278.189	723.25
278.421	684.25
278.652	705.25
278.884	712.25
279.115	717.25
279.347	725.25
279.579	734.25
279.81	707.25
280.042	726.25
280.273	753.25
280.505	742.25
280.736	765.25
280.968	765.25
281.199	747.25
281.431	775.25
281.662	777.25
281.894	784.25
282.125	762.25
282.356	786.25
282.588	754.25
282.819	745.25
283.051	780.25
283.282	765.25
283.513	781.25
283.745	799.25
283.976	784.25
284.207	791.25
284.439	804.25
284.67	839.25
284.901	787.25
285.132	779.25
285.364	802.25
285.595	833.25
285.826	787.25
286.057	819.25
286.288	816.25
286.52	823.25
286.751	796.25
286.982	844.25
287.213	804.25
287.444	840.25
287.675	823.25
287.906	830.25
288.138	844.25
288.369	812.25
288.6	851.25
288.831	837.25
289.062	845.25
289.293	849.25
289.524	823.25
289.755	867.25
289.986	855.25
290.217	866.25
290.448	867.25
290.679	822.25
290.91	855.25
291.141	865.25
291.371	859.25
291.602	860.25
291.833	845.25
292.064	863.25
292.295	850.25
292.526	869.25
292.757	861.25
292.987	839.25
293.218	862.25
293.449	865.25
293.68	859.25
293.91	867.25
294.141	861.25
294.372	871.25
294.603	890.25
294.833	888.25
295.064	882.25
295.295	892.25
295.525	879.25
295.756	908.25
295.987	905.25
296.217	896.25
296.448	894.25
296.679	887.25
296.909	905.25
297.14	885.25
297.37	921.25
297.601	926.25
297.831	921.25
298.062	929.25
298.292	926.25
298.523	947.25
298.753	941.25
298.984	927.25
299.214	949.25
299.445	949.25
299.675	940.25
299.905	962.25
300.136	950.25
300.366	938.25
300.597	939.25
300.827	972.25
301.057	959.25
301.288	981.25
301.518	983.25
301.748	989.25
301.979	995.25
302.209	999.25
302.439	1025.25
302.669	994.25
302.9	985.25
303.13	951.25
303.36	987.25
303.59	1010.25
303.82	1005.25
304.051	990.25
304.281	1007.25
304.511	986.25
304.741	998.25
304.971	994.25
305.201	1009.25
305.431	990.25
305.661	987.25
305.891	966.25
306.121	997.25
306.352	964.25
306.582	976.25
306.812	961.25
307.042	987.25
307.272	976.25
307.502	972.25
307.731	998.25
307.961	976.25
308.191	955.25
308.421	951.25
308.651	976.25
308.881	949.25
309.111	978.25
309.341	974.25
309.571	973.25
309.8	975.25
310.03	1007.25
310.26	980.25
310.49	965.25
310.72	981.25
310.949	986.25
311.179	999.25
311.409	993.25
311.639	986.25
311.868	1049.25
312.098	983.25
312.328	1010.25
312.557	1024.25
312.787	1014.25
313.017	1013.25
313.246	1057.25
313.476	1001.25
313.706	1036.25
313.935	1038.25
314.165	1061.25
314.394	1043.25
314.624	1053.25
314.853	1053.25
315.083	1073.25
315.312	1068.25
315.542	1062.25
315.771	1043.25
316.001	1033.25
316.23	1033.25
316.46	1050.25
316.689	1059.25
316.919	1039.25
317.148	1051.25
317.377	1038.25
317.607	1037.25
317.836	1029.25
318.065	1038.25
318.295	1072.25
318.524	1062.25
318.753	1031.25
318.983	1044.25
319.212	1036.25
319.441	1048.25
319.67	1040.25
319.9	1074.25
320.129	1056.25
320.358	1057.25
320.587	1065.25
320.816	1062.25
321.046	1062.25
321.275	1043.25
321.504	1050.25
321.733	1047.25
321.962	1050.25
322.191	1046.25
322.42	1050.25
322.649	1088.25
322.878	1059.25
323.108	1075.25
323.337	1068.25
323.566	1093.25
323.795	1106.25
324.024	1086.25
324.253	1072.25
324.482	1092.25
324.71	1069.25
324.939	1096.25
325.168	1104.25
325.397	1086.25
325.626	1107.25
325.855	1161.25
326.084	1149.25
326.313	1149.25
326.542	1148.25
326.77	1164.25
326.999	1141.25
327.228	1118.25
327.457	1130.25
327.686	1154.25
327.914	1144.25
328.143	1154.25
328.372	1133.25
328.6	1130.25
328.829	1158.25
329.058	1135.25
329.287	1165.25
329.515	1146.25
329.744	1175.25
329.972	1170.25
330.201	1163.25
330.43	1185.25
330.658	1187.25
330.887	1177.25
331.115	1192.25
331.344	1188.25
331.572	1188.25
331.801	1242.25
332.03	1251.25
332.258	1272.25
332.486	1259.25
332.715	1313.25
332.943	1347.25
333.172	1397.25
333.4	1431.25
333.629	1459.25
333.857	1431.25
334.085	1467.25
334.314	1485.25
334.542	1447.25
334.771	1430.25
334.999	1420.25
335.227	1406.25
335.455	1395.25
335.684	1407.25
335.912	1394.25
336.14	1345.25
336.369	1363.25
336.597	1374.25
336.825	1348.25
337.053	1372.25
337.281	1331.25
337.51	1326.25
337.738	1313.25
337.966	1311.25
338.194	1250.25
338.422	1305.25
338.65	1244.25
338.878	1286.25
339.106	1274.25
339.334	1235.25
339.562	1238.25
339.79	1205.25
340.018	1220.25
340.246	1201.25
340.474	1197.25
340.702	1227.25
340.93	1204.25
341.158	1227.25
341.386	1219.25
341.614	1185.25
341.842	1175.25
342.07	1169.25
342.298	1196.25
342.526	1196.25
342.754	1188.25
342.981	1176.25
343.209	1205.25
343.437	1257.25
343.665	1329.25
343.893	1345.25
344.12	1425.25
344.348	1393.25
344.576	1354.25
344.804	1312.25
345.031	1214.25
345.259	1214.25
345.487	1217.25
345.714	1203.25
345.942	1193.25
346.17	1173.25
346.397	1181.25
346.625	1143.25
346.853	1159.25
347.08	1156.25
347.308	1123.25
347.535	1147.25
347.763	1165.25
347.99	1137.25
348.218	1157.25
348.445	1138.25
348.673	1149.25
348.9	1120.25
349.128	1152.25
349.355	1117.25
349.583	1133.25
349.81	1137.25
350.037	1109.25
350.265	1118.25
350.492	1102.25
350.72	1132.25
350.947	1105.25
351.174	1113.25
351.402	1090.25
351.629	1079.25
351.856	1114.25
352.083	1109.25
352.311	1107.25
352.538	1093.25
352.765	1118.25
352.992	1089.25
353.22	1095.25
353.447	1091.25
353.674	1071.25
353.901	1124.25
354.128	1115.25
354.355	1091.25
354.583	1100.25
354.81	1090.25
355.037	1107.25
355.264	1118.25
355.491	1110.25
355.718	1103.25
355.945	1098.25
356.172	1101.25
356.399	1111.25
356.626	1113.25
356.853	1128.25
357.08	1119.25
357.307	1124.25
357.534	1130.25
357.761	1123.25
357.988	1118.25
358.215	1141.25
358.441	1127.25
358.668	1127.25
358.895	1089.25
359.122	1124.25
359.349	1112.25
359.576	1106.25
359.802	1134.25
360.029	1128.25
360.256	1125.25
360.483	1118.25
360.709	1113.25
360.936	1112.25
361.163	1132.25
361.39	1104.25
361.616	1104.25
361.843	1098.25
362.07	1119.25
362.296	1117.25
362.523	1095.25
362.749	1142.25
362.976	1105.25
363.203	1133.25
363.429	1109.25
363.656	1133.25
363.882	1115.25
364.109	1105.25
364.335	1132.25
364.562	1124.25
364.788	1098.25
365.015	1109.25
365.241	1097.25
365.468	1087.25
365.694	1101.25
365.92	1137.25
366.147	1103.25
366.373	1115.25
366.599	1127.25
366.826	1109.25
367.052	1115.25
367.278	1106.25
367.505	1134.25
367.731	1086.25
367.957	1114.25
368.184	1119.25
368.41	1144.25
368.636	1146.25
368.862	1168.25
369.089	1131.25
369.315	1157.25
369.541	1169.25
369.767	1150.25
369.993	1157.25
370.219	1162.25
370.445	1174.25
370.672	1172.25
370.898	1188.25
371.124	1179.25
371.35	1212.25
371.576	1179.25
371.802	1217.25
372.028	1193.25
372.254	1197.25
372.48	1183.25
372.706	1210.25
372.932	1255.25
373.158	1249.25
373.384	1210.25
373.61	1227.25
373.835	1220.25
374.061	1211.25
374.287	1230.25
374.513	1259.25
374.739	1256.25
374.965	1291.25
375.191	1347.25
375.416	1328.25
375.642	1274.25
375.868	1293.25
376.094	1228.25
376.319	1235.25
376.545	1218.25
376.771	1221.25
376.997	1239.25
377.222	1221.25
377.448	1191.25
377.674	1190.25
377.899	1180.25
378.125	1203.25
378.35	1211.25
378.576	1170.25
378.802	1169.25
379.027	1191.25
379.253	1211.25
379.478	1188.25
379.704	1179.25
379.929	1207.25
380.155	1193.25
380.38	1177.25
380.606	1225.25
380.831	1191.25
381.057	1175.25
381.282	1179.25
381.507	1209.25
381.733	1226.25
381.958	1250.25
382.184	1208.25
382.409	1246.25
382.634	1253.25
382.86	1245.25
383.085	1258.25
383.31	1260.25
383.535	1281.25
383.761	1305.25
383.986	1342.25
384.211	1325.25
384.436	1337.25
384.662	1382.25
384.887	1411.25
385.112	1373.25
385.337	1421.25
385.562	1424.25
385.787	1413.25
386.013	1421.25
386.238	1421.25
386.463	1437.25
386.688	1465.25
386.913	1393.25
387.138	1411.25
387.363	1427.25
387.588	1416.25
387.813	1419.25
388.038	1432.25
388.263	1397.25
388.488	1434.25
388.713	1416.25
388.938	1447.25
389.163	1439.25
389.387	1434.25
389.612	1420.25
389.837	1405.25
390.062	1415.25
390.287	1404.25
390.512	1411.25
390.736	1399.25
390.961	1489.25
391.186	1436.25
391.411	1522.25
391.636	1549.25
391.86	1575.25
392.085	1599.25
392.31	1597.25
392.534	1565.25
392.759	1534.25
392.984	1496.25
393.208	1527.25
393.433	1537.25
393.658	1529.25
393.882	1505.25
394.107	1544.25
394.331	1509.25
394.556	1551.25
394.78	1548.25
395.005	1535.25
395.229	1555.25
395.454	1586.25
395.678	1596.25
395.903	1579.25
396.127	1588.25
396.352	1561.25
396.576	1543.25
396.801	1545.25
397.025	1559.25
397.249	1598.25
397.474	1589.25
397.698	1649.25
397.922	1636.25
398.147	1657.25
398.371	1675.25
398.595	1689.25
398.82	1780.25
399.044	1891.25
399.268	2029.25
399.492	2263.25
399.717	2381.25
399.941	2468.25
400.165	2347.25
400.389	2175.25
400.613	1993.25
400.837	1910.25
401.062	1867.25
401.286	1843.25
401.51	1797.25
401.734	1766.25
401.958	1798.25
402.182	1794.25
402.406	1787.25
402.63	1846.25
402.854	1843.25
403.078	1868.25
403.302	1895.25
403.526	1885.25
403.75	1931.25
403.974	1987.25
404.198	1906.25
404.422	1945.25
404.645	1917.25
404.869	1933.25
405.093	1959.25
405.317	1923.25
405.541	1971.25
405.765	1917.25
405.988	1916.25
406.212	1937.25
406.436	1921.25
406.66	2004.25
406.883	1998.25
407.107	2119.25
407.331	2228.25
407.555	2253.25
407.778	2212.25
408.002	2190.25
408.226	2171.25
408.449	2117.25
408.673	2049.25
408.896	2038.25
409.12	1975.25
409.344	2033.25
409.567	1963.25
409.791	2013.25
410.014	1952.25
410.238	1942.25
410.461	1930.25
410.685	1928.25
410.908	1912.25
411.132	1928.25
411.355	1879.25
411.578	1867.25
411.802	1859.25
412.025	1830.25
412.249	1902.25
412.472	1858.25
412.695	1801.25
412.919	1822.25
413.142	1801.25
413.365	1797.25
413.589	1851.25
413.812	1803.25
414.035	1755.25
414.258	1801.25
414.482	1812.25
414.705	1820.25
414.928	1790.25
415.151	1771.25
415.374	1826.25
415.597	1745.25
415.821	1752.25
416.044	1746.25
416.267	1710.25
416.49	1683.25
416.713	1684.25
416.936	1727.25
417.159	1704.25
417.382	1699.25
417.605	1675.25
417.828	1709.25
418.051	1694.25
418.274	1699.25
418.497	1719.25
418.72	1755.25
418.943	1742.25
419.166	1870.25
419.389	1963.25
419.611	1935.25
419.834	1882.25
420.057	1801.25
420.28	1762.25
420.503	1702.25
420.726	1740.25
420.948	1695.25
421.171	1694.25
421.394	1710.25
421.617	1719.25
421.839	1761.25
422.062	1699.25
422.285	1721.25
422.507	1736.25
422.73	1769.25
422.953	1726.25
423.175	1762.25
423.398	1774.25
423.621	1735.25
423.843	1802.25
424.066	1800.25
424.288	1757.25
424.511	1785.25
424.733	1723.25
424.956	1729.25
425.178	1721.25
425.401	1709.25
425.623	1763.25
425.846	1695.25
426.068	1645.25
426.291	1657.25
426.513	1667.25
426.735	1622.25
426.958	1643.25
427.18	1610.25
427.402	1612.25
427.625	1604.25
427.847	1570.25
428.069	1591.25
428.292	1589.25
428.514	1523.25
428.736	1568.25
428.958	1561.25
429.181	1521.25
429.403	1543.25
429.625	1528.25
429.847	1541.25
430.069	1562.25
430.292	1571.25
430.514	1508.25
430.736	1576.25
430.958	1529.25
431.18	1510.25
431.402	1544.25
431.624	1548.25
431.846	1577.25
432.068	1610.25
432.29	1596.25
432.512	1565.25
432.734	1618.25
432.956	1564.25
433.178	1603.25
433.4	1627.25
433.622	1620.25
433.844	1603.25
434.066	1643.25
434.287	1644.25
434.509	1695.25
434.731	1690.25
434.953	1726.25
435.175	1745.25
435.397	1706.25
435.618	1642.25
435.84	1647.25
436.062	1586.25
436.284	1553.25
436.505	1562.25
436.727	1599.25
436.949	1555.25
437.17	1557.25
437.392	1565.25
437.614	1521.25
437.835	1474.25
438.057	1493.25
438.278	1505.25
438.5	1462.25
438.721	1497.25
438.943	1471.25
439.165	1484.25
439.386	1500.25
439.608	1518.25
439.829	1521.25
440.05	1526.25
440.272	1562.25
440.493	1583.25
440.715	1535.25
440.936	1590.25
441.158	1598.25
441.379	1646.25
441.6	1650.25
441.822	1701.25
442.043	1695.25
442.264	1649.25
442.486	1649.25
442.707	1676.25
442.928	1611.25
443.149	1659.25
443.371	1658.25
443.592	1669.25
443.813	1694.25
444.034	1734.25
444.255	1769.25
444.476	1788.25
444.698	1896.25
444.919	1932.25
445.14	1991.25
445.361	1866.25
445.582	1823.25
445.803	1646.25
446.024	1601.25
446.245	1595.25
446.466	1606.25
446.687	1533.25
446.908	1521.25
447.129	1499.25
447.35	1474.25
447.571	1516.25
447.792	1429.25
448.013	1460.25
448.234	1416.25
448.455	1397.25
448.675	1416.25
448.896	1402.25
449.117	1390.25
449.338	1382.25
449.559	1356.25
449.779	1366.25
450	1374.25
450.221	1376.25
450.442	1399.25
450.662	1371.25
450.883	1401.25
451.104	1417.25
451.324	1425.25
451.545	1384.25
451.766	1387.25
451.986	1381.25
452.207	1369.25
452.428	1368.25
452.648	1410.25
452.869	1330.25
453.089	1353.25
453.31	1349.25
453.53	1341.25
453.751	1324.25
453.971	1316.25
454.192	1345.25
454.412	1299.25
454.633	1291.25
454.853	1306.25
455.073	1305.25
455.294	1299.25
455.514	1306.25
455.734	1294.25
455.955	1282.25
456.175	1307.25
456.395	1302.25
456.616	1301.25
456.836	1354.25
457.056	1310.25
457.276	1297.25
457.497	1323.25
457.717	1306.25
457.937	1355.25
458.157	1347.25
458.377	1372.25
458.598	1403.25
458.818	1432.25
459.038	1447.25
459.258	1481.25
459.478	1533.25
459.698	1555.25
459.918	1553.25
460.138	1654.25
460.358	1690.25
460.578	1704.25
460.798	1758.25
461.018	1795.25
461.238	1762.25
461.458	1747.25
461.678	1745.25
461.898	1823.25
462.118	1815.25
462.338	1897.25
462.558	1884.25
462.777	1936.25
462.997	2123.25
463.217	2220.25
463.437	2247.25
463.657	2131.25
463.876	2017.25
464.096	2056.25
464.316	2022.25
464.536	2012.25
464.755	1987.25
464.975	1927.25
465.195	1800.25
465.414	1758.25
465.634	1659.25
465.854	1611.25
466.073	1600.25
466.293	1576.25
466.512	1495.25
466.732	1469.25
466.951	1463.25
467.171	1470.25
467.391	1504.25
467.61	1440.25
467.829	1432.25
468.049	1446.25
468.268	1401.25
468.488	1385.25
468.707	1391.25
468.927	1378.25
469.146	1401.25
469.365	1435.25
469.585	1439.25
469.804	1469.25
470.023	1465.25
470.243	1495.25
470.462	1501.25
470.681	1468.25
470.901	1493.25
471.12	1494.25
471.339	1494.25
471.558	1466.25
471.777	1448.25
471.997	1442.25
472.216	1427.25
472.435	1427.25
472.654	1383.25
472.873	1414.25
473.092	1409.25
473.311	1394.25
473.53	1417.25
473.749	1387.25
473.968	1419.25
474.187	1402.25
474.406	1390.25
474.625	1394.25
474.844	1406.25
475.063	1418.25
475.282	1416.25
475.501	1474.25
475.72	1470.25
475.939	1465.25
476.158	1436.25
476.377	1452.25
476.596	1464.25
476.814	1511.25
477.033	1494.25
477.252	1513.25
477.471	1555.25
477.69	1572.25
477.908	1611.25
478.127	1650.25
478.346	1619.25
478.564	1673.25
478.783	1717.25
479.002	1738.25
479.22	1733.25
479.439	1788.25
479.658	1715.25
479.876	1741.25
480.095	1764.25
480.313	1854.25
480.532	1860.25
480.751	1841.25
480.969	1805.25
481.188	1758.25
481.406	1745.25
481.624	1749.25
481.843	1709.25
482.061	1679.25
482.28	1673.25
482.498	1713.25
482.717	1703.25
482.935	1695.25
483.153	1721.25
483.372	1700.25
483.59	1732.25
483.808	1764.25
484.027	1732.25
484.245	1805.25
484.463	1816.25
484.681	1816.25
484.9	1844.25
485.118	1871.25
485.336	1843.25
485.554	1902.25
485.772	1912.25
485.99	1923.25
486.209	1919.25
486.427	1894.25
486.645	1878.25
486.863	1921.25
487.081	1875.25
487.299	1887.25
487.517	1893.25
487.735	1886.25
487.953	1846.25
488.171	1855.25
488.389	1814.25
488.607	1787.25
488.825	1818.25
489.043	1781.25
489.261	1764.25
489.479	1784.25
489.696	1753.25
489.914	1817.25
490.132	1788.25
490.35	1779.25
490.568	1767.25
490.786	1750.25
491.003	1762.25
491.221	1762.25
491.439	1754.25
491.657	1759.25
491.874	1746.25
492.092	1723.25
492.31	1743.25
492.527	1738.25
492.745	1756.25
492.963	1766.25
493.18	1778.25
493.398	1768.25
493.615	1797.25
493.833	1775.25
494.05	1825.25
494.268	1783.25
494.485	1810.25
494.703	1782.25
494.92	1798.25
495.138	1800.25
495.355	1802.25
495.573	1813.25
495.79	1788.25
496.008	1835.25
496.225	1850.25
496.442	1835.25
496.66	1878.25
496.877	1885.25
497.094	1944.25
497.312	1996.25
497.529	1970.25
497.746	2054.25
497.963	2080.25
498.181	2168.25
498.398	2239.25
498.615	2360.25
498.832	2537.25
499.049	2668.25
499.267	2832.25
499.484	3084.25
499.701	3353.25
499.918	3634.25
500.135	4031.25
500.352	4397.25
500.569	4500.25
500.786	4493.25
501.003	4306.25
501.22	3967.25
501.437	3633.25
501.654	3226.25
501.871	2999.25
502.088	2795.25
502.305	2644.25
502.522	2470.25
502.739	2453.25
502.956	2334.25
503.172	2201.25
503.389	2137.25
503.606	2093.25
503.823	2037.25
504.04	1977.25
504.256	2024.25
504.473	1989.25
504.69	1990.25
504.907	1958.25
505.123	1899.25
505.34	1829.25
505.557	1766.25
505.773	1747.25
505.99	1662.25
506.207	1632.25
506.423	1617.25
506.64	1578.25
506.856	1572.25
507.073	1565.25
507.289	1546.25
507.506	1558.25
507.722	1565.25
507.939	1513.25
508.155	1523.25
508.372	1479.25
508.588	1507.25
508.805	1485.25
509.021	1427.25
509.238	1463.25
509.454	1467.25
509.67	1469.25
509.887	1433.25
510.103	1412.25
510.319	1399.25
510.536	1382.25
510.752	1384.25
510.968	1401.25
511.184	1401.25
511.401	1405.25
511.617	1383.25
511.833	1372.25
512.049	1389.25
512.265	1380.25
512.481	1371.25
512.698	1364.25
512.914	1377.25
513.13	1378.25
513.346	1406.25
513.562	1383.25
513.778	1397.25
513.994	1391.25
514.21	1404.25
514.426	1407.25
514.642	1440.25
514.858	1427.25
515.074	1422.25
515.29	1437.25
515.506	1475.25
515.721	1524.25
515.937	1487.25
516.153	1559.25
516.369	1548.25
516.585	1587.25
516.801	1619.25
517.016	1676.25
517.232	1745.25
517.448	1836.25
517.664	1824.25
517.879	1846.25
518.095	1838.25
518.311	1828.25
518.527	1731.25
518.742	1700.25
518.958	1683.25
519.173	1603.25
519.389	1580.25
519.605	1489.25
519.82	1470.25
520.036	1468.25
520.251	1429.25
520.467	1457.25
520.682	1441.25
520.898	1381.25
521.113	1361.25
521.329	1356.25
521.544	1364.25
521.76	1334.25
521.975	1319.25
522.19	1305.25
522.406	1321.25
522.621	1325.25
522.836	1330.25
523.052	1313.25
523.267	1294.25
523.482	1294.25
523.698	1262.25
523.913	1289.25
524.128	1260.25
524.343	1267.25
524.559	1279.25
524.774	1251.25
524.989	1261.25
525.204	1289.25
525.419	1237.25
525.634	1268.25
525.849	1249.25
526.064	1246.25
526.28	1245.25
526.495	1222.25
526.71	1253.25
526.925	1235.25
527.14	1205.25
527.355	1244.25
527.57	1229.25
527.785	1225.25
527.999	1239.25
528.214	1237.25
528.429	1241.25
528.644	1237.25
528.859	1231.25
529.074	1260.25
529.289	1216.25
529.503	1215.25
529.718	1203.25
529.933	1207.25
530.148	1226.25
530.363	1227.25
530.577	1231.25
530.792	1238.25
531.007	1222.25
531.221	1213.25
531.436	1228.25
531.651	1225.25
531.865	1210.25
532.08	1219.25
532.295	1219.25
532.509	1219.25
532.724	1205.25
532.938	1196.25
533.153	1215.25
533.367	1192.25
533.582	1192.25
533.796	1165.25
534.011	1205.25
534.225	1189.25
534.44	1198.25
534.654	1201.25
534.868	1209.25
535.083	1173.25
535.297	1147.25
535.511	1120.25
535.726	1179.25
535.94	1157.25
536.154	1140.25
536.369	1147.25
536.583	1142.25
536.797	1152.25
537.011	1141.25
537.225	1129.25
537.44	1120.25
537.654	1138.25
537.868	1125.25
538.082	1133.25
538.296	1124.25
538.51	1121.25
538.724	1132.25
538.938	1097.25
539.153	1100.25
539.367	1088.25
539.581	1069.25
539.795	1079.25
540.009	1089.25
540.222	1086.25
540.436	1068.25
540.65	1052.25
540.864	1091.25
541.078	1085.25
541.292	1083.25
541.506	1083.25
541.72	1074.25
541.934	1068.25
542.147	1076.25
542.361	1070.25
542.575	1077.25
542.789	1078.25
543.002	1038.25
543.216	1071.25
543.43	1090.25
543.644	1053.25
543.857	1073.25
544.071	1059.25
544.285	1074.25
544.498	1083.25
544.712	1107.25
544.925	1074.25
545.139	1095.25
545.352	1105.25
545.566	1103.25
545.779	1089.25
545.993	1103.25
546.206	1102.25
546.42	1114.25
546.633	1082.25
546.847	1096.25
547.06	1114.25
547.274	1077.25
547.487	1074.25
547.7	1083.25
547.914	1102.25
548.127	1075.25
548.34	1102.25
548.554	1119.25
548.767	1063.25
548.98	1095.25
549.193	1082.25
549.407	1093.25
549.62	1101.25
549.833	1135.25
550.046	1142.25
550.259	1077.25
550.473	1076.25
550.686	1080.25
550.899	1086.25
551.112	1077.25
551.325	1066.25
551.538	1079.25
551.751	1089.25
551.964	1061.25
552.177	1100.25
552.39	1111.25
552.603	1146.25
552.816	1133.25
553.029	1175.25
553.242	1202.25
553.455	1189.25
553.667	1198.25
553.88	1189.25
554.093	1124.25
554.306	1102.25
554.519	1098.25
554.732	1090.25
554.944	1053.25
555.157	1061.25
555.37	1037.25
555.583	1030.25
555.795	1005.25
556.008	978.25
556.221	969.25
556.433	994.25
556.646	982.25
556.859	963.25
557.071	944.25
557.284	925.25
557.496	941.25
557.709	946.25
557.921	911.25
558.134	909.25
558.346	907.25
558.559	947.25
558.771	904.25
558.984	905.25
559.196	920.25
559.409	898.25
559.621	913.25
559.833	907.25
560.046	897.25
560.258	909.25
560.47	895.25
560.683	893.25
560.895	870.25
561.107	906.25
561.32	901.25
561.532	908.25
561.744	889.25
561.956	889.25
562.168	910.25
562.381	917.25
562.593	897.25
562.805	952.25
563.017	913.25
563.229	901.25
563.441	917.25
563.653	902.25
563.865	929.25
564.077	930.25
564.289	915.25
564.501	968.25
564.713	971.25
564.925	975.25
565.137	975.25
565.349	1038.25
565.561	1048.25
565.773	1077.25
565.985	1111.25
566.197	1148.25
566.408	1220.25
566.62	1309.25
566.832	1345.25
567.044	1381.25
567.255	1395.25
567.467	1447.25
567.679	1480.25
567.891	1568.25
568.102	1576.25
568.314	1483.25
568.526	1408.25
568.737	1269.25
568.949	1197.25
569.161	1163.25
569.372	1066.25
569.584	1010.25
569.795	1024.25
570.007	945.25
570.218	965.25
570.43	934.25
570.641	895.25
570.853	933.25
571.064	941.25
571.276	933.25
571.487	889.25
571.698	875.25
571.91	858.25
572.121	828.25
572.333	830.25
572.544	791.25
572.755	783.25
572.966	774.25
573.178	782.25
573.389	742.25
573.6	742.25
573.811	759.25
574.023	726.25
574.234	737.25
574.445	749.25
574.656	723.25
574.867	746.25
575.078	730.25
575.289	720.25
575.501	726.25
575.712	707.25
575.923	724.25
576.134	681.25
576.345	701.25
576.556	681.25
576.767	703.25
576.978	710.25
577.188	667.25
577.399	683.25
577.61	650.25
577.821	673.25
578.032	665.25
578.243	671.25
578.454	656.25
578.665	648.25
578.875	643.25
579.086	658.25
579.297	611.25
579.508	651.25
579.718	649.25
579.929	630.25
580.14	657.25
580.35	617.25
580.561	635.25
580.772	612.25
580.982	637.25
581.193	626.25
581.403	633.25
581.614	637.25
581.825	636.25
582.035	614.25
582.246	609.25
582.456	611.25
582.667	611.25
582.877	623.25
583.087	598.25
583.298	602.25
583.508	630.25
583.719	613.25
583.929	604.25
584.139	607.25
584.35	589.25
584.56	606.25
584.77	582.25
584.981	594.25
585.191	604.25
585.401	599.25
585.611	587.25
585.821	572.25
586.032	575.25
586.242	562.25
586.452	585.25
586.662	586.25
586.872	583.25
587.082	601.25
587.292	546.25
587.502	590.25
587.713	571.25
587.923	604.25
588.133	584.25
588.343	567.25
588.553	583.25
588.762	584.25
588.972	595.25
589.182	609.25
589.392	585.25
589.602	573.25
589.812	595.25
590.022	598.25
590.232	567.25
590.441	577.25
590.651	605.25
590.861	579.25
591.071	567.25
591.281	586.25
591.49	614.25
591.7	618.25
591.91	606.25
592.119	626.25
592.329	643.25
592.539	655.25
592.748	665.25
592.958	690.25
593.167	681.25
593.377	717.25
593.587	705.25
593.796	717.25
594.006	722.25
594.215	725.25
594.424	691.25
594.634	712.25
594.843	687.25
595.053	663.25
595.262	628.25
595.472	637.25
595.681	610.25
595.89	600.25
596.1	587.25
596.309	582.25
596.518	547.25
596.727	571.25
596.937	549.25
597.146	546.25
597.355	517.25
597.564	516.25
597.774	518.25
597.983	507.25
598.192	516.25
598.401	501.25
598.61	492.25
598.819	511.25
599.028	495.25
599.237	518.25
599.446	484.25
599.655	476.25
599.864	481.25
600.073	485.25
600.282	476.25
600.491	503.25
600.7	490.25
600.909	484.25
601.118	471.25
601.327	470.25
601.536	515.25
601.745	479.25
601.953	489.25
602.162	494.25
602.371	469.25
602.58	468.25
602.789	457.25
602.997	473.25
603.206	481.25
603.415	453.25
603.623	461.25
603.832	451.25
604.041	459.25
604.249	455.25
604.458	445.25
604.666	446.25
604.875	447.25
605.084	475.25
605.292	445.25
605.501	447.25
605.709	449.25
605.918	454.25
606.126	439.25
606.334	448.25
606.543	444.25
606.751	442.25
606.96	453.25
607.168	445.25
607.376	451.25
607.585	431.25
607.793	435.25
608.001	425.25
608.21	447.25
608.418	406.25
608.626	455.25
608.834	425.25
609.043	414.25
609.251	411.25
609.459	423.25
609.667	438.25
609.875	411.25
610.083	421.25
610.291	429.25
610.499	436.25
610.707	420.25
610.916	405.25
611.124	409.25
611.332	419.25
611.54	407.25
611.748	437.25
611.955	422.25
612.163	393.25
612.371	404.25
612.579	426.25
612.787	407.25
612.995	405.25
613.203	387.25
613.411	410.25
613.618	407.25
613.826	404.25
614.034	426.25
614.242	402.25
614.449	412.25
614.657	412.25
614.865	435.25
615.072	435.25
615.28	383.25
615.488	419.25
615.695	398.25
615.903	414.25
616.111	407.25
616.318	431.25
616.526	411.25
616.733	420.25
616.941	429.25
617.148	428.25
617.356	396.25
617.563	412.25
617.771	414.25
617.978	397.25
618.185	387.25
618.393	394.25
618.6	407.25
618.807	404.25
619.015	404.25
619.222	419.25
619.429	400.25
619.637	407.25
619.844	391.25
620.051	383.25
620.258	386.25
620.466	359.25
620.673	358.25
620.88	366.25
621.087	377.25
621.294	374.25
621.501	373.25
621.708	380.25
621.915	393.25
622.122	374.25
622.329	369.25
622.536	369.25
622.743	394.25
622.95	387.25
623.157	375.25
623.364	378.25
623.571	359.25
623.778	361.25
623.985	365.25
624.192	350.25
624.399	350.25
624.606	357.25
624.812	364.25
625.019	369.25
625.226	345.25
625.433	333.25
625.639	353.25
625.846	341.25
626.053	333.25
626.259	336.25
626.466	332.25
626.673	350.25
626.879	347.25
627.086	325.25
627.293	338.25
627.499	353.25
627.706	346.25
627.912	355.25
628.119	335.25
628.325	321.25
628.532	344.25
628.738	345.25
628.945	317.25
629.151	337.25
629.357	352.25
629.564	344.25
629.77	326.25
629.976	331.25
630.183	319.25
630.389	311.25
630.595	333.25
630.802	326.25
631.008	308.25
631.214	307.25
631.42	317.25
631.627	314.25
631.833	324.25
632.039	307.25
632.245	314.25
632.451	319.25
632.657	325.25
632.863	320.25
633.069	308.25
633.275	291.25
633.481	294.25
633.688	318.25
633.893	301.25
634.099	309.25
634.305	311.25
634.511	305.25
634.717	299.25
634.923	283.25
635.129	292.25
635.335	302.25
635.541	293.25
635.747	308.25
635.952	300.25
636.158	301.25
636.364	308.25
636.57	292.25
636.775	292.25
636.981	290.25
637.187	282.25
637.392	294.25
637.598	288.25
637.804	300.25
638.009	298.25
638.215	293.25
638.421	290.25
638.626	290.25
638.832	297.25
639.037	287.25
639.243	292.25
639.448	285.25
639.654	277.25
639.859	276.25
640.065	287.25
640.27	269.25
640.475	272.25
640.681	289.25
640.886	276.25
641.091	281.25
641.297	274.25
641.502	283.25
641.707	280.25
641.913	278.25
642.118	257.25
642.323	282.25
642.528	279.25
642.733	262.25
642.939	267.25
643.144	265.25
643.349	284.25
643.554	258.25
643.759	256.25
643.964	261.25
644.169	269.25
644.374	267.25
644.579	287.25
644.784	283.25
644.989	267.25
645.194	274.25
645.399	275.25
645.604	285.25
645.809	279.25
646.014	278.25
646.219	284.25
646.423	279.25
646.628	292.25
646.833	282.25
647.038	279.25
647.243	306.25
647.447	307.25
647.652	278.25
647.857	299.25
648.062	287.25
648.266	293.25
648.471	286.25
648.676	289.25
648.88	312.25
649.085	300.25
649.289	298.25
649.494	302.25
649.698	302.25
649.903	303.25
650.107	298.25
650.312	289.25
650.516	309.25
650.721	295.25
650.925	271.25
651.13	278.25
651.334	288.25
651.539	264.25
651.743	272.25
651.947	261.25
652.152	273.25
652.356	284.25
652.56	271.25
652.764	263.25
652.969	291.25
653.173	275.25
653.377	258.25
653.581	254.25
653.785	261.25
653.99	281.25
654.194	271.25
654.398	270.25
654.602	271.25
654.806	280.25
655.01	284.25
655.214	290.25
655.418	289.25
655.622	308.25
655.826	348.25
656.03	347.25
656.234	371.25
656.438	395.25
656.642	414.25
656.846	394.25
657.049	332.25
657.253	309.25
657.457	269.25
657.661	246.25
657.865	232.25
658.068	206.25
658.272	197.25
658.476	199.25
658.68	178.25
658.883	159.25
659.087	163.25
659.291	138.25
659.494	144.25
659.698	143.25
659.901	131.25
660.105	124.25
660.309	125.25
660.512	118.25
660.716	126.25
660.919	119.25
661.123	120.25
661.326	110.25
661.53	105.25
661.733	109.25
661.936	106.25
662.14	95.25
662.343	101.25
662.546	93.25
662.75	98.25
662.953	85.25
663.156	95.25
663.36	92.25
663.563	82.25
663.766	92.25
663.969	95.25
664.173	79.25
664.376	87.25
664.579	88.25
664.782	79.25
664.985	93.25
665.188	80.25
665.391	87.25
665.594	75.25
665.797	75.25
666	92.25
666.203	89.25
666.406	83.25
666.609	79.25
666.812	83.25
667.015	90.25
667.218	78.25
667.421	87.25
667.624	73.25
667.827	102.25
668.03	75.25
668.232	76.25
668.435	63.25
668.638	87.25
668.841	85.25
669.043	82.25
669.246	86.25
669.449	82.25
669.651	83.25
669.854	76.25
670.057	79.25
670.259	96.25
670.462	91.25
670.665	78.25
670.867	87.25
671.07	91.25
671.272	78.25
671.475	95.25
671.677	84.25
671.88	89.25
672.082	93.25
672.284	93.25
672.487	90.25
672.689	90.25
672.892	82.25
