Data from NiCl2@0.125M.TitratingCurve.Agarose3%dH2O.NegLispCup.LampEnergy10.LIBS07252019_HRD10591_18-27-57-578.txt Node
Date: Thu Jul 25 18:27:57 EDT 2019
User: cochatt
Spectrometer: HR+D1059
Trigger mode: 1
Integration Time (sec): 1.000000E-1
Scans to average: 1
Electric dark correction enabled: true
Nonlinearity correction enabled: false
Boxcar width: 0
XAxis mode: Wavelengths
Number of Pixels in Spectrum: 2048
>>>>>Begin Spectral Data<<<<<
223.165	-6.5
223.4	-6.5
223.635	-6.5
223.869	-17.5
224.104	-8.5
224.338	-24.5
224.573	-26.5
224.808	-9.5
225.042	-12.5
225.277	-2.5
225.511	3.5
225.746	-1.5
225.98	-0.5
226.215	18.5
226.449	15.5
226.683	25.5
226.918	23.5
227.152	23.5
227.387	38.5
227.621	51.5
227.856	41.5
228.09	43.5
228.324	49.5
228.559	54.5
228.793	72.5
229.027	105.5
229.262	115.5
229.496	127.5
229.73	126.5
229.964	132.5
230.199	130.5
230.433	135.5
230.667	123.5
230.901	137.5
231.136	138.5
231.37	142.5
231.604	149.5
231.838	157.5
232.072	144.5
232.306	141.5
232.541	153.5
232.775	159.5
233.009	149.5
233.243	161.5
233.477	153.5
233.711	170.5
233.945	150.5
234.179	172.5
234.413	148.5
234.647	170.5
234.881	169.5
235.115	153.5
235.349	168.5
235.583	171.5
235.817	148.5
236.051	169.5
236.285	166.5
236.519	167.5
236.753	186.5
236.987	174.5
237.221	177.5
237.455	185.5
237.689	175.5
237.922	172.5
238.156	183.5
238.39	169.5
238.624	172.5
238.858	186.5
239.091	185.5
239.325	179.5
239.559	187.5
239.793	179.5
240.027	186.5
240.26	194.5
240.494	195.5
240.728	174.5
240.961	196.5
241.195	202.5
241.429	185.5
241.662	190.5
241.896	223.5
242.13	201.5
242.363	209.5
242.597	206.5
242.83	223.5
243.064	211.5
243.298	217.5
243.531	202.5
243.765	215.5
243.998	217.5
244.232	233.5
244.465	221.5
244.699	212.5
244.932	240.5
245.166	243.5
245.399	226.5
245.633	246.5
245.866	241.5
246.099	250.5
246.333	258.5
246.566	242.5
246.8	234.5
247.033	244.5
247.266	245.5
247.5	245.5
247.733	248.5
247.966	260.5
248.2	247.5
248.433	271.5
248.666	264.5
248.899	268.5
249.133	251.5
249.366	283.5
249.599	268.5
249.832	277.5
250.066	270.5
250.299	264.5
250.532	291.5
250.765	280.5
250.998	276.5
251.231	284.5
251.465	280.5
251.698	286.5
251.931	309.5
252.164	300.5
252.397	285.5
252.63	278.5
252.863	286.5
253.096	302.5
253.329	295.5
253.562	310.5
253.795	289.5
254.028	312.5
254.261	291.5
254.494	312.5
254.727	307.5
254.96	300.5
255.193	320.5
255.426	301.5
255.659	331.5
255.892	314.5
256.124	325.5
256.357	314.5
256.59	322.5
256.823	321.5
257.056	316.5
257.289	321.5
257.521	336.5
257.754	314.5
257.987	318.5
258.22	345.5
258.452	325.5
258.685	360.5
258.918	334.5
259.151	331.5
259.383	354.5
259.616	341.5
259.849	342.5
260.081	350.5
260.314	342.5
260.547	341.5
260.779	328.5
261.012	372.5
261.244	335.5
261.477	361.5
261.71	351.5
261.942	362.5
262.175	344.5
262.407	368.5
262.64	355.5
262.872	374.5
263.105	373.5
263.337	354.5
263.57	365.5
263.802	360.5
264.035	375.5
264.267	377.5
264.499	375.5
264.732	368.5
264.964	370.5
265.197	372.5
265.429	374.5
265.661	395.5
265.894	398.5
266.126	396.5
266.358	400.5
266.591	384.5
266.823	408.5
267.055	393.5
267.287	407.5
267.52	405.5
267.752	394.5
267.984	407.5
268.216	401.5
268.448	389.5
268.681	419.5
268.913	417.5
269.145	423.5
269.377	409.5
269.609	407.5
269.841	406.5
270.073	412.5
270.306	391.5
270.538	405.5
270.77	415.5
271.002	417.5
271.234	413.5
271.466	437.5
271.698	420.5
271.93	425.5
272.162	450.5
272.394	428.5
272.626	416.5
272.858	436.5
273.09	441.5
273.322	449.5
273.553	462.5
273.785	441.5
274.017	460.5
274.249	446.5
274.481	450.5
274.713	462.5
274.945	454.5
275.176	452.5
275.408	444.5
275.64	474.5
275.872	459.5
276.104	446.5
276.335	462.5
276.567	468.5
276.799	457.5
277.031	481.5
277.262	460.5
277.494	465.5
277.726	499.5
277.957	494.5
278.189	484.5
278.421	470.5
278.652	494.5
278.884	487.5
279.115	486.5
279.347	494.5
279.579	472.5
279.81	517.5
280.042	485.5
280.273	499.5
280.505	505.5
280.736	493.5
280.968	493.5
281.199	502.5
281.431	508.5
281.662	515.5
281.894	497.5
282.125	514.5
282.356	523.5
282.588	534.5
282.819	512.5
283.051	523.5
283.282	532.5
283.513	543.5
283.745	505.5
283.976	547.5
284.207	539.5
284.439	515.5
284.67	535.5
284.901	547.5
285.132	546.5
285.364	535.5
285.595	550.5
285.826	540.5
286.057	577.5
286.288	556.5
286.52	557.5
286.751	559.5
286.982	547.5
287.213	562.5
287.444	552.5
287.675	570.5
287.906	570.5
288.138	576.5
288.369	577.5
288.6	556.5
288.831	570.5
289.062	567.5
289.293	582.5
289.524	566.5
289.755	552.5
289.986	583.5
290.217	588.5
290.448	592.5
290.679	575.5
290.91	575.5
291.141	570.5
291.371	600.5
291.602	602.5
291.833	582.5
292.064	578.5
292.295	575.5
292.526	577.5
292.757	582.5
292.987	580.5
293.218	579.5
293.449	583.5
293.68	565.5
293.91	580.5
294.141	573.5
294.372	578.5
294.603	602.5
294.833	603.5
295.064	593.5
295.295	588.5
295.525	603.5
295.756	609.5
295.987	582.5
296.217	592.5
296.448	615.5
296.679	599.5
296.909	599.5
297.14	604.5
297.37	645.5
297.601	606.5
297.831	619.5
298.062	602.5
298.292	639.5
298.523	655.5
298.753	657.5
298.984	623.5
299.214	652.5
299.445	653.5
299.675	649.5
299.905	654.5
300.136	638.5
300.366	646.5
300.597	623.5
300.827	659.5
301.057	681.5
301.288	662.5
301.518	659.5
301.748	655.5
301.979	677.5
302.209	693.5
302.439	665.5
302.669	670.5
302.9	648.5
303.13	659.5
303.36	649.5
303.59	649.5
303.82	655.5
304.051	636.5
304.281	672.5
304.511	654.5
304.741	647.5
304.971	652.5
305.201	652.5
305.431	657.5
305.661	668.5
305.891	633.5
306.121	647.5
306.352	659.5
306.582	633.5
306.812	634.5
307.042	658.5
307.272	646.5
307.502	641.5
307.731	649.5
307.961	637.5
308.191	621.5
308.421	634.5
308.651	646.5
308.881	610.5
309.111	653.5
309.341	653.5
309.571	639.5
309.8	667.5
310.03	636.5
310.26	634.5
310.49	639.5
310.72	620.5
310.949	653.5
311.179	657.5
311.409	665.5
311.639	647.5
311.868	644.5
312.098	649.5
312.328	671.5
312.557	681.5
312.787	675.5
313.017	650.5
313.246	676.5
313.476	662.5
313.706	680.5
313.935	715.5
314.165	688.5
314.394	701.5
314.624	679.5
314.853	680.5
315.083	694.5
315.312	679.5
315.542	684.5
315.771	677.5
316.001	684.5
316.23	670.5
316.46	669.5
316.689	660.5
316.919	672.5
317.148	666.5
317.377	665.5
317.607	685.5
317.836	666.5
318.065	663.5
318.295	665.5
318.524	637.5
318.753	667.5
318.983	668.5
319.212	647.5
319.441	675.5
319.67	685.5
319.9	686.5
320.129	668.5
320.358	662.5
320.587	658.5
320.816	699.5
321.046	693.5
321.275	663.5
321.504	701.5
321.733	672.5
321.962	689.5
322.191	709.5
322.42	684.5
322.649	677.5
322.878	683.5
323.108	687.5
323.337	727.5
323.566	710.5
323.795	716.5
324.024	689.5
324.253	697.5
324.482	702.5
324.71	697.5
324.939	694.5
325.168	701.5
325.397	685.5
325.626	736.5
325.855	725.5
326.084	724.5
326.313	758.5
326.542	744.5
326.77	773.5
326.999	749.5
327.228	702.5
327.457	734.5
327.686	737.5
327.914	757.5
328.143	742.5
328.372	741.5
328.6	739.5
328.829	733.5
329.058	750.5
329.287	748.5
329.515	756.5
329.744	754.5
329.972	754.5
330.201	770.5
330.43	743.5
330.658	766.5
330.887	759.5
331.115	767.5
331.344	784.5
331.572	787.5
331.801	795.5
332.03	818.5
332.258	825.5
332.486	847.5
332.715	859.5
332.943	901.5
333.172	953.5
333.4	976.5
333.629	1019.5
333.857	1012.5
334.085	998.5
334.314	979.5
334.542	916.5
334.771	970.5
334.999	922.5
335.227	940.5
335.455	926.5
335.684	923.5
335.912	904.5
336.14	897.5
336.369	876.5
336.597	869.5
336.825	877.5
337.053	910.5
337.281	870.5
337.51	881.5
337.738	837.5
337.966	858.5
338.194	813.5
338.422	815.5
338.65	797.5
338.878	817.5
339.106	787.5
339.334	774.5
339.562	787.5
339.79	797.5
340.018	748.5
340.246	782.5
340.474	789.5
340.702	775.5
340.93	787.5
341.158	794.5
341.386	817.5
341.614	774.5
341.842	765.5
342.07	757.5
342.298	763.5
342.526	767.5
342.754	738.5
342.981	779.5
343.209	770.5
343.437	823.5
343.665	877.5
343.893	954.5
344.12	973.5
344.348	915.5
344.576	874.5
344.804	823.5
345.031	807.5
345.259	821.5
345.487	796.5
345.714	783.5
345.942	759.5
346.17	783.5
346.397	758.5
346.625	744.5
346.853	718.5
347.08	752.5
347.308	753.5
347.535	769.5
347.763	762.5
347.99	755.5
348.218	779.5
348.445	769.5
348.673	746.5
348.9	715.5
349.128	739.5
349.355	738.5
349.583	761.5
349.81	716.5
350.037	749.5
350.265	718.5
350.492	723.5
350.72	712.5
350.947	723.5
351.174	727.5
351.402	739.5
351.629	722.5
351.856	701.5
352.083	718.5
352.311	700.5
352.538	712.5
352.765	758.5
352.992	717.5
353.22	712.5
353.447	708.5
353.674	703.5
353.901	698.5
354.128	696.5
354.355	717.5
354.583	708.5
354.81	740.5
355.037	720.5
355.264	728.5
355.491	714.5
355.718	711.5
355.945	737.5
356.172	719.5
356.399	723.5
356.626	714.5
356.853	707.5
357.08	706.5
357.307	741.5
357.534	732.5
357.761	725.5
357.988	719.5
358.215	722.5
358.441	725.5
358.668	711.5
358.895	726.5
359.122	739.5
359.349	707.5
359.576	725.5
359.802	725.5
360.029	715.5
360.256	731.5
360.483	732.5
360.709	719.5
360.936	706.5
361.163	717.5
361.39	713.5
361.616	731.5
361.843	736.5
362.07	734.5
362.296	703.5
362.523	705.5
362.749	714.5
362.976	710.5
363.203	712.5
363.429	702.5
363.656	725.5
363.882	718.5
364.109	729.5
364.335	732.5
364.562	686.5
364.788	697.5
365.015	701.5
365.241	715.5
365.468	714.5
365.694	724.5
365.92	723.5
366.147	710.5
366.373	716.5
366.599	701.5
366.826	738.5
367.052	710.5
367.278	727.5
367.505	698.5
367.731	719.5
367.957	725.5
368.184	713.5
368.41	721.5
368.636	724.5
368.862	715.5
369.089	736.5
369.315	737.5
369.541	732.5
369.767	747.5
369.993	740.5
370.219	757.5
370.445	750.5
370.672	767.5
370.898	762.5
371.124	759.5
371.35	773.5
371.576	799.5
371.802	788.5
372.028	740.5
372.254	811.5
372.48	782.5
372.706	806.5
372.932	830.5
373.158	810.5
373.384	825.5
373.61	755.5
373.835	769.5
374.061	791.5
374.287	803.5
374.513	805.5
374.739	840.5
374.965	868.5
375.191	838.5
375.416	875.5
375.642	849.5
375.868	830.5
376.094	835.5
376.319	797.5
376.545	811.5
376.771	809.5
376.997	777.5
377.222	789.5
377.448	777.5
377.674	795.5
377.899	772.5
378.125	794.5
378.35	774.5
378.576	783.5
378.802	766.5
379.027	778.5
379.253	803.5
379.478	789.5
379.704	765.5
379.929	758.5
380.155	767.5
380.38	796.5
380.606	759.5
380.831	773.5
381.057	796.5
381.282	762.5
381.507	787.5
381.733	801.5
381.958	793.5
382.184	775.5
382.409	823.5
382.634	808.5
382.86	837.5
383.085	814.5
383.31	843.5
383.535	863.5
383.761	863.5
383.986	885.5
384.211	882.5
384.436	895.5
384.662	933.5
384.887	932.5
385.112	929.5
385.337	947.5
385.562	950.5
385.787	937.5
386.013	959.5
386.238	931.5
386.463	939.5
386.688	953.5
386.913	928.5
387.138	917.5
387.363	929.5
387.588	922.5
387.813	919.5
388.038	915.5
388.263	916.5
388.488	939.5
388.713	941.5
388.938	919.5
389.163	922.5
389.387	918.5
389.612	929.5
389.837	929.5
390.062	905.5
390.287	906.5
390.512	915.5
390.736	911.5
390.961	940.5
391.186	962.5
391.411	961.5
391.636	1030.5
391.86	1038.5
392.085	1017.5
392.31	1061.5
392.534	1022.5
392.759	1040.5
392.984	993.5
393.208	971.5
393.433	989.5
393.658	1020.5
393.882	989.5
394.107	979.5
394.331	980.5
394.556	1004.5
394.78	1007.5
395.005	1028.5
395.229	1019.5
395.454	1018.5
395.678	1070.5
395.903	1043.5
396.127	1051.5
396.352	1005.5
396.576	1003.5
396.801	983.5
397.025	1033.5
397.249	1029.5
397.474	1042.5
397.698	1070.5
397.922	1062.5
398.147	1062.5
398.371	1077.5
398.595	1125.5
398.82	1155.5
399.044	1261.5
399.268	1354.5
399.492	1559.5
399.717	1766.5
399.941	1807.5
400.165	1606.5
400.389	1450.5
400.613	1320.5
400.837	1256.5
401.062	1240.5
401.286	1191.5
401.51	1205.5
401.734	1177.5
401.958	1164.5
402.182	1217.5
402.406	1228.5
402.63	1230.5
402.854	1253.5
403.078	1289.5
403.302	1347.5
403.526	1311.5
403.75	1374.5
403.974	1371.5
404.198	1370.5
404.422	1362.5
404.645	1403.5
404.869	1363.5
405.093	1363.5
405.317	1326.5
405.541	1324.5
405.765	1286.5
405.988	1317.5
406.212	1319.5
406.436	1295.5
406.66	1326.5
406.883	1370.5
407.107	1407.5
407.331	1481.5
407.555	1557.5
407.778	1521.5
408.002	1512.5
408.226	1456.5
408.449	1422.5
408.673	1386.5
408.896	1348.5
409.12	1294.5
409.344	1355.5
409.567	1316.5
409.791	1380.5
410.014	1344.5
410.238	1310.5
410.461	1294.5
410.685	1321.5
410.908	1269.5
411.132	1266.5
411.355	1213.5
411.578	1224.5
411.802	1224.5
412.025	1229.5
412.249	1284.5
412.472	1274.5
412.695	1206.5
412.919	1203.5
413.142	1160.5
413.365	1182.5
413.589	1205.5
413.812	1195.5
414.035	1161.5
414.258	1158.5
414.482	1173.5
414.705	1217.5
414.928	1218.5
415.151	1172.5
415.374	1192.5
415.597	1189.5
415.821	1178.5
416.044	1155.5
416.267	1159.5
416.49	1124.5
416.713	1148.5
416.936	1168.5
417.159	1162.5
417.382	1181.5
417.605	1149.5
417.828	1172.5
418.051	1186.5
418.274	1179.5
418.497	1142.5
418.72	1229.5
418.943	1224.5
419.166	1317.5
419.389	1375.5
419.611	1343.5
419.834	1291.5
420.057	1252.5
420.28	1206.5
420.503	1204.5
420.726	1141.5
420.948	1149.5
421.171	1155.5
421.394	1145.5
421.617	1148.5
421.839	1164.5
422.062	1208.5
422.285	1155.5
422.507	1186.5
422.73	1184.5
422.953	1189.5
423.175	1201.5
423.398	1244.5
423.621	1218.5
423.843	1221.5
424.066	1245.5
424.288	1219.5
424.511	1244.5
424.733	1200.5
424.956	1212.5
425.178	1209.5
425.401	1183.5
425.623	1161.5
425.846	1143.5
426.068	1162.5
426.291	1147.5
426.513	1091.5
426.735	1118.5
426.958	1138.5
427.18	1110.5
427.402	1077.5
427.625	1074.5
427.847	1063.5
428.069	1031.5
428.292	1077.5
428.514	1036.5
428.736	1055.5
428.958	1035.5
429.181	1025.5
429.403	1025.5
429.625	1015.5
429.847	995.5
430.069	998.5
430.292	1045.5
430.514	1055.5
430.736	1053.5
430.958	1010.5
431.18	1017.5
431.402	1032.5
431.624	1026.5
431.846	1058.5
432.068	1038.5
432.29	1080.5
432.512	1054.5
432.734	1047.5
432.956	1034.5
433.178	1075.5
433.4	1036.5
433.622	1074.5
433.844	1068.5
434.066	1059.5
434.287	1083.5
434.509	1071.5
434.731	1148.5
434.953	1192.5
435.175	1178.5
435.397	1162.5
435.618	1099.5
435.84	1087.5
436.062	1059.5
436.284	1061.5
436.505	1041.5
436.727	1060.5
436.949	1086.5
437.17	1037.5
437.392	1034.5
437.614	1035.5
437.835	985.5
438.057	1027.5
438.278	989.5
438.5	987.5
438.721	1026.5
438.943	1049.5
439.165	1039.5
439.386	1033.5
439.608	1009.5
439.829	1039.5
440.05	1036.5
440.272	1079.5
440.493	1045.5
440.715	1060.5
440.936	1098.5
441.158	1113.5
441.379	1139.5
441.6	1173.5
441.822	1192.5
442.043	1236.5
442.264	1179.5
442.486	1165.5
442.707	1153.5
442.928	1176.5
443.149	1182.5
443.371	1160.5
443.592	1158.5
443.813	1185.5
444.034	1230.5
444.255	1221.5
444.476	1299.5
444.698	1403.5
444.919	1414.5
445.14	1518.5
445.361	1368.5
445.582	1254.5
445.803	1187.5
446.024	1130.5
446.245	1092.5
446.466	1094.5
446.687	1050.5
446.908	1086.5
447.129	1049.5
447.35	1067.5
447.571	1006.5
447.792	994.5
448.013	1013.5
448.234	966.5
448.455	1004.5
448.675	979.5
448.896	976.5
449.117	954.5
449.338	975.5
449.559	955.5
449.779	968.5
450	945.5
450.221	964.5
450.442	958.5
450.662	972.5
450.883	988.5
451.104	1036.5
451.324	988.5
451.545	988.5
451.766	1002.5
451.986	986.5
452.207	979.5
452.428	965.5
452.648	982.5
452.869	939.5
453.089	931.5
453.31	963.5
453.53	917.5
453.751	933.5
453.971	952.5
454.192	943.5
454.412	902.5
454.633	914.5
454.853	913.5
455.073	934.5
455.294	920.5
455.514	917.5
455.734	938.5
455.955	894.5
456.175	895.5
456.395	906.5
456.616	897.5
456.836	906.5
457.056	866.5
457.276	893.5
457.497	921.5
457.717	889.5
457.937	901.5
458.157	918.5
458.377	914.5
458.598	954.5
458.818	965.5
459.038	977.5
459.258	1032.5
459.478	1069.5
459.698	1097.5
459.918	1140.5
460.138	1173.5
460.358	1223.5
460.578	1237.5
460.798	1290.5
461.018	1286.5
461.238	1263.5
461.458	1247.5
461.678	1256.5
461.898	1242.5
462.118	1254.5
462.338	1337.5
462.558	1347.5
462.777	1403.5
462.997	1516.5
463.217	1713.5
463.437	1725.5
463.657	1567.5
463.876	1463.5
464.096	1480.5
464.316	1471.5
464.536	1478.5
464.755	1429.5
464.975	1318.5
465.195	1313.5
465.414	1206.5
465.634	1140.5
465.854	1105.5
466.073	1088.5
466.293	1054.5
466.512	1025.5
466.732	1002.5
466.951	985.5
467.171	1029.5
467.391	998.5
467.61	1004.5
467.829	1016.5
468.049	980.5
468.268	975.5
468.488	985.5
468.707	970.5
468.927	998.5
469.146	989.5
469.365	985.5
469.585	975.5
469.804	1020.5
470.023	1027.5
470.243	1023.5
470.462	1052.5
470.681	1060.5
470.901	1028.5
471.12	1027.5
471.339	1055.5
471.558	1003.5
471.777	1028.5
471.997	985.5
472.216	965.5
472.435	964.5
472.654	951.5
472.873	950.5
473.092	929.5
473.311	951.5
473.53	959.5
473.749	939.5
473.968	939.5
474.187	932.5
474.406	946.5
474.625	934.5
474.844	939.5
475.063	938.5
475.282	966.5
475.501	981.5
475.72	958.5
475.939	952.5
476.158	952.5
476.377	990.5
476.596	1000.5
476.814	997.5
477.033	998.5
477.252	1027.5
477.471	1037.5
477.69	1062.5
477.908	1103.5
478.127	1118.5
478.346	1143.5
478.564	1150.5
478.783	1123.5
479.002	1177.5
479.22	1180.5
479.439	1197.5
479.658	1168.5
479.876	1159.5
480.095	1205.5
480.313	1230.5
480.532	1285.5
480.751	1265.5
480.969	1201.5
481.188	1164.5
481.406	1150.5
481.624	1089.5
481.843	1091.5
482.061	1098.5
482.28	1083.5
482.498	1087.5
482.717	1064.5
482.935	1057.5
483.153	1084.5
483.372	1061.5
483.59	1099.5
483.808	1067.5
484.027	1087.5
484.245	1091.5
484.463	1109.5
484.681	1108.5
484.9	1107.5
485.118	1123.5
485.336	1108.5
485.554	1153.5
485.772	1137.5
485.99	1145.5
486.209	1157.5
486.427	1153.5
486.645	1128.5
486.863	1149.5
487.081	1145.5
487.299	1151.5
487.517	1141.5
487.735	1127.5
487.953	1140.5
488.171	1122.5
488.389	1123.5
488.607	1095.5
488.825	1107.5
489.043	1099.5
489.261	1137.5
489.479	1101.5
489.696	1128.5
489.914	1128.5
490.132	1156.5
490.35	1153.5
490.568	1129.5
490.786	1135.5
491.003	1168.5
491.221	1149.5
491.439	1163.5
491.657	1150.5
491.874	1168.5
492.092	1149.5
492.31	1182.5
492.527	1151.5
492.745	1182.5
492.963	1202.5
493.18	1178.5
493.398	1158.5
493.615	1165.5
493.833	1193.5
494.05	1174.5
494.268	1202.5
494.485	1181.5
494.703	1192.5
494.92	1196.5
495.138	1219.5
495.355	1156.5
495.573	1185.5
495.79	1215.5
496.008	1205.5
496.225	1214.5
496.442	1233.5
496.66	1252.5
496.877	1261.5
497.094	1254.5
497.312	1308.5
497.529	1325.5
497.746	1364.5
497.963	1381.5
498.181	1459.5
498.398	1509.5
498.615	1608.5
498.832	1716.5
499.049	1842.5
499.267	2040.5
499.484	2171.5
499.701	2444.5
499.918	2689.5
500.135	3030.5
500.352	3475.5
500.569	3628.5
500.786	3609.5
501.003	3386.5
501.22	3047.5
501.437	2669.5
501.654	2391.5
501.871	2124.5
502.088	2005.5
502.305	1831.5
502.522	1720.5
502.739	1666.5
502.956	1577.5
503.172	1517.5
503.389	1424.5
503.606	1421.5
503.823	1364.5
504.04	1367.5
504.256	1387.5
504.473	1410.5
504.69	1471.5
504.907	1429.5
505.123	1339.5
505.34	1270.5
505.557	1218.5
505.773	1155.5
505.99	1153.5
506.207	1101.5
506.423	1111.5
506.64	1101.5
506.856	1059.5
507.073	1087.5
507.289	1060.5
507.506	1065.5
507.722	1059.5
507.939	1044.5
508.155	999.5
508.372	1027.5
508.588	1025.5
508.805	1040.5
509.021	999.5
509.238	1029.5
509.454	995.5
509.67	982.5
509.887	1012.5
510.103	1010.5
510.319	997.5
510.536	970.5
510.752	939.5
510.968	961.5
511.184	938.5
511.401	950.5
511.617	953.5
511.833	951.5
512.049	971.5
512.265	963.5
512.481	969.5
512.698	970.5
512.914	958.5
513.13	927.5
513.346	954.5
513.562	989.5
513.778	953.5
513.994	967.5
514.21	972.5
514.426	990.5
514.642	938.5
514.858	1001.5
515.074	970.5
515.29	987.5
515.506	990.5
515.721	1032.5
515.937	1050.5
516.153	1035.5
516.369	1073.5
516.585	1109.5
516.801	1149.5
517.016	1198.5
517.232	1239.5
517.448	1291.5
517.664	1340.5
517.879	1336.5
518.095	1358.5
518.311	1339.5
518.527	1214.5
518.742	1219.5
518.958	1161.5
519.173	1129.5
519.389	1082.5
519.605	1051.5
519.82	1033.5
520.036	1006.5
520.251	998.5
520.467	1001.5
520.682	988.5
520.898	947.5
521.113	954.5
521.329	947.5
521.544	932.5
521.76	957.5
521.975	943.5
522.19	922.5
522.406	922.5
522.621	945.5
522.836	909.5
523.052	924.5
523.267	893.5
523.482	906.5
523.698	936.5
523.913	897.5
524.128	887.5
524.343	885.5
524.559	894.5
524.774	874.5
524.989	917.5
525.204	906.5
525.419	874.5
525.634	911.5
525.849	888.5
526.064	891.5
526.28	889.5
526.495	865.5
526.71	864.5
526.925	857.5
527.14	873.5
527.355	877.5
527.57	909.5
527.785	874.5
527.999	872.5
528.214	853.5
528.429	886.5
528.644	868.5
528.859	864.5
529.074	873.5
529.289	891.5
529.503	887.5
529.718	869.5
529.933	875.5
530.148	841.5
530.363	853.5
530.577	843.5
530.792	826.5
531.007	875.5
531.221	877.5
531.436	849.5
531.651	875.5
531.865	858.5
532.08	890.5
532.295	875.5
532.509	876.5
532.724	875.5
532.938	878.5
533.153	869.5
533.367	861.5
533.582	861.5
533.796	870.5
534.011	877.5
534.225	843.5
534.44	853.5
534.654	831.5
534.868	856.5
535.083	856.5
535.297	853.5
535.511	806.5
535.726	843.5
535.94	852.5
536.154	838.5
536.369	837.5
536.583	823.5
536.797	842.5
537.011	808.5
537.225	788.5
537.44	797.5
537.654	830.5
537.868	783.5
538.082	779.5
538.296	813.5
538.51	791.5
538.724	809.5
538.938	805.5
539.153	801.5
539.367	813.5
539.581	802.5
539.795	783.5
540.009	803.5
540.222	772.5
540.436	753.5
540.65	790.5
540.864	773.5
541.078	768.5
541.292	772.5
541.506	780.5
541.72	794.5
541.934	777.5
542.147	763.5
542.361	789.5
542.575	790.5
542.789	763.5
543.002	758.5
543.216	771.5
543.43	783.5
543.644	770.5
543.857	765.5
544.071	769.5
544.285	796.5
544.498	789.5
544.712	773.5
544.925	781.5
545.139	778.5
545.352	786.5
545.566	804.5
545.779	781.5
545.993	804.5
546.206	798.5
546.42	794.5
546.633	802.5
546.847	783.5
547.06	816.5
547.274	819.5
547.487	784.5
547.7	790.5
547.914	774.5
548.127	807.5
548.34	795.5
548.554	784.5
548.767	817.5
548.98	807.5
549.193	778.5
549.407	805.5
549.62	823.5
549.833	840.5
550.046	855.5
550.259	803.5
550.473	796.5
550.686	787.5
550.899	767.5
551.112	774.5
551.325	754.5
551.538	791.5
551.751	781.5
551.964	817.5
552.177	789.5
552.39	810.5
552.603	811.5
552.816	854.5
553.029	835.5
553.242	837.5
553.455	872.5
553.667	892.5
553.88	867.5
554.093	844.5
554.306	835.5
554.519	815.5
554.732	792.5
554.944	801.5
555.157	764.5
555.37	755.5
555.583	783.5
555.795	762.5
556.008	744.5
556.221	706.5
556.433	701.5
556.646	724.5
556.859	710.5
557.071	699.5
557.284	673.5
557.496	684.5
557.709	703.5
557.921	674.5
558.134	682.5
558.346	707.5
558.559	687.5
558.771	655.5
558.984	680.5
559.196	653.5
559.409	684.5
559.621	661.5
559.833	652.5
560.046	672.5
560.258	677.5
560.47	654.5
560.683	657.5
560.895	655.5
561.107	661.5
561.32	647.5
561.532	659.5
561.744	674.5
561.956	653.5
562.168	669.5
562.381	664.5
562.593	679.5
562.805	675.5
563.017	664.5
563.229	677.5
563.441	671.5
563.653	686.5
563.865	671.5
564.077	681.5
564.289	661.5
564.501	688.5
564.713	697.5
564.925	739.5
565.137	701.5
565.349	746.5
565.561	781.5
565.773	777.5
565.985	797.5
566.197	868.5
566.408	921.5
566.62	1029.5
566.832	1054.5
567.044	1095.5
567.255	1093.5
567.467	1139.5
567.679	1173.5
567.891	1303.5
568.102	1287.5
568.314	1254.5
568.526	1119.5
568.737	1025.5
568.949	918.5
569.161	855.5
569.372	799.5
569.584	749.5
569.795	732.5
570.007	693.5
570.218	685.5
570.43	682.5
570.641	677.5
570.853	691.5
571.064	667.5
571.276	689.5
571.487	676.5
571.698	648.5
571.91	648.5
572.121	630.5
572.333	586.5
572.544	599.5
572.755	574.5
572.966	590.5
573.178	596.5
573.389	569.5
573.6	557.5
573.811	571.5
574.023	587.5
574.234	542.5
574.445	542.5
574.656	565.5
574.867	549.5
575.078	548.5
575.289	529.5
575.501	558.5
575.712	515.5
575.923	527.5
576.134	503.5
576.345	535.5
576.556	542.5
576.767	508.5
576.978	531.5
577.188	531.5
577.399	526.5
577.61	487.5
577.821	510.5
578.032	487.5
578.243	485.5
578.454	469.5
578.665	488.5
578.875	475.5
579.086	485.5
579.297	485.5
579.508	494.5
579.718	479.5
579.929	476.5
580.14	459.5
580.35	485.5
580.561	490.5
580.772	454.5
580.982	469.5
581.193	459.5
581.403	467.5
581.614	472.5
581.825	469.5
582.035	470.5
582.246	477.5
582.456	466.5
582.667	476.5
582.877	443.5
583.087	454.5
583.298	449.5
583.508	442.5
583.719	459.5
583.929	439.5
584.139	445.5
584.35	462.5
584.56	440.5
584.77	462.5
584.981	443.5
585.191	451.5
585.401	450.5
585.611	442.5
585.821	451.5
586.032	455.5
586.242	447.5
586.452	437.5
586.662	435.5
586.872	436.5
587.082	442.5
587.292	447.5
587.502	455.5
587.713	452.5
587.923	428.5
588.133	433.5
588.343	443.5
588.553	428.5
588.762	448.5
588.972	449.5
589.182	454.5
589.392	451.5
589.602	423.5
589.812	440.5
590.022	451.5
590.232	447.5
590.441	453.5
590.651	475.5
590.861	433.5
591.071	467.5
591.281	457.5
591.49	453.5
591.7	453.5
591.91	456.5
592.119	473.5
592.329	486.5
592.539	507.5
592.748	531.5
592.958	511.5
593.167	542.5
593.377	562.5
593.587	571.5
593.796	571.5
594.006	575.5
594.215	561.5
594.424	569.5
594.634	572.5
594.843	545.5
595.053	531.5
595.262	498.5
595.472	473.5
595.681	466.5
595.89	472.5
596.1	449.5
596.309	450.5
596.518	417.5
596.727	410.5
596.937	425.5
597.146	413.5
597.355	429.5
597.564	397.5
597.774	395.5
597.983	391.5
598.192	404.5
598.401	392.5
598.61	377.5
598.819	385.5
599.028	386.5
599.237	378.5
599.446	377.5
599.655	375.5
599.864	377.5
600.073	381.5
600.282	377.5
600.491	376.5
600.7	371.5
600.909	381.5
601.118	374.5
601.327	350.5
601.536	361.5
601.745	365.5
601.953	374.5
602.162	377.5
602.371	353.5
602.58	357.5
602.789	354.5
602.997	353.5
603.206	329.5
603.415	351.5
603.623	341.5
603.832	362.5
604.041	370.5
604.249	353.5
604.458	326.5
604.666	354.5
604.875	342.5
605.084	339.5
605.292	354.5
605.501	372.5
605.709	346.5
605.918	319.5
606.126	329.5
606.334	341.5
606.543	338.5
606.751	326.5
606.96	339.5
607.168	353.5
607.376	321.5
607.585	345.5
607.793	342.5
608.001	332.5
608.21	334.5
608.418	317.5
608.626	341.5
608.834	336.5
609.043	331.5
609.251	318.5
609.459	324.5
609.667	321.5
609.875	306.5
610.083	318.5
610.291	326.5
610.499	311.5
610.707	335.5
610.916	332.5
611.124	324.5
611.332	331.5
611.54	338.5
611.748	345.5
611.955	332.5
612.163	335.5
612.371	324.5
612.579	328.5
612.787	330.5
612.995	329.5
613.203	316.5
613.411	317.5
613.618	316.5
613.826	312.5
614.034	309.5
614.242	312.5
614.449	308.5
614.657	305.5
614.865	295.5
615.072	333.5
615.28	322.5
615.488	329.5
615.695	322.5
615.903	298.5
616.111	328.5
616.318	314.5
616.526	308.5
616.733	294.5
616.941	322.5
617.148	306.5
617.356	310.5
617.563	320.5
617.771	317.5
617.978	309.5
618.185	312.5
618.393	323.5
618.6	323.5
618.807	336.5
619.015	314.5
619.222	315.5
619.429	299.5
619.637	310.5
619.844	309.5
620.051	303.5
620.258	319.5
620.466	299.5
620.673	295.5
620.88	310.5
621.087	300.5
621.294	302.5
621.501	289.5
621.708	305.5
621.915	307.5
622.122	309.5
622.329	294.5
622.536	283.5
622.743	299.5
622.95	292.5
623.157	293.5
623.364	275.5
623.571	286.5
623.778	279.5
623.985	282.5
624.192	278.5
624.399	291.5
624.606	283.5
624.812	299.5
625.019	274.5
625.226	278.5
625.433	295.5
625.639	281.5
625.846	276.5
626.053	283.5
626.259	283.5
626.466	268.5
626.673	278.5
626.879	275.5
627.086	278.5
627.293	281.5
627.499	258.5
627.706	270.5
627.912	263.5
628.119	261.5
628.325	263.5
628.532	273.5
628.738	264.5
628.945	275.5
629.151	254.5
629.357	265.5
629.564	259.5
629.77	271.5
629.976	258.5
630.183	243.5
630.389	277.5
630.595	277.5
630.802	250.5
631.008	252.5
631.214	258.5
631.42	259.5
631.627	242.5
631.833	264.5
632.039	248.5
632.245	229.5
632.451	238.5
632.657	229.5
632.863	258.5
633.069	237.5
633.275	247.5
633.481	247.5
633.688	235.5
633.893	254.5
634.099	243.5
634.305	230.5
634.511	231.5
634.717	227.5
634.923	223.5
635.129	231.5
635.335	243.5
635.541	247.5
635.747	230.5
635.952	235.5
636.158	229.5
636.364	223.5
636.57	223.5
636.775	234.5
636.981	238.5
637.187	210.5
637.392	235.5
637.598	220.5
637.804	227.5
638.009	241.5
638.215	225.5
638.421	226.5
638.626	241.5
638.832	243.5
639.037	242.5
639.243	223.5
639.448	213.5
639.654	216.5
639.859	227.5
640.065	222.5
640.27	241.5
640.475	231.5
640.681	223.5
640.886	213.5
641.091	202.5
641.297	232.5
641.502	220.5
641.707	222.5
641.913	221.5
642.118	217.5
642.323	221.5
642.528	202.5
642.733	225.5
642.939	207.5
643.144	222.5
643.349	197.5
643.554	195.5
643.759	192.5
643.964	211.5
644.169	218.5
644.374	208.5
644.579	212.5
644.784	207.5
644.989	223.5
645.194	198.5
645.399	234.5
645.604	207.5
645.809	208.5
646.014	224.5
646.219	215.5
646.423	205.5
646.628	214.5
646.833	214.5
647.038	193.5
647.243	201.5
647.447	208.5
647.652	211.5
647.857	222.5
648.062	234.5
648.266	230.5
648.471	230.5
648.676	218.5
648.88	217.5
649.085	226.5
649.289	203.5
649.494	232.5
649.698	198.5
649.903	207.5
650.107	201.5
650.312	205.5
650.516	185.5
650.721	206.5
650.925	183.5
651.13	204.5
651.334	177.5
651.539	174.5
651.743	189.5
651.947	169.5
652.152	158.5
652.356	163.5
652.56	179.5
652.764	184.5
652.969	171.5
653.173	181.5
653.377	146.5
653.581	181.5
653.785	160.5
653.99	183.5
654.194	149.5
654.398	169.5
654.602	147.5
654.806	163.5
655.01	162.5
655.214	164.5
655.418	150.5
655.622	148.5
655.826	159.5
656.03	171.5
656.234	142.5
656.438	150.5
656.642	152.5
656.846	147.5
657.049	131.5
657.253	128.5
657.457	132.5
657.661	146.5
657.865	113.5
658.068	115.5
658.272	120.5
658.476	122.5
658.68	119.5
658.883	114.5
659.087	106.5
659.291	112.5
659.494	114.5
659.698	115.5
659.901	116.5
660.105	98.5
660.309	92.5
660.512	108.5
660.716	106.5
660.919	115.5
661.123	99.5
661.326	102.5
661.53	93.5
661.733	75.5
661.936	91.5
662.14	81.5
662.343	92.5
662.546	91.5
662.75	102.5
662.953	95.5
663.156	69.5
663.36	64.5
663.563	82.5
663.766	87.5
663.969	92.5
664.173	102.5
664.376	84.5
664.579	90.5
664.782	95.5
664.985	99.5
665.188	94.5
665.391	98.5
665.594	94.5
665.797	98.5
666	90.5
666.203	85.5
666.406	81.5
666.609	90.5
666.812	86.5
667.015	80.5
667.218	80.5
667.421	74.5
667.624	92.5
667.827	80.5
668.03	92.5
668.232	89.5
668.435	91.5
668.638	76.5
668.841	63.5
669.043	71.5
669.246	76.5
669.449	78.5
669.651	92.5
669.854	89.5
670.057	86.5
670.259	100.5
670.462	82.5
670.665	96.5
670.867	102.5
671.07	82.5
671.272	83.5
671.475	99.5
671.677	84.5
671.88	89.5
672.082	89.5
672.284	86.5
672.487	81.5
672.689	94.5
672.892	85.5
