Data from NiCl2@0.0625M.TitratingCurve.Agarose3%dH2O.NegLispCup.LampEnergy10.LIBS07252019_HRD10591_18-33-07-576.txt Node
Date: Thu Jul 25 18:33:07 EDT 2019
User: cochatt
Spectrometer: HR+D1059
Trigger mode: 1
Integration Time (sec): 1.000000E-1
Scans to average: 1
Electric dark correction enabled: true
Nonlinearity correction enabled: false
Boxcar width: 0
XAxis mode: Wavelengths
Number of Pixels in Spectrum: 2048
>>>>>Begin Spectral Data<<<<<
223.165	-30.62
223.4	-30.62
223.635	-30.62
223.869	-25.62
224.104	-18.62
224.338	-29.62
224.573	-16.62
224.808	-10.62
225.042	-5.62
225.277	9.38
225.511	-15.62
225.746	10.38
225.98	5.38
226.215	4.38
226.449	26.38
226.683	24.38
226.918	22.38
227.152	50.38
227.387	47.38
227.621	47.38
227.856	50.38
228.09	54.38
228.324	51.38
228.559	51.38
228.793	83.38
229.027	137.38
229.262	156.38
229.496	162.38
229.73	172.38
229.964	197.38
230.199	184.38
230.433	190.38
230.667	189.38
230.901	204.38
231.136	204.38
231.37	187.38
231.604	197.38
231.838	213.38
232.072	209.38
232.306	209.38
232.541	221.38
232.775	239.38
233.009	224.38
233.243	207.38
233.477	216.38
233.711	227.38
233.945	227.38
234.179	215.38
234.413	227.38
234.647	223.38
234.881	231.38
235.115	223.38
235.349	217.38
235.583	263.38
235.817	258.38
236.051	239.38
236.285	231.38
236.519	226.38
236.753	254.38
236.987	238.38
237.221	239.38
237.455	263.38
237.689	245.38
237.922	249.38
238.156	256.38
238.39	277.38
238.624	280.38
238.858	260.38
239.091	267.38
239.325	264.38
239.559	272.38
239.793	296.38
240.027	302.38
240.26	280.38
240.494	287.38
240.728	291.38
240.961	298.38
241.195	272.38
241.429	305.38
241.662	301.38
241.896	308.38
242.13	303.38
242.363	311.38
242.597	321.38
242.83	334.38
243.064	332.38
243.298	328.38
243.531	335.38
243.765	331.38
243.998	341.38
244.232	338.38
244.465	322.38
244.699	340.38
244.932	359.38
245.166	375.38
245.399	357.38
245.633	357.38
245.866	375.38
246.099	352.38
246.333	388.38
246.566	341.38
246.8	360.38
247.033	379.38
247.266	370.38
247.5	383.38
247.733	399.38
247.966	398.38
248.2	408.38
248.433	410.38
248.666	390.38
248.899	384.38
249.133	392.38
249.366	410.38
249.599	414.38
249.832	425.38
250.066	423.38
250.299	420.38
250.532	430.38
250.765	431.38
250.998	442.38
251.231	439.38
251.465	448.38
251.698	450.38
251.931	455.38
252.164	456.38
252.397	457.38
252.63	467.38
252.863	460.38
253.096	471.38
253.329	471.38
253.562	471.38
253.795	474.38
254.028	459.38
254.261	473.38
254.494	487.38
254.727	483.38
254.96	464.38
255.193	495.38
255.426	528.38
255.659	491.38
255.892	476.38
256.124	502.38
256.357	498.38
256.59	515.38
256.823	485.38
257.056	516.38
257.289	519.38
257.521	543.38
257.754	512.38
257.987	516.38
258.22	524.38
258.452	520.38
258.685	544.38
258.918	519.38
259.151	535.38
259.383	554.38
259.616	539.38
259.849	566.38
260.081	557.38
260.314	562.38
260.547	563.38
260.779	560.38
261.012	550.38
261.244	580.38
261.477	571.38
261.71	568.38
261.942	577.38
262.175	578.38
262.407	574.38
262.64	592.38
262.872	599.38
263.105	577.38
263.337	590.38
263.57	586.38
263.802	590.38
264.035	606.38
264.267	604.38
264.499	594.38
264.732	598.38
264.964	597.38
265.197	589.38
265.429	601.38
265.661	611.38
265.894	611.38
266.126	636.38
266.358	623.38
266.591	626.38
266.823	634.38
267.055	623.38
267.287	648.38
267.52	631.38
267.752	651.38
267.984	629.38
268.216	640.38
268.448	660.38
268.681	648.38
268.913	657.38
269.145	670.38
269.377	681.38
269.609	679.38
269.841	659.38
270.073	687.38
270.306	651.38
270.538	682.38
270.77	688.38
271.002	709.38
271.234	679.38
271.466	688.38
271.698	657.38
271.93	668.38
272.162	708.38
272.394	719.38
272.626	700.38
272.858	710.38
273.09	707.38
273.322	718.38
273.553	724.38
273.785	708.38
274.017	725.38
274.249	714.38
274.481	728.38
274.713	721.38
274.945	738.38
275.176	743.38
275.408	729.38
275.64	764.38
275.872	740.38
276.104	767.38
276.335	761.38
276.567	747.38
276.799	781.38
277.031	755.38
277.262	790.38
277.494	760.38
277.726	776.38
277.957	789.38
278.189	760.38
278.421	791.38
278.652	785.38
278.884	795.38
279.115	806.38
279.347	856.38
279.579	903.38
279.81	952.38
280.042	907.38
280.273	867.38
280.505	890.38
280.736	866.38
280.968	828.38
281.199	828.38
281.431	844.38
281.662	837.38
281.894	836.38
282.125	815.38
282.356	849.38
282.588	854.38
282.819	844.38
283.051	868.38
283.282	871.38
283.513	863.38
283.745	841.38
283.976	856.38
284.207	894.38
284.439	899.38
284.67	908.38
284.901	903.38
285.132	876.38
285.364	880.38
285.595	898.38
285.826	898.38
286.057	903.38
286.288	913.38
286.52	870.38
286.751	909.38
286.982	920.38
287.213	901.38
287.444	929.38
287.675	930.38
287.906	940.38
288.138	958.38
288.369	937.38
288.6	952.38
288.831	942.38
289.062	948.38
289.293	933.38
289.524	949.38
289.755	932.38
289.986	932.38
290.217	926.38
290.448	960.38
290.679	946.38
290.91	963.38
291.141	939.38
291.371	962.38
291.602	958.38
291.833	954.38
292.064	926.38
292.295	944.38
292.526	952.38
292.757	960.38
292.987	976.38
293.218	947.38
293.449	978.38
293.68	966.38
293.91	979.38
294.141	940.38
294.372	972.38
294.603	970.38
294.833	948.38
295.064	950.38
295.295	976.38
295.525	963.38
295.756	983.38
295.987	948.38
296.217	973.38
296.448	984.38
296.679	988.38
296.909	991.38
297.14	1017.38
297.37	1013.38
297.601	986.38
297.831	1005.38
298.062	1042.38
298.292	1006.38
298.523	1035.38
298.753	1047.38
298.984	1017.38
299.214	994.38
299.445	1044.38
299.675	1032.38
299.905	1056.38
300.136	1020.38
300.366	1059.38
300.597	1042.38
300.827	1075.38
301.057	1070.38
301.288	1064.38
301.518	1098.38
301.748	1092.38
301.979	1115.38
302.209	1103.38
302.439	1092.38
302.669	1091.38
302.9	1054.38
303.13	1061.38
303.36	1083.38
303.59	1078.38
303.82	1088.38
304.051	1101.38
304.281	1082.38
304.511	1091.38
304.741	1082.38
304.971	1094.38
305.201	1063.38
305.431	1110.38
305.661	1110.38
305.891	1110.38
306.121	1085.38
306.352	1069.38
306.582	1059.38
306.812	1081.38
307.042	1067.38
307.272	1033.38
307.502	1052.38
307.731	1070.38
307.961	1100.38
308.191	1035.38
308.421	1083.38
308.651	1064.38
308.881	1065.38
309.111	1092.38
309.341	1078.38
309.571	1066.38
309.8	1100.38
310.03	1076.38
310.26	1090.38
310.49	1070.38
310.72	1088.38
310.949	1074.38
311.179	1076.38
311.409	1112.38
311.639	1107.38
311.868	1115.38
312.098	1102.38
312.328	1114.38
312.557	1131.38
312.787	1122.38
313.017	1126.38
313.246	1165.38
313.476	1137.38
313.706	1141.38
313.935	1138.38
314.165	1166.38
314.394	1182.38
314.624	1169.38
314.853	1160.38
315.083	1176.38
315.312	1183.38
315.542	1166.38
315.771	1164.38
316.001	1149.38
316.23	1188.38
316.46	1174.38
316.689	1163.38
316.919	1180.38
317.148	1167.38
317.377	1151.38
317.607	1143.38
317.836	1180.38
318.065	1147.38
318.295	1153.38
318.524	1190.38
318.753	1142.38
318.983	1134.38
319.212	1174.38
319.441	1156.38
319.67	1141.38
319.9	1156.38
320.129	1166.38
320.358	1149.38
320.587	1160.38
320.816	1146.38
321.046	1187.38
321.275	1169.38
321.504	1150.38
321.733	1171.38
321.962	1173.38
322.191	1176.38
322.42	1164.38
322.649	1213.38
322.878	1170.38
323.108	1140.38
323.337	1178.38
323.566	1205.38
323.795	1203.38
324.024	1198.38
324.253	1198.38
324.482	1190.38
324.71	1203.38
324.939	1234.38
325.168	1211.38
325.397	1191.38
325.626	1243.38
325.855	1262.38
326.084	1260.38
326.313	1237.38
326.542	1278.38
326.77	1263.38
326.999	1260.38
327.228	1229.38
327.457	1260.38
327.686	1270.38
327.914	1236.38
328.143	1287.38
328.372	1262.38
328.6	1274.38
328.829	1263.38
329.058	1252.38
329.287	1236.38
329.515	1281.38
329.744	1289.38
329.972	1306.38
330.201	1316.38
330.43	1326.38
330.658	1298.38
330.887	1327.38
331.115	1323.38
331.344	1307.38
331.572	1302.38
331.801	1321.38
332.03	1356.38
332.258	1415.38
332.486	1417.38
332.715	1468.38
332.943	1469.38
333.172	1537.38
333.4	1542.38
333.629	1613.38
333.857	1636.38
334.085	1628.38
334.314	1598.38
334.542	1619.38
334.771	1598.38
334.999	1593.38
335.227	1609.38
335.455	1554.38
335.684	1578.38
335.912	1556.38
336.14	1524.38
336.369	1527.38
336.597	1511.38
336.825	1504.38
337.053	1482.38
337.281	1485.38
337.51	1472.38
337.738	1478.38
337.966	1433.38
338.194	1396.38
338.422	1432.38
338.65	1380.38
338.878	1390.38
339.106	1391.38
339.334	1386.38
339.562	1385.38
339.79	1341.38
340.018	1361.38
340.246	1357.38
340.474	1346.38
340.702	1323.38
340.93	1318.38
341.158	1334.38
341.386	1334.38
341.614	1322.38
341.842	1333.38
342.07	1334.38
342.298	1346.38
342.526	1305.38
342.754	1309.38
342.981	1323.38
343.209	1342.38
343.437	1382.38
343.665	1449.38
343.893	1524.38
344.12	1542.38
344.348	1539.38
344.576	1476.38
344.804	1424.38
345.031	1355.38
345.259	1358.38
345.487	1354.38
345.714	1336.38
345.942	1286.38
346.17	1321.38
346.397	1277.38
346.625	1283.38
346.853	1268.38
347.08	1266.38
347.308	1274.38
347.535	1243.38
347.763	1310.38
347.99	1257.38
348.218	1263.38
348.445	1266.38
348.673	1266.38
348.9	1263.38
349.128	1296.38
349.355	1218.38
349.583	1246.38
349.81	1255.38
350.037	1231.38
350.265	1217.38
350.492	1251.38
350.72	1247.38
350.947	1256.38
351.174	1235.38
351.402	1214.38
351.629	1212.38
351.856	1199.38
352.083	1230.38
352.311	1207.38
352.538	1217.38
352.765	1230.38
352.992	1206.38
353.22	1211.38
353.447	1210.38
353.674	1175.38
353.901	1227.38
354.128	1250.38
354.355	1192.38
354.583	1224.38
354.81	1221.38
355.037	1240.38
355.264	1231.38
355.491	1254.38
355.718	1250.38
355.945	1241.38
356.172	1244.38
356.399	1252.38
356.626	1246.38
356.853	1206.38
357.08	1213.38
357.307	1222.38
357.534	1197.38
357.761	1228.38
357.988	1226.38
358.215	1212.38
358.441	1208.38
358.668	1262.38
358.895	1222.38
359.122	1234.38
359.349	1226.38
359.576	1228.38
359.802	1210.38
360.029	1215.38
360.256	1214.38
360.483	1262.38
360.709	1225.38
360.936	1236.38
361.163	1219.38
361.39	1268.38
361.616	1221.38
361.843	1219.38
362.07	1235.38
362.296	1240.38
362.523	1220.38
362.749	1244.38
362.976	1232.38
363.203	1224.38
363.429	1242.38
363.656	1245.38
363.882	1224.38
364.109	1207.38
364.335	1212.38
364.562	1234.38
364.788	1214.38
365.015	1243.38
365.241	1220.38
365.468	1215.38
365.694	1236.38
365.92	1243.38
366.147	1247.38
366.373	1270.38
366.599	1223.38
366.826	1230.38
367.052	1199.38
367.278	1268.38
367.505	1246.38
367.731	1253.38
367.957	1237.38
368.184	1242.38
368.41	1250.38
368.636	1252.38
368.862	1280.38
369.089	1255.38
369.315	1274.38
369.541	1272.38
369.767	1274.38
369.993	1291.38
370.219	1270.38
370.445	1263.38
370.672	1316.38
370.898	1311.38
371.124	1343.38
371.35	1334.38
371.576	1310.38
371.802	1339.38
372.028	1346.38
372.254	1328.38
372.48	1361.38
372.706	1373.38
372.932	1372.38
373.158	1377.38
373.384	1362.38
373.61	1343.38
373.835	1345.38
374.061	1364.38
374.287	1352.38
374.513	1367.38
374.739	1407.38
374.965	1450.38
375.191	1472.38
375.416	1447.38
375.642	1425.38
375.868	1396.38
376.094	1348.38
376.319	1361.38
376.545	1381.38
376.771	1356.38
376.997	1331.38
377.222	1353.38
377.448	1320.38
377.674	1332.38
377.899	1356.38
378.125	1347.38
378.35	1310.38
378.576	1321.38
378.802	1309.38
379.027	1318.38
379.253	1297.38
379.478	1310.38
379.704	1323.38
379.929	1344.38
380.155	1312.38
380.38	1310.38
380.606	1321.38
380.831	1306.38
381.057	1314.38
381.282	1323.38
381.507	1310.38
381.733	1333.38
381.958	1346.38
382.184	1357.38
382.409	1398.38
382.634	1413.38
382.86	1410.38
383.085	1407.38
383.31	1422.38
383.535	1438.38
383.761	1471.38
383.986	1476.38
384.211	1491.38
384.436	1511.38
384.662	1491.38
384.887	1543.38
385.112	1526.38
385.337	1595.38
385.562	1592.38
385.787	1588.38
386.013	1604.38
386.238	1619.38
386.463	1619.38
386.688	1614.38
386.913	1565.38
387.138	1576.38
387.363	1615.38
387.588	1558.38
387.813	1587.38
388.038	1586.38
388.263	1563.38
388.488	1582.38
388.713	1595.38
388.938	1578.38
389.163	1581.38
389.387	1585.38
389.612	1538.38
389.837	1548.38
390.062	1526.38
390.287	1570.38
390.512	1570.38
390.736	1598.38
390.961	1634.38
391.186	1662.38
391.411	1696.38
391.636	1695.38
391.86	1769.38
392.085	1748.38
392.31	1753.38
392.534	1741.38
392.759	1722.38
392.984	1731.38
393.208	1802.38
393.433	2018.38
393.658	2088.38
393.882	1746.38
394.107	1704.38
394.331	1690.38
394.556	1706.38
394.78	1749.38
395.005	1741.38
395.229	1728.38
395.454	1744.38
395.678	1782.38
395.903	1778.38
396.127	1785.38
396.352	1761.38
396.576	1750.38
396.801	1776.38
397.025	1981.38
397.249	1886.38
397.474	1844.38
397.698	1822.38
397.922	1860.38
398.147	1798.38
398.371	1889.38
398.595	1896.38
398.82	1977.38
399.044	2095.38
399.268	2208.38
399.492	2500.38
399.717	2709.38
399.941	2754.38
400.165	2562.38
400.389	2386.38
400.613	2204.38
400.837	2093.38
401.062	2052.38
401.286	2015.38
401.51	1998.38
401.734	1971.38
401.958	1998.38
402.182	1993.38
402.406	2038.38
402.63	2043.38
402.854	2020.38
403.078	2087.38
403.302	2084.38
403.526	2114.38
403.75	2112.38
403.974	2184.38
404.198	2126.38
404.422	2151.38
404.645	2166.38
404.869	2090.38
405.093	2157.38
405.317	2141.38
405.541	2149.38
405.765	2109.38
405.988	2111.38
406.212	2127.38
406.436	2142.38
406.66	2238.38
406.883	2204.38
407.107	2330.38
407.331	2389.38
407.555	2471.38
407.778	2486.38
408.002	2435.38
408.226	2362.38
408.449	2349.38
408.673	2235.38
408.896	2257.38
409.12	2169.38
409.344	2181.38
409.567	2188.38
409.791	2182.38
410.014	2175.38
410.238	2147.38
410.461	2163.38
410.685	2124.38
410.908	2101.38
411.132	2081.38
411.355	2063.38
411.578	2071.38
411.802	2054.38
412.025	2062.38
412.249	2071.38
412.472	2068.38
412.695	2006.38
412.919	1982.38
413.142	2021.38
413.365	1990.38
413.589	2000.38
413.812	1975.38
414.035	1931.38
414.258	2004.38
414.482	1975.38
414.705	1981.38
414.928	1990.38
415.151	2002.38
415.374	1964.38
415.597	1958.38
415.821	1916.38
416.044	1918.38
416.267	1864.38
416.49	1895.38
416.713	1902.38
416.936	1930.38
417.159	1872.38
417.382	1930.38
417.605	1853.38
417.828	1854.38
418.051	1910.38
418.274	1883.38
418.497	1908.38
418.72	1958.38
418.943	1922.38
419.166	2054.38
419.389	2157.38
419.611	2165.38
419.834	2070.38
420.057	1977.38
420.28	1959.38
420.503	1864.38
420.726	1867.38
420.948	1891.38
421.171	1881.38
421.394	1883.38
421.617	1894.38
421.839	1899.38
422.062	1914.38
422.285	1879.38
422.507	1982.38
422.73	1934.38
422.953	1963.38
423.175	1958.38
423.398	1925.38
423.621	1927.38
423.843	1960.38
424.066	1965.38
424.288	1915.38
424.511	1958.38
424.733	1902.38
424.956	1876.38
425.178	1932.38
425.401	1885.38
425.623	1924.38
425.846	1848.38
426.068	1829.38
426.291	1836.38
426.513	1813.38
426.735	1816.38
426.958	1831.38
427.18	1733.38
427.402	1783.38
427.625	1780.38
427.847	1730.38
428.069	1746.38
428.292	1770.38
428.514	1719.38
428.736	1726.38
428.958	1711.38
429.181	1687.38
429.403	1708.38
429.625	1690.38
429.847	1704.38
430.069	1691.38
430.292	1716.38
430.514	1688.38
430.736	1730.38
430.958	1723.38
431.18	1725.38
431.402	1687.38
431.624	1716.38
431.846	1722.38
432.068	1768.38
432.29	1783.38
432.512	1685.38
432.734	1800.38
432.956	1725.38
433.178	1773.38
433.4	1724.38
433.622	1771.38
433.844	1794.38
434.066	1801.38
434.287	1829.38
434.509	1851.38
434.731	1890.38
434.953	1924.38
435.175	1914.38
435.397	1909.38
435.618	1843.38
435.84	1765.38
436.062	1782.38
436.284	1781.38
436.505	1726.38
436.727	1727.38
436.949	1739.38
437.17	1728.38
437.392	1722.38
437.614	1731.38
437.835	1648.38
438.057	1666.38
438.278	1635.38
438.5	1618.38
438.721	1643.38
438.943	1695.38
439.165	1648.38
439.386	1669.38
439.608	1701.38
439.829	1690.38
440.05	1672.38
440.272	1687.38
440.493	1741.38
440.715	1723.38
440.936	1741.38
441.158	1747.38
441.379	1815.38
441.6	1896.38
441.822	1888.38
442.043	1876.38
442.264	1848.38
442.486	1835.38
442.707	1869.38
442.928	1869.38
443.149	1839.38
443.371	1832.38
443.592	1871.38
443.813	1872.38
444.034	1891.38
444.255	1912.38
444.476	2022.38
444.698	2077.38
444.919	2148.38
445.14	2180.38
445.361	2030.38
445.582	1961.38
445.803	1834.38
446.024	1819.38
446.245	1760.38
446.466	1734.38
446.687	1679.38
446.908	1701.38
447.129	1716.38
447.35	1635.38
447.571	1634.38
447.792	1603.38
448.013	1624.38
448.234	1581.38
448.455	1559.38
448.675	1577.38
448.896	1584.38
449.117	1533.38
449.338	1562.38
449.559	1540.38
449.779	1516.38
450	1491.38
450.221	1522.38
450.442	1547.38
450.662	1510.38
450.883	1560.38
451.104	1551.38
451.324	1531.38
451.545	1526.38
451.766	1556.38
451.986	1545.38
452.207	1512.38
452.428	1525.38
452.648	1542.38
452.869	1490.38
453.089	1494.38
453.31	1487.38
453.53	1485.38
453.751	1457.38
453.971	1480.38
454.192	1490.38
454.412	1432.38
454.633	1446.38
454.853	1477.38
455.073	1437.38
455.294	1463.38
455.514	1459.38
455.734	1452.38
455.955	1422.38
456.175	1477.38
456.395	1418.38
456.616	1450.38
456.836	1470.38
457.056	1458.38
457.276	1408.38
457.497	1476.38
457.717	1456.38
457.937	1469.38
458.157	1503.38
458.377	1526.38
458.598	1536.38
458.818	1581.38
459.038	1580.38
459.258	1653.38
459.478	1719.38
459.698	1715.38
459.918	1755.38
460.138	1836.38
460.358	1905.38
460.578	1912.38
460.798	1944.38
461.018	1948.38
461.238	1939.38
461.458	1948.38
461.678	1925.38
461.898	1948.38
462.118	1988.38
462.338	2072.38
462.558	2100.38
462.777	2176.38
462.997	2342.38
463.217	2427.38
463.437	2494.38
463.657	2300.38
463.876	2256.38
464.096	2237.38
464.316	2214.38
464.536	2221.38
464.755	2168.38
464.975	2083.38
465.195	2024.38
465.414	1921.38
465.634	1826.38
465.854	1802.38
466.073	1718.38
466.293	1681.38
466.512	1688.38
466.732	1674.38
466.951	1657.38
467.171	1622.38
467.391	1640.38
467.61	1600.38
467.829	1599.38
468.049	1631.38
468.268	1593.38
468.488	1582.38
468.707	1569.38
468.927	1516.38
469.146	1544.38
469.365	1566.38
469.585	1555.38
469.804	1622.38
470.023	1655.38
470.243	1650.38
470.462	1677.38
470.681	1647.38
470.901	1669.38
471.12	1600.38
471.339	1599.38
471.558	1605.38
471.777	1594.38
471.997	1579.38
472.216	1556.38
472.435	1572.38
472.654	1546.38
472.873	1520.38
473.092	1548.38
473.311	1551.38
473.53	1550.38
473.749	1565.38
473.968	1557.38
474.187	1550.38
474.406	1568.38
474.625	1515.38
474.844	1560.38
475.063	1586.38
475.282	1594.38
475.501	1564.38
475.72	1591.38
475.939	1632.38
476.158	1620.38
476.377	1630.38
476.596	1610.38
476.814	1640.38
477.033	1637.38
477.252	1678.38
477.471	1717.38
477.69	1736.38
477.908	1780.38
478.127	1822.38
478.346	1830.38
478.564	1924.38
478.783	1903.38
479.002	1950.38
479.22	1947.38
479.439	1989.38
479.658	1954.38
479.876	1985.38
480.095	1925.38
480.313	2010.38
480.532	2078.38
480.751	2065.38
480.969	2007.38
481.188	1977.38
481.406	1916.38
481.624	1894.38
481.843	1916.38
482.061	1839.38
482.28	1915.38
482.498	1878.38
482.717	1884.38
482.935	1850.38
483.153	1900.38
483.372	1870.38
483.59	1926.38
483.808	1876.38
484.027	1912.38
484.245	1980.38
484.463	1948.38
484.681	1980.38
484.9	1993.38
485.118	2015.38
485.336	2008.38
485.554	2005.38
485.772	2042.38
485.99	2034.38
486.209	2034.38
486.427	2037.38
486.645	2024.38
486.863	2016.38
487.081	2006.38
487.299	1942.38
487.517	1998.38
487.735	2009.38
487.953	2054.38
488.171	2026.38
488.389	1964.38
488.607	1967.38
488.825	1940.38
489.043	1942.38
489.261	1926.38
489.479	1917.38
489.696	1954.38
489.914	1978.38
490.132	1954.38
490.35	1952.38
490.568	1976.38
490.786	1959.38
491.003	1938.38
491.221	1963.38
491.439	1918.38
491.657	1933.38
491.874	1950.38
492.092	1919.38
492.31	1915.38
492.527	1910.38
492.745	1929.38
492.963	1988.38
493.18	1953.38
493.398	1975.38
493.615	1922.38
493.833	1986.38
494.05	1990.38
494.268	1972.38
494.485	1991.38
494.703	2001.38
494.92	2005.38
495.138	1976.38
495.355	2015.38
495.573	2024.38
495.79	2029.38
496.008	2041.38
496.225	2045.38
496.442	2036.38
496.66	2106.38
496.877	2087.38
497.094	2119.38
497.312	2170.38
497.529	2174.38
497.746	2245.38
497.963	2325.38
498.181	2397.38
498.398	2522.38
498.615	2614.38
498.832	2741.38
499.049	2986.38
499.267	3118.38
499.484	3459.38
499.701	3679.38
499.918	3942.38
500.135	4445.38
500.352	4843.38
500.569	5007.38
500.786	4988.38
501.003	4733.38
501.22	4323.38
501.437	3982.38
501.654	3570.38
501.871	3343.38
502.088	3098.38
502.305	2865.38
502.522	2739.38
502.739	2671.38
502.956	2509.38
503.172	2420.38
503.389	2414.38
503.606	2297.38
503.823	2226.38
504.04	2261.38
504.256	2270.38
504.473	2192.38
504.69	2255.38
504.907	2193.38
505.123	2118.38
505.34	1998.38
505.557	1965.38
505.773	1874.38
505.99	1861.38
506.207	1807.38
506.423	1816.38
506.64	1785.38
506.856	1781.38
507.073	1754.38
507.289	1743.38
507.506	1705.38
507.722	1726.38
507.939	1687.38
508.155	1642.38
508.372	1639.38
508.588	1666.38
508.805	1627.38
509.021	1651.38
509.238	1621.38
509.454	1596.38
509.67	1594.38
509.887	1589.38
510.103	1580.38
510.319	1586.38
510.536	1584.38
510.752	1557.38
510.968	1535.38
511.184	1558.38
511.401	1576.38
511.617	1528.38
511.833	1544.38
512.049	1545.38
512.265	1526.38
512.481	1552.38
512.698	1541.38
512.914	1573.38
513.13	1544.38
513.346	1538.38
513.562	1546.38
513.778	1514.38
513.994	1538.38
514.21	1572.38
514.426	1606.38
514.642	1603.38
514.858	1608.38
515.074	1620.38
515.29	1611.38
515.506	1604.38
515.721	1633.38
515.937	1684.38
516.153	1704.38
516.369	1756.38
516.585	1740.38
516.801	1823.38
517.016	1879.38
517.232	1927.38
517.448	1986.38
517.664	2019.38
517.879	1978.38
518.095	2005.38
518.311	1993.38
518.527	1932.38
518.742	1880.38
518.958	1820.38
519.173	1743.38
519.389	1769.38
519.605	1668.38
519.82	1652.38
520.036	1616.38
520.251	1602.38
520.467	1599.38
520.682	1527.38
520.898	1508.38
521.113	1552.38
521.329	1516.38
521.544	1475.38
521.76	1524.38
521.975	1476.38
522.19	1436.38
522.406	1486.38
522.621	1474.38
522.836	1453.38
523.052	1456.38
523.267	1432.38
523.482	1445.38
523.698	1419.38
523.913	1417.38
524.128	1421.38
524.343	1443.38
524.559	1421.38
524.774	1424.38
524.989	1404.38
525.204	1385.38
525.419	1396.38
525.634	1386.38
525.849	1382.38
526.064	1373.38
526.28	1353.38
526.495	1363.38
526.71	1385.38
526.925	1360.38
527.14	1374.38
527.355	1384.38
527.57	1358.38
527.785	1346.38
527.999	1364.38
528.214	1373.38
528.429	1346.38
528.644	1353.38
528.859	1369.38
529.074	1336.38
529.289	1374.38
529.503	1382.38
529.718	1349.38
529.933	1360.38
530.148	1327.38
530.363	1359.38
530.577	1345.38
530.792	1341.38
531.007	1333.38
531.221	1324.38
531.436	1358.38
531.651	1382.38
531.865	1341.38
532.08	1358.38
532.295	1336.38
532.509	1330.38
532.724	1328.38
532.938	1359.38
533.153	1351.38
533.367	1340.38
533.582	1344.38
533.796	1350.38
534.011	1363.38
534.225	1316.38
534.44	1342.38
534.654	1295.38
534.868	1314.38
535.083	1309.38
535.297	1305.38
535.511	1290.38
535.726	1308.38
535.94	1286.38
536.154	1295.38
536.369	1271.38
536.583	1238.38
536.797	1250.38
537.011	1259.38
537.225	1248.38
537.44	1270.38
537.654	1236.38
537.868	1272.38
538.082	1227.38
538.296	1219.38
538.51	1220.38
538.724	1225.38
538.938	1229.38
539.153	1181.38
539.367	1208.38
539.581	1206.38
539.795	1197.38
540.009	1188.38
540.222	1209.38
540.436	1207.38
540.65	1196.38
540.864	1188.38
541.078	1216.38
541.292	1191.38
541.506	1196.38
541.72	1181.38
541.934	1197.38
542.147	1208.38
542.361	1154.38
542.575	1167.38
542.789	1168.38
543.002	1160.38
543.216	1163.38
543.43	1188.38
543.644	1181.38
543.857	1150.38
544.071	1192.38
544.285	1178.38
544.498	1187.38
544.712	1212.38
544.925	1215.38
545.139	1194.38
545.352	1181.38
545.566	1198.38
545.779	1216.38
545.993	1234.38
546.206	1215.38
546.42	1192.38
546.633	1164.38
546.847	1211.38
547.06	1200.38
547.274	1195.38
547.487	1187.38
547.7	1206.38
547.914	1212.38
548.127	1246.38
548.34	1207.38
548.554	1195.38
548.767	1194.38
548.98	1203.38
549.193	1236.38
549.407	1222.38
549.62	1224.38
549.833	1230.38
550.046	1222.38
550.259	1208.38
550.473	1188.38
550.686	1193.38
550.899	1180.38
551.112	1176.38
551.325	1197.38
551.538	1168.38
551.751	1155.38
551.964	1190.38
552.177	1212.38
552.39	1232.38
552.603	1253.38
552.816	1265.38
553.029	1260.38
553.242	1292.38
553.455	1288.38
553.667	1314.38
553.88	1271.38
554.093	1257.38
554.306	1208.38
554.519	1185.38
554.732	1176.38
554.944	1149.38
555.157	1170.38
555.37	1151.38
555.583	1152.38
555.795	1102.38
556.008	1088.38
556.221	1063.38
556.433	1067.38
556.646	1034.38
556.859	1045.38
557.071	1061.38
557.284	1035.38
557.496	1036.38
557.709	1022.38
557.921	1061.38
558.134	1016.38
558.346	1042.38
558.559	1048.38
558.771	998.38
558.984	1005.38
559.196	996.38
559.409	1064.38
559.621	1017.38
559.833	1018.38
560.046	989.38
560.258	1019.38
560.47	976.38
560.683	1012.38
560.895	1018.38
561.107	1023.38
561.32	995.38
561.532	990.38
561.744	988.38
561.956	966.38
562.168	1013.38
562.381	976.38
562.593	1020.38
562.805	1035.38
563.017	1004.38
563.229	1016.38
563.441	1014.38
563.653	1027.38
563.865	991.38
564.077	1037.38
564.289	1054.38
564.501	1084.38
564.713	1064.38
564.925	1078.38
565.137	1088.38
565.349	1130.38
565.561	1136.38
565.773	1198.38
565.985	1210.38
566.197	1235.38
566.408	1318.38
566.62	1432.38
566.832	1517.38
567.044	1548.38
567.255	1564.38
567.467	1599.38
567.679	1671.38
567.891	1746.38
568.102	1715.38
568.314	1692.38
568.526	1567.38
568.737	1430.38
568.949	1313.38
569.161	1225.38
569.372	1165.38
569.584	1155.38
569.795	1098.38
570.007	1034.38
570.218	1059.38
570.43	1028.38
570.641	1037.38
570.853	990.38
571.064	1000.38
571.276	990.38
571.487	963.38
571.698	962.38
571.91	925.38
572.121	890.38
572.333	890.38
572.544	892.38
572.755	845.38
572.966	860.38
573.178	836.38
573.389	829.38
573.6	825.38
573.811	830.38
574.023	796.38
574.234	829.38
574.445	832.38
574.656	792.38
574.867	796.38
575.078	805.38
575.289	803.38
575.501	777.38
575.712	788.38
575.923	770.38
576.134	784.38
576.345	765.38
576.556	787.38
576.767	782.38
576.978	741.38
577.188	749.38
577.399	758.38
577.61	740.38
577.821	741.38
578.032	729.38
578.243	716.38
578.454	697.38
578.665	713.38
578.875	734.38
579.086	721.38
579.297	716.38
579.508	708.38
579.718	706.38
579.929	688.38
580.14	690.38
580.35	704.38
580.561	685.38
580.772	678.38
580.982	668.38
581.193	699.38
581.403	702.38
581.614	682.38
581.825	683.38
582.035	679.38
582.246	683.38
582.456	687.38
582.667	662.38
582.877	694.38
583.087	677.38
583.298	661.38
583.508	676.38
583.719	682.38
583.929	655.38
584.139	636.38
584.35	642.38
584.56	650.38
584.77	666.38
584.981	632.38
585.191	654.38
585.401	643.38
585.611	653.38
585.821	639.38
586.032	650.38
586.242	674.38
586.452	669.38
586.662	646.38
586.872	679.38
587.082	667.38
587.292	650.38
587.502	661.38
587.713	643.38
587.923	643.38
588.133	642.38
588.343	642.38
588.553	634.38
588.762	660.38
588.972	676.38
589.182	834.38
589.392	794.38
589.602	666.38
589.812	780.38
590.022	722.38
590.232	661.38
590.441	658.38
590.651	642.38
590.861	650.38
591.071	654.38
591.281	664.38
591.49	659.38
591.7	656.38
591.91	696.38
592.119	679.38
592.329	684.38
592.539	727.38
592.748	743.38
592.958	740.38
593.167	765.38
593.377	770.38
593.587	792.38
593.796	781.38
594.006	773.38
594.215	797.38
594.424	795.38
594.634	768.38
594.843	722.38
595.053	696.38
595.262	709.38
595.472	691.38
595.681	650.38
595.89	642.38
596.1	645.38
596.309	636.38
596.518	602.38
596.727	605.38
596.937	593.38
597.146	590.38
597.355	580.38
597.564	587.38
597.774	588.38
597.983	568.38
598.192	568.38
598.401	565.38
598.61	552.38
598.819	555.38
599.028	550.38
599.237	542.38
599.446	533.38
599.655	537.38
599.864	532.38
600.073	550.38
600.282	546.38
600.491	543.38
600.7	539.38
600.909	528.38
601.118	527.38
601.327	510.38
601.536	506.38
601.745	524.38
601.953	519.38
602.162	516.38
602.371	522.38
602.58	498.38
602.789	522.38
602.997	509.38
603.206	514.38
603.415	502.38
603.623	493.38
603.832	500.38
604.041	520.38
604.249	510.38
604.458	500.38
604.666	478.38
604.875	500.38
605.084	495.38
605.292	491.38
605.501	485.38
605.709	477.38
605.918	479.38
606.126	475.38
606.334	479.38
606.543	489.38
606.751	480.38
606.96	479.38
607.168	478.38
607.376	485.38
607.585	497.38
607.793	481.38
608.001	490.38
608.21	486.38
608.418	464.38
608.626	468.38
608.834	482.38
609.043	481.38
609.251	491.38
609.459	470.38
609.667	463.38
609.875	448.38
610.083	451.38
610.291	447.38
610.499	458.38
610.707	445.38
610.916	460.38
611.124	463.38
611.332	449.38
611.54	443.38
611.748	452.38
611.955	463.38
612.163	483.38
612.371	462.38
612.579	474.38
612.787	464.38
612.995	449.38
613.203	434.38
613.411	477.38
613.618	452.38
613.826	434.38
614.034	446.38
614.242	456.38
614.449	428.38
614.657	436.38
614.865	436.38
615.072	444.38
615.28	428.38
615.488	428.38
615.695	446.38
615.903	436.38
616.111	436.38
616.318	478.38
616.526	447.38
616.733	451.38
616.941	448.38
617.148	455.38
617.356	453.38
617.563	447.38
617.771	451.38
617.978	427.38
618.185	441.38
618.393	452.38
618.6	433.38
618.807	434.38
619.015	439.38
619.222	423.38
619.429	438.38
619.637	446.38
619.844	444.38
620.051	431.38
620.258	413.38
620.466	413.38
620.673	406.38
620.88	389.38
621.087	391.38
621.294	400.38
621.501	391.38
621.708	409.38
621.915	422.38
622.122	414.38
622.329	399.38
622.536	396.38
622.743	397.38
622.95	380.38
623.157	385.38
623.364	413.38
623.571	397.38
623.778	408.38
623.985	401.38
624.192	394.38
624.399	387.38
624.606	386.38
624.812	391.38
625.019	380.38
625.226	394.38
625.433	379.38
625.639	370.38
625.846	370.38
626.053	374.38
626.259	366.38
626.466	370.38
626.673	388.38
626.879	367.38
627.086	358.38
627.293	359.38
627.499	374.38
627.706	376.38
627.912	379.38
628.119	358.38
628.325	358.38
628.532	365.38
628.738	378.38
628.945	365.38
629.151	366.38
629.357	359.38
629.564	358.38
629.77	355.38
629.976	360.38
630.183	354.38
630.389	365.38
630.595	346.38
630.802	335.38
631.008	342.38
631.214	335.38
631.42	348.38
631.627	349.38
631.833	339.38
632.039	332.38
632.245	334.38
632.451	341.38
632.657	341.38
632.863	332.38
633.069	339.38
633.275	337.38
633.481	312.38
633.688	312.38
633.893	346.38
634.099	334.38
634.305	323.38
634.511	322.38
634.717	338.38
634.923	327.38
635.129	336.38
635.335	323.38
635.541	336.38
635.747	324.38
635.952	315.38
636.158	319.38
636.364	325.38
636.57	324.38
636.775	303.38
636.981	314.38
637.187	318.38
637.392	305.38
637.598	324.38
637.804	308.38
638.009	317.38
638.215	303.38
638.421	318.38
638.626	285.38
638.832	295.38
639.037	298.38
639.243	307.38
639.448	299.38
639.654	325.38
639.859	321.38
640.065	313.38
640.27	314.38
640.475	308.38
640.681	299.38
640.886	312.38
641.091	306.38
641.297	301.38
641.502	284.38
641.707	280.38
641.913	291.38
642.118	293.38
642.323	298.38
642.528	292.38
642.733	292.38
642.939	307.38
643.144	294.38
643.349	315.38
643.554	309.38
643.759	299.38
643.964	291.38
644.169	311.38
644.374	287.38
644.579	309.38
644.784	285.38
644.989	300.38
645.194	299.38
645.399	313.38
645.604	300.38
645.809	298.38
646.014	308.38
646.219	294.38
646.423	284.38
646.628	316.38
646.833	296.38
647.038	306.38
647.243	303.38
647.447	286.38
647.652	298.38
647.857	309.38
648.062	337.38
648.266	328.38
648.471	337.38
648.676	330.38
648.88	339.38
649.085	317.38
649.289	314.38
649.494	324.38
649.698	315.38
649.903	301.38
650.107	299.38
650.312	297.38
650.516	298.38
650.721	285.38
650.925	282.38
651.13	306.38
651.334	285.38
651.539	299.38
651.743	288.38
651.947	288.38
652.152	282.38
652.356	294.38
652.56	279.38
652.764	272.38
652.969	295.38
653.173	262.38
653.377	277.38
653.581	273.38
653.785	296.38
653.99	281.38
654.194	310.38
654.398	301.38
654.602	300.38
654.806	283.38
655.01	300.38
655.214	314.38
655.418	321.38
655.622	330.38
655.826	327.38
656.03	355.38
656.234	388.38
656.438	406.38
656.642	404.38
656.846	364.38
657.049	327.38
657.253	324.38
657.457	261.38
657.661	260.38
657.865	230.38
658.068	206.38
658.272	202.38
658.476	181.38
658.68	187.38
658.883	175.38
659.087	157.38
659.291	175.38
659.494	149.38
659.698	151.38
659.901	136.38
660.105	135.38
660.309	151.38
660.512	128.38
660.716	126.38
660.919	120.38
661.123	124.38
661.326	103.38
661.53	110.38
661.733	93.38
661.936	108.38
662.14	98.38
662.343	99.38
662.546	115.38
662.75	100.38
662.953	91.38
663.156	104.38
663.36	95.38
663.563	92.38
663.766	94.38
663.969	90.38
664.173	94.38
664.376	86.38
664.579	94.38
664.782	88.38
664.985	86.38
665.188	81.38
665.391	86.38
665.594	84.38
665.797	84.38
666	88.38
666.203	83.38
666.406	104.38
666.609	89.38
666.812	91.38
667.015	86.38
667.218	84.38
667.421	86.38
667.624	79.38
667.827	92.38
668.03	88.38
668.232	96.38
668.435	109.38
668.638	71.38
668.841	91.38
669.043	84.38
669.246	87.38
669.449	85.38
669.651	82.38
669.854	97.38
670.057	99.38
670.259	80.38
670.462	79.38
670.665	91.38
670.867	78.38
671.07	84.38
671.272	80.38
671.475	95.38
671.677	79.38
671.88	78.38
672.082	99.38
672.284	91.38
672.487	79.38
672.689	86.38
672.892	95.38
