Data from NiCl2@0.0625M.TitratingCurve.Agarose3%dH2O.NegLispCup.LampEnergy10.LIBS07252019_HRD10591_18-34-21-577.txt Node
Date: Thu Jul 25 18:34:21 EDT 2019
User: cochatt
Spectrometer: HR+D1059
Trigger mode: 1
Integration Time (sec): 1.000000E-1
Scans to average: 1
Electric dark correction enabled: true
Nonlinearity correction enabled: false
Boxcar width: 0
XAxis mode: Wavelengths
Number of Pixels in Spectrum: 2048
>>>>>Begin Spectral Data<<<<<
223.165	-21.75
223.4	-21.75
223.635	-21.75
223.869	-13.75
224.104	-20.75
224.338	-8.75
224.573	-21.75
224.808	-27.75
225.042	-15.75
225.277	-1.75
225.511	-2.75
225.746	10.25
225.98	18.25
226.215	0.25
226.449	20.25
226.683	30.25
226.918	31.25
227.152	24.25
227.387	21.25
227.621	33.25
227.856	37.25
228.09	39.25
228.324	52.25
228.559	53.25
228.793	76.25
229.027	128.25
229.262	144.25
229.496	149.25
229.73	163.25
229.964	179.25
230.199	167.25
230.433	179.25
230.667	171.25
230.901	172.25
231.136	176.25
231.37	182.25
231.604	187.25
231.838	181.25
232.072	182.25
232.306	187.25
232.541	181.25
232.775	196.25
233.009	184.25
233.243	177.25
233.477	205.25
233.711	182.25
233.945	202.25
234.179	197.25
234.413	220.25
234.647	213.25
234.881	203.25
235.115	203.25
235.349	196.25
235.583	187.25
235.817	199.25
236.051	209.25
236.285	207.25
236.519	199.25
236.753	197.25
236.987	219.25
237.221	199.25
237.455	217.25
237.689	210.25
237.922	219.25
238.156	228.25
238.39	217.25
238.624	223.25
238.858	239.25
239.091	227.25
239.325	223.25
239.559	239.25
239.793	253.25
240.027	245.25
240.26	244.25
240.494	246.25
240.728	239.25
240.961	247.25
241.195	253.25
241.429	251.25
241.662	243.25
241.896	267.25
242.13	275.25
242.363	257.25
242.597	270.25
242.83	282.25
243.064	287.25
243.298	290.25
243.531	287.25
243.765	301.25
243.998	300.25
244.232	306.25
244.465	310.25
244.699	300.25
244.932	298.25
245.166	298.25
245.399	304.25
245.633	332.25
245.866	335.25
246.099	323.25
246.333	313.25
246.566	331.25
246.8	333.25
247.033	335.25
247.266	329.25
247.5	323.25
247.733	336.25
247.966	345.25
248.2	359.25
248.433	360.25
248.666	347.25
248.899	349.25
249.133	339.25
249.366	357.25
249.599	352.25
249.832	373.25
250.066	358.25
250.299	364.25
250.532	376.25
250.765	373.25
250.998	369.25
251.231	382.25
251.465	367.25
251.698	409.25
251.931	380.25
252.164	411.25
252.397	392.25
252.63	406.25
252.863	401.25
253.096	400.25
253.329	393.25
253.562	411.25
253.795	416.25
254.028	410.25
254.261	418.25
254.494	392.25
254.727	416.25
254.96	425.25
255.193	399.25
255.426	424.25
255.659	401.25
255.892	431.25
256.124	417.25
256.357	428.25
256.59	419.25
256.823	441.25
257.056	435.25
257.289	443.25
257.521	444.25
257.754	451.25
257.987	450.25
258.22	455.25
258.452	446.25
258.685	451.25
258.918	455.25
259.151	461.25
259.383	473.25
259.616	460.25
259.849	457.25
260.081	496.25
260.314	471.25
260.547	466.25
260.779	459.25
261.012	483.25
261.244	479.25
261.477	461.25
261.71	495.25
261.942	500.25
262.175	451.25
262.407	511.25
262.64	496.25
262.872	509.25
263.105	486.25
263.337	510.25
263.57	521.25
263.802	524.25
264.035	511.25
264.267	539.25
264.499	522.25
264.732	529.25
264.964	526.25
265.197	530.25
265.429	526.25
265.661	515.25
265.894	521.25
266.126	549.25
266.358	530.25
266.591	541.25
266.823	553.25
267.055	550.25
267.287	552.25
267.52	565.25
267.752	550.25
267.984	554.25
268.216	564.25
268.448	563.25
268.681	579.25
268.913	560.25
269.145	550.25
269.377	583.25
269.609	587.25
269.841	578.25
270.073	566.25
270.306	582.25
270.538	585.25
270.77	570.25
271.002	589.25
271.234	581.25
271.466	611.25
271.698	601.25
271.93	587.25
272.162	604.25
272.394	593.25
272.626	587.25
272.858	608.25
273.09	617.25
273.322	605.25
273.553	618.25
273.785	600.25
274.017	599.25
274.249	646.25
274.481	622.25
274.713	646.25
274.945	650.25
275.176	653.25
275.408	631.25
275.64	653.25
275.872	646.25
276.104	639.25
276.335	653.25
276.567	654.25
276.799	664.25
277.031	678.25
277.262	630.25
277.494	654.25
277.726	668.25
277.957	676.25
278.189	663.25
278.421	690.25
278.652	693.25
278.884	671.25
279.115	679.25
279.347	691.25
279.579	714.25
279.81	691.25
280.042	682.25
280.273	699.25
280.505	710.25
280.736	724.25
280.968	701.25
281.199	700.25
281.431	713.25
281.662	716.25
281.894	705.25
282.125	729.25
282.356	735.25
282.588	732.25
282.819	728.25
283.051	713.25
283.282	730.25
283.513	734.25
283.745	736.25
283.976	738.25
284.207	772.25
284.439	731.25
284.67	775.25
284.901	769.25
285.132	775.25
285.364	749.25
285.595	732.25
285.826	731.25
286.057	743.25
286.288	767.25
286.52	767.25
286.751	760.25
286.982	758.25
287.213	776.25
287.444	778.25
287.675	802.25
287.906	781.25
288.138	793.25
288.369	764.25
288.6	783.25
288.831	811.25
289.062	783.25
289.293	795.25
289.524	824.25
289.755	785.25
289.986	797.25
290.217	798.25
290.448	804.25
290.679	815.25
290.91	791.25
291.141	802.25
291.371	816.25
291.602	819.25
291.833	763.25
292.064	822.25
292.295	819.25
292.526	811.25
292.757	811.25
292.987	829.25
293.218	802.25
293.449	810.25
293.68	801.25
293.91	831.25
294.141	806.25
294.372	805.25
294.603	808.25
294.833	851.25
295.064	821.25
295.295	823.25
295.525	833.25
295.756	844.25
295.987	809.25
296.217	833.25
296.448	820.25
296.679	856.25
296.909	831.25
297.14	880.25
297.37	883.25
297.601	862.25
297.831	857.25
298.062	854.25
298.292	889.25
298.523	893.25
298.753	899.25
298.984	890.25
299.214	893.25
299.445	912.25
299.675	887.25
299.905	913.25
300.136	872.25
300.366	901.25
300.597	891.25
300.827	921.25
301.057	922.25
301.288	913.25
301.518	921.25
301.748	926.25
301.979	949.25
302.209	931.25
302.439	921.25
302.669	952.25
302.9	917.25
303.13	907.25
303.36	946.25
303.59	945.25
303.82	925.25
304.051	931.25
304.281	931.25
304.511	925.25
304.741	928.25
304.971	941.25
305.201	909.25
305.431	930.25
305.661	927.25
305.891	916.25
306.121	919.25
306.352	912.25
306.582	917.25
306.812	897.25
307.042	928.25
307.272	914.25
307.502	897.25
307.731	893.25
307.961	928.25
308.191	897.25
308.421	914.25
308.651	915.25
308.881	913.25
309.111	917.25
309.341	917.25
309.571	919.25
309.8	899.25
310.03	939.25
310.26	935.25
310.49	937.25
310.72	926.25
310.949	949.25
311.179	927.25
311.409	925.25
311.639	943.25
311.868	948.25
312.098	923.25
312.328	920.25
312.557	970.25
312.787	949.25
313.017	966.25
313.246	980.25
313.476	946.25
313.706	1000.25
313.935	990.25
314.165	985.25
314.394	984.25
314.624	960.25
314.853	980.25
315.083	970.25
315.312	1001.25
315.542	990.25
315.771	972.25
316.001	975.25
316.23	979.25
316.46	968.25
316.689	976.25
316.919	997.25
317.148	973.25
317.377	981.25
317.607	981.25
317.836	947.25
318.065	956.25
318.295	1000.25
318.524	1003.25
318.753	983.25
318.983	981.25
319.212	971.25
319.441	952.25
319.67	972.25
319.9	995.25
320.129	994.25
320.358	982.25
320.587	1013.25
320.816	983.25
321.046	984.25
321.275	980.25
321.504	973.25
321.733	973.25
321.962	999.25
322.191	999.25
322.42	992.25
322.649	1011.25
322.878	1013.25
323.108	1011.25
323.337	1004.25
323.566	1000.25
323.795	1002.25
324.024	1003.25
324.253	982.25
324.482	1033.25
324.71	999.25
324.939	1013.25
325.168	1045.25
325.397	1015.25
325.626	1028.25
325.855	1071.25
326.084	1051.25
326.313	1064.25
326.542	1081.25
326.77	1080.25
326.999	1039.25
327.228	1049.25
327.457	1026.25
327.686	1049.25
327.914	1053.25
328.143	1076.25
328.372	1059.25
328.6	1052.25
328.829	1050.25
329.058	1057.25
329.287	1073.25
329.515	1082.25
329.744	1105.25
329.972	1071.25
330.201	1105.25
330.43	1082.25
330.658	1065.25
330.887	1091.25
331.115	1103.25
331.344	1113.25
331.572	1140.25
331.801	1162.25
332.03	1195.25
332.258	1160.25
332.486	1212.25
332.715	1252.25
332.943	1245.25
333.172	1293.25
333.4	1333.25
333.629	1348.25
333.857	1356.25
334.085	1360.25
334.314	1372.25
334.542	1334.25
334.771	1355.25
334.999	1301.25
335.227	1341.25
335.455	1326.25
335.684	1316.25
335.912	1270.25
336.14	1285.25
336.369	1316.25
336.597	1333.25
336.825	1275.25
337.053	1257.25
337.281	1264.25
337.51	1228.25
337.738	1203.25
337.966	1194.25
338.194	1205.25
338.422	1192.25
338.65	1160.25
338.878	1193.25
339.106	1175.25
339.334	1151.25
339.562	1171.25
339.79	1143.25
340.018	1119.25
340.246	1147.25
340.474	1129.25
340.702	1116.25
340.93	1131.25
341.158	1101.25
341.386	1140.25
341.614	1123.25
341.842	1117.25
342.07	1077.25
342.298	1104.25
342.526	1124.25
342.754	1099.25
342.981	1100.25
343.209	1137.25
343.437	1195.25
343.665	1247.25
343.893	1287.25
344.12	1340.25
344.348	1281.25
344.576	1246.25
344.804	1213.25
345.031	1153.25
345.259	1148.25
345.487	1111.25
345.714	1135.25
345.942	1132.25
346.17	1121.25
346.397	1088.25
346.625	1072.25
346.853	1086.25
347.08	1068.25
347.308	1075.25
347.535	1045.25
347.763	1092.25
347.99	1058.25
348.218	1073.25
348.445	1087.25
348.673	1047.25
348.9	1065.25
349.128	1024.25
349.355	1047.25
349.583	1046.25
349.81	1046.25
350.037	1050.25
350.265	1075.25
350.492	1057.25
350.72	1014.25
350.947	1026.25
351.174	1045.25
351.402	1045.25
351.629	1050.25
351.856	1016.25
352.083	1027.25
352.311	1032.25
352.538	1037.25
352.765	1013.25
352.992	1024.25
353.22	1041.25
353.447	1053.25
353.674	1008.25
353.901	1042.25
354.128	1027.25
354.355	1027.25
354.583	1026.25
354.81	1035.25
355.037	1026.25
355.264	997.25
355.491	1026.25
355.718	1058.25
355.945	1029.25
356.172	1058.25
356.399	1060.25
356.626	1002.25
356.853	1059.25
357.08	1033.25
357.307	1034.25
357.534	1008.25
357.761	1061.25
357.988	1043.25
358.215	1000.25
358.441	1043.25
358.668	1047.25
358.895	1039.25
359.122	1038.25
359.349	1036.25
359.576	1043.25
359.802	1009.25
360.029	1035.25
360.256	1052.25
360.483	1045.25
360.709	1047.25
360.936	1056.25
361.163	1036.25
361.39	1054.25
361.616	1040.25
361.843	1043.25
362.07	1039.25
362.296	1047.25
362.523	1051.25
362.749	1053.25
362.976	1057.25
363.203	1033.25
363.429	1044.25
363.656	1052.25
363.882	1027.25
364.109	1043.25
364.335	1035.25
364.562	1048.25
364.788	1038.25
365.015	1034.25
365.241	1018.25
365.468	1023.25
365.694	1048.25
365.92	1047.25
366.147	1064.25
366.373	1072.25
366.599	1052.25
366.826	1018.25
367.052	1016.25
367.278	1030.25
367.505	1018.25
367.731	1038.25
367.957	1051.25
368.184	1047.25
368.41	1054.25
368.636	1071.25
368.862	1065.25
369.089	1096.25
369.315	1091.25
369.541	1098.25
369.767	1067.25
369.993	1098.25
370.219	1073.25
370.445	1100.25
370.672	1074.25
370.898	1088.25
371.124	1102.25
371.35	1131.25
371.576	1141.25
371.802	1135.25
372.028	1132.25
372.254	1109.25
372.48	1129.25
372.706	1151.25
372.932	1161.25
373.158	1147.25
373.384	1160.25
373.61	1113.25
373.835	1151.25
374.061	1133.25
374.287	1124.25
374.513	1157.25
374.739	1209.25
374.965	1212.25
375.191	1219.25
375.416	1233.25
375.642	1201.25
375.868	1196.25
376.094	1157.25
376.319	1135.25
376.545	1138.25
376.771	1143.25
376.997	1133.25
377.222	1143.25
377.448	1131.25
377.674	1132.25
377.899	1142.25
378.125	1103.25
378.35	1115.25
378.576	1113.25
378.802	1104.25
379.027	1095.25
379.253	1108.25
379.478	1110.25
379.704	1107.25
379.929	1096.25
380.155	1126.25
380.38	1124.25
380.606	1137.25
380.831	1091.25
381.057	1101.25
381.282	1136.25
381.507	1113.25
381.733	1132.25
381.958	1112.25
382.184	1127.25
382.409	1154.25
382.634	1154.25
382.86	1151.25
383.085	1179.25
383.31	1155.25
383.535	1187.25
383.761	1204.25
383.986	1230.25
384.211	1273.25
384.436	1268.25
384.662	1286.25
384.887	1283.25
385.112	1303.25
385.337	1310.25
385.562	1306.25
385.787	1312.25
386.013	1333.25
386.238	1324.25
386.463	1355.25
386.688	1311.25
386.913	1340.25
387.138	1327.25
387.363	1327.25
387.588	1337.25
387.813	1329.25
388.038	1321.25
388.263	1322.25
388.488	1331.25
388.713	1331.25
388.938	1331.25
389.163	1322.25
389.387	1308.25
389.612	1318.25
389.837	1353.25
390.062	1337.25
390.287	1308.25
390.512	1335.25
390.736	1351.25
390.961	1373.25
391.186	1371.25
391.411	1404.25
391.636	1413.25
391.86	1455.25
392.085	1473.25
392.31	1473.25
392.534	1426.25
392.759	1461.25
392.984	1443.25
393.208	1386.25
393.433	1405.25
393.658	1375.25
393.882	1399.25
394.107	1421.25
394.331	1422.25
394.556	1408.25
394.78	1400.25
395.005	1452.25
395.229	1433.25
395.454	1423.25
395.678	1510.25
395.903	1504.25
396.127	1494.25
396.352	1435.25
396.576	1432.25
396.801	1480.25
397.025	1463.25
397.249	1475.25
397.474	1509.25
397.698	1476.25
397.922	1513.25
398.147	1511.25
398.371	1561.25
398.595	1570.25
398.82	1667.25
399.044	1729.25
399.268	1867.25
399.492	2101.25
399.717	2280.25
399.941	2317.25
400.165	2172.25
400.389	1972.25
400.613	1829.25
400.837	1781.25
401.062	1701.25
401.286	1709.25
401.51	1663.25
401.734	1626.25
401.958	1663.25
402.182	1668.25
402.406	1740.25
402.63	1732.25
402.854	1733.25
403.078	1748.25
403.302	1748.25
403.526	1755.25
403.75	1812.25
403.974	1821.25
404.198	1783.25
404.422	1828.25
404.645	1811.25
404.869	1791.25
405.093	1740.25
405.317	1792.25
405.541	1829.25
405.765	1763.25
405.988	1771.25
406.212	1803.25
406.436	1825.25
406.66	1859.25
406.883	1861.25
407.107	2004.25
407.331	2046.25
407.555	2107.25
407.778	2077.25
408.002	2037.25
408.226	2019.25
408.449	2007.25
408.673	1917.25
408.896	1899.25
409.12	1834.25
409.344	1866.25
409.567	1860.25
409.791	1856.25
410.014	1825.25
410.238	1841.25
410.461	1830.25
410.685	1820.25
410.908	1815.25
411.132	1803.25
411.355	1711.25
411.578	1739.25
411.802	1736.25
412.025	1760.25
412.249	1728.25
412.472	1755.25
412.695	1695.25
412.919	1685.25
413.142	1692.25
413.365	1693.25
413.589	1696.25
413.812	1681.25
414.035	1650.25
414.258	1672.25
414.482	1665.25
414.705	1682.25
414.928	1678.25
415.151	1674.25
415.374	1670.25
415.597	1616.25
415.821	1628.25
416.044	1614.25
416.267	1628.25
416.49	1588.25
416.713	1600.25
416.936	1589.25
417.159	1636.25
417.382	1587.25
417.605	1570.25
417.828	1581.25
418.051	1625.25
418.274	1638.25
418.497	1600.25
418.72	1663.25
418.943	1661.25
419.166	1732.25
419.389	1834.25
419.611	1786.25
419.834	1722.25
420.057	1675.25
420.28	1616.25
420.503	1596.25
420.726	1561.25
420.948	1547.25
421.171	1593.25
421.394	1589.25
421.617	1561.25
421.839	1627.25
422.062	1618.25
422.285	1581.25
422.507	1628.25
422.73	1583.25
422.953	1601.25
423.175	1651.25
423.398	1640.25
423.621	1658.25
423.843	1651.25
424.066	1637.25
424.288	1687.25
424.511	1665.25
424.733	1602.25
424.956	1626.25
425.178	1664.25
425.401	1612.25
425.623	1629.25
425.846	1564.25
426.068	1552.25
426.291	1525.25
426.513	1520.25
426.735	1520.25
426.958	1541.25
427.18	1492.25
427.402	1485.25
427.625	1489.25
427.847	1467.25
428.069	1491.25
428.292	1479.25
428.514	1451.25
428.736	1440.25
428.958	1508.25
429.181	1435.25
429.403	1416.25
429.625	1441.25
429.847	1448.25
430.069	1409.25
430.292	1436.25
430.514	1458.25
430.736	1443.25
430.958	1462.25
431.18	1413.25
431.402	1459.25
431.624	1439.25
431.846	1451.25
432.068	1469.25
432.29	1526.25
432.512	1438.25
432.734	1462.25
432.956	1452.25
433.178	1488.25
433.4	1486.25
433.622	1499.25
433.844	1523.25
434.066	1496.25
434.287	1516.25
434.509	1528.25
434.731	1591.25
434.953	1604.25
435.175	1644.25
435.397	1609.25
435.618	1534.25
435.84	1515.25
436.062	1455.25
436.284	1443.25
436.505	1467.25
436.727	1460.25
436.949	1463.25
437.17	1432.25
437.392	1417.25
437.614	1457.25
437.835	1394.25
438.057	1428.25
438.278	1367.25
438.5	1394.25
438.721	1375.25
438.943	1393.25
439.165	1365.25
439.386	1421.25
439.608	1429.25
439.829	1432.25
440.05	1439.25
440.272	1459.25
440.493	1427.25
440.715	1468.25
440.936	1501.25
441.158	1494.25
441.379	1535.25
441.6	1567.25
441.822	1586.25
442.043	1587.25
442.264	1562.25
442.486	1509.25
442.707	1577.25
442.928	1531.25
443.149	1569.25
443.371	1550.25
443.592	1544.25
443.813	1558.25
444.034	1627.25
444.255	1629.25
444.476	1652.25
444.698	1767.25
444.919	1799.25
445.14	1856.25
445.361	1747.25
445.582	1608.25
445.803	1554.25
446.024	1495.25
446.245	1492.25
446.466	1484.25
446.687	1460.25
446.908	1455.25
447.129	1395.25
447.35	1407.25
447.571	1389.25
447.792	1365.25
448.013	1349.25
448.234	1345.25
448.455	1307.25
448.675	1331.25
448.896	1281.25
449.117	1304.25
449.338	1302.25
449.559	1279.25
449.779	1300.25
450	1270.25
450.221	1285.25
450.442	1293.25
450.662	1259.25
450.883	1295.25
451.104	1358.25
451.324	1301.25
451.545	1295.25
451.766	1300.25
451.986	1271.25
452.207	1281.25
452.428	1264.25
452.648	1314.25
452.869	1255.25
453.089	1214.25
453.31	1268.25
453.53	1243.25
453.751	1239.25
453.971	1227.25
454.192	1226.25
454.412	1232.25
454.633	1236.25
454.853	1235.25
455.073	1179.25
455.294	1238.25
455.514	1215.25
455.734	1212.25
455.955	1199.25
456.175	1205.25
456.395	1200.25
456.616	1208.25
456.836	1253.25
457.056	1192.25
457.276	1217.25
457.497	1223.25
457.717	1250.25
457.937	1223.25
458.157	1244.25
458.377	1268.25
458.598	1305.25
458.818	1342.25
459.038	1361.25
459.258	1373.25
459.478	1440.25
459.698	1460.25
459.918	1487.25
460.138	1511.25
460.358	1572.25
460.578	1623.25
460.798	1629.25
461.018	1642.25
461.238	1617.25
461.458	1658.25
461.678	1617.25
461.898	1642.25
462.118	1656.25
462.338	1733.25
462.558	1762.25
462.777	1847.25
462.997	1955.25
463.217	2059.25
463.437	2056.25
463.657	1967.25
463.876	1878.25
464.096	1884.25
464.316	1834.25
464.536	1907.25
464.755	1847.25
464.975	1767.25
465.195	1685.25
465.414	1633.25
465.634	1535.25
465.854	1503.25
466.073	1447.25
466.293	1434.25
466.512	1406.25
466.732	1420.25
466.951	1405.25
467.171	1359.25
467.391	1380.25
467.61	1368.25
467.829	1370.25
468.049	1327.25
468.268	1329.25
468.488	1281.25
468.707	1302.25
468.927	1335.25
469.146	1347.25
469.365	1332.25
469.585	1343.25
469.804	1355.25
470.023	1410.25
470.243	1361.25
470.462	1367.25
470.681	1398.25
470.901	1394.25
471.12	1439.25
471.339	1376.25
471.558	1355.25
471.777	1349.25
471.997	1320.25
472.216	1318.25
472.435	1343.25
472.654	1328.25
472.873	1312.25
473.092	1295.25
473.311	1299.25
473.53	1309.25
473.749	1299.25
473.968	1275.25
474.187	1289.25
474.406	1287.25
474.625	1293.25
474.844	1333.25
475.063	1335.25
475.282	1327.25
475.501	1354.25
475.72	1338.25
475.939	1349.25
476.158	1367.25
476.377	1364.25
476.596	1323.25
476.814	1397.25
477.033	1388.25
477.252	1427.25
477.471	1423.25
477.69	1481.25
477.908	1504.25
478.127	1494.25
478.346	1545.25
478.564	1570.25
478.783	1604.25
479.002	1618.25
479.22	1622.25
479.439	1632.25
479.658	1629.25
479.876	1605.25
480.095	1655.25
480.313	1704.25
480.532	1727.25
480.751	1739.25
480.969	1707.25
481.188	1682.25
481.406	1649.25
481.624	1580.25
481.843	1591.25
482.061	1613.25
482.28	1579.25
482.498	1559.25
482.717	1568.25
482.935	1596.25
483.153	1613.25
483.372	1590.25
483.59	1615.25
483.808	1631.25
484.027	1651.25
484.245	1627.25
484.463	1663.25
484.681	1637.25
484.9	1698.25
485.118	1713.25
485.336	1703.25
485.554	1743.25
485.772	1725.25
485.99	1708.25
486.209	1721.25
486.427	1711.25
486.645	1664.25
486.863	1732.25
487.081	1720.25
487.299	1689.25
487.517	1673.25
487.735	1669.25
487.953	1696.25
488.171	1697.25
488.389	1645.25
488.607	1662.25
488.825	1659.25
489.043	1644.25
489.261	1642.25
489.479	1632.25
489.696	1658.25
489.914	1653.25
490.132	1636.25
490.35	1660.25
490.568	1630.25
490.786	1629.25
491.003	1677.25
491.221	1658.25
491.439	1630.25
491.657	1655.25
491.874	1636.25
492.092	1618.25
492.31	1634.25
492.527	1640.25
492.745	1633.25
492.963	1674.25
493.18	1659.25
493.398	1664.25
493.615	1615.25
493.833	1669.25
494.05	1643.25
494.268	1643.25
494.485	1679.25
494.703	1669.25
494.92	1702.25
495.138	1692.25
495.355	1699.25
495.573	1669.25
495.79	1653.25
496.008	1702.25
496.225	1741.25
496.442	1743.25
496.66	1737.25
496.877	1716.25
497.094	1780.25
497.312	1809.25
497.529	1863.25
497.746	1887.25
497.963	1948.25
498.181	1969.25
498.398	2084.25
498.615	2244.25
498.832	2355.25
499.049	2448.25
499.267	2645.25
499.484	2888.25
499.701	3068.25
499.918	3344.25
500.135	3672.25
500.352	4012.25
500.569	4216.25
500.786	4121.25
501.003	4017.25
501.22	3605.25
501.437	3334.25
501.654	3075.25
501.871	2820.25
502.088	2607.25
502.305	2457.25
502.522	2295.25
502.739	2214.25
502.956	2090.25
503.172	2049.25
503.389	1957.25
503.606	1955.25
503.823	1905.25
504.04	1858.25
504.256	1875.25
504.473	1900.25
504.69	1863.25
504.907	1799.25
505.123	1766.25
505.34	1705.25
505.557	1625.25
505.773	1617.25
505.99	1569.25
506.207	1527.25
506.423	1483.25
506.64	1487.25
506.856	1459.25
507.073	1468.25
507.289	1460.25
507.506	1471.25
507.722	1439.25
507.939	1437.25
508.155	1427.25
508.372	1410.25
508.588	1401.25
508.805	1368.25
509.021	1342.25
509.238	1350.25
509.454	1344.25
509.67	1361.25
509.887	1331.25
510.103	1291.25
510.319	1311.25
510.536	1333.25
510.752	1313.25
510.968	1296.25
511.184	1309.25
511.401	1274.25
511.617	1287.25
511.833	1295.25
512.049	1277.25
512.265	1290.25
512.481	1290.25
512.698	1313.25
512.914	1309.25
513.13	1314.25
513.346	1297.25
513.562	1283.25
513.778	1304.25
513.994	1301.25
514.21	1327.25
514.426	1306.25
514.642	1314.25
514.858	1304.25
515.074	1355.25
515.29	1351.25
515.506	1348.25
515.721	1356.25
515.937	1424.25
516.153	1423.25
516.369	1456.25
516.585	1477.25
516.801	1519.25
517.016	1550.25
517.232	1628.25
517.448	1660.25
517.664	1691.25
517.879	1715.25
518.095	1714.25
518.311	1666.25
518.527	1640.25
518.742	1587.25
518.958	1547.25
519.173	1507.25
519.389	1429.25
519.605	1394.25
519.82	1381.25
520.036	1378.25
520.251	1337.25
520.467	1298.25
520.682	1289.25
520.898	1283.25
521.113	1287.25
521.329	1281.25
521.544	1258.25
521.76	1238.25
521.975	1209.25
522.19	1212.25
522.406	1260.25
522.621	1190.25
522.836	1211.25
523.052	1205.25
523.267	1191.25
523.482	1182.25
523.698	1191.25
523.913	1151.25
524.128	1170.25
524.343	1169.25
524.559	1173.25
524.774	1161.25
524.989	1188.25
525.204	1167.25
525.419	1156.25
525.634	1156.25
525.849	1145.25
526.064	1146.25
526.28	1143.25
526.495	1167.25
526.71	1141.25
526.925	1153.25
527.14	1164.25
527.355	1116.25
527.57	1113.25
527.785	1148.25
527.999	1137.25
528.214	1151.25
528.429	1123.25
528.644	1142.25
528.859	1143.25
529.074	1141.25
529.289	1122.25
529.503	1166.25
529.718	1141.25
529.933	1129.25
530.148	1139.25
530.363	1114.25
530.577	1119.25
530.792	1093.25
531.007	1114.25
531.221	1115.25
531.436	1135.25
531.651	1117.25
531.865	1109.25
532.08	1117.25
532.295	1158.25
532.509	1152.25
532.724	1131.25
532.938	1130.25
533.153	1116.25
533.367	1109.25
533.582	1127.25
533.796	1120.25
534.011	1125.25
534.225	1126.25
534.44	1075.25
534.654	1095.25
534.868	1131.25
535.083	1120.25
535.297	1089.25
535.511	1069.25
535.726	1066.25
535.94	1095.25
536.154	1044.25
536.369	1055.25
536.583	1041.25
536.797	1056.25
537.011	1032.25
537.225	1011.25
537.44	1067.25
537.654	1037.25
537.868	1024.25
538.082	1046.25
538.296	1017.25
538.51	1024.25
538.724	1056.25
538.938	1032.25
539.153	1054.25
539.367	1004.25
539.581	1022.25
539.795	991.25
540.009	1016.25
540.222	1039.25
540.436	1015.25
540.65	1033.25
540.864	998.25
541.078	997.25
541.292	1000.25
541.506	1020.25
541.72	983.25
541.934	980.25
542.147	1007.25
542.361	984.25
542.575	998.25
542.789	1019.25
543.002	991.25
543.216	980.25
543.43	997.25
543.644	997.25
543.857	966.25
544.071	998.25
544.285	1015.25
544.498	983.25
544.712	970.25
544.925	999.25
545.139	998.25
545.352	1004.25
545.566	1017.25
545.779	1022.25
545.993	996.25
546.206	1017.25
546.42	1023.25
546.633	1015.25
546.847	1000.25
547.06	1017.25
547.274	998.25
547.487	991.25
547.7	985.25
547.914	1007.25
548.127	1010.25
548.34	1035.25
548.554	1041.25
548.767	1013.25
548.98	1025.25
549.193	1035.25
549.407	1024.25
549.62	1024.25
549.833	1035.25
550.046	1017.25
550.259	1036.25
550.473	1029.25
550.686	1028.25
550.899	1014.25
551.112	1029.25
551.325	991.25
551.538	1014.25
551.751	975.25
551.964	996.25
552.177	1020.25
552.39	1019.25
552.603	1050.25
552.816	1071.25
553.029	1081.25
553.242	1075.25
553.455	1097.25
553.667	1097.25
553.88	1075.25
554.093	1048.25
554.306	1037.25
554.519	1017.25
554.732	1011.25
554.944	974.25
555.157	956.25
555.37	970.25
555.583	946.25
555.795	926.25
556.008	931.25
556.221	918.25
556.433	867.25
556.646	885.25
556.859	886.25
557.071	894.25
557.284	897.25
557.496	886.25
557.709	860.25
557.921	856.25
558.134	854.25
558.346	880.25
558.559	860.25
558.771	819.25
558.984	862.25
559.196	835.25
559.409	837.25
559.621	831.25
559.833	825.25
560.046	841.25
560.258	866.25
560.47	842.25
560.683	822.25
560.895	852.25
561.107	840.25
561.32	840.25
561.532	829.25
561.744	848.25
561.956	826.25
562.168	844.25
562.381	836.25
562.593	848.25
562.805	829.25
563.017	840.25
563.229	847.25
563.441	850.25
563.653	845.25
563.865	858.25
564.077	873.25
564.289	898.25
564.501	894.25
564.713	918.25
564.925	945.25
565.137	917.25
565.349	950.25
565.561	991.25
565.773	998.25
565.985	1038.25
566.197	1086.25
566.408	1178.25
566.62	1224.25
566.832	1279.25
567.044	1281.25
567.255	1266.25
567.467	1333.25
567.679	1405.25
567.891	1437.25
568.102	1458.25
568.314	1410.25
568.526	1302.25
568.737	1203.25
568.949	1092.25
569.161	1053.25
569.372	1004.25
569.584	939.25
569.795	947.25
570.007	901.25
570.218	884.25
570.43	862.25
570.641	862.25
570.853	863.25
571.064	848.25
571.276	846.25
571.487	799.25
571.698	792.25
571.91	753.25
572.121	789.25
572.333	723.25
572.544	717.25
572.755	740.25
572.966	740.25
573.178	735.25
573.389	703.25
573.6	695.25
573.811	693.25
574.023	679.25
574.234	679.25
574.445	677.25
574.656	673.25
574.867	678.25
575.078	680.25
575.289	675.25
575.501	664.25
575.712	652.25
575.923	669.25
576.134	662.25
576.345	642.25
576.556	656.25
576.767	651.25
576.978	641.25
577.188	634.25
577.399	641.25
577.61	616.25
577.821	633.25
578.032	630.25
578.243	619.25
578.454	608.25
578.665	613.25
578.875	586.25
579.086	613.25
579.297	613.25
579.508	604.25
579.718	582.25
579.929	576.25
580.14	590.25
580.35	592.25
580.561	598.25
580.772	583.25
580.982	595.25
581.193	577.25
581.403	598.25
581.614	593.25
581.825	595.25
582.035	589.25
582.246	554.25
582.456	573.25
582.667	577.25
582.877	597.25
583.087	594.25
583.298	596.25
583.508	563.25
583.719	553.25
583.929	574.25
584.139	569.25
584.35	572.25
584.56	573.25
584.77	547.25
584.981	555.25
585.191	552.25
585.401	526.25
585.611	543.25
585.821	554.25
586.032	545.25
586.242	532.25
586.452	569.25
586.662	553.25
586.872	537.25
587.082	541.25
587.292	552.25
587.502	531.25
587.713	549.25
587.923	544.25
588.133	531.25
588.343	562.25
588.553	540.25
588.762	536.25
588.972	548.25
589.182	549.25
589.392	552.25
589.602	550.25
589.812	561.25
590.022	555.25
590.232	556.25
590.441	535.25
590.651	553.25
590.861	555.25
591.071	528.25
591.281	557.25
591.49	568.25
591.7	560.25
591.91	588.25
592.119	592.25
592.329	600.25
592.539	604.25
592.748	617.25
592.958	645.25
593.167	647.25
593.377	663.25
593.587	635.25
593.796	649.25
594.006	663.25
594.215	667.25
594.424	662.25
594.634	629.25
594.843	601.25
595.053	634.25
595.262	605.25
595.472	591.25
595.681	564.25
595.89	549.25
596.1	556.25
596.309	539.25
596.518	534.25
596.727	520.25
596.937	537.25
597.146	515.25
597.355	479.25
597.564	522.25
597.774	499.25
597.983	471.25
598.192	467.25
598.401	484.25
598.61	467.25
598.819	463.25
599.028	478.25
599.237	452.25
599.446	458.25
599.655	457.25
599.864	450.25
600.073	449.25
600.282	467.25
600.491	460.25
600.7	443.25
600.909	448.25
601.118	439.25
601.327	452.25
601.536	458.25
601.745	456.25
601.953	459.25
602.162	454.25
602.371	444.25
602.58	427.25
602.789	434.25
602.997	447.25
603.206	416.25
603.415	435.25
603.623	428.25
603.832	421.25
604.041	408.25
604.249	408.25
604.458	421.25
604.666	412.25
604.875	411.25
605.084	414.25
605.292	393.25
605.501	417.25
605.709	417.25
605.918	402.25
606.126	411.25
606.334	416.25
606.543	392.25
606.751	425.25
606.96	408.25
607.168	418.25
607.376	388.25
607.585	397.25
607.793	387.25
608.001	383.25
608.21	413.25
608.418	391.25
608.626	417.25
608.834	394.25
609.043	407.25
609.251	415.25
609.459	404.25
609.667	393.25
609.875	399.25
610.083	396.25
610.291	394.25
610.499	384.25
610.707	401.25
610.916	396.25
611.124	389.25
611.332	386.25
611.54	407.25
611.748	411.25
611.955	418.25
612.163	387.25
612.371	372.25
612.579	389.25
612.787	388.25
612.995	374.25
613.203	387.25
613.411	381.25
613.618	389.25
613.826	379.25
614.034	377.25
614.242	389.25
614.449	365.25
614.657	375.25
614.865	387.25
615.072	361.25
615.28	378.25
615.488	380.25
615.695	382.25
615.903	400.25
616.111	379.25
616.318	395.25
616.526	392.25
616.733	384.25
616.941	389.25
617.148	376.25
617.356	381.25
617.563	374.25
617.771	379.25
617.978	376.25
618.185	379.25
618.393	396.25
618.6	381.25
618.807	377.25
619.015	340.25
619.222	367.25
619.429	377.25
619.637	371.25
619.844	350.25
620.051	358.25
620.258	359.25
620.466	341.25
620.673	360.25
620.88	353.25
621.087	341.25
621.294	345.25
621.501	329.25
621.708	358.25
621.915	343.25
622.122	348.25
622.329	343.25
622.536	351.25
622.743	347.25
622.95	361.25
623.157	338.25
623.364	344.25
623.571	343.25
623.778	345.25
623.985	340.25
624.192	332.25
624.399	338.25
624.606	332.25
624.812	327.25
625.019	329.25
625.226	320.25
625.433	328.25
625.639	328.25
625.846	292.25
626.053	316.25
626.259	300.25
626.466	315.25
626.673	332.25
626.879	311.25
627.086	326.25
627.293	322.25
627.499	310.25
627.706	330.25
627.912	323.25
628.119	313.25
628.325	329.25
628.532	309.25
628.738	317.25
628.945	313.25
629.151	320.25
629.357	304.25
629.564	304.25
629.77	295.25
629.976	317.25
630.183	307.25
630.389	311.25
630.595	277.25
630.802	298.25
631.008	292.25
631.214	316.25
631.42	297.25
631.627	303.25
631.833	281.25
632.039	282.25
632.245	291.25
632.451	300.25
632.657	282.25
632.863	293.25
633.069	277.25
633.275	302.25
633.481	289.25
633.688	289.25
633.893	293.25
634.099	287.25
634.305	268.25
634.511	285.25
634.717	281.25
634.923	289.25
635.129	292.25
635.335	267.25
635.541	251.25
635.747	260.25
635.952	283.25
636.158	275.25
636.364	283.25
636.57	270.25
636.775	284.25
636.981	281.25
637.187	276.25
637.392	279.25
637.598	279.25
637.804	272.25
638.009	279.25
638.215	264.25
638.421	273.25
638.626	259.25
638.832	266.25
639.037	267.25
639.243	279.25
639.448	265.25
639.654	253.25
639.859	256.25
640.065	256.25
640.27	260.25
640.475	255.25
640.681	277.25
640.886	241.25
641.091	260.25
641.297	250.25
641.502	259.25
641.707	263.25
641.913	262.25
642.118	246.25
642.323	274.25
642.528	248.25
642.733	253.25
642.939	254.25
643.144	268.25
643.349	259.25
643.554	254.25
643.759	264.25
643.964	229.25
644.169	253.25
644.374	274.25
644.579	252.25
644.784	262.25
644.989	257.25
645.194	259.25
645.399	245.25
645.604	263.25
645.809	237.25
646.014	252.25
646.219	263.25
646.423	261.25
646.628	263.25
646.833	259.25
647.038	272.25
647.243	263.25
647.447	247.25
647.652	257.25
647.857	259.25
648.062	282.25
648.266	287.25
648.471	283.25
648.676	277.25
648.88	263.25
649.085	268.25
649.289	269.25
649.494	261.25
649.698	257.25
649.903	255.25
650.107	267.25
650.312	263.25
650.516	254.25
650.721	258.25
650.925	265.25
651.13	268.25
651.334	249.25
651.539	258.25
651.743	257.25
651.947	252.25
652.152	265.25
652.356	236.25
652.56	262.25
652.764	264.25
652.969	258.25
653.173	240.25
653.377	252.25
653.581	251.25
653.785	265.25
653.99	247.25
654.194	248.25
654.398	254.25
654.602	244.25
654.806	260.25
655.01	263.25
655.214	267.25
655.418	261.25
655.622	282.25
655.826	293.25
656.03	309.25
656.234	344.25
656.438	343.25
656.642	370.25
656.846	331.25
657.049	303.25
657.253	275.25
657.457	249.25
657.661	230.25
657.865	203.25
658.068	203.25
658.272	189.25
658.476	179.25
658.68	167.25
658.883	151.25
659.087	148.25
659.291	148.25
659.494	128.25
659.698	121.25
659.901	134.25
660.105	133.25
660.309	123.25
660.512	99.25
660.716	111.25
660.919	95.25
661.123	104.25
661.326	102.25
661.53	112.25
661.733	112.25
661.936	92.25
662.14	106.25
662.343	99.25
662.546	72.25
662.75	88.25
662.953	86.25
663.156	86.25
663.36	83.25
663.563	89.25
663.766	68.25
663.969	86.25
664.173	80.25
664.376	95.25
664.579	72.25
664.782	72.25
664.985	84.25
665.188	81.25
665.391	72.25
665.594	85.25
665.797	77.25
666	92.25
666.203	83.25
666.406	71.25
666.609	94.25
666.812	85.25
667.015	80.25
667.218	84.25
667.421	83.25
667.624	72.25
667.827	74.25
668.03	82.25
668.232	66.25
668.435	102.25
668.638	85.25
668.841	84.25
669.043	83.25
669.246	69.25
669.449	80.25
669.651	85.25
669.854	74.25
670.057	75.25
670.259	81.25
670.462	79.25
670.665	90.25
670.867	93.25
671.07	87.25
671.272	81.25
671.475	90.25
671.677	79.25
671.88	76.25
672.082	73.25
672.284	80.25
672.487	79.25
672.689	85.25
672.892	65.25
