Data from NiCl2@0.125M.TitratingCurve.Agarose3%dH2O.NegLispCup.LampEnergy10.LIBS07252019_HRD10591_18-28-53-575.txt Node
Date: Thu Jul 25 18:28:53 EDT 2019
User: cochatt
Spectrometer: HR+D1059
Trigger mode: 1
Integration Time (sec): 1.000000E-1
Scans to average: 1
Electric dark correction enabled: true
Nonlinearity correction enabled: false
Boxcar width: 0
XAxis mode: Wavelengths
Number of Pixels in Spectrum: 2048
>>>>>Begin Spectral Data<<<<<
223.165	-12.31
223.4	-12.31
223.635	-12.31
223.869	-13.31
224.104	-24.31
224.338	-19.31
224.573	-14.31
224.808	-0.31
225.042	-12.31
225.277	-13.31
225.511	5.69
225.746	8.69
225.98	-1.31
226.215	3.69
226.449	11.69
226.683	31.69
226.918	21.69
227.152	27.69
227.387	49.69
227.621	38.69
227.856	31.69
228.09	36.69
228.324	49.69
228.559	45.69
228.793	63.69
229.027	97.69
229.262	105.69
229.496	126.69
229.73	129.69
229.964	132.69
230.199	141.69
230.433	128.69
230.667	137.69
230.901	144.69
231.136	142.69
231.37	133.69
231.604	148.69
231.838	147.69
232.072	145.69
232.306	147.69
232.541	155.69
232.775	158.69
233.009	149.69
233.243	145.69
233.477	142.69
233.711	156.69
233.945	156.69
234.179	153.69
234.413	135.69
234.647	140.69
234.881	160.69
235.115	159.69
235.349	165.69
235.583	130.69
235.817	152.69
236.051	145.69
236.285	150.69
236.519	170.69
236.753	171.69
236.987	172.69
237.221	162.69
237.455	180.69
237.689	183.69
237.922	188.69
238.156	169.69
238.39	166.69
238.624	157.69
238.858	184.69
239.091	159.69
239.325	185.69
239.559	183.69
239.793	181.69
240.027	186.69
240.26	203.69
240.494	194.69
240.728	169.69
240.961	193.69
241.195	191.69
241.429	194.69
241.662	199.69
241.896	206.69
242.13	200.69
242.363	204.69
242.597	194.69
242.83	189.69
243.064	205.69
243.298	205.69
243.531	211.69
243.765	218.69
243.998	217.69
244.232	216.69
244.465	210.69
244.699	216.69
244.932	228.69
245.166	221.69
245.399	234.69
245.633	243.69
245.866	239.69
246.099	227.69
246.333	224.69
246.566	233.69
246.8	253.69
247.033	234.69
247.266	233.69
247.5	239.69
247.733	239.69
247.966	253.69
248.2	246.69
248.433	239.69
248.666	240.69
248.899	248.69
249.133	257.69
249.366	259.69
249.599	253.69
249.832	264.69
250.066	261.69
250.299	258.69
250.532	267.69
250.765	263.69
250.998	285.69
251.231	269.69
251.465	265.69
251.698	258.69
251.931	261.69
252.164	283.69
252.397	292.69
252.63	290.69
252.863	284.69
253.096	267.69
253.329	281.69
253.562	285.69
253.795	278.69
254.028	286.69
254.261	272.69
254.494	283.69
254.727	303.69
254.96	285.69
255.193	307.69
255.426	313.69
255.659	286.69
255.892	307.69
256.124	303.69
256.357	291.69
256.59	300.69
256.823	296.69
257.056	321.69
257.289	307.69
257.521	317.69
257.754	310.69
257.987	328.69
258.22	320.69
258.452	327.69
258.685	320.69
258.918	324.69
259.151	306.69
259.383	319.69
259.616	318.69
259.849	304.69
260.081	325.69
260.314	337.69
260.547	320.69
260.779	314.69
261.012	338.69
261.244	333.69
261.477	328.69
261.71	326.69
261.942	333.69
262.175	331.69
262.407	346.69
262.64	330.69
262.872	336.69
263.105	351.69
263.337	359.69
263.57	340.69
263.802	332.69
264.035	360.69
264.267	360.69
264.499	343.69
264.732	367.69
264.964	355.69
265.197	371.69
265.429	359.69
265.661	373.69
265.894	381.69
266.126	374.69
266.358	383.69
266.591	377.69
266.823	383.69
267.055	383.69
267.287	388.69
267.52	363.69
267.752	373.69
267.984	378.69
268.216	381.69
268.448	370.69
268.681	388.69
268.913	379.69
269.145	389.69
269.377	379.69
269.609	392.69
269.841	394.69
270.073	393.69
270.306	378.69
270.538	368.69
270.77	397.69
271.002	394.69
271.234	398.69
271.466	384.69
271.698	374.69
271.93	412.69
272.162	403.69
272.394	375.69
272.626	392.69
272.858	376.69
273.09	405.69
273.322	404.69
273.553	402.69
273.785	408.69
274.017	406.69
274.249	399.69
274.481	433.69
274.713	429.69
274.945	418.69
275.176	438.69
275.408	425.69
275.64	419.69
275.872	437.69
276.104	413.69
276.335	413.69
276.567	440.69
276.799	432.69
277.031	432.69
277.262	422.69
277.494	452.69
277.726	439.69
277.957	441.69
278.189	432.69
278.421	416.69
278.652	439.69
278.884	439.69
279.115	465.69
279.347	453.69
279.579	444.69
279.81	439.69
280.042	457.69
280.273	468.69
280.505	439.69
280.736	467.69
280.968	474.69
281.199	489.69
281.431	479.69
281.662	473.69
281.894	462.69
282.125	467.69
282.356	455.69
282.588	481.69
282.819	471.69
283.051	485.69
283.282	493.69
283.513	498.69
283.745	493.69
283.976	517.69
284.207	499.69
284.439	502.69
284.67	480.69
284.901	501.69
285.132	499.69
285.364	499.69
285.595	501.69
285.826	499.69
286.057	511.69
286.288	495.69
286.52	515.69
286.751	520.69
286.982	517.69
287.213	501.69
287.444	529.69
287.675	531.69
287.906	522.69
288.138	502.69
288.369	538.69
288.6	549.69
288.831	533.69
289.062	523.69
289.293	528.69
289.524	565.69
289.755	536.69
289.986	533.69
290.217	551.69
290.448	537.69
290.679	539.69
290.91	562.69
291.141	554.69
291.371	550.69
291.602	552.69
291.833	525.69
292.064	545.69
292.295	561.69
292.526	551.69
292.757	526.69
292.987	555.69
293.218	545.69
293.449	557.69
293.68	540.69
293.91	559.69
294.141	557.69
294.372	553.69
294.603	558.69
294.833	543.69
295.064	549.69
295.295	555.69
295.525	556.69
295.756	571.69
295.987	561.69
296.217	579.69
296.448	573.69
296.679	559.69
296.909	560.69
297.14	572.69
297.37	575.69
297.601	575.69
297.831	567.69
298.062	586.69
298.292	605.69
298.523	628.69
298.753	608.69
298.984	604.69
299.214	585.69
299.445	606.69
299.675	593.69
299.905	607.69
300.136	613.69
300.366	602.69
300.597	608.69
300.827	613.69
301.057	628.69
301.288	623.69
301.518	635.69
301.748	616.69
301.979	619.69
302.209	625.69
302.439	609.69
302.669	623.69
302.9	606.69
303.13	623.69
303.36	612.69
303.59	609.69
303.82	618.69
304.051	623.69
304.281	598.69
304.511	601.69
304.741	600.69
304.971	620.69
305.201	601.69
305.431	618.69
305.661	589.69
305.891	571.69
306.121	602.69
306.352	626.69
306.582	620.69
306.812	593.69
307.042	612.69
307.272	586.69
307.502	583.69
307.731	579.69
307.961	573.69
308.191	600.69
308.421	585.69
308.651	586.69
308.881	593.69
309.111	621.69
309.341	589.69
309.571	587.69
309.8	619.69
310.03	596.69
310.26	580.69
310.49	583.69
310.72	594.69
310.949	575.69
311.179	627.69
311.409	612.69
311.639	600.69
311.868	618.69
312.098	617.69
312.328	601.69
312.557	632.69
312.787	618.69
313.017	607.69
313.246	633.69
313.476	661.69
313.706	641.69
313.935	645.69
314.165	637.69
314.394	625.69
314.624	629.69
314.853	631.69
315.083	643.69
315.312	633.69
315.542	628.69
315.771	627.69
316.001	632.69
316.23	633.69
316.46	633.69
316.689	611.69
316.919	609.69
317.148	616.69
317.377	608.69
317.607	613.69
317.836	636.69
318.065	615.69
318.295	629.69
318.524	633.69
318.753	595.69
318.983	616.69
319.212	605.69
319.441	603.69
319.67	633.69
319.9	631.69
320.129	616.69
320.358	615.69
320.587	606.69
320.816	618.69
321.046	607.69
321.275	644.69
321.504	616.69
321.733	620.69
321.962	646.69
322.191	618.69
322.42	628.69
322.649	643.69
322.878	612.69
323.108	627.69
323.337	627.69
323.566	638.69
323.795	646.69
324.024	653.69
324.253	638.69
324.482	639.69
324.71	647.69
324.939	639.69
325.168	635.69
325.397	653.69
325.626	650.69
325.855	653.69
326.084	671.69
326.313	699.69
326.542	681.69
326.77	684.69
326.999	695.69
327.228	674.69
327.457	673.69
327.686	664.69
327.914	701.69
328.143	690.69
328.372	678.69
328.6	689.69
328.829	689.69
329.058	678.69
329.287	679.69
329.515	673.69
329.744	672.69
329.972	674.69
330.201	677.69
330.43	671.69
330.658	692.69
330.887	670.69
331.115	722.69
331.344	719.69
331.572	696.69
331.801	738.69
332.03	735.69
332.258	758.69
332.486	776.69
332.715	818.69
332.943	839.69
333.172	873.69
333.4	906.69
333.629	948.69
333.857	927.69
334.085	945.69
334.314	928.69
334.542	891.69
334.771	895.69
334.999	862.69
335.227	823.69
335.455	832.69
335.684	868.69
335.912	842.69
336.14	799.69
336.369	828.69
336.597	791.69
336.825	823.69
337.053	840.69
337.281	831.69
337.51	797.69
337.738	789.69
337.966	764.69
338.194	730.69
338.422	748.69
338.65	741.69
338.878	712.69
339.106	738.69
339.334	721.69
339.562	720.69
339.79	693.69
340.018	703.69
340.246	703.69
340.474	717.69
340.702	743.69
340.93	701.69
341.158	725.69
341.386	711.69
341.614	716.69
341.842	711.69
342.07	706.69
342.298	715.69
342.526	718.69
342.754	717.69
342.981	702.69
343.209	717.69
343.437	735.69
343.665	801.69
343.893	865.69
344.12	895.69
344.348	848.69
344.576	798.69
344.804	769.69
345.031	761.69
345.259	755.69
345.487	729.69
345.714	727.69
345.942	695.69
346.17	690.69
346.397	714.69
346.625	681.69
346.853	688.69
347.08	690.69
347.308	695.69
347.535	699.69
347.763	724.69
347.99	705.69
348.218	742.69
348.445	720.69
348.673	694.69
348.9	681.69
349.128	699.69
349.355	694.69
349.583	688.69
349.81	678.69
350.037	684.69
350.265	678.69
350.492	669.69
350.72	658.69
350.947	678.69
351.174	695.69
351.402	645.69
351.629	657.69
351.856	668.69
352.083	645.69
352.311	651.69
352.538	656.69
352.765	653.69
352.992	667.69
353.22	657.69
353.447	658.69
353.674	654.69
353.901	641.69
354.128	649.69
354.355	657.69
354.583	657.69
354.81	658.69
355.037	659.69
355.264	665.69
355.491	654.69
355.718	656.69
355.945	655.69
356.172	671.69
356.399	656.69
356.626	675.69
356.853	679.69
357.08	646.69
357.307	661.69
357.534	657.69
357.761	660.69
357.988	668.69
358.215	665.69
358.441	671.69
358.668	646.69
358.895	668.69
359.122	639.69
359.349	644.69
359.576	630.69
359.802	659.69
360.029	658.69
360.256	679.69
360.483	651.69
360.709	666.69
360.936	648.69
361.163	665.69
361.39	665.69
361.616	674.69
361.843	674.69
362.07	659.69
362.296	653.69
362.523	665.69
362.749	650.69
362.976	633.69
363.203	643.69
363.429	637.69
363.656	653.69
363.882	670.69
364.109	659.69
364.335	658.69
364.562	666.69
364.788	676.69
365.015	659.69
365.241	637.69
365.468	649.69
365.694	676.69
365.92	652.69
366.147	663.69
366.373	641.69
366.599	656.69
366.826	639.69
367.052	644.69
367.278	674.69
367.505	673.69
367.731	663.69
367.957	669.69
368.184	686.69
368.41	699.69
368.636	689.69
368.862	694.69
369.089	672.69
369.315	679.69
369.541	674.69
369.767	689.69
369.993	671.69
370.219	663.69
370.445	677.69
370.672	691.69
370.898	699.69
371.124	723.69
371.35	727.69
371.576	725.69
371.802	746.69
372.028	708.69
372.254	730.69
372.48	729.69
372.706	751.69
372.932	727.69
373.158	740.69
373.384	729.69
373.61	725.69
373.835	700.69
374.061	694.69
374.287	739.69
374.513	745.69
374.739	745.69
374.965	780.69
375.191	797.69
375.416	796.69
375.642	771.69
375.868	776.69
376.094	769.69
376.319	735.69
376.545	724.69
376.771	709.69
376.997	709.69
377.222	695.69
377.448	717.69
377.674	730.69
377.899	723.69
378.125	702.69
378.35	714.69
378.576	700.69
378.802	713.69
379.027	716.69
379.253	701.69
379.478	700.69
379.704	720.69
379.929	712.69
380.155	705.69
380.38	711.69
380.606	723.69
380.831	715.69
381.057	733.69
381.282	697.69
381.507	736.69
381.733	693.69
381.958	714.69
382.184	763.69
382.409	748.69
382.634	754.69
382.86	755.69
383.085	765.69
383.31	758.69
383.535	793.69
383.761	799.69
383.986	796.69
384.211	829.69
384.436	860.69
384.662	843.69
384.887	867.69
385.112	867.69
385.337	858.69
385.562	894.69
385.787	844.69
386.013	895.69
386.238	867.69
386.463	888.69
386.688	886.69
386.913	849.69
387.138	832.69
387.363	876.69
387.588	877.69
387.813	833.69
388.038	841.69
388.263	864.69
388.488	848.69
388.713	858.69
388.938	859.69
389.163	847.69
389.387	853.69
389.612	829.69
389.837	843.69
390.062	839.69
390.287	852.69
390.512	837.69
390.736	844.69
390.961	863.69
391.186	872.69
391.411	892.69
391.636	954.69
391.86	947.69
392.085	955.69
392.31	991.69
392.534	945.69
392.759	927.69
392.984	917.69
393.208	927.69
393.433	897.69
393.658	899.69
393.882	895.69
394.107	924.69
394.331	911.69
394.556	897.69
394.78	914.69
395.005	950.69
395.229	930.69
395.454	935.69
395.678	952.69
395.903	968.69
396.127	964.69
396.352	927.69
396.576	893.69
396.801	901.69
397.025	889.69
397.249	909.69
397.474	956.69
397.698	941.69
397.922	939.69
398.147	939.69
398.371	967.69
398.595	972.69
398.82	1037.69
399.044	1120.69
399.268	1243.69
399.492	1440.69
399.717	1643.69
399.941	1673.69
400.165	1487.69
400.389	1331.69
400.613	1218.69
400.837	1147.69
401.062	1130.69
401.286	1093.69
401.51	1077.69
401.734	1044.69
401.958	1108.69
402.182	1113.69
402.406	1097.69
402.63	1125.69
402.854	1142.69
403.078	1161.69
403.302	1191.69
403.526	1222.69
403.75	1245.69
403.974	1237.69
404.198	1251.69
404.422	1268.69
404.645	1234.69
404.869	1266.69
405.093	1240.69
405.317	1189.69
405.541	1199.69
405.765	1210.69
405.988	1181.69
406.212	1224.69
406.436	1204.69
406.66	1219.69
406.883	1227.69
407.107	1304.69
407.331	1355.69
407.555	1407.69
407.778	1428.69
408.002	1339.69
408.226	1355.69
408.449	1294.69
408.673	1246.69
408.896	1211.69
409.12	1247.69
409.344	1252.69
409.567	1229.69
409.791	1272.69
410.014	1216.69
410.238	1240.69
410.461	1237.69
410.685	1208.69
410.908	1169.69
411.132	1165.69
411.355	1104.69
411.578	1088.69
411.802	1104.69
412.025	1109.69
412.249	1135.69
412.472	1140.69
412.695	1100.69
412.919	1041.69
413.142	1048.69
413.365	1072.69
413.589	1069.69
413.812	1049.69
414.035	1052.69
414.258	1079.69
414.482	1077.69
414.705	1070.69
414.928	1099.69
415.151	1095.69
415.374	1105.69
415.597	1066.69
415.821	1073.69
416.044	1055.69
416.267	1058.69
416.49	1055.69
416.713	1066.69
416.936	1077.69
417.159	1035.69
417.382	1048.69
417.605	1066.69
417.828	1065.69
418.051	1081.69
418.274	1090.69
418.497	1063.69
418.72	1091.69
418.943	1083.69
419.166	1179.69
419.389	1265.69
419.611	1185.69
419.834	1172.69
420.057	1121.69
420.28	1097.69
420.503	1081.69
420.726	1079.69
420.948	1079.69
421.171	1045.69
421.394	1052.69
421.617	1069.69
421.839	1064.69
422.062	1073.69
422.285	1102.69
422.507	1143.69
422.73	1097.69
422.953	1093.69
423.175	1157.69
423.398	1132.69
423.621	1157.69
423.843	1153.69
424.066	1136.69
424.288	1150.69
424.511	1123.69
424.733	1114.69
424.956	1107.69
425.178	1107.69
425.401	1070.69
425.623	1112.69
425.846	1071.69
426.068	1067.69
426.291	1036.69
426.513	999.69
426.735	1049.69
426.958	1040.69
427.18	978.69
427.402	1001.69
427.625	965.69
427.847	981.69
428.069	937.69
428.292	955.69
428.514	967.69
428.736	957.69
428.958	961.69
429.181	918.69
429.403	925.69
429.625	919.69
429.847	936.69
430.069	901.69
430.292	917.69
430.514	935.69
430.736	936.69
430.958	920.69
431.18	928.69
431.402	963.69
431.624	941.69
431.846	966.69
432.068	979.69
432.29	1001.69
432.512	923.69
432.734	980.69
432.956	939.69
433.178	987.69
433.4	984.69
433.622	941.69
433.844	980.69
434.066	978.69
434.287	987.69
434.509	992.69
434.731	1048.69
434.953	1079.69
435.175	1096.69
435.397	1111.69
435.618	1034.69
435.84	1021.69
436.062	968.69
436.284	969.69
436.505	951.69
436.727	987.69
436.949	981.69
437.17	984.69
437.392	942.69
437.614	959.69
437.835	938.69
438.057	930.69
438.278	936.69
438.5	923.69
438.721	952.69
438.943	1003.69
439.165	929.69
439.386	964.69
439.608	977.69
439.829	947.69
440.05	972.69
440.272	952.69
440.493	961.69
440.715	996.69
440.936	1014.69
441.158	983.69
441.379	1066.69
441.6	1110.69
441.822	1119.69
442.043	1113.69
442.264	1082.69
442.486	1053.69
442.707	1060.69
442.928	1047.69
443.149	1056.69
443.371	1061.69
443.592	1089.69
443.813	1106.69
444.034	1135.69
444.255	1151.69
444.476	1200.69
444.698	1277.69
444.919	1319.69
445.14	1412.69
445.361	1265.69
445.582	1163.69
445.803	1073.69
446.024	1055.69
446.245	1039.69
446.466	1020.69
446.687	1007.69
446.908	966.69
447.129	955.69
447.35	950.69
447.571	934.69
447.792	911.69
448.013	937.69
448.234	894.69
448.455	888.69
448.675	907.69
448.896	907.69
449.117	857.69
449.338	893.69
449.559	916.69
449.779	874.69
450	921.69
450.221	903.69
450.442	905.69
450.662	919.69
450.883	931.69
451.104	909.69
451.324	914.69
451.545	923.69
451.766	919.69
451.986	945.69
452.207	918.69
452.428	908.69
452.648	903.69
452.869	875.69
453.089	892.69
453.31	894.69
453.53	863.69
453.751	846.69
453.971	865.69
454.192	893.69
454.412	853.69
454.633	845.69
454.853	851.69
455.073	829.69
455.294	871.69
455.514	841.69
455.734	844.69
455.955	836.69
456.175	847.69
456.395	836.69
456.616	819.69
456.836	849.69
457.056	841.69
457.276	832.69
457.497	869.69
457.717	824.69
457.937	833.69
458.157	860.69
458.377	822.69
458.598	899.69
458.818	906.69
459.038	905.69
459.258	931.69
459.478	973.69
459.698	974.69
459.918	1047.69
460.138	1091.69
460.358	1156.69
460.578	1127.69
460.798	1151.69
461.018	1183.69
461.238	1152.69
461.458	1127.69
461.678	1133.69
461.898	1151.69
462.118	1166.69
462.338	1223.69
462.558	1277.69
462.777	1323.69
462.997	1402.69
463.217	1547.69
463.437	1600.69
463.657	1497.69
463.876	1427.69
464.096	1391.69
464.316	1368.69
464.536	1338.69
464.755	1305.69
464.975	1281.69
465.195	1216.69
465.414	1122.69
465.634	1072.69
465.854	1020.69
466.073	993.69
466.293	966.69
466.512	955.69
466.732	935.69
466.951	957.69
467.171	922.69
467.391	963.69
467.61	910.69
467.829	921.69
468.049	933.69
468.268	883.69
468.488	876.69
468.707	864.69
468.927	927.69
469.146	889.69
469.365	887.69
469.585	915.69
469.804	925.69
470.023	947.69
470.243	941.69
470.462	958.69
470.681	973.69
470.901	967.69
471.12	983.69
471.339	940.69
471.558	925.69
471.777	915.69
471.997	915.69
472.216	900.69
472.435	899.69
472.654	890.69
472.873	869.69
473.092	879.69
473.311	888.69
473.53	923.69
473.749	894.69
473.968	894.69
474.187	857.69
474.406	878.69
474.625	862.69
474.844	871.69
475.063	891.69
475.282	912.69
475.501	885.69
475.72	895.69
475.939	891.69
476.158	892.69
476.377	891.69
476.596	892.69
476.814	931.69
477.033	915.69
477.252	944.69
477.471	956.69
477.69	999.69
477.908	989.69
478.127	1045.69
478.346	1038.69
478.564	1030.69
478.783	1059.69
479.002	1099.69
479.22	1109.69
479.439	1083.69
479.658	1089.69
479.876	1101.69
480.095	1120.69
480.313	1155.69
480.532	1155.69
480.751	1144.69
480.969	1151.69
481.188	1099.69
481.406	1057.69
481.624	1029.69
481.843	1031.69
482.061	1002.69
482.28	991.69
482.498	999.69
482.717	976.69
482.935	997.69
483.153	1000.69
483.372	991.69
483.59	1018.69
483.808	999.69
484.027	1002.69
484.245	1015.69
484.463	1016.69
484.681	1002.69
484.9	1028.69
485.118	1052.69
485.336	1035.69
485.554	1053.69
485.772	1058.69
485.99	1064.69
486.209	1108.69
486.427	1093.69
486.645	1055.69
486.863	1073.69
487.081	1043.69
487.299	1064.69
487.517	1053.69
487.735	1025.69
487.953	1068.69
488.171	1048.69
488.389	1052.69
488.607	1025.69
488.825	1001.69
489.043	1029.69
489.261	1024.69
489.479	1010.69
489.696	1032.69
489.914	1042.69
490.132	1058.69
490.35	1045.69
490.568	1014.69
490.786	1033.69
491.003	1028.69
491.221	1046.69
491.439	1035.69
491.657	1061.69
491.874	1051.69
492.092	1037.69
492.31	1059.69
492.527	1085.69
492.745	1052.69
492.963	1062.69
493.18	1043.69
493.398	1077.69
493.615	1048.69
493.833	1099.69
494.05	1083.69
494.268	1119.69
494.485	1089.69
494.703	1108.69
494.92	1125.69
495.138	1096.69
495.355	1136.69
495.573	1108.69
495.79	1107.69
496.008	1126.69
496.225	1129.69
496.442	1148.69
496.66	1143.69
496.877	1149.69
497.094	1205.69
497.312	1211.69
497.529	1225.69
497.746	1247.69
497.963	1259.69
498.181	1310.69
498.398	1371.69
498.615	1425.69
498.832	1544.69
499.049	1658.69
499.267	1829.69
499.484	2008.69
499.701	2249.69
499.918	2431.69
500.135	2828.69
500.352	3226.69
500.569	3483.69
500.786	3428.69
501.003	3166.69
501.22	2804.69
501.437	2500.69
501.654	2207.69
501.871	1975.69
502.088	1771.69
502.305	1665.69
502.522	1606.69
502.739	1528.69
502.956	1486.69
503.172	1395.69
503.389	1323.69
503.606	1294.69
503.823	1254.69
504.04	1257.69
504.256	1277.69
504.473	1333.69
504.69	1322.69
504.907	1297.69
505.123	1234.69
505.34	1170.69
505.557	1117.69
505.773	1079.69
505.99	1077.69
506.207	1053.69
506.423	1030.69
506.64	1013.69
506.856	1001.69
507.073	1013.69
507.289	985.69
507.506	983.69
507.722	985.69
507.939	965.69
508.155	938.69
508.372	963.69
508.588	932.69
508.805	939.69
509.021	914.69
509.238	934.69
509.454	929.69
509.67	890.69
509.887	912.69
510.103	889.69
510.319	907.69
510.536	921.69
510.752	923.69
510.968	898.69
511.184	875.69
511.401	892.69
511.617	869.69
511.833	905.69
512.049	883.69
512.265	912.69
512.481	905.69
512.698	893.69
512.914	924.69
513.13	921.69
513.346	907.69
513.562	898.69
513.778	889.69
513.994	893.69
514.21	927.69
514.426	907.69
514.642	895.69
514.858	910.69
515.074	924.69
515.29	918.69
515.506	940.69
515.721	934.69
515.937	971.69
516.153	980.69
516.369	977.69
516.585	1013.69
516.801	1100.69
517.016	1094.69
517.232	1151.69
517.448	1194.69
517.664	1266.69
517.879	1259.69
518.095	1269.69
518.311	1255.69
518.527	1193.69
518.742	1143.69
518.958	1107.69
519.173	1027.69
519.389	1031.69
519.605	985.69
519.82	964.69
520.036	948.69
520.251	960.69
520.467	908.69
520.682	918.69
520.898	897.69
521.113	907.69
521.329	891.69
521.544	893.69
521.76	882.69
521.975	853.69
522.19	866.69
522.406	882.69
522.621	855.69
522.836	861.69
523.052	846.69
523.267	845.69
523.482	844.69
523.698	815.69
523.913	820.69
524.128	832.69
524.343	852.69
524.559	825.69
524.774	831.69
524.989	836.69
525.204	836.69
525.419	833.69
525.634	845.69
525.849	806.69
526.064	837.69
526.28	830.69
526.495	821.69
526.71	827.69
526.925	821.69
527.14	795.69
527.355	830.69
527.57	810.69
527.785	797.69
527.999	802.69
528.214	833.69
528.429	818.69
528.644	828.69
528.859	824.69
529.074	804.69
529.289	821.69
529.503	857.69
529.718	826.69
529.933	813.69
530.148	825.69
530.363	822.69
530.577	818.69
530.792	825.69
531.007	804.69
531.221	839.69
531.436	816.69
531.651	826.69
531.865	801.69
532.08	809.69
532.295	808.69
532.509	803.69
532.724	824.69
532.938	809.69
533.153	822.69
533.367	808.69
533.582	810.69
533.796	784.69
534.011	796.69
534.225	809.69
534.44	818.69
534.654	803.69
534.868	803.69
535.083	797.69
535.297	792.69
535.511	802.69
535.726	796.69
535.94	772.69
536.154	779.69
536.369	789.69
536.583	771.69
536.797	778.69
537.011	781.69
537.225	741.69
537.44	758.69
537.654	776.69
537.868	733.69
538.082	736.69
538.296	724.69
538.51	770.69
538.724	754.69
538.938	724.69
539.153	740.69
539.367	757.69
539.581	741.69
539.795	726.69
540.009	728.69
540.222	752.69
540.436	746.69
540.65	746.69
540.864	747.69
541.078	731.69
541.292	736.69
541.506	740.69
541.72	727.69
541.934	732.69
542.147	738.69
542.361	731.69
542.575	721.69
542.789	698.69
543.002	703.69
543.216	720.69
543.43	700.69
543.644	703.69
543.857	727.69
544.071	691.69
544.285	716.69
544.498	714.69
544.712	727.69
544.925	751.69
545.139	753.69
545.352	755.69
545.566	735.69
545.779	748.69
545.993	771.69
546.206	756.69
546.42	744.69
546.633	746.69
546.847	752.69
547.06	744.69
547.274	766.69
547.487	745.69
547.7	735.69
547.914	759.69
548.127	769.69
548.34	749.69
548.554	760.69
548.767	748.69
548.98	759.69
549.193	759.69
549.407	747.69
549.62	781.69
549.833	766.69
550.046	749.69
550.259	747.69
550.473	749.69
550.686	742.69
550.899	738.69
551.112	723.69
551.325	743.69
551.538	731.69
551.751	709.69
551.964	715.69
552.177	742.69
552.39	744.69
552.603	785.69
552.816	789.69
553.029	788.69
553.242	810.69
553.455	827.69
553.667	827.69
553.88	811.69
554.093	793.69
554.306	808.69
554.519	780.69
554.732	731.69
554.944	728.69
555.157	729.69
555.37	729.69
555.583	720.69
555.795	702.69
556.008	680.69
556.221	661.69
556.433	660.69
556.646	689.69
556.859	638.69
557.071	644.69
557.284	660.69
557.496	665.69
557.709	647.69
557.921	647.69
558.134	634.69
558.346	648.69
558.559	647.69
558.771	637.69
558.984	632.69
559.196	613.69
559.409	626.69
559.621	641.69
559.833	621.69
560.046	617.69
560.258	607.69
560.47	597.69
560.683	609.69
560.895	630.69
561.107	637.69
561.32	604.69
561.532	619.69
561.744	624.69
561.956	611.69
562.168	625.69
562.381	599.69
562.593	625.69
562.805	620.69
563.017	631.69
563.229	617.69
563.441	609.69
563.653	638.69
563.865	629.69
564.077	646.69
564.289	623.69
564.501	631.69
564.713	657.69
564.925	667.69
565.137	678.69
565.349	679.69
565.561	717.69
565.773	730.69
565.985	746.69
566.197	798.69
566.408	875.69
566.62	970.69
566.832	1025.69
567.044	1063.69
567.255	1029.69
567.467	1076.69
567.679	1143.69
567.891	1231.69
568.102	1265.69
568.314	1183.69
568.526	1083.69
568.737	969.69
568.949	872.69
569.161	808.69
569.372	743.69
569.584	711.69
569.795	681.69
570.007	644.69
570.218	671.69
570.43	650.69
570.641	653.69
570.853	656.69
571.064	675.69
571.276	654.69
571.487	622.69
571.698	629.69
571.91	613.69
572.121	582.69
572.333	560.69
572.544	550.69
572.755	560.69
572.966	561.69
573.178	542.69
573.389	547.69
573.6	509.69
573.811	543.69
574.023	521.69
574.234	524.69
574.445	515.69
574.656	519.69
574.867	507.69
575.078	524.69
575.289	533.69
575.501	509.69
575.712	500.69
575.923	509.69
576.134	474.69
576.345	503.69
576.556	512.69
576.767	495.69
576.978	495.69
577.188	483.69
577.399	492.69
577.61	473.69
577.821	473.69
578.032	472.69
578.243	483.69
578.454	480.69
578.665	467.69
578.875	469.69
579.086	449.69
579.297	454.69
579.508	441.69
579.718	466.69
579.929	464.69
580.14	458.69
580.35	450.69
580.561	463.69
580.772	439.69
580.982	450.69
581.193	450.69
581.403	460.69
581.614	436.69
581.825	440.69
582.035	438.69
582.246	425.69
582.456	453.69
582.667	441.69
582.877	432.69
583.087	461.69
583.298	421.69
583.508	440.69
583.719	409.69
583.929	435.69
584.139	411.69
584.35	414.69
584.56	453.69
584.77	447.69
584.981	432.69
585.191	437.69
585.401	435.69
585.611	427.69
585.821	423.69
586.032	415.69
586.242	437.69
586.452	412.69
586.662	413.69
586.872	428.69
587.082	418.69
587.292	425.69
587.502	424.69
587.713	421.69
587.923	428.69
588.133	421.69
588.343	422.69
588.553	418.69
588.762	420.69
588.972	428.69
589.182	424.69
589.392	446.69
589.602	418.69
589.812	439.69
590.022	425.69
590.232	420.69
590.441	419.69
590.651	418.69
590.861	423.69
591.071	427.69
591.281	432.69
591.49	448.69
591.7	420.69
591.91	429.69
592.119	422.69
592.329	471.69
592.539	491.69
592.748	499.69
592.958	515.69
593.167	503.69
593.377	547.69
593.587	542.69
593.796	537.69
594.006	548.69
594.215	552.69
594.424	551.69
594.634	564.69
594.843	525.69
595.053	462.69
595.262	463.69
595.472	466.69
595.681	454.69
595.89	454.69
596.1	438.69
596.309	405.69
596.518	412.69
596.727	402.69
596.937	409.69
597.146	387.69
597.355	396.69
597.564	383.69
597.774	372.69
597.983	362.69
598.192	379.69
598.401	393.69
598.61	371.69
598.819	400.69
599.028	372.69
599.237	374.69
599.446	356.69
599.655	357.69
599.864	370.69
600.073	363.69
600.282	353.69
600.491	343.69
600.7	339.69
600.909	357.69
601.118	346.69
601.327	339.69
601.536	355.69
601.745	346.69
601.953	350.69
602.162	347.69
602.371	344.69
602.58	360.69
602.789	357.69
602.997	343.69
603.206	368.69
603.415	360.69
603.623	352.69
603.832	343.69
604.041	352.69
604.249	337.69
604.458	318.69
604.666	319.69
604.875	351.69
605.084	347.69
605.292	336.69
605.501	336.69
605.709	326.69
605.918	333.69
606.126	330.69
606.334	339.69
606.543	343.69
606.751	325.69
606.96	316.69
607.168	327.69
607.376	297.69
607.585	328.69
607.793	324.69
608.001	318.69
608.21	307.69
608.418	326.69
608.626	320.69
608.834	316.69
609.043	313.69
609.251	311.69
609.459	321.69
609.667	320.69
609.875	327.69
610.083	310.69
610.291	311.69
610.499	329.69
610.707	309.69
610.916	312.69
611.124	295.69
611.332	309.69
611.54	323.69
611.748	307.69
611.955	311.69
612.163	317.69
612.371	313.69
612.579	325.69
612.787	292.69
612.995	317.69
613.203	311.69
613.411	301.69
613.618	292.69
613.826	298.69
614.034	323.69
614.242	309.69
614.449	297.69
614.657	319.69
614.865	321.69
615.072	305.69
615.28	295.69
615.488	303.69
615.695	299.69
615.903	290.69
616.111	305.69
616.318	312.69
616.526	320.69
616.733	310.69
616.941	321.69
617.148	330.69
617.356	293.69
617.563	290.69
617.771	302.69
617.978	313.69
618.185	309.69
618.393	292.69
618.6	315.69
618.807	315.69
619.015	305.69
619.222	300.69
619.429	320.69
619.637	311.69
619.844	271.69
620.051	287.69
620.258	285.69
620.466	282.69
620.673	293.69
620.88	280.69
621.087	286.69
621.294	287.69
621.501	281.69
621.708	288.69
621.915	285.69
622.122	285.69
622.329	272.69
622.536	296.69
622.743	287.69
622.95	279.69
623.157	291.69
623.364	295.69
623.571	274.69
623.778	265.69
623.985	273.69
624.192	269.69
624.399	270.69
624.606	279.69
624.812	275.69
625.019	265.69
625.226	284.69
625.433	276.69
625.639	280.69
625.846	262.69
626.053	264.69
626.259	261.69
626.466	260.69
626.673	266.69
626.879	273.69
627.086	265.69
627.293	260.69
627.499	263.69
627.706	271.69
627.912	267.69
628.119	242.69
628.325	257.69
628.532	265.69
628.738	246.69
628.945	263.69
629.151	257.69
629.357	248.69
629.564	252.69
629.77	255.69
629.976	260.69
630.183	231.69
630.389	239.69
630.595	235.69
630.802	251.69
631.008	230.69
631.214	239.69
631.42	232.69
631.627	230.69
631.833	236.69
632.039	251.69
632.245	243.69
632.451	221.69
632.657	238.69
632.863	234.69
633.069	225.69
633.275	225.69
633.481	223.69
633.688	233.69
633.893	235.69
634.099	229.69
634.305	232.69
634.511	223.69
634.717	227.69
634.923	219.69
635.129	237.69
635.335	218.69
635.541	249.69
635.747	239.69
635.952	220.69
636.158	204.69
636.364	221.69
636.57	228.69
636.775	224.69
636.981	230.69
637.187	211.69
637.392	234.69
637.598	234.69
637.804	214.69
638.009	221.69
638.215	234.69
638.421	220.69
638.626	205.69
638.832	214.69
639.037	213.69
639.243	204.69
639.448	209.69
639.654	219.69
639.859	203.69
640.065	210.69
640.27	196.69
640.475	210.69
640.681	205.69
640.886	222.69
641.091	198.69
641.297	217.69
641.502	206.69
641.707	205.69
641.913	211.69
642.118	194.69
642.323	188.69
642.528	204.69
642.733	201.69
642.939	196.69
643.144	195.69
643.349	209.69
643.554	207.69
643.759	206.69
643.964	208.69
644.169	197.69
644.374	215.69
644.579	187.69
644.784	194.69
644.989	204.69
645.194	203.69
645.399	204.69
645.604	195.69
645.809	195.69
646.014	194.69
646.219	204.69
646.423	193.69
646.628	194.69
646.833	210.69
647.038	193.69
647.243	201.69
647.447	203.69
647.652	215.69
647.857	215.69
648.062	216.69
648.266	196.69
648.471	208.69
648.676	208.69
648.88	222.69
649.085	223.69
649.289	212.69
649.494	190.69
649.698	195.69
649.903	187.69
650.107	194.69
650.312	187.69
650.516	162.69
650.721	185.69
650.925	191.69
651.13	180.69
651.334	174.69
651.539	169.69
651.743	170.69
651.947	174.69
652.152	170.69
652.356	165.69
652.56	170.69
652.764	176.69
652.969	156.69
653.173	157.69
653.377	153.69
653.581	153.69
653.785	152.69
653.99	156.69
654.194	167.69
654.398	152.69
654.602	136.69
654.806	150.69
655.01	139.69
655.214	143.69
655.418	147.69
655.622	147.69
655.826	146.69
656.03	138.69
656.234	127.69
656.438	125.69
656.642	132.69
656.846	133.69
657.049	124.69
657.253	125.69
657.457	128.69
657.661	120.69
657.865	117.69
658.068	117.69
658.272	126.69
658.476	109.69
658.68	115.69
658.883	95.69
659.087	103.69
659.291	107.69
659.494	111.69
659.698	104.69
659.901	95.69
660.105	105.69
660.309	106.69
660.512	101.69
660.716	89.69
660.919	103.69
661.123	124.69
661.326	90.69
661.53	92.69
661.733	78.69
661.936	95.69
662.14	89.69
662.343	83.69
662.546	90.69
662.75	81.69
662.953	91.69
663.156	84.69
663.36	93.69
663.563	67.69
663.766	84.69
663.969	68.69
664.173	75.69
664.376	84.69
664.579	89.69
664.782	77.69
664.985	97.69
665.188	92.69
665.391	108.69
665.594	88.69
665.797	73.69
666	93.69
666.203	84.69
666.406	94.69
666.609	84.69
666.812	86.69
667.015	77.69
667.218	82.69
667.421	80.69
667.624	81.69
667.827	67.69
668.03	64.69
668.232	77.69
668.435	85.69
668.638	72.69
668.841	91.69
669.043	80.69
669.246	89.69
669.449	65.69
669.651	90.69
669.854	87.69
670.057	81.69
670.259	84.69
670.462	82.69
670.665	78.69
670.867	67.69
671.07	97.69
671.272	87.69
671.475	91.69
671.677	86.69
671.88	78.69
672.082	70.69
672.284	84.69
672.487	86.69
672.689	78.69
672.892	83.69
