Data from NiCl2@0.25M.TitratingCurve.Agarose3%dH2O.NegLispCup.LampEnergy10.LIBS07252019_HRD10591_18-24-41-573.txt Node
Date: Thu Jul 25 18:24:41 EDT 2019
User: cochatt
Spectrometer: HR+D1059
Trigger mode: 1
Integration Time (sec): 1.000000E-1
Scans to average: 1
Electric dark correction enabled: true
Nonlinearity correction enabled: false
Boxcar width: 0
XAxis mode: Wavelengths
Number of Pixels in Spectrum: 2048
>>>>>Begin Spectral Data<<<<<
223.165	-25.75
223.4	-25.75
223.635	-25.75
223.869	-18.75
224.104	-26.75
224.338	-21.75
224.573	-2.75
224.808	-12.75
225.042	5.25
225.277	-13.75
225.511	-0.75
225.746	15.25
225.98	17.25
226.215	12.25
226.449	12.25
226.683	10.25
226.918	26.25
227.152	24.25
227.387	29.25
227.621	32.25
227.856	34.25
228.09	34.25
228.324	42.25
228.559	65.25
228.793	84.25
229.027	122.25
229.262	121.25
229.496	119.25
229.73	133.25
229.964	138.25
230.199	170.25
230.433	166.25
230.667	148.25
230.901	162.25
231.136	156.25
231.37	164.25
231.604	150.25
231.838	182.25
232.072	172.25
232.306	156.25
232.541	192.25
232.775	183.25
233.009	176.25
233.243	170.25
233.477	185.25
233.711	185.25
233.945	174.25
234.179	170.25
234.413	169.25
234.647	181.25
234.881	191.25
235.115	193.25
235.349	193.25
235.583	183.25
235.817	194.25
236.051	192.25
236.285	188.25
236.519	192.25
236.753	186.25
236.987	183.25
237.221	195.25
237.455	201.25
237.689	199.25
237.922	197.25
238.156	223.25
238.39	208.25
238.624	194.25
238.858	194.25
239.091	223.25
239.325	216.25
239.559	211.25
239.793	215.25
240.027	215.25
240.26	232.25
240.494	231.25
240.728	222.25
240.961	226.25
241.195	229.25
241.429	244.25
241.662	254.25
241.896	240.25
242.13	232.25
242.363	234.25
242.597	235.25
242.83	241.25
243.064	250.25
243.298	251.25
243.531	258.25
243.765	254.25
243.998	266.25
244.232	254.25
244.465	272.25
244.699	262.25
244.932	268.25
245.166	271.25
245.399	285.25
245.633	279.25
245.866	273.25
246.099	274.25
246.333	271.25
246.566	273.25
246.8	253.25
247.033	301.25
247.266	297.25
247.5	296.25
247.733	291.25
247.966	289.25
248.2	296.25
248.433	291.25
248.666	316.25
248.899	292.25
249.133	301.25
249.366	284.25
249.599	320.25
249.832	318.25
250.066	310.25
250.299	321.25
250.532	315.25
250.765	325.25
250.998	322.25
251.231	326.25
251.465	346.25
251.698	322.25
251.931	331.25
252.164	319.25
252.397	330.25
252.63	337.25
252.863	347.25
253.096	344.25
253.329	340.25
253.562	348.25
253.795	367.25
254.028	341.25
254.261	352.25
254.494	350.25
254.727	362.25
254.96	364.25
255.193	359.25
255.426	356.25
255.659	374.25
255.892	375.25
256.124	379.25
256.357	393.25
256.59	383.25
256.823	387.25
257.056	388.25
257.289	391.25
257.521	379.25
257.754	374.25
257.987	409.25
258.22	387.25
258.452	374.25
258.685	376.25
258.918	384.25
259.151	393.25
259.383	403.25
259.616	386.25
259.849	398.25
260.081	416.25
260.314	409.25
260.547	404.25
260.779	400.25
261.012	388.25
261.244	421.25
261.477	412.25
261.71	420.25
261.942	423.25
262.175	438.25
262.407	423.25
262.64	424.25
262.872	425.25
263.105	428.25
263.337	420.25
263.57	423.25
263.802	454.25
264.035	457.25
264.267	448.25
264.499	449.25
264.732	429.25
264.964	436.25
265.197	434.25
265.429	453.25
265.661	450.25
265.894	469.25
266.126	460.25
266.358	450.25
266.591	442.25
266.823	483.25
267.055	477.25
267.287	485.25
267.52	474.25
267.752	476.25
267.984	450.25
268.216	497.25
268.448	471.25
268.681	485.25
268.913	488.25
269.145	488.25
269.377	482.25
269.609	484.25
269.841	489.25
270.073	505.25
270.306	488.25
270.538	508.25
270.77	480.25
271.002	484.25
271.234	509.25
271.466	495.25
271.698	512.25
271.93	509.25
272.162	527.25
272.394	530.25
272.626	527.25
272.858	493.25
273.09	524.25
273.322	524.25
273.553	533.25
273.785	549.25
274.017	549.25
274.249	537.25
274.481	528.25
274.713	547.25
274.945	541.25
275.176	541.25
275.408	567.25
275.64	562.25
275.872	544.25
276.104	567.25
276.335	548.25
276.567	547.25
276.799	561.25
277.031	575.25
277.262	565.25
277.494	566.25
277.726	540.25
277.957	566.25
278.189	584.25
278.421	573.25
278.652	582.25
278.884	569.25
279.115	564.25
279.347	593.25
279.579	588.25
279.81	604.25
280.042	580.25
280.273	594.25
280.505	600.25
280.736	597.25
280.968	590.25
281.199	598.25
281.431	600.25
281.662	598.25
281.894	611.25
282.125	635.25
282.356	636.25
282.588	608.25
282.819	628.25
283.051	655.25
283.282	629.25
283.513	641.25
283.745	619.25
283.976	620.25
284.207	639.25
284.439	632.25
284.67	643.25
284.901	646.25
285.132	669.25
285.364	635.25
285.595	640.25
285.826	644.25
286.057	653.25
286.288	676.25
286.52	661.25
286.751	642.25
286.982	656.25
287.213	674.25
287.444	691.25
287.675	682.25
287.906	675.25
288.138	683.25
288.369	680.25
288.6	659.25
288.831	691.25
289.062	695.25
289.293	685.25
289.524	656.25
289.755	693.25
289.986	691.25
290.217	689.25
290.448	691.25
290.679	690.25
290.91	692.25
291.141	696.25
291.371	705.25
291.602	690.25
291.833	693.25
292.064	703.25
292.295	714.25
292.526	708.25
292.757	717.25
292.987	686.25
293.218	706.25
293.449	708.25
293.68	732.25
293.91	680.25
294.141	710.25
294.372	710.25
294.603	721.25
294.833	702.25
295.064	723.25
295.295	722.25
295.525	708.25
295.756	708.25
295.987	713.25
296.217	726.25
296.448	724.25
296.679	710.25
296.909	736.25
297.14	729.25
297.37	730.25
297.601	747.25
297.831	741.25
298.062	733.25
298.292	745.25
298.523	776.25
298.753	770.25
298.984	773.25
299.214	761.25
299.445	785.25
299.675	762.25
299.905	790.25
300.136	769.25
300.366	774.25
300.597	807.25
300.827	802.25
301.057	807.25
301.288	825.25
301.518	802.25
301.748	829.25
301.979	827.25
302.209	838.25
302.439	806.25
302.669	825.25
302.9	814.25
303.13	811.25
303.36	798.25
303.59	820.25
303.82	802.25
304.051	815.25
304.281	818.25
304.511	776.25
304.741	810.25
304.971	804.25
305.201	807.25
305.431	797.25
305.661	788.25
305.891	776.25
306.121	791.25
306.352	790.25
306.582	788.25
306.812	778.25
307.042	790.25
307.272	793.25
307.502	773.25
307.731	809.25
307.961	771.25
308.191	786.25
308.421	763.25
308.651	774.25
308.881	772.25
309.111	781.25
309.341	782.25
309.571	789.25
309.8	796.25
310.03	778.25
310.26	771.25
310.49	792.25
310.72	800.25
310.949	787.25
311.179	778.25
311.409	807.25
311.639	772.25
311.868	809.25
312.098	826.25
312.328	797.25
312.557	807.25
312.787	816.25
313.017	820.25
313.246	831.25
313.476	824.25
313.706	831.25
313.935	854.25
314.165	878.25
314.394	850.25
314.624	852.25
314.853	828.25
315.083	821.25
315.312	863.25
315.542	845.25
315.771	828.25
316.001	829.25
316.23	818.25
316.46	820.25
316.689	813.25
316.919	820.25
317.148	813.25
317.377	806.25
317.607	811.25
317.836	812.25
318.065	811.25
318.295	820.25
318.524	837.25
318.753	821.25
318.983	825.25
319.212	814.25
319.441	826.25
319.67	816.25
319.9	830.25
320.129	811.25
320.358	833.25
320.587	828.25
320.816	840.25
321.046	855.25
321.275	843.25
321.504	822.25
321.733	844.25
321.962	833.25
322.191	852.25
322.42	839.25
322.649	826.25
322.878	837.25
323.108	820.25
323.337	873.25
323.566	864.25
323.795	853.25
324.024	850.25
324.253	870.25
324.482	854.25
324.71	842.25
324.939	886.25
325.168	883.25
325.397	848.25
325.626	873.25
325.855	844.25
326.084	867.25
326.313	927.25
326.542	891.25
326.77	875.25
326.999	884.25
327.228	912.25
327.457	868.25
327.686	896.25
327.914	886.25
328.143	898.25
328.372	907.25
328.6	906.25
328.829	918.25
329.058	920.25
329.287	905.25
329.515	937.25
329.744	910.25
329.972	956.25
330.201	942.25
330.43	915.25
330.658	937.25
330.887	934.25
331.115	944.25
331.344	949.25
331.572	961.25
331.801	969.25
332.03	992.25
332.258	994.25
332.486	1001.25
332.715	1050.25
332.943	1112.25
333.172	1133.25
333.4	1188.25
333.629	1216.25
333.857	1213.25
334.085	1229.25
334.314	1232.25
334.542	1223.25
334.771	1218.25
334.999	1192.25
335.227	1186.25
335.455	1146.25
335.684	1143.25
335.912	1136.25
336.14	1110.25
336.369	1117.25
336.597	1123.25
336.825	1113.25
337.053	1131.25
337.281	1098.25
337.51	1046.25
337.738	1060.25
337.966	1046.25
338.194	1000.25
338.422	1037.25
338.65	994.25
338.878	988.25
339.106	998.25
339.334	1027.25
339.562	996.25
339.79	949.25
340.018	954.25
340.246	943.25
340.474	918.25
340.702	976.25
340.93	970.25
341.158	951.25
341.386	963.25
341.614	978.25
341.842	960.25
342.07	931.25
342.298	948.25
342.526	937.25
342.754	965.25
342.981	976.25
343.209	974.25
343.437	1009.25
343.665	1070.25
343.893	1110.25
344.12	1156.25
344.348	1174.25
344.576	1084.25
344.804	1114.25
345.031	1025.25
345.259	972.25
345.487	973.25
345.714	952.25
345.942	952.25
346.17	967.25
346.397	919.25
346.625	911.25
346.853	907.25
347.08	912.25
347.308	902.25
347.535	910.25
347.763	924.25
347.99	908.25
348.218	920.25
348.445	911.25
348.673	910.25
348.9	893.25
349.128	909.25
349.355	892.25
349.583	892.25
349.81	905.25
350.037	900.25
350.265	854.25
350.492	898.25
350.72	884.25
350.947	858.25
351.174	869.25
351.402	905.25
351.629	890.25
351.856	890.25
352.083	879.25
352.311	880.25
352.538	889.25
352.765	900.25
352.992	860.25
353.22	863.25
353.447	892.25
353.674	860.25
353.901	871.25
354.128	868.25
354.355	832.25
354.583	848.25
354.81	861.25
355.037	875.25
355.264	872.25
355.491	890.25
355.718	883.25
355.945	866.25
356.172	876.25
356.399	885.25
356.626	876.25
356.853	877.25
357.08	870.25
357.307	918.25
357.534	898.25
357.761	888.25
357.988	875.25
358.215	872.25
358.441	860.25
358.668	861.25
358.895	863.25
359.122	872.25
359.349	893.25
359.576	874.25
359.802	860.25
360.029	892.25
360.256	905.25
360.483	884.25
360.709	881.25
360.936	884.25
361.163	912.25
361.39	896.25
361.616	882.25
361.843	863.25
362.07	892.25
362.296	906.25
362.523	899.25
362.749	858.25
362.976	899.25
363.203	864.25
363.429	888.25
363.656	885.25
363.882	888.25
364.109	851.25
364.335	892.25
364.562	860.25
364.788	896.25
365.015	890.25
365.241	869.25
365.468	870.25
365.694	864.25
365.92	864.25
366.147	848.25
366.373	849.25
366.599	877.25
366.826	858.25
367.052	889.25
367.278	896.25
367.505	862.25
367.731	849.25
367.957	870.25
368.184	858.25
368.41	874.25
368.636	868.25
368.862	903.25
369.089	878.25
369.315	906.25
369.541	916.25
369.767	894.25
369.993	918.25
370.219	882.25
370.445	911.25
370.672	901.25
370.898	942.25
371.124	941.25
371.35	964.25
371.576	954.25
371.802	948.25
372.028	924.25
372.254	923.25
372.48	956.25
372.706	1006.25
372.932	973.25
373.158	1001.25
373.384	1011.25
373.61	950.25
373.835	975.25
374.061	964.25
374.287	972.25
374.513	1021.25
374.739	1028.25
374.965	1069.25
375.191	1096.25
375.416	1097.25
375.642	1037.25
375.868	1013.25
376.094	1022.25
376.319	972.25
376.545	949.25
376.771	938.25
376.997	974.25
377.222	949.25
377.448	964.25
377.674	960.25
377.899	976.25
378.125	953.25
378.35	937.25
378.576	948.25
378.802	944.25
379.027	932.25
379.253	940.25
379.478	948.25
379.704	924.25
379.929	948.25
380.155	950.25
380.38	970.25
380.606	949.25
380.831	959.25
381.057	955.25
381.282	953.25
381.507	957.25
381.733	969.25
381.958	962.25
382.184	976.25
382.409	980.25
382.634	1014.25
382.86	953.25
383.085	984.25
383.31	1019.25
383.535	1011.25
383.761	1032.25
383.986	1075.25
384.211	1072.25
384.436	1125.25
384.662	1133.25
384.887	1123.25
385.112	1138.25
385.337	1161.25
385.562	1161.25
385.787	1165.25
386.013	1203.25
386.238	1161.25
386.463	1164.25
386.688	1213.25
386.913	1171.25
387.138	1198.25
387.363	1208.25
387.588	1165.25
387.813	1164.25
388.038	1152.25
388.263	1176.25
388.488	1148.25
388.713	1167.25
388.938	1156.25
389.163	1116.25
389.387	1158.25
389.612	1116.25
389.837	1130.25
390.062	1144.25
390.287	1132.25
390.512	1144.25
390.736	1189.25
390.961	1195.25
391.186	1230.25
391.411	1229.25
391.636	1245.25
391.86	1288.25
392.085	1334.25
392.31	1332.25
392.534	1309.25
392.759	1300.25
392.984	1256.25
393.208	1223.25
393.433	1265.25
393.658	1241.25
393.882	1234.25
394.107	1233.25
394.331	1239.25
394.556	1262.25
394.78	1292.25
395.005	1307.25
395.229	1274.25
395.454	1312.25
395.678	1328.25
395.903	1352.25
396.127	1350.25
396.352	1307.25
396.576	1246.25
396.801	1250.25
397.025	1302.25
397.249	1295.25
397.474	1332.25
397.698	1364.25
397.922	1363.25
398.147	1394.25
398.371	1346.25
398.595	1429.25
398.82	1478.25
399.044	1585.25
399.268	1764.25
399.492	1920.25
399.717	2203.25
399.941	2249.25
400.165	2067.25
400.389	1916.25
400.613	1744.25
400.837	1667.25
401.062	1570.25
401.286	1550.25
401.51	1562.25
401.734	1534.25
401.958	1515.25
402.182	1539.25
402.406	1573.25
402.63	1565.25
402.854	1611.25
403.078	1609.25
403.302	1633.25
403.526	1641.25
403.75	1665.25
403.974	1724.25
404.198	1694.25
404.422	1708.25
404.645	1726.25
404.869	1694.25
405.093	1681.25
405.317	1634.25
405.541	1648.25
405.765	1674.25
405.988	1664.25
406.212	1640.25
406.436	1651.25
406.66	1741.25
406.883	1728.25
407.107	1844.25
407.331	1865.25
407.555	1981.25
407.778	1937.25
408.002	1908.25
408.226	1895.25
408.449	1816.25
408.673	1714.25
408.896	1674.25
409.12	1685.25
409.344	1675.25
409.567	1705.25
409.791	1732.25
410.014	1712.25
410.238	1659.25
410.461	1650.25
410.685	1625.25
410.908	1576.25
411.132	1610.25
411.355	1570.25
411.578	1579.25
411.802	1526.25
412.025	1548.25
412.249	1578.25
412.472	1597.25
412.695	1559.25
412.919	1520.25
413.142	1533.25
413.365	1521.25
413.589	1538.25
413.812	1485.25
414.035	1471.25
414.258	1492.25
414.482	1495.25
414.705	1505.25
414.928	1539.25
415.151	1539.25
415.374	1471.25
415.597	1488.25
415.821	1468.25
416.044	1454.25
416.267	1432.25
416.49	1463.25
416.713	1448.25
416.936	1464.25
417.159	1428.25
417.382	1466.25
417.605	1414.25
417.828	1486.25
418.051	1466.25
418.274	1501.25
418.497	1479.25
418.72	1516.25
418.943	1511.25
419.166	1618.25
419.389	1715.25
419.611	1681.25
419.834	1606.25
420.057	1547.25
420.28	1500.25
420.503	1481.25
420.726	1468.25
420.948	1441.25
421.171	1469.25
421.394	1481.25
421.617	1427.25
421.839	1478.25
422.062	1472.25
422.285	1442.25
422.507	1515.25
422.73	1493.25
422.953	1469.25
423.175	1485.25
423.398	1556.25
423.621	1485.25
423.843	1541.25
424.066	1532.25
424.288	1508.25
424.511	1523.25
424.733	1520.25
424.956	1525.25
425.178	1477.25
425.401	1476.25
425.623	1470.25
425.846	1460.25
426.068	1424.25
426.291	1424.25
426.513	1414.25
426.735	1388.25
426.958	1419.25
427.18	1387.25
427.402	1367.25
427.625	1370.25
427.847	1324.25
428.069	1296.25
428.292	1300.25
428.514	1314.25
428.736	1283.25
428.958	1307.25
429.181	1265.25
429.403	1248.25
429.625	1254.25
429.847	1280.25
430.069	1266.25
430.292	1298.25
430.514	1253.25
430.736	1286.25
430.958	1270.25
431.18	1254.25
431.402	1304.25
431.624	1292.25
431.846	1301.25
432.068	1313.25
432.29	1317.25
432.512	1272.25
432.734	1328.25
432.956	1300.25
433.178	1270.25
433.4	1278.25
433.622	1312.25
433.844	1316.25
434.066	1322.25
434.287	1336.25
434.509	1362.25
434.731	1394.25
434.953	1450.25
435.175	1464.25
435.397	1448.25
435.618	1383.25
435.84	1360.25
436.062	1321.25
436.284	1310.25
436.505	1273.25
436.727	1298.25
436.949	1315.25
437.17	1322.25
437.392	1278.25
437.614	1261.25
437.835	1227.25
438.057	1236.25
438.278	1208.25
438.5	1243.25
438.721	1236.25
438.943	1262.25
439.165	1237.25
439.386	1241.25
439.608	1266.25
439.829	1299.25
440.05	1293.25
440.272	1299.25
440.493	1319.25
440.715	1342.25
440.936	1326.25
441.158	1368.25
441.379	1435.25
441.6	1449.25
441.822	1468.25
442.043	1458.25
442.264	1441.25
442.486	1418.25
442.707	1436.25
442.928	1406.25
443.149	1434.25
443.371	1410.25
443.592	1440.25
443.813	1464.25
444.034	1482.25
444.255	1440.25
444.476	1586.25
444.698	1641.25
444.919	1694.25
445.14	1796.25
445.361	1610.25
445.582	1550.25
445.803	1412.25
446.024	1397.25
446.245	1368.25
446.466	1386.25
446.687	1295.25
446.908	1297.25
447.129	1260.25
447.35	1238.25
447.571	1226.25
447.792	1234.25
448.013	1230.25
448.234	1202.25
448.455	1206.25
448.675	1179.25
448.896	1172.25
449.117	1158.25
449.338	1162.25
449.559	1180.25
449.779	1150.25
450	1157.25
450.221	1167.25
450.442	1168.25
450.662	1175.25
450.883	1185.25
451.104	1192.25
451.324	1198.25
451.545	1188.25
451.766	1184.25
451.986	1174.25
452.207	1146.25
452.428	1161.25
452.648	1158.25
452.869	1132.25
453.089	1123.25
453.31	1146.25
453.53	1131.25
453.751	1127.25
453.971	1115.25
454.192	1096.25
454.412	1075.25
454.633	1078.25
454.853	1124.25
455.073	1090.25
455.294	1121.25
455.514	1101.25
455.734	1102.25
455.955	1074.25
456.175	1101.25
456.395	1076.25
456.616	1040.25
456.836	1085.25
457.056	1091.25
457.276	1066.25
457.497	1123.25
457.717	1088.25
457.937	1116.25
458.157	1107.25
458.377	1134.25
458.598	1152.25
458.818	1188.25
459.038	1263.25
459.258	1269.25
459.478	1318.25
459.698	1356.25
459.918	1392.25
460.138	1412.25
460.358	1504.25
460.578	1529.25
460.798	1506.25
461.018	1556.25
461.238	1534.25
461.458	1558.25
461.678	1578.25
461.898	1575.25
462.118	1550.25
462.338	1636.25
462.558	1729.25
462.777	1748.25
462.997	1897.25
463.217	2016.25
463.437	2029.25
463.657	1921.25
463.876	1862.25
464.096	1860.25
464.316	1764.25
464.536	1822.25
464.755	1790.25
464.975	1710.25
465.195	1613.25
465.414	1512.25
465.634	1416.25
465.854	1385.25
466.073	1338.25
466.293	1306.25
466.512	1260.25
466.732	1261.25
466.951	1280.25
467.171	1222.25
467.391	1235.25
467.61	1215.25
467.829	1234.25
468.049	1211.25
468.268	1149.25
468.488	1161.25
468.707	1173.25
468.927	1213.25
469.146	1204.25
469.365	1212.25
469.585	1204.25
469.804	1222.25
470.023	1250.25
470.243	1237.25
470.462	1295.25
470.681	1277.25
470.901	1285.25
471.12	1283.25
471.339	1250.25
471.558	1209.25
471.777	1215.25
471.997	1228.25
472.216	1234.25
472.435	1178.25
472.654	1197.25
472.873	1177.25
473.092	1140.25
473.311	1127.25
473.53	1170.25
473.749	1147.25
473.968	1178.25
474.187	1157.25
474.406	1150.25
474.625	1159.25
474.844	1181.25
475.063	1170.25
475.282	1168.25
475.501	1136.25
475.72	1186.25
475.939	1185.25
476.158	1192.25
476.377	1204.25
476.596	1181.25
476.814	1242.25
477.033	1213.25
477.252	1232.25
477.471	1301.25
477.69	1318.25
477.908	1345.25
478.127	1370.25
478.346	1398.25
478.564	1403.25
478.783	1412.25
479.002	1442.25
479.22	1450.25
479.439	1436.25
479.658	1433.25
479.876	1445.25
480.095	1474.25
480.313	1520.25
480.532	1542.25
480.751	1571.25
480.969	1482.25
481.188	1510.25
481.406	1444.25
481.624	1400.25
481.843	1410.25
482.061	1349.25
482.28	1352.25
482.498	1330.25
482.717	1325.25
482.935	1311.25
483.153	1294.25
483.372	1332.25
483.59	1293.25
483.808	1332.25
484.027	1314.25
484.245	1349.25
484.463	1341.25
484.681	1346.25
484.9	1364.25
485.118	1382.25
485.336	1377.25
485.554	1383.25
485.772	1375.25
485.99	1417.25
486.209	1376.25
486.427	1394.25
486.645	1362.25
486.863	1394.25
487.081	1418.25
487.299	1379.25
487.517	1389.25
487.735	1394.25
487.953	1370.25
488.171	1414.25
488.389	1370.25
488.607	1384.25
488.825	1381.25
489.043	1346.25
489.261	1362.25
489.479	1373.25
489.696	1375.25
489.914	1385.25
490.132	1389.25
490.35	1419.25
490.568	1402.25
490.786	1380.25
491.003	1392.25
491.221	1408.25
491.439	1409.25
491.657	1409.25
491.874	1395.25
492.092	1423.25
492.31	1441.25
492.527	1434.25
492.745	1437.25
492.963	1436.25
493.18	1459.25
493.398	1486.25
493.615	1473.25
493.833	1430.25
494.05	1501.25
494.268	1495.25
494.485	1459.25
494.703	1492.25
494.92	1494.25
495.138	1531.25
495.355	1481.25
495.573	1524.25
495.79	1517.25
496.008	1521.25
496.225	1508.25
496.442	1548.25
496.66	1557.25
496.877	1618.25
497.094	1632.25
497.312	1678.25
497.529	1684.25
497.746	1766.25
497.963	1810.25
498.181	1906.25
498.398	1984.25
498.615	2114.25
498.832	2257.25
499.049	2394.25
499.267	2606.25
499.484	2887.25
499.701	3181.25
499.918	3508.25
500.135	3818.25
500.352	4198.25
500.569	4467.25
500.786	4370.25
501.003	4213.25
501.22	3874.25
501.437	3468.25
501.654	3157.25
501.871	2904.25
502.088	2664.25
502.305	2425.25
502.522	2260.25
502.739	2196.25
502.956	2094.25
503.172	1984.25
503.389	1932.25
503.606	1861.25
503.823	1834.25
504.04	1767.25
504.256	1773.25
504.473	1849.25
504.69	1816.25
504.907	1817.25
505.123	1672.25
505.34	1588.25
505.557	1536.25
505.773	1528.25
505.99	1472.25
506.207	1384.25
506.423	1397.25
506.64	1380.25
506.856	1350.25
507.073	1356.25
507.289	1358.25
507.506	1302.25
507.722	1340.25
507.939	1333.25
508.155	1280.25
508.372	1285.25
508.588	1212.25
508.805	1275.25
509.021	1230.25
509.238	1220.25
509.454	1245.25
509.67	1248.25
509.887	1250.25
510.103	1214.25
510.319	1196.25
510.536	1194.25
510.752	1195.25
510.968	1215.25
511.184	1197.25
511.401	1188.25
511.617	1220.25
511.833	1181.25
512.049	1209.25
512.265	1220.25
512.481	1195.25
512.698	1165.25
512.914	1202.25
513.13	1195.25
513.346	1174.25
513.562	1186.25
513.778	1216.25
513.994	1198.25
514.21	1216.25
514.426	1191.25
514.642	1218.25
514.858	1253.25
515.074	1282.25
515.29	1280.25
515.506	1285.25
515.721	1295.25
515.937	1283.25
516.153	1299.25
516.369	1376.25
516.585	1372.25
516.801	1446.25
517.016	1502.25
517.232	1575.25
517.448	1633.25
517.664	1662.25
517.879	1720.25
518.095	1728.25
518.311	1680.25
518.527	1597.25
518.742	1518.25
518.958	1454.25
519.173	1444.25
519.389	1385.25
519.605	1394.25
519.82	1334.25
520.036	1274.25
520.251	1266.25
520.467	1223.25
520.682	1212.25
520.898	1158.25
521.113	1180.25
521.329	1153.25
521.544	1151.25
521.76	1177.25
521.975	1146.25
522.19	1124.25
522.406	1138.25
522.621	1121.25
522.836	1120.25
523.052	1100.25
523.267	1140.25
523.482	1112.25
523.698	1096.25
523.913	1088.25
524.128	1085.25
524.343	1119.25
524.559	1097.25
524.774	1066.25
524.989	1067.25
525.204	1102.25
525.419	1080.25
525.634	1046.25
525.849	1087.25
526.064	1069.25
526.28	1038.25
526.495	1066.25
526.71	1056.25
526.925	1076.25
527.14	1084.25
527.355	1065.25
527.57	1046.25
527.785	1098.25
527.999	1084.25
528.214	1044.25
528.429	1051.25
528.644	1068.25
528.859	1052.25
529.074	1060.25
529.289	1084.25
529.503	1067.25
529.718	1053.25
529.933	1066.25
530.148	1068.25
530.363	1054.25
530.577	1038.25
530.792	1026.25
531.007	1061.25
531.221	1064.25
531.436	1072.25
531.651	1036.25
531.865	1067.25
532.08	1081.25
532.295	1069.25
532.509	1077.25
532.724	1040.25
532.938	1078.25
533.153	1058.25
533.367	1039.25
533.582	1080.25
533.796	1037.25
534.011	1062.25
534.225	1068.25
534.44	1016.25
534.654	1034.25
534.868	1020.25
535.083	1059.25
535.297	1032.25
535.511	1016.25
535.726	995.25
535.94	1031.25
536.154	995.25
536.369	998.25
536.583	989.25
536.797	966.25
537.011	974.25
537.225	965.25
537.44	989.25
537.654	972.25
537.868	953.25
538.082	969.25
538.296	984.25
538.51	961.25
538.724	980.25
538.938	958.25
539.153	960.25
539.367	947.25
539.581	937.25
539.795	952.25
540.009	974.25
540.222	946.25
540.436	971.25
540.65	949.25
540.864	952.25
541.078	951.25
541.292	973.25
541.506	940.25
541.72	963.25
541.934	953.25
542.147	935.25
542.361	937.25
542.575	940.25
542.789	966.25
543.002	902.25
543.216	937.25
543.43	933.25
543.644	954.25
543.857	923.25
544.071	913.25
544.285	944.25
544.498	946.25
544.712	948.25
544.925	950.25
545.139	954.25
545.352	949.25
545.566	987.25
545.779	966.25
545.993	961.25
546.206	982.25
546.42	954.25
546.633	962.25
546.847	961.25
547.06	973.25
547.274	957.25
547.487	951.25
547.7	958.25
547.914	969.25
548.127	984.25
548.34	982.25
548.554	978.25
548.767	989.25
548.98	987.25
549.193	995.25
549.407	999.25
549.62	993.25
549.833	1011.25
550.046	980.25
550.259	989.25
550.473	985.25
550.686	983.25
550.899	950.25
551.112	951.25
551.325	964.25
551.538	974.25
551.751	954.25
551.964	950.25
552.177	998.25
552.39	991.25
552.603	1024.25
552.816	1048.25
553.029	1084.25
553.242	1077.25
553.455	1066.25
553.667	1064.25
553.88	1047.25
554.093	1024.25
554.306	1009.25
554.519	994.25
554.732	976.25
554.944	926.25
555.157	921.25
555.37	914.25
555.583	917.25
555.795	914.25
556.008	869.25
556.221	861.25
556.433	845.25
556.646	851.25
556.859	852.25
557.071	848.25
557.284	822.25
557.496	812.25
557.709	810.25
557.921	811.25
558.134	786.25
558.346	812.25
558.559	804.25
558.771	793.25
558.984	800.25
559.196	805.25
559.409	820.25
559.621	805.25
559.833	792.25
560.046	798.25
560.258	805.25
560.47	811.25
560.683	797.25
560.895	790.25
561.107	808.25
561.32	791.25
561.532	796.25
561.744	794.25
561.956	805.25
562.168	792.25
562.381	788.25
562.593	817.25
562.805	818.25
563.017	793.25
563.229	824.25
563.441	838.25
563.653	810.25
563.865	840.25
564.077	804.25
564.289	861.25
564.501	872.25
564.713	883.25
564.925	861.25
565.137	914.25
565.349	946.25
565.561	960.25
565.773	1006.25
565.985	1023.25
566.197	1086.25
566.408	1161.25
566.62	1216.25
566.832	1301.25
567.044	1332.25
567.255	1360.25
567.467	1401.25
567.679	1468.25
567.891	1521.25
568.102	1498.25
568.314	1432.25
568.526	1336.25
568.737	1209.25
568.949	1161.25
569.161	1069.25
569.372	997.25
569.584	958.25
569.795	899.25
570.007	878.25
570.218	851.25
570.43	850.25
570.641	840.25
570.853	845.25
571.064	837.25
571.276	832.25
571.487	834.25
571.698	777.25
571.91	756.25
572.121	740.25
572.333	723.25
572.544	706.25
572.755	710.25
572.966	698.25
573.178	686.25
573.389	672.25
573.6	667.25
573.811	666.25
574.023	636.25
574.234	666.25
574.445	660.25
574.656	666.25
574.867	645.25
575.078	652.25
575.289	666.25
575.501	641.25
575.712	622.25
575.923	626.25
576.134	632.25
576.345	634.25
576.556	632.25
576.767	606.25
576.978	608.25
577.188	617.25
577.399	618.25
577.61	617.25
577.821	594.25
578.032	614.25
578.243	592.25
578.454	566.25
578.665	576.25
578.875	584.25
579.086	568.25
579.297	593.25
579.508	569.25
579.718	571.25
579.929	553.25
580.14	567.25
580.35	554.25
580.561	565.25
580.772	565.25
580.982	565.25
581.193	542.25
581.403	567.25
581.614	544.25
581.825	557.25
582.035	572.25
582.246	536.25
582.456	556.25
582.667	544.25
582.877	551.25
583.087	536.25
583.298	549.25
583.508	512.25
583.719	535.25
583.929	548.25
584.139	546.25
584.35	515.25
584.56	527.25
584.77	536.25
584.981	519.25
585.191	525.25
585.401	547.25
585.611	516.25
585.821	530.25
586.032	516.25
586.242	535.25
586.452	529.25
586.662	529.25
586.872	513.25
587.082	533.25
587.292	533.25
587.502	522.25
587.713	524.25
587.923	524.25
588.133	526.25
588.343	536.25
588.553	512.25
588.762	531.25
588.972	509.25
589.182	547.25
589.392	550.25
589.602	522.25
589.812	541.25
590.022	530.25
590.232	513.25
590.441	514.25
590.651	529.25
590.861	525.25
591.071	553.25
591.281	547.25
591.49	563.25
591.7	572.25
591.91	574.25
592.119	576.25
592.329	574.25
592.539	619.25
592.748	601.25
592.958	609.25
593.167	625.25
593.377	653.25
593.587	670.25
593.796	690.25
594.006	701.25
594.215	662.25
594.424	644.25
594.634	636.25
594.843	645.25
595.053	633.25
595.262	603.25
595.472	573.25
595.681	570.25
595.89	555.25
596.1	533.25
596.309	526.25
596.518	496.25
596.727	503.25
596.937	510.25
597.146	489.25
597.355	485.25
597.564	458.25
597.774	453.25
597.983	447.25
598.192	455.25
598.401	481.25
598.61	441.25
598.819	453.25
599.028	453.25
599.237	455.25
599.446	440.25
599.655	421.25
599.864	424.25
600.073	412.25
600.282	423.25
600.491	422.25
600.7	432.25
600.909	415.25
601.118	410.25
601.327	414.25
601.536	392.25
601.745	411.25
601.953	423.25
602.162	418.25
602.371	405.25
602.58	404.25
602.789	406.25
602.997	415.25
603.206	430.25
603.415	404.25
603.623	411.25
603.832	430.25
604.041	412.25
604.249	379.25
604.458	405.25
604.666	373.25
604.875	397.25
605.084	384.25
605.292	408.25
605.501	386.25
605.709	399.25
605.918	377.25
606.126	387.25
606.334	393.25
606.543	388.25
606.751	389.25
606.96	378.25
607.168	392.25
607.376	385.25
607.585	379.25
607.793	393.25
608.001	370.25
608.21	377.25
608.418	380.25
608.626	376.25
608.834	381.25
609.043	379.25
609.251	380.25
609.459	391.25
609.667	358.25
609.875	353.25
610.083	377.25
610.291	364.25
610.499	385.25
610.707	383.25
610.916	364.25
611.124	367.25
611.332	366.25
611.54	379.25
611.748	365.25
611.955	356.25
612.163	342.25
612.371	385.25
612.579	385.25
612.787	360.25
612.995	371.25
613.203	360.25
613.411	365.25
613.618	350.25
613.826	365.25
614.034	355.25
614.242	349.25
614.449	354.25
614.657	364.25
614.865	355.25
615.072	357.25
615.28	347.25
615.488	351.25
615.695	345.25
615.903	376.25
616.111	356.25
616.318	364.25
616.526	372.25
616.733	363.25
616.941	365.25
617.148	368.25
617.356	346.25
617.563	336.25
617.771	364.25
617.978	344.25
618.185	368.25
618.393	338.25
618.6	360.25
618.807	366.25
619.015	341.25
619.222	341.25
619.429	335.25
619.637	332.25
619.844	344.25
620.051	332.25
620.258	336.25
620.466	341.25
620.673	337.25
620.88	340.25
621.087	346.25
621.294	334.25
621.501	328.25
621.708	336.25
621.915	330.25
622.122	334.25
622.329	353.25
622.536	349.25
622.743	326.25
622.95	342.25
623.157	314.25
623.364	312.25
623.571	329.25
623.778	320.25
623.985	337.25
624.192	315.25
624.399	315.25
624.606	317.25
624.812	309.25
625.019	316.25
625.226	314.25
625.433	317.25
625.639	320.25
625.846	317.25
626.053	313.25
626.259	310.25
626.466	320.25
626.673	314.25
626.879	287.25
627.086	296.25
627.293	300.25
627.499	304.25
627.706	307.25
627.912	295.25
628.119	282.25
628.325	297.25
628.532	280.25
628.738	292.25
628.945	298.25
629.151	286.25
629.357	280.25
629.564	295.25
629.77	302.25
629.976	286.25
630.183	275.25
630.389	295.25
630.595	285.25
630.802	300.25
631.008	278.25
631.214	277.25
631.42	264.25
631.627	277.25
631.833	275.25
632.039	288.25
632.245	284.25
632.451	280.25
632.657	253.25
632.863	269.25
633.069	274.25
633.275	280.25
633.481	256.25
633.688	265.25
633.893	281.25
634.099	267.25
634.305	273.25
634.511	257.25
634.717	258.25
634.923	266.25
635.129	260.25
635.335	231.25
635.541	244.25
635.747	256.25
635.952	257.25
636.158	259.25
636.364	262.25
636.57	261.25
636.775	262.25
636.981	257.25
637.187	243.25
637.392	274.25
637.598	271.25
637.804	245.25
638.009	241.25
638.215	264.25
638.421	246.25
638.626	271.25
638.832	238.25
639.037	234.25
639.243	256.25
639.448	254.25
639.654	262.25
639.859	252.25
640.065	241.25
640.27	251.25
640.475	232.25
640.681	240.25
640.886	244.25
641.091	270.25
641.297	254.25
641.502	240.25
641.707	226.25
641.913	249.25
642.118	237.25
642.323	256.25
642.528	226.25
642.733	210.25
642.939	220.25
643.144	217.25
643.349	237.25
643.554	235.25
643.759	228.25
643.964	238.25
644.169	230.25
644.374	236.25
644.579	244.25
644.784	224.25
644.989	230.25
645.194	240.25
645.399	261.25
645.604	219.25
645.809	223.25
646.014	218.25
646.219	224.25
646.423	233.25
646.628	236.25
646.833	251.25
647.038	224.25
647.243	222.25
647.447	237.25
647.652	231.25
647.857	232.25
648.062	240.25
648.266	240.25
648.471	254.25
648.676	238.25
648.88	240.25
649.085	220.25
649.289	225.25
649.494	223.25
649.698	217.25
649.903	216.25
650.107	206.25
650.312	196.25
650.516	201.25
650.721	207.25
650.925	218.25
651.13	210.25
651.334	199.25
651.539	179.25
651.743	198.25
651.947	197.25
652.152	185.25
652.356	203.25
652.56	193.25
652.764	182.25
652.969	192.25
653.173	184.25
653.377	176.25
653.581	179.25
653.785	183.25
653.99	171.25
654.194	165.25
654.398	164.25
654.602	185.25
654.806	150.25
655.01	177.25
655.214	160.25
655.418	159.25
655.622	155.25
655.826	148.25
656.03	167.25
656.234	151.25
656.438	161.25
656.642	148.25
656.846	153.25
657.049	150.25
657.253	132.25
657.457	134.25
657.661	130.25
657.865	142.25
658.068	131.25
658.272	132.25
658.476	130.25
658.68	115.25
658.883	116.25
659.087	100.25
659.291	103.25
659.494	103.25
659.698	98.25
659.901	118.25
660.105	92.25
660.309	93.25
660.512	122.25
660.716	109.25
660.919	88.25
661.123	100.25
661.326	99.25
661.53	85.25
661.733	88.25
661.936	93.25
662.14	89.25
662.343	107.25
662.546	82.25
662.75	77.25
662.953	98.25
663.156	83.25
663.36	91.25
663.563	91.25
663.766	64.25
663.969	86.25
664.173	88.25
664.376	69.25
664.579	78.25
664.782	77.25
664.985	84.25
665.188	86.25
665.391	84.25
665.594	97.25
665.797	84.25
666	77.25
666.203	72.25
666.406	77.25
666.609	84.25
666.812	73.25
667.015	74.25
667.218	88.25
667.421	85.25
667.624	83.25
667.827	87.25
668.03	94.25
668.232	88.25
668.435	87.25
668.638	67.25
668.841	73.25
669.043	77.25
669.246	75.25
669.449	82.25
669.651	84.25
669.854	86.25
670.057	69.25
670.259	80.25
670.462	73.25
670.665	82.25
670.867	73.25
671.07	84.25
671.272	93.25
671.475	85.25
671.677	76.25
671.88	81.25
672.082	81.25
672.284	80.25
672.487	66.25
672.689	72.25
672.892	88.25
