Data from NiCl2@0.0625M.TitratingCurve.Agarose3%dH2O.NegLispCup.LampEnergy10.LIBS07252019_HRD10591_18-34-29-576.txt Node
Date: Thu Jul 25 18:34:29 EDT 2019
User: cochatt
Spectrometer: HR+D1059
Trigger mode: 1
Integration Time (sec): 1.000000E-1
Scans to average: 1
Electric dark correction enabled: true
Nonlinearity correction enabled: false
Boxcar width: 0
XAxis mode: Wavelengths
Number of Pixels in Spectrum: 2048
>>>>>Begin Spectral Data<<<<<
223.165	-13.25
223.4	-13.25
223.635	-13.25
223.869	-26.25
224.104	5.75
224.338	-21.25
224.573	-9.25
224.808	-9.25
225.042	-11.25
225.277	-15.25
225.511	-3.25
225.746	6.75
225.98	24.75
226.215	14.75
226.449	4.75
226.683	18.75
226.918	13.75
227.152	19.75
227.387	27.75
227.621	29.75
227.856	47.75
228.09	55.75
228.324	46.75
228.559	54.75
228.793	84.75
229.027	133.75
229.262	155.75
229.496	146.75
229.73	151.75
229.964	182.75
230.199	147.75
230.433	175.75
230.667	172.75
230.901	168.75
231.136	182.75
231.37	174.75
231.604	188.75
231.838	202.75
232.072	190.75
232.306	200.75
232.541	211.75
232.775	191.75
233.009	211.75
233.243	200.75
233.477	188.75
233.711	206.75
233.945	209.75
234.179	209.75
234.413	207.75
234.647	209.75
234.881	207.75
235.115	225.75
235.349	219.75
235.583	210.75
235.817	217.75
236.051	222.75
236.285	206.75
236.519	221.75
236.753	216.75
236.987	222.75
237.221	217.75
237.455	204.75
237.689	221.75
237.922	240.75
238.156	238.75
238.39	236.75
238.624	247.75
238.858	237.75
239.091	248.75
239.325	245.75
239.559	259.75
239.793	274.75
240.027	257.75
240.26	237.75
240.494	271.75
240.728	267.75
240.961	255.75
241.195	269.75
241.429	279.75
241.662	291.75
241.896	270.75
242.13	296.75
242.363	288.75
242.597	292.75
242.83	300.75
243.064	271.75
243.298	280.75
243.531	307.75
243.765	307.75
243.998	302.75
244.232	302.75
244.465	315.75
244.699	316.75
244.932	321.75
245.166	326.75
245.399	332.75
245.633	322.75
245.866	344.75
246.099	320.75
246.333	332.75
246.566	339.75
246.8	340.75
247.033	365.75
247.266	355.75
247.5	351.75
247.733	356.75
247.966	344.75
248.2	351.75
248.433	378.75
248.666	362.75
248.899	400.75
249.133	369.75
249.366	375.75
249.599	366.75
249.832	389.75
250.066	385.75
250.299	395.75
250.532	399.75
250.765	377.75
250.998	389.75
251.231	394.75
251.465	403.75
251.698	405.75
251.931	391.75
252.164	395.75
252.397	405.75
252.63	404.75
252.863	410.75
253.096	434.75
253.329	416.75
253.562	427.75
253.795	417.75
254.028	431.75
254.261	449.75
254.494	454.75
254.727	435.75
254.96	438.75
255.193	444.75
255.426	437.75
255.659	439.75
255.892	445.75
256.124	427.75
256.357	453.75
256.59	452.75
256.823	471.75
257.056	467.75
257.289	466.75
257.521	457.75
257.754	455.75
257.987	478.75
258.22	467.75
258.452	489.75
258.685	484.75
258.918	461.75
259.151	483.75
259.383	495.75
259.616	466.75
259.849	492.75
260.081	506.75
260.314	486.75
260.547	513.75
260.779	505.75
261.012	496.75
261.244	501.75
261.477	528.75
261.71	534.75
261.942	516.75
262.175	530.75
262.407	522.75
262.64	537.75
262.872	523.75
263.105	522.75
263.337	531.75
263.57	561.75
263.802	544.75
264.035	549.75
264.267	520.75
264.499	533.75
264.732	545.75
264.964	543.75
265.197	521.75
265.429	573.75
265.661	560.75
265.894	574.75
266.126	568.75
266.358	572.75
266.591	563.75
266.823	580.75
267.055	585.75
267.287	570.75
267.52	563.75
267.752	546.75
267.984	577.75
268.216	613.75
268.448	601.75
268.681	579.75
268.913	591.75
269.145	599.75
269.377	605.75
269.609	602.75
269.841	614.75
270.073	611.75
270.306	608.75
270.538	606.75
270.77	626.75
271.002	625.75
271.234	612.75
271.466	623.75
271.698	626.75
271.93	613.75
272.162	619.75
272.394	636.75
272.626	646.75
272.858	626.75
273.09	633.75
273.322	633.75
273.553	646.75
273.785	647.75
274.017	648.75
274.249	680.75
274.481	654.75
274.713	658.75
274.945	677.75
275.176	657.75
275.408	686.75
275.64	679.75
275.872	669.75
276.104	677.75
276.335	681.75
276.567	673.75
276.799	670.75
277.031	684.75
277.262	690.75
277.494	669.75
277.726	699.75
277.957	721.75
278.189	709.75
278.421	714.75
278.652	730.75
278.884	711.75
279.115	730.75
279.347	729.75
279.579	748.75
279.81	739.75
280.042	744.75
280.273	747.75
280.505	715.75
280.736	750.75
280.968	737.75
281.199	741.75
281.431	763.75
281.662	755.75
281.894	753.75
282.125	789.75
282.356	753.75
282.588	765.75
282.819	781.75
283.051	774.75
283.282	789.75
283.513	786.75
283.745	781.75
283.976	788.75
284.207	784.75
284.439	815.75
284.67	789.75
284.901	799.75
285.132	812.75
285.364	803.75
285.595	838.75
285.826	811.75
286.057	805.75
286.288	823.75
286.52	801.75
286.751	809.75
286.982	835.75
287.213	800.75
287.444	837.75
287.675	835.75
287.906	835.75
288.138	853.75
288.369	855.75
288.6	831.75
288.831	839.75
289.062	854.75
289.293	840.75
289.524	855.75
289.755	863.75
289.986	855.75
290.217	852.75
290.448	878.75
290.679	845.75
290.91	839.75
291.141	862.75
291.371	866.75
291.602	853.75
291.833	871.75
292.064	851.75
292.295	869.75
292.526	876.75
292.757	855.75
292.987	848.75
293.218	853.75
293.449	894.75
293.68	903.75
293.91	842.75
294.141	888.75
294.372	855.75
294.603	874.75
294.833	858.75
295.064	891.75
295.295	869.75
295.525	880.75
295.756	906.75
295.987	877.75
296.217	881.75
296.448	877.75
296.679	890.75
296.909	889.75
297.14	877.75
297.37	905.75
297.601	916.75
297.831	924.75
298.062	914.75
298.292	925.75
298.523	952.75
298.753	955.75
298.984	923.75
299.214	966.75
299.445	917.75
299.675	906.75
299.905	919.75
300.136	947.75
300.366	923.75
300.597	941.75
300.827	955.75
301.057	977.75
301.288	980.75
301.518	980.75
301.748	971.75
301.979	989.75
302.209	989.75
302.439	1016.75
302.669	1001.75
302.9	987.75
303.13	957.75
303.36	986.75
303.59	994.75
303.82	975.75
304.051	999.75
304.281	991.75
304.511	981.75
304.741	963.75
304.971	986.75
305.201	976.75
305.431	998.75
305.661	974.75
305.891	958.75
306.121	972.75
306.352	975.75
306.582	953.75
306.812	966.75
307.042	969.75
307.272	960.75
307.502	981.75
307.731	963.75
307.961	967.75
308.191	967.75
308.421	969.75
308.651	982.75
308.881	970.75
309.111	972.75
309.341	983.75
309.571	986.75
309.8	1003.75
310.03	984.75
310.26	982.75
310.49	963.75
310.72	968.75
310.949	946.75
311.179	973.75
311.409	987.75
311.639	1013.75
311.868	1014.75
312.098	996.75
312.328	992.75
312.557	1027.75
312.787	1025.75
313.017	1009.75
313.246	1021.75
313.476	1025.75
313.706	1035.75
313.935	1021.75
314.165	1033.75
314.394	1069.75
314.624	1055.75
314.853	1034.75
315.083	1048.75
315.312	1079.75
315.542	1013.75
315.771	1049.75
316.001	1040.75
316.23	1039.75
316.46	1042.75
316.689	1048.75
316.919	1037.75
317.148	1035.75
317.377	1030.75
317.607	1037.75
317.836	1032.75
318.065	1010.75
318.295	1043.75
318.524	1023.75
318.753	1048.75
318.983	1035.75
319.212	1027.75
319.441	1032.75
319.67	1045.75
319.9	1033.75
320.129	1017.75
320.358	1023.75
320.587	1049.75
320.816	1054.75
321.046	1049.75
321.275	1028.75
321.504	1046.75
321.733	1036.75
321.962	1065.75
322.191	1041.75
322.42	1066.75
322.649	1067.75
322.878	1061.75
323.108	1058.75
323.337	1057.75
323.566	1049.75
323.795	1093.75
324.024	1073.75
324.253	1079.75
324.482	1063.75
324.71	1096.75
324.939	1085.75
325.168	1074.75
325.397	1086.75
325.626	1109.75
325.855	1121.75
326.084	1109.75
326.313	1128.75
326.542	1178.75
326.77	1159.75
326.999	1125.75
327.228	1103.75
327.457	1115.75
327.686	1133.75
327.914	1133.75
328.143	1115.75
328.372	1140.75
328.6	1141.75
328.829	1120.75
329.058	1126.75
329.287	1123.75
329.515	1127.75
329.744	1154.75
329.972	1166.75
330.201	1174.75
330.43	1182.75
330.658	1148.75
330.887	1149.75
331.115	1174.75
331.344	1185.75
331.572	1175.75
331.801	1198.75
332.03	1188.75
332.258	1224.75
332.486	1290.75
332.715	1294.75
332.943	1334.75
333.172	1360.75
333.4	1416.75
333.629	1438.75
333.857	1445.75
334.085	1480.75
334.314	1409.75
334.542	1449.75
334.771	1441.75
334.999	1416.75
335.227	1397.75
335.455	1410.75
335.684	1406.75
335.912	1406.75
336.14	1357.75
336.369	1374.75
336.597	1403.75
336.825	1345.75
337.053	1367.75
337.281	1364.75
337.51	1310.75
337.738	1285.75
337.966	1259.75
338.194	1289.75
338.422	1273.75
338.65	1265.75
338.878	1266.75
339.106	1240.75
339.334	1245.75
339.562	1199.75
339.79	1211.75
340.018	1203.75
340.246	1202.75
340.474	1211.75
340.702	1190.75
340.93	1227.75
341.158	1185.75
341.386	1209.75
341.614	1177.75
341.842	1170.75
342.07	1173.75
342.298	1164.75
342.526	1191.75
342.754	1148.75
342.981	1182.75
343.209	1229.75
343.437	1281.75
343.665	1318.75
343.893	1347.75
344.12	1407.75
344.348	1393.75
344.576	1335.75
344.804	1298.75
345.031	1265.75
345.259	1230.75
345.487	1213.75
345.714	1207.75
345.942	1198.75
346.17	1150.75
346.397	1173.75
346.625	1141.75
346.853	1154.75
347.08	1155.75
347.308	1146.75
347.535	1182.75
347.763	1148.75
347.99	1130.75
348.218	1124.75
348.445	1143.75
348.673	1106.75
348.9	1141.75
349.128	1115.75
349.355	1129.75
349.583	1130.75
349.81	1124.75
350.037	1096.75
350.265	1130.75
350.492	1103.75
350.72	1070.75
350.947	1116.75
351.174	1092.75
351.402	1135.75
351.629	1107.75
351.856	1088.75
352.083	1091.75
352.311	1124.75
352.538	1099.75
352.765	1100.75
352.992	1094.75
353.22	1074.75
353.447	1066.75
353.674	1104.75
353.901	1103.75
354.128	1082.75
354.355	1099.75
354.583	1077.75
354.81	1071.75
355.037	1109.75
355.264	1109.75
355.491	1093.75
355.718	1111.75
355.945	1094.75
356.172	1100.75
356.399	1100.75
356.626	1123.75
356.853	1107.75
357.08	1149.75
357.307	1119.75
357.534	1125.75
357.761	1092.75
357.988	1150.75
358.215	1063.75
358.441	1095.75
358.668	1086.75
358.895	1106.75
359.122	1081.75
359.349	1089.75
359.576	1087.75
359.802	1110.75
360.029	1092.75
360.256	1126.75
360.483	1117.75
360.709	1087.75
360.936	1118.75
361.163	1100.75
361.39	1083.75
361.616	1097.75
361.843	1116.75
362.07	1108.75
362.296	1110.75
362.523	1102.75
362.749	1114.75
362.976	1110.75
363.203	1128.75
363.429	1062.75
363.656	1115.75
363.882	1081.75
364.109	1086.75
364.335	1079.75
364.562	1118.75
364.788	1092.75
365.015	1102.75
365.241	1110.75
365.468	1090.75
365.694	1104.75
365.92	1122.75
366.147	1103.75
366.373	1136.75
366.599	1112.75
366.826	1093.75
367.052	1071.75
367.278	1102.75
367.505	1122.75
367.731	1144.75
367.957	1111.75
368.184	1113.75
368.41	1143.75
368.636	1132.75
368.862	1133.75
369.089	1134.75
369.315	1126.75
369.541	1143.75
369.767	1153.75
369.993	1142.75
370.219	1161.75
370.445	1163.75
370.672	1189.75
370.898	1161.75
371.124	1192.75
371.35	1209.75
371.576	1186.75
371.802	1203.75
372.028	1212.75
372.254	1215.75
372.48	1204.75
372.706	1225.75
372.932	1219.75
373.158	1246.75
373.384	1208.75
373.61	1182.75
373.835	1223.75
374.061	1233.75
374.287	1223.75
374.513	1244.75
374.739	1246.75
374.965	1275.75
375.191	1315.75
375.416	1277.75
375.642	1259.75
375.868	1260.75
376.094	1208.75
376.319	1234.75
376.545	1223.75
376.771	1227.75
376.997	1211.75
377.222	1211.75
377.448	1186.75
377.674	1164.75
377.899	1173.75
378.125	1184.75
378.35	1203.75
378.576	1212.75
378.802	1196.75
379.027	1180.75
379.253	1191.75
379.478	1180.75
379.704	1176.75
379.929	1198.75
380.155	1174.75
380.38	1184.75
380.606	1175.75
380.831	1147.75
381.057	1185.75
381.282	1187.75
381.507	1193.75
381.733	1207.75
381.958	1211.75
382.184	1224.75
382.409	1235.75
382.634	1239.75
382.86	1243.75
383.085	1257.75
383.31	1278.75
383.535	1274.75
383.761	1266.75
383.986	1300.75
384.211	1319.75
384.436	1354.75
384.662	1372.75
384.887	1407.75
385.112	1380.75
385.337	1390.75
385.562	1408.75
385.787	1411.75
386.013	1440.75
386.238	1419.75
386.463	1446.75
386.688	1439.75
386.913	1433.75
387.138	1409.75
387.363	1402.75
387.588	1421.75
387.813	1382.75
388.038	1407.75
388.263	1427.75
388.488	1458.75
388.713	1433.75
388.938	1422.75
389.163	1383.75
389.387	1402.75
389.612	1397.75
389.837	1409.75
390.062	1385.75
390.287	1385.75
390.512	1433.75
390.736	1422.75
390.961	1475.75
391.186	1451.75
391.411	1510.75
391.636	1540.75
391.86	1562.75
392.085	1559.75
392.31	1574.75
392.534	1551.75
392.759	1522.75
392.984	1516.75
393.208	1481.75
393.433	1546.75
393.658	1511.75
393.882	1486.75
394.107	1526.75
394.331	1534.75
394.556	1476.75
394.78	1508.75
395.005	1557.75
395.229	1520.75
395.454	1566.75
395.678	1601.75
395.903	1597.75
396.127	1569.75
396.352	1551.75
396.576	1514.75
396.801	1523.75
397.025	1546.75
397.249	1564.75
397.474	1601.75
397.698	1612.75
397.922	1631.75
398.147	1606.75
398.371	1643.75
398.595	1708.75
398.82	1764.75
399.044	1863.75
399.268	1958.75
399.492	2224.75
399.717	2446.75
399.941	2410.75
400.165	2301.75
400.389	2114.75
400.613	1982.75
400.837	1894.75
401.062	1850.75
401.286	1811.75
401.51	1803.75
401.734	1785.75
401.958	1796.75
402.182	1767.75
402.406	1832.75
402.63	1847.75
402.854	1829.75
403.078	1833.75
403.302	1865.75
403.526	1911.75
403.75	1903.75
403.974	1974.75
404.198	1911.75
404.422	1949.75
404.645	1930.75
404.869	1930.75
405.093	1940.75
405.317	1918.75
405.541	1915.75
405.765	1894.75
405.988	1897.75
406.212	1934.75
406.436	1929.75
406.66	1972.75
406.883	1976.75
407.107	2117.75
407.331	2177.75
407.555	2204.75
407.778	2234.75
408.002	2166.75
408.226	2113.75
408.449	2086.75
408.673	2044.75
408.896	1977.75
409.12	1971.75
409.344	1998.75
409.567	1969.75
409.791	1988.75
410.014	1928.75
410.238	1922.75
410.461	1929.75
410.685	1943.75
410.908	1876.75
411.132	1867.75
411.355	1859.75
411.578	1878.75
411.802	1851.75
412.025	1868.75
412.249	1878.75
412.472	1863.75
412.695	1831.75
412.919	1765.75
413.142	1780.75
413.365	1774.75
413.589	1803.75
413.812	1794.75
414.035	1744.75
414.258	1763.75
414.482	1773.75
414.705	1803.75
414.928	1773.75
415.151	1771.75
415.374	1749.75
415.597	1755.75
415.821	1713.75
416.044	1725.75
416.267	1698.75
416.49	1708.75
416.713	1712.75
416.936	1731.75
417.159	1696.75
417.382	1681.75
417.605	1678.75
417.828	1698.75
418.051	1707.75
418.274	1727.75
418.497	1719.75
418.72	1738.75
418.943	1715.75
419.166	1863.75
419.389	1948.75
419.611	1918.75
419.834	1868.75
420.057	1813.75
420.28	1752.75
420.503	1698.75
420.726	1697.75
420.948	1685.75
421.171	1643.75
421.394	1725.75
421.617	1678.75
421.839	1711.75
422.062	1692.75
422.285	1704.75
422.507	1762.75
422.73	1751.75
422.953	1735.75
423.175	1734.75
423.398	1767.75
423.621	1726.75
423.843	1767.75
424.066	1754.75
424.288	1770.75
424.511	1760.75
424.733	1711.75
424.956	1729.75
425.178	1721.75
425.401	1707.75
425.623	1721.75
425.846	1678.75
426.068	1682.75
426.291	1631.75
426.513	1591.75
426.735	1609.75
426.958	1619.75
427.18	1572.75
427.402	1597.75
427.625	1591.75
427.847	1562.75
428.069	1537.75
428.292	1590.75
428.514	1551.75
428.736	1564.75
428.958	1561.75
429.181	1512.75
429.403	1537.75
429.625	1561.75
429.847	1498.75
430.069	1518.75
430.292	1522.75
430.514	1510.75
430.736	1526.75
430.958	1551.75
431.18	1513.75
431.402	1553.75
431.624	1564.75
431.846	1542.75
432.068	1585.75
432.29	1602.75
432.512	1548.75
432.734	1558.75
432.956	1550.75
433.178	1552.75
433.4	1569.75
433.622	1609.75
433.844	1591.75
434.066	1647.75
434.287	1635.75
434.509	1646.75
434.731	1699.75
434.953	1737.75
435.175	1761.75
435.397	1719.75
435.618	1655.75
435.84	1646.75
436.062	1579.75
436.284	1587.75
436.505	1509.75
436.727	1568.75
436.949	1556.75
437.17	1540.75
437.392	1534.75
437.614	1578.75
437.835	1483.75
438.057	1510.75
438.278	1472.75
438.5	1504.75
438.721	1493.75
438.943	1477.75
439.165	1492.75
439.386	1497.75
439.608	1505.75
439.829	1541.75
440.05	1510.75
440.272	1522.75
440.493	1551.75
440.715	1565.75
440.936	1538.75
441.158	1573.75
441.379	1608.75
441.6	1684.75
441.822	1683.75
442.043	1676.75
442.264	1649.75
442.486	1600.75
442.707	1627.75
442.928	1661.75
443.149	1669.75
443.371	1632.75
443.592	1681.75
443.813	1689.75
444.034	1684.75
444.255	1711.75
444.476	1799.75
444.698	1885.75
444.919	1938.75
445.14	1933.75
445.361	1860.75
445.582	1725.75
445.803	1672.75
446.024	1599.75
446.245	1568.75
446.466	1600.75
446.687	1541.75
446.908	1558.75
447.129	1507.75
447.35	1470.75
447.571	1475.75
447.792	1397.75
448.013	1426.75
448.234	1428.75
448.455	1406.75
448.675	1417.75
448.896	1396.75
449.117	1365.75
449.338	1394.75
449.559	1381.75
449.779	1393.75
450	1381.75
450.221	1380.75
450.442	1370.75
450.662	1384.75
450.883	1378.75
451.104	1402.75
451.324	1396.75
451.545	1379.75
451.766	1391.75
451.986	1382.75
452.207	1387.75
452.428	1379.75
452.648	1334.75
452.869	1311.75
453.089	1307.75
453.31	1337.75
453.53	1313.75
453.751	1329.75
453.971	1333.75
454.192	1318.75
454.412	1300.75
454.633	1289.75
454.853	1320.75
455.073	1299.75
455.294	1305.75
455.514	1267.75
455.734	1254.75
455.955	1290.75
456.175	1283.75
456.395	1304.75
456.616	1257.75
456.836	1285.75
457.056	1305.75
457.276	1292.75
457.497	1334.75
457.717	1326.75
457.937	1343.75
458.157	1348.75
458.377	1358.75
458.598	1401.75
458.818	1445.75
459.038	1439.75
459.258	1464.75
459.478	1523.75
459.698	1570.75
459.918	1586.75
460.138	1638.75
460.358	1697.75
460.578	1710.75
460.798	1735.75
461.018	1744.75
461.238	1748.75
461.458	1752.75
461.678	1724.75
461.898	1825.75
462.118	1773.75
462.338	1818.75
462.558	1916.75
462.777	1970.75
462.997	2084.75
463.217	2211.75
463.437	2191.75
463.657	2052.75
463.876	2070.75
464.096	2026.75
464.316	2005.75
464.536	1998.75
464.755	1957.75
464.975	1865.75
465.195	1781.75
465.414	1729.75
465.634	1645.75
465.854	1571.75
466.073	1553.75
466.293	1519.75
466.512	1500.75
466.732	1488.75
466.951	1443.75
467.171	1461.75
467.391	1433.75
467.61	1401.75
467.829	1410.75
468.049	1446.75
468.268	1441.75
468.488	1386.75
468.707	1382.75
468.927	1403.75
469.146	1406.75
469.365	1446.75
469.585	1405.75
469.804	1473.75
470.023	1454.75
470.243	1458.75
470.462	1488.75
470.681	1474.75
470.901	1499.75
471.12	1491.75
471.339	1491.75
471.558	1423.75
471.777	1420.75
471.997	1418.75
472.216	1451.75
472.435	1409.75
472.654	1396.75
472.873	1393.75
473.092	1379.75
473.311	1390.75
473.53	1379.75
473.749	1359.75
473.968	1382.75
474.187	1351.75
474.406	1390.75
474.625	1419.75
474.844	1421.75
475.063	1404.75
475.282	1399.75
475.501	1399.75
475.72	1385.75
475.939	1401.75
476.158	1418.75
476.377	1491.75
476.596	1470.75
476.814	1465.75
477.033	1485.75
477.252	1524.75
477.471	1510.75
477.69	1564.75
477.908	1574.75
478.127	1620.75
478.346	1661.75
478.564	1674.75
478.783	1695.75
479.002	1750.75
479.22	1720.75
479.439	1735.75
479.658	1744.75
479.876	1749.75
480.095	1776.75
480.313	1831.75
480.532	1810.75
480.751	1812.75
480.969	1830.75
481.188	1770.75
481.406	1686.75
481.624	1722.75
481.843	1659.75
482.061	1668.75
482.28	1674.75
482.498	1682.75
482.717	1666.75
482.935	1710.75
483.153	1661.75
483.372	1713.75
483.59	1720.75
483.808	1717.75
484.027	1728.75
484.245	1742.75
484.463	1819.75
484.681	1783.75
484.9	1790.75
485.118	1830.75
485.336	1828.75
485.554	1838.75
485.772	1876.75
485.99	1855.75
486.209	1861.75
486.427	1884.75
486.645	1859.75
486.863	1861.75
487.081	1831.75
487.299	1854.75
487.517	1847.75
487.735	1816.75
487.953	1806.75
488.171	1825.75
488.389	1806.75
488.607	1798.75
488.825	1760.75
489.043	1777.75
489.261	1736.75
489.479	1766.75
489.696	1764.75
489.914	1743.75
490.132	1735.75
490.35	1767.75
490.568	1762.75
490.786	1778.75
491.003	1753.75
491.221	1777.75
491.439	1752.75
491.657	1739.75
491.874	1707.75
492.092	1736.75
492.31	1735.75
492.527	1697.75
492.745	1725.75
492.963	1766.75
493.18	1745.75
493.398	1723.75
493.615	1737.75
493.833	1767.75
494.05	1781.75
494.268	1779.75
494.485	1765.75
494.703	1769.75
494.92	1778.75
495.138	1737.75
495.355	1775.75
495.573	1798.75
495.79	1801.75
496.008	1827.75
496.225	1814.75
496.442	1814.75
496.66	1882.75
496.877	1876.75
497.094	1865.75
497.312	1938.75
497.529	1965.75
497.746	1998.75
497.963	2090.75
498.181	2170.75
498.398	2206.75
498.615	2302.75
498.832	2496.75
499.049	2622.75
499.267	2842.75
499.484	3070.75
499.701	3325.75
499.918	3613.75
500.135	4004.75
500.352	4376.75
500.569	4507.75
500.786	4503.75
501.003	4300.75
501.22	3937.75
501.437	3558.75
501.654	3190.75
501.871	3022.75
502.088	2743.75
502.305	2565.75
502.522	2432.75
502.739	2371.75
502.956	2269.75
503.172	2194.75
503.389	2129.75
503.606	2054.75
503.823	1993.75
504.04	1983.75
504.256	2006.75
504.473	2001.75
504.69	2006.75
504.907	1959.75
505.123	1871.75
505.34	1790.75
505.557	1718.75
505.773	1718.75
505.99	1662.75
506.207	1629.75
506.423	1618.75
506.64	1577.75
506.856	1579.75
507.073	1545.75
507.289	1528.75
507.506	1556.75
507.722	1482.75
507.939	1509.75
508.155	1471.75
508.372	1445.75
508.588	1446.75
508.805	1451.75
509.021	1462.75
509.238	1475.75
509.454	1439.75
509.67	1423.75
509.887	1401.75
510.103	1412.75
510.319	1404.75
510.536	1382.75
510.752	1379.75
510.968	1388.75
511.184	1390.75
511.401	1403.75
511.617	1375.75
511.833	1375.75
512.049	1387.75
512.265	1384.75
512.481	1374.75
512.698	1339.75
512.914	1348.75
513.13	1371.75
513.346	1397.75
513.562	1374.75
513.778	1417.75
513.994	1355.75
514.21	1388.75
514.426	1385.75
514.642	1413.75
514.858	1440.75
515.074	1397.75
515.29	1453.75
515.506	1466.75
515.721	1493.75
515.937	1491.75
516.153	1523.75
516.369	1556.75
516.585	1594.75
516.801	1589.75
517.016	1661.75
517.232	1742.75
517.448	1807.75
517.664	1781.75
517.879	1819.75
518.095	1795.75
518.311	1778.75
518.527	1770.75
518.742	1700.75
518.958	1630.75
519.173	1569.75
519.389	1561.75
519.605	1516.75
519.82	1465.75
520.036	1458.75
520.251	1442.75
520.467	1388.75
520.682	1367.75
520.898	1349.75
521.113	1390.75
521.329	1332.75
521.544	1358.75
521.76	1343.75
521.975	1320.75
522.19	1325.75
522.406	1306.75
522.621	1283.75
522.836	1273.75
523.052	1268.75
523.267	1267.75
523.482	1249.75
523.698	1274.75
523.913	1237.75
524.128	1274.75
524.343	1263.75
524.559	1257.75
524.774	1243.75
524.989	1281.75
525.204	1241.75
525.419	1254.75
525.634	1242.75
525.849	1227.75
526.064	1238.75
526.28	1198.75
526.495	1195.75
526.71	1240.75
526.925	1226.75
527.14	1242.75
527.355	1220.75
527.57	1263.75
527.785	1194.75
527.999	1231.75
528.214	1228.75
528.429	1220.75
528.644	1237.75
528.859	1241.75
529.074	1201.75
529.289	1211.75
529.503	1231.75
529.718	1214.75
529.933	1197.75
530.148	1223.75
530.363	1198.75
530.577	1201.75
530.792	1217.75
531.007	1229.75
531.221	1219.75
531.436	1199.75
531.651	1238.75
531.865	1195.75
532.08	1230.75
532.295	1227.75
532.509	1205.75
532.724	1243.75
532.938	1201.75
533.153	1187.75
533.367	1197.75
533.582	1194.75
533.796	1173.75
534.011	1181.75
534.225	1197.75
534.44	1158.75
534.654	1185.75
534.868	1157.75
535.083	1164.75
535.297	1176.75
535.511	1162.75
535.726	1178.75
535.94	1134.75
536.154	1143.75
536.369	1121.75
536.583	1141.75
536.797	1138.75
537.011	1131.75
537.225	1079.75
537.44	1132.75
537.654	1109.75
537.868	1104.75
538.082	1097.75
538.296	1085.75
538.51	1086.75
538.724	1110.75
538.938	1083.75
539.153	1122.75
539.367	1103.75
539.581	1116.75
539.795	1073.75
540.009	1094.75
540.222	1092.75
540.436	1076.75
540.65	1069.75
540.864	1075.75
541.078	1053.75
541.292	1087.75
541.506	1069.75
541.72	1071.75
541.934	1084.75
542.147	1060.75
542.361	1061.75
542.575	1035.75
542.789	1041.75
543.002	1037.75
543.216	1082.75
543.43	1064.75
543.644	1064.75
543.857	1064.75
544.071	1052.75
544.285	1070.75
544.498	1054.75
544.712	1061.75
544.925	1064.75
545.139	1051.75
545.352	1086.75
545.566	1093.75
545.779	1089.75
545.993	1061.75
546.206	1078.75
546.42	1093.75
546.633	1089.75
546.847	1097.75
547.06	1067.75
547.274	1071.75
547.487	1069.75
547.7	1070.75
547.914	1097.75
548.127	1098.75
548.34	1090.75
548.554	1066.75
548.767	1085.75
548.98	1088.75
549.193	1103.75
549.407	1132.75
549.62	1121.75
549.833	1134.75
550.046	1085.75
550.259	1107.75
550.473	1058.75
550.686	1085.75
550.899	1055.75
551.112	1058.75
551.325	1058.75
551.538	1095.75
551.751	1078.75
551.964	1086.75
552.177	1064.75
552.39	1075.75
552.603	1110.75
552.816	1129.75
553.029	1159.75
553.242	1128.75
553.455	1147.75
553.667	1177.75
553.88	1137.75
554.093	1109.75
554.306	1115.75
554.519	1073.75
554.732	1077.75
554.944	1043.75
555.157	1018.75
555.37	1034.75
555.583	1007.75
555.795	974.75
556.008	1010.75
556.221	1005.75
556.433	959.75
556.646	974.75
556.859	954.75
557.071	915.75
557.284	919.75
557.496	939.75
557.709	930.75
557.921	950.75
558.134	907.75
558.346	905.75
558.559	932.75
558.771	906.75
558.984	890.75
559.196	883.75
559.409	874.75
559.621	903.75
559.833	899.75
560.046	882.75
560.258	891.75
560.47	890.75
560.683	897.75
560.895	906.75
561.107	886.75
561.32	907.75
561.532	906.75
561.744	900.75
561.956	915.75
562.168	906.75
562.381	912.75
562.593	908.75
562.805	911.75
563.017	898.75
563.229	904.75
563.441	903.75
563.653	931.75
563.865	925.75
564.077	885.75
564.289	919.75
564.501	966.75
564.713	969.75
564.925	936.75
565.137	970.75
565.349	993.75
565.561	1047.75
565.773	1058.75
565.985	1105.75
566.197	1145.75
566.408	1231.75
566.62	1319.75
566.832	1335.75
567.044	1352.75
567.255	1386.75
567.467	1443.75
567.679	1466.75
567.891	1534.75
568.102	1585.75
568.314	1497.75
568.526	1381.75
568.737	1289.75
568.949	1213.75
569.161	1122.75
569.372	1056.75
569.584	1012.75
569.795	976.75
570.007	976.75
570.218	943.75
570.43	921.75
570.641	933.75
570.853	901.75
571.064	907.75
571.276	921.75
571.487	880.75
571.698	850.75
571.91	817.75
572.121	809.75
572.333	797.75
572.544	817.75
572.755	756.75
572.966	761.75
573.178	768.75
573.389	731.75
573.6	743.75
573.811	743.75
574.023	741.75
574.234	734.75
574.445	730.75
574.656	719.75
574.867	727.75
575.078	710.75
575.289	730.75
575.501	727.75
575.712	683.75
575.923	697.75
576.134	713.75
576.345	669.75
576.556	690.75
576.767	675.75
576.978	689.75
577.188	665.75
577.399	684.75
577.61	662.75
577.821	637.75
578.032	639.75
578.243	655.75
578.454	676.75
578.665	665.75
578.875	641.75
579.086	625.75
579.297	644.75
579.508	629.75
579.718	649.75
579.929	636.75
580.14	647.75
580.35	636.75
580.561	629.75
580.772	641.75
580.982	610.75
581.193	630.75
581.403	640.75
581.614	603.75
581.825	623.75
582.035	613.75
582.246	647.75
582.456	599.75
582.667	623.75
582.877	609.75
583.087	600.75
583.298	607.75
583.508	602.75
583.719	614.75
583.929	603.75
584.139	598.75
584.35	582.75
584.56	583.75
584.77	567.75
584.981	561.75
585.191	557.75
585.401	573.75
585.611	586.75
585.821	570.75
586.032	579.75
586.242	575.75
586.452	585.75
586.662	606.75
586.872	607.75
587.082	582.75
587.292	567.75
587.502	575.75
587.713	571.75
587.923	571.75
588.133	587.75
588.343	565.75
588.553	582.75
588.762	568.75
588.972	595.75
589.182	593.75
589.392	588.75
589.602	569.75
589.812	576.75
590.022	580.75
590.232	599.75
590.441	585.75
590.651	563.75
590.861	584.75
591.071	602.75
591.281	615.75
591.49	605.75
591.7	605.75
591.91	624.75
592.119	620.75
592.329	620.75
592.539	646.75
592.748	650.75
592.958	654.75
593.167	677.75
593.377	708.75
593.587	716.75
593.796	696.75
594.006	729.75
594.215	726.75
594.424	711.75
594.634	690.75
594.843	695.75
595.053	662.75
595.262	633.75
595.472	611.75
595.681	598.75
595.89	594.75
596.1	585.75
596.309	589.75
596.518	576.75
596.727	568.75
596.937	537.75
597.146	547.75
597.355	547.75
597.564	539.75
597.774	535.75
597.983	494.75
598.192	486.75
598.401	515.75
598.61	491.75
598.819	513.75
599.028	508.75
599.237	482.75
599.446	489.75
599.655	484.75
599.864	475.75
600.073	500.75
600.282	491.75
600.491	481.75
600.7	485.75
600.909	474.75
601.118	461.75
601.327	467.75
601.536	472.75
601.745	470.75
601.953	457.75
602.162	465.75
602.371	462.75
602.58	446.75
602.789	461.75
602.997	463.75
603.206	479.75
603.415	455.75
603.623	425.75
603.832	436.75
604.041	452.75
604.249	431.75
604.458	438.75
604.666	456.75
604.875	439.75
605.084	455.75
605.292	443.75
605.501	429.75
605.709	433.75
605.918	433.75
606.126	427.75
606.334	435.75
606.543	437.75
606.751	415.75
606.96	434.75
607.168	420.75
607.376	415.75
607.585	427.75
607.793	437.75
608.001	442.75
608.21	410.75
608.418	426.75
608.626	434.75
608.834	417.75
609.043	397.75
609.251	439.75
609.459	439.75
609.667	426.75
609.875	403.75
610.083	438.75
610.291	429.75
610.499	420.75
610.707	407.75
610.916	420.75
611.124	410.75
611.332	405.75
611.54	435.75
611.748	394.75
611.955	415.75
612.163	425.75
612.371	396.75
612.579	405.75
612.787	429.75
612.995	395.75
613.203	428.75
613.411	400.75
613.618	390.75
613.826	405.75
614.034	407.75
614.242	395.75
614.449	395.75
614.657	390.75
614.865	390.75
615.072	389.75
615.28	404.75
615.488	400.75
615.695	420.75
615.903	395.75
616.111	409.75
616.318	430.75
616.526	411.75
616.733	405.75
616.941	400.75
617.148	406.75
617.356	421.75
617.563	388.75
617.771	412.75
617.978	413.75
618.185	421.75
618.393	387.75
618.6	399.75
618.807	403.75
619.015	401.75
619.222	378.75
619.429	395.75
619.637	390.75
619.844	378.75
620.051	395.75
620.258	379.75
620.466	390.75
620.673	373.75
620.88	382.75
621.087	367.75
621.294	379.75
621.501	365.75
621.708	396.75
621.915	379.75
622.122	376.75
622.329	375.75
622.536	383.75
622.743	357.75
622.95	379.75
623.157	351.75
623.364	364.75
623.571	358.75
623.778	357.75
623.985	340.75
624.192	375.75
624.399	352.75
624.606	343.75
624.812	354.75
625.019	357.75
625.226	329.75
625.433	354.75
625.639	367.75
625.846	356.75
626.053	347.75
626.259	348.75
626.466	346.75
626.673	361.75
626.879	340.75
627.086	323.75
627.293	340.75
627.499	340.75
627.706	347.75
627.912	346.75
628.119	342.75
628.325	342.75
628.532	341.75
628.738	330.75
628.945	332.75
629.151	331.75
629.357	315.75
629.564	324.75
629.77	329.75
629.976	316.75
630.183	311.75
630.389	349.75
630.595	325.75
630.802	321.75
631.008	314.75
631.214	321.75
631.42	308.75
631.627	313.75
631.833	325.75
632.039	309.75
632.245	312.75
632.451	314.75
632.657	297.75
632.863	301.75
633.069	304.75
633.275	281.75
633.481	300.75
633.688	283.75
633.893	302.75
634.099	307.75
634.305	285.75
634.511	293.75
634.717	307.75
634.923	286.75
635.129	298.75
635.335	317.75
635.541	296.75
635.747	293.75
635.952	300.75
636.158	296.75
636.364	279.75
636.57	295.75
636.775	285.75
636.981	284.75
637.187	297.75
637.392	302.75
637.598	293.75
637.804	269.75
638.009	269.75
638.215	271.75
638.421	280.75
638.626	283.75
638.832	258.75
639.037	266.75
639.243	271.75
639.448	279.75
639.654	269.75
639.859	283.75
640.065	265.75
640.27	269.75
640.475	262.75
640.681	273.75
640.886	283.75
641.091	300.75
641.297	284.75
641.502	269.75
641.707	281.75
641.913	272.75
642.118	284.75
642.323	269.75
642.528	281.75
642.733	262.75
642.939	279.75
643.144	274.75
643.349	277.75
643.554	286.75
643.759	254.75
643.964	269.75
644.169	270.75
644.374	274.75
644.579	274.75
644.784	266.75
644.989	252.75
645.194	261.75
645.399	274.75
645.604	262.75
645.809	254.75
646.014	275.75
646.219	268.75
646.423	267.75
646.628	280.75
646.833	272.75
647.038	272.75
647.243	267.75
647.447	277.75
647.652	308.75
647.857	295.75
648.062	302.75
648.266	293.75
648.471	275.75
648.676	281.75
648.88	308.75
649.085	294.75
649.289	294.75
649.494	287.75
649.698	285.75
649.903	299.75
650.107	283.75
650.312	295.75
650.516	293.75
650.721	274.75
650.925	275.75
651.13	260.75
651.334	255.75
651.539	263.75
651.743	275.75
651.947	279.75
652.152	266.75
652.356	262.75
652.56	262.75
652.764	270.75
652.969	257.75
653.173	271.75
653.377	273.75
653.581	268.75
653.785	252.75
653.99	248.75
654.194	261.75
654.398	267.75
654.602	266.75
654.806	266.75
655.01	279.75
655.214	276.75
655.418	298.75
655.622	300.75
655.826	321.75
656.03	353.75
656.234	375.75
656.438	395.75
656.642	376.75
656.846	367.75
657.049	319.75
657.253	294.75
657.457	266.75
657.661	242.75
657.865	221.75
658.068	199.75
658.272	182.75
658.476	169.75
658.68	171.75
658.883	159.75
659.087	157.75
659.291	162.75
659.494	135.75
659.698	123.75
659.901	119.75
660.105	115.75
660.309	127.75
660.512	110.75
660.716	110.75
660.919	103.75
661.123	107.75
661.326	98.75
661.53	103.75
661.733	101.75
661.936	101.75
662.14	109.75
662.343	98.75
662.546	86.75
662.75	92.75
662.953	97.75
663.156	95.75
663.36	88.75
663.563	94.75
663.766	83.75
663.969	96.75
664.173	92.75
664.376	85.75
664.579	94.75
664.782	89.75
664.985	90.75
665.188	88.75
665.391	90.75
665.594	89.75
665.797	90.75
666	86.75
666.203	79.75
666.406	85.75
666.609	92.75
666.812	77.75
667.015	85.75
667.218	77.75
667.421	74.75
667.624	85.75
667.827	89.75
668.03	83.75
668.232	93.75
668.435	90.75
668.638	90.75
668.841	93.75
669.043	70.75
669.246	66.75
669.449	89.75
669.651	89.75
669.854	89.75
670.057	90.75
670.259	85.75
670.462	87.75
670.665	83.75
670.867	89.75
671.07	81.75
671.272	95.75
671.475	95.75
671.677	87.75
671.88	92.75
672.082	88.75
672.284	85.75
672.487	86.75
672.689	82.75
672.892	72.75
