Data from NiCl2@0.0625M.TitratingCurve.Agarose3%dH2O.NegLispCup.LampEnergy10.LIBS07252019_HRD10591_18-34-00-576.txt Node
Date: Thu Jul 25 18:34:00 EDT 2019
User: cochatt
Spectrometer: HR+D1059
Trigger mode: 1
Integration Time (sec): 1.000000E-1
Scans to average: 1
Electric dark correction enabled: true
Nonlinearity correction enabled: false
Boxcar width: 0
XAxis mode: Wavelengths
Number of Pixels in Spectrum: 2048
>>>>>Begin Spectral Data<<<<<
223.165	-13.62
223.4	-13.62
223.635	-13.62
223.869	-9.62
224.104	-20.62
224.338	-26.62
224.573	-0.62
224.808	-8.62
225.042	-2.62
225.277	-10.62
225.511	-16.62
225.746	4.38
225.98	12.38
226.215	18.38
226.449	4.38
226.683	21.38
226.918	17.38
227.152	31.38
227.387	41.38
227.621	43.38
227.856	51.38
228.09	34.38
228.324	50.38
228.559	60.38
228.793	90.38
229.027	136.38
229.262	148.38
229.496	152.38
229.73	150.38
229.964	193.38
230.199	164.38
230.433	171.38
230.667	190.38
230.901	181.38
231.136	187.38
231.37	178.38
231.604	172.38
231.838	186.38
232.072	180.38
232.306	199.38
232.541	206.38
232.775	198.38
233.009	199.38
233.243	210.38
233.477	210.38
233.711	212.38
233.945	217.38
234.179	204.38
234.413	211.38
234.647	210.38
234.881	209.38
235.115	193.38
235.349	202.38
235.583	199.38
235.817	203.38
236.051	212.38
236.285	206.38
236.519	223.38
236.753	220.38
236.987	205.38
237.221	225.38
237.455	220.38
237.689	242.38
237.922	215.38
238.156	228.38
238.39	241.38
238.624	259.38
238.858	255.38
239.091	273.38
239.325	246.38
239.559	231.38
239.793	245.38
240.027	243.38
240.26	244.38
240.494	279.38
240.728	268.38
240.961	254.38
241.195	265.38
241.429	264.38
241.662	290.38
241.896	295.38
242.13	292.38
242.363	277.38
242.597	273.38
242.83	290.38
243.064	294.38
243.298	301.38
243.531	310.38
243.765	323.38
243.998	306.38
244.232	304.38
244.465	296.38
244.699	307.38
244.932	333.38
245.166	337.38
245.399	330.38
245.633	330.38
245.866	324.38
246.099	344.38
246.333	330.38
246.566	336.38
246.8	344.38
247.033	357.38
247.266	349.38
247.5	356.38
247.733	359.38
247.966	366.38
248.2	384.38
248.433	375.38
248.666	362.38
248.899	345.38
249.133	361.38
249.366	378.38
249.599	372.38
249.832	375.38
250.066	386.38
250.299	388.38
250.532	382.38
250.765	391.38
250.998	400.38
251.231	400.38
251.465	385.38
251.698	407.38
251.931	412.38
252.164	411.38
252.397	413.38
252.63	406.38
252.863	427.38
253.096	446.38
253.329	427.38
253.562	431.38
253.795	419.38
254.028	436.38
254.261	449.38
254.494	435.38
254.727	453.38
254.96	444.38
255.193	439.38
255.426	411.38
255.659	449.38
255.892	446.38
256.124	437.38
256.357	444.38
256.59	470.38
256.823	452.38
257.056	470.38
257.289	482.38
257.521	474.38
257.754	470.38
257.987	473.38
258.22	494.38
258.452	498.38
258.685	491.38
258.918	496.38
259.151	496.38
259.383	505.38
259.616	490.38
259.849	520.38
260.081	506.38
260.314	503.38
260.547	499.38
260.779	506.38
261.012	489.38
261.244	518.38
261.477	523.38
261.71	523.38
261.942	537.38
262.175	531.38
262.407	541.38
262.64	525.38
262.872	518.38
263.105	556.38
263.337	545.38
263.57	534.38
263.802	541.38
264.035	522.38
264.267	571.38
264.499	550.38
264.732	539.38
264.964	529.38
265.197	579.38
265.429	570.38
265.661	574.38
265.894	587.38
266.126	582.38
266.358	579.38
266.591	576.38
266.823	575.38
267.055	552.38
267.287	585.38
267.52	589.38
267.752	580.38
267.984	578.38
268.216	597.38
268.448	606.38
268.681	598.38
268.913	591.38
269.145	617.38
269.377	608.38
269.609	606.38
269.841	631.38
270.073	610.38
270.306	614.38
270.538	623.38
270.77	606.38
271.002	631.38
271.234	609.38
271.466	632.38
271.698	642.38
271.93	647.38
272.162	660.38
272.394	609.38
272.626	642.38
272.858	628.38
273.09	641.38
273.322	645.38
273.553	643.38
273.785	656.38
274.017	678.38
274.249	663.38
274.481	662.38
274.713	688.38
274.945	682.38
275.176	688.38
275.408	688.38
275.64	678.38
275.872	682.38
276.104	704.38
276.335	695.38
276.567	708.38
276.799	707.38
277.031	712.38
277.262	710.38
277.494	689.38
277.726	690.38
277.957	698.38
278.189	726.38
278.421	716.38
278.652	742.38
278.884	719.38
279.115	716.38
279.347	727.38
279.579	740.38
279.81	732.38
280.042	750.38
280.273	748.38
280.505	739.38
280.736	744.38
280.968	729.38
281.199	718.38
281.431	785.38
281.662	772.38
281.894	772.38
282.125	765.38
282.356	738.38
282.588	762.38
282.819	776.38
283.051	793.38
283.282	764.38
283.513	786.38
283.745	780.38
283.976	780.38
284.207	786.38
284.439	793.38
284.67	799.38
284.901	843.38
285.132	789.38
285.364	806.38
285.595	822.38
285.826	799.38
286.057	820.38
286.288	816.38
286.52	843.38
286.751	826.38
286.982	824.38
287.213	831.38
287.444	822.38
287.675	839.38
287.906	842.38
288.138	829.38
288.369	831.38
288.6	832.38
288.831	827.38
289.062	841.38
289.293	855.38
289.524	869.38
289.755	871.38
289.986	836.38
290.217	843.38
290.448	870.38
290.679	863.38
290.91	850.38
291.141	884.38
291.371	854.38
291.602	886.38
291.833	870.38
292.064	851.38
292.295	851.38
292.526	873.38
292.757	867.38
292.987	856.38
293.218	888.38
293.449	874.38
293.68	854.38
293.91	886.38
294.141	867.38
294.372	874.38
294.603	899.38
294.833	867.38
295.064	856.38
295.295	896.38
295.525	862.38
295.756	883.38
295.987	874.38
296.217	904.38
296.448	906.38
296.679	891.38
296.909	874.38
297.14	912.38
297.37	920.38
297.601	922.38
297.831	927.38
298.062	900.38
298.292	949.38
298.523	964.38
298.753	975.38
298.984	951.38
299.214	949.38
299.445	966.38
299.675	911.38
299.905	932.38
300.136	946.38
300.366	948.38
300.597	925.38
300.827	947.38
301.057	983.38
301.288	975.38
301.518	978.38
301.748	996.38
301.979	982.38
302.209	1012.38
302.439	1022.38
302.669	1007.38
302.9	998.38
303.13	953.38
303.36	997.38
303.59	987.38
303.82	981.38
304.051	994.38
304.281	987.38
304.511	987.38
304.741	973.38
304.971	999.38
305.201	985.38
305.431	968.38
305.661	987.38
305.891	1002.38
306.121	974.38
306.352	990.38
306.582	986.38
306.812	979.38
307.042	995.38
307.272	974.38
307.502	997.38
307.731	953.38
307.961	975.38
308.191	938.38
308.421	992.38
308.651	966.38
308.881	967.38
309.111	983.38
309.341	984.38
309.571	973.38
309.8	961.38
310.03	995.38
310.26	993.38
310.49	983.38
310.72	986.38
310.949	956.38
311.179	997.38
311.409	1023.38
311.639	997.38
311.868	1027.38
312.098	999.38
312.328	1021.38
312.557	1043.38
312.787	1035.38
313.017	1058.38
313.246	1024.38
313.476	1026.38
313.706	1035.38
313.935	1044.38
314.165	1049.38
314.394	1054.38
314.624	1074.38
314.853	1083.38
315.083	1087.38
315.312	1012.38
315.542	1070.38
315.771	1079.38
316.001	1032.38
316.23	1064.38
316.46	1040.38
316.689	1038.38
316.919	1063.38
317.148	1041.38
317.377	1054.38
317.607	1072.38
317.836	1050.38
318.065	1050.38
318.295	1048.38
318.524	1056.38
318.753	1030.38
318.983	1060.38
319.212	1059.38
319.441	1051.38
319.67	1067.38
319.9	1034.38
320.129	1044.38
320.358	1052.38
320.587	1064.38
320.816	1062.38
321.046	1067.38
321.275	1056.38
321.504	1052.38
321.733	1052.38
321.962	1079.38
322.191	1054.38
322.42	1073.38
322.649	1063.38
322.878	1059.38
323.108	1042.38
323.337	1087.38
323.566	1060.38
323.795	1100.38
324.024	1094.38
324.253	1078.38
324.482	1066.38
324.71	1094.38
324.939	1087.38
325.168	1117.38
325.397	1106.38
325.626	1090.38
325.855	1122.38
326.084	1144.38
326.313	1120.38
326.542	1142.38
326.77	1151.38
326.999	1139.38
327.228	1146.38
327.457	1170.38
327.686	1126.38
327.914	1144.38
328.143	1114.38
328.372	1138.38
328.6	1143.38
328.829	1156.38
329.058	1156.38
329.287	1140.38
329.515	1157.38
329.744	1186.38
329.972	1165.38
330.201	1192.38
330.43	1171.38
330.658	1158.38
330.887	1178.38
331.115	1155.38
331.344	1210.38
331.572	1212.38
331.801	1216.38
332.03	1215.38
332.258	1243.38
332.486	1315.38
332.715	1297.38
332.943	1343.38
333.172	1396.38
333.4	1383.38
333.629	1444.38
333.857	1468.38
334.085	1448.38
334.314	1486.38
334.542	1403.38
334.771	1465.38
334.999	1430.38
335.227	1412.38
335.455	1397.38
335.684	1406.38
335.912	1388.38
336.14	1371.38
336.369	1375.38
336.597	1385.38
336.825	1369.38
337.053	1360.38
337.281	1366.38
337.51	1340.38
337.738	1316.38
337.966	1281.38
338.194	1278.38
338.422	1243.38
338.65	1266.38
338.878	1264.38
339.106	1264.38
339.334	1278.38
339.562	1242.38
339.79	1200.38
340.018	1236.38
340.246	1235.38
340.474	1203.38
340.702	1232.38
340.93	1224.38
341.158	1216.38
341.386	1241.38
341.614	1225.38
341.842	1228.38
342.07	1187.38
342.298	1198.38
342.526	1177.38
342.754	1164.38
342.981	1185.38
343.209	1241.38
343.437	1246.38
343.665	1334.38
343.893	1376.38
344.12	1429.38
344.348	1372.38
344.576	1346.38
344.804	1310.38
345.031	1247.38
345.259	1236.38
345.487	1230.38
345.714	1189.38
345.942	1203.38
346.17	1174.38
346.397	1188.38
346.625	1142.38
346.853	1155.38
347.08	1158.38
347.308	1146.38
347.535	1181.38
347.763	1138.38
347.99	1142.38
348.218	1136.38
348.445	1150.38
348.673	1163.38
348.9	1156.38
349.128	1151.38
349.355	1141.38
349.583	1140.38
349.81	1127.38
350.037	1142.38
350.265	1162.38
350.492	1120.38
350.72	1115.38
350.947	1100.38
351.174	1129.38
351.402	1122.38
351.629	1106.38
351.856	1091.38
352.083	1116.38
352.311	1112.38
352.538	1120.38
352.765	1124.38
352.992	1103.38
353.22	1103.38
353.447	1056.38
353.674	1101.38
353.901	1094.38
354.128	1111.38
354.355	1104.38
354.583	1098.38
354.81	1103.38
355.037	1108.38
355.264	1106.38
355.491	1125.38
355.718	1118.38
355.945	1119.38
356.172	1110.38
356.399	1118.38
356.626	1117.38
356.853	1133.38
357.08	1137.38
357.307	1109.38
357.534	1113.38
357.761	1112.38
357.988	1122.38
358.215	1119.38
358.441	1112.38
358.668	1117.38
358.895	1108.38
359.122	1094.38
359.349	1145.38
359.576	1136.38
359.802	1117.38
360.029	1112.38
360.256	1142.38
360.483	1100.38
360.709	1122.38
360.936	1145.38
361.163	1086.38
361.39	1134.38
361.616	1108.38
361.843	1089.38
362.07	1128.38
362.296	1113.38
362.523	1123.38
362.749	1149.38
362.976	1116.38
363.203	1128.38
363.429	1074.38
363.656	1145.38
363.882	1097.38
364.109	1098.38
364.335	1100.38
364.562	1096.38
364.788	1105.38
365.015	1123.38
365.241	1111.38
365.468	1101.38
365.694	1118.38
365.92	1127.38
366.147	1124.38
366.373	1114.38
366.599	1132.38
366.826	1116.38
367.052	1081.38
367.278	1120.38
367.505	1118.38
367.731	1132.38
367.957	1112.38
368.184	1110.38
368.41	1155.38
368.636	1158.38
368.862	1154.38
369.089	1152.38
369.315	1164.38
369.541	1151.38
369.767	1204.38
369.993	1168.38
370.219	1174.38
370.445	1155.38
370.672	1174.38
370.898	1165.38
371.124	1192.38
371.35	1225.38
371.576	1222.38
371.802	1225.38
372.028	1193.38
372.254	1211.38
372.48	1231.38
372.706	1248.38
372.932	1246.38
373.158	1250.38
373.384	1252.38
373.61	1278.38
373.835	1207.38
374.061	1233.38
374.287	1248.38
374.513	1224.38
374.739	1267.38
374.965	1287.38
375.191	1331.38
375.416	1306.38
375.642	1278.38
375.868	1284.38
376.094	1262.38
376.319	1234.38
376.545	1243.38
376.771	1243.38
376.997	1259.38
377.222	1211.38
377.448	1198.38
377.674	1207.38
377.899	1204.38
378.125	1189.38
378.35	1172.38
378.576	1196.38
378.802	1196.38
379.027	1195.38
379.253	1216.38
379.478	1173.38
379.704	1205.38
379.929	1189.38
380.155	1165.38
380.38	1177.38
380.606	1217.38
380.831	1203.38
381.057	1190.38
381.282	1189.38
381.507	1221.38
381.733	1192.38
381.958	1200.38
382.184	1223.38
382.409	1265.38
382.634	1257.38
382.86	1281.38
383.085	1249.38
383.31	1298.38
383.535	1297.38
383.761	1285.38
383.986	1329.38
384.211	1360.38
384.436	1374.38
384.662	1377.38
384.887	1394.38
385.112	1387.38
385.337	1395.38
385.562	1426.38
385.787	1428.38
386.013	1439.38
386.238	1450.38
386.463	1467.38
386.688	1474.38
386.913	1427.38
387.138	1440.38
387.363	1436.38
387.588	1418.38
387.813	1465.38
388.038	1399.38
388.263	1457.38
388.488	1431.38
388.713	1443.38
388.938	1435.38
389.163	1411.38
389.387	1450.38
389.612	1431.38
389.837	1404.38
390.062	1413.38
390.287	1401.38
390.512	1426.38
390.736	1438.38
390.961	1454.38
391.186	1467.38
391.411	1514.38
391.636	1549.38
391.86	1561.38
392.085	1610.38
392.31	1620.38
392.534	1595.38
392.759	1559.38
392.984	1527.38
393.208	1520.38
393.433	1521.38
393.658	1548.38
393.882	1530.38
394.107	1507.38
394.331	1536.38
394.556	1552.38
394.78	1511.38
395.005	1541.38
395.229	1566.38
395.454	1555.38
395.678	1533.38
395.903	1593.38
396.127	1597.38
396.352	1536.38
396.576	1541.38
396.801	1527.38
397.025	1571.38
397.249	1623.38
397.474	1610.38
397.698	1588.38
397.922	1604.38
398.147	1613.38
398.371	1688.38
398.595	1740.38
398.82	1768.38
399.044	1865.38
399.268	2006.38
399.492	2192.38
399.717	2380.38
399.941	2430.38
400.165	2232.38
400.389	2147.38
400.613	1999.38
400.837	1880.38
401.062	1851.38
401.286	1827.38
401.51	1780.38
401.734	1750.38
401.958	1806.38
402.182	1784.38
402.406	1814.38
402.63	1800.38
402.854	1868.38
403.078	1849.38
403.302	1916.38
403.526	1856.38
403.75	1898.38
403.974	1928.38
404.198	1915.38
404.422	1952.38
404.645	1954.38
404.869	1927.38
405.093	1919.38
405.317	1900.38
405.541	1928.38
405.765	1928.38
405.988	1911.38
406.212	1927.38
406.436	1972.38
406.66	1966.38
406.883	1996.38
407.107	2115.38
407.331	2170.38
407.555	2256.38
407.778	2174.38
408.002	2174.38
408.226	2153.38
408.449	2145.38
408.673	2056.38
408.896	2025.38
409.12	1976.38
409.344	2040.38
409.567	1968.38
409.791	1972.38
410.014	1949.38
410.238	1946.38
410.461	1970.38
410.685	1922.38
410.908	1867.38
411.132	1912.38
411.355	1844.38
411.578	1881.38
411.802	1835.38
412.025	1857.38
412.249	1890.38
412.472	1874.38
412.695	1818.38
412.919	1811.38
413.142	1777.38
413.365	1761.38
413.589	1815.38
413.812	1808.38
414.035	1715.38
414.258	1768.38
414.482	1764.38
414.705	1803.38
414.928	1806.38
415.151	1765.38
415.374	1777.38
415.597	1768.38
415.821	1740.38
416.044	1740.38
416.267	1695.38
416.49	1711.38
416.713	1737.38
416.936	1710.38
417.159	1720.38
417.382	1673.38
417.605	1704.38
417.828	1695.38
418.051	1719.38
418.274	1703.38
418.497	1721.38
418.72	1713.38
418.943	1726.38
419.166	1835.38
419.389	1987.38
419.611	1912.38
419.834	1867.38
420.057	1822.38
420.28	1753.38
420.503	1728.38
420.726	1732.38
420.948	1670.38
421.171	1669.38
421.394	1705.38
421.617	1707.38
421.839	1724.38
422.062	1689.38
422.285	1680.38
422.507	1754.38
422.73	1748.38
422.953	1743.38
423.175	1734.38
423.398	1742.38
423.621	1714.38
423.843	1789.38
424.066	1762.38
424.288	1769.38
424.511	1749.38
424.733	1755.38
424.956	1739.38
425.178	1714.38
425.401	1687.38
425.623	1716.38
425.846	1666.38
426.068	1673.38
426.291	1659.38
426.513	1603.38
426.735	1642.38
426.958	1650.38
427.18	1601.38
427.402	1595.38
427.625	1663.38
427.847	1597.38
428.069	1570.38
428.292	1594.38
428.514	1564.38
428.736	1548.38
428.958	1566.38
429.181	1530.38
429.403	1547.38
429.625	1526.38
429.847	1508.38
430.069	1498.38
430.292	1559.38
430.514	1546.38
430.736	1581.38
430.958	1551.38
431.18	1551.38
431.402	1547.38
431.624	1590.38
431.846	1610.38
432.068	1575.38
432.29	1598.38
432.512	1572.38
432.734	1600.38
432.956	1590.38
433.178	1574.38
433.4	1599.38
433.622	1625.38
433.844	1625.38
434.066	1607.38
434.287	1632.38
434.509	1665.38
434.731	1724.38
434.953	1759.38
435.175	1752.38
435.397	1729.38
435.618	1629.38
435.84	1633.38
436.062	1568.38
436.284	1594.38
436.505	1575.38
436.727	1570.38
436.949	1586.38
437.17	1578.38
437.392	1507.38
437.614	1499.38
437.835	1480.38
438.057	1498.38
438.278	1482.38
438.5	1456.38
438.721	1473.38
438.943	1525.38
439.165	1492.38
439.386	1515.38
439.608	1550.38
439.829	1514.38
440.05	1523.38
440.272	1550.38
440.493	1510.38
440.715	1544.38
440.936	1582.38
441.158	1582.38
441.379	1634.38
441.6	1650.38
441.822	1712.38
442.043	1710.38
442.264	1672.38
442.486	1656.38
442.707	1669.38
442.928	1649.38
443.149	1667.38
443.371	1621.38
443.592	1624.38
443.813	1703.38
444.034	1718.38
444.255	1744.38
444.476	1779.38
444.698	1826.38
444.919	1926.38
445.14	2028.38
445.361	1855.38
445.582	1753.38
445.803	1618.38
446.024	1619.38
446.245	1582.38
446.466	1610.38
446.687	1543.38
446.908	1551.38
447.129	1522.38
447.35	1500.38
447.571	1476.38
447.792	1446.38
448.013	1458.38
448.234	1440.38
448.455	1417.38
448.675	1390.38
448.896	1416.38
449.117	1410.38
449.338	1397.38
449.559	1406.38
449.779	1370.38
450	1376.38
450.221	1399.38
450.442	1394.38
450.662	1390.38
450.883	1424.38
451.104	1389.38
451.324	1399.38
451.545	1359.38
451.766	1395.38
451.986	1347.38
452.207	1346.38
452.428	1379.38
452.648	1365.38
452.869	1320.38
453.089	1361.38
453.31	1400.38
453.53	1365.38
453.751	1306.38
453.971	1352.38
454.192	1355.38
454.412	1300.38
454.633	1346.38
454.853	1314.38
455.073	1296.38
455.294	1335.38
455.514	1301.38
455.734	1300.38
455.955	1255.38
456.175	1302.38
456.395	1282.38
456.616	1333.38
456.836	1337.38
457.056	1288.38
457.276	1319.38
457.497	1332.38
457.717	1309.38
457.937	1324.38
458.157	1308.38
458.377	1338.38
458.598	1395.38
458.818	1440.38
459.038	1423.38
459.258	1472.38
459.478	1525.38
459.698	1600.38
459.918	1616.38
460.138	1614.38
460.358	1745.38
460.578	1733.38
460.798	1755.38
461.018	1761.38
461.238	1777.38
461.458	1758.38
461.678	1740.38
461.898	1768.38
462.118	1762.38
462.338	1847.38
462.558	1872.38
462.777	1943.38
462.997	2102.38
463.217	2188.38
463.437	2198.38
463.657	2089.38
463.876	2035.38
464.096	2035.38
464.316	2020.38
464.536	1972.38
464.755	1954.38
464.975	1902.38
465.195	1830.38
465.414	1710.38
465.634	1667.38
465.854	1613.38
466.073	1534.38
466.293	1557.38
466.512	1498.38
466.732	1514.38
466.951	1485.38
467.171	1419.38
467.391	1468.38
467.61	1464.38
467.829	1462.38
468.049	1456.38
468.268	1406.38
468.488	1416.38
468.707	1379.38
468.927	1404.38
469.146	1414.38
469.365	1426.38
469.585	1409.38
469.804	1468.38
470.023	1444.38
470.243	1481.38
470.462	1514.38
470.681	1508.38
470.901	1515.38
471.12	1498.38
471.339	1447.38
471.558	1473.38
471.777	1481.38
471.997	1452.38
472.216	1402.38
472.435	1400.38
472.654	1407.38
472.873	1371.38
473.092	1400.38
473.311	1412.38
473.53	1410.38
473.749	1388.38
473.968	1426.38
474.187	1428.38
474.406	1403.38
474.625	1424.38
474.844	1439.38
475.063	1400.38
475.282	1433.38
475.501	1410.38
475.72	1464.38
475.939	1460.38
476.158	1488.38
476.377	1475.38
476.596	1461.38
476.814	1482.38
477.033	1478.38
477.252	1530.38
477.471	1529.38
477.69	1542.38
477.908	1610.38
478.127	1627.38
478.346	1661.38
478.564	1705.38
478.783	1710.38
479.002	1759.38
479.22	1781.38
479.439	1755.38
479.658	1723.38
479.876	1793.38
480.095	1788.38
480.313	1854.38
480.532	1856.38
480.751	1853.38
480.969	1787.38
481.188	1781.38
481.406	1764.38
481.624	1692.38
481.843	1717.38
482.061	1694.38
482.28	1707.38
482.498	1720.38
482.717	1694.38
482.935	1704.38
483.153	1766.38
483.372	1743.38
483.59	1756.38
483.808	1786.38
484.027	1781.38
484.245	1787.38
484.463	1828.38
484.681	1790.38
484.9	1817.38
485.118	1832.38
485.336	1842.38
485.554	1922.38
485.772	1884.38
485.99	1908.38
486.209	1910.38
486.427	1925.38
486.645	1931.38
486.863	1895.38
487.081	1854.38
487.299	1855.38
487.517	1871.38
487.735	1864.38
487.953	1866.38
488.171	1827.38
488.389	1843.38
488.607	1812.38
488.825	1806.38
489.043	1803.38
489.261	1758.38
489.479	1750.38
489.696	1740.38
489.914	1766.38
490.132	1776.38
490.35	1758.38
490.568	1745.38
490.786	1788.38
491.003	1776.38
491.221	1775.38
491.439	1775.38
491.657	1839.38
491.874	1733.38
492.092	1737.38
492.31	1761.38
492.527	1759.38
492.745	1768.38
492.963	1710.38
493.18	1781.38
493.398	1800.38
493.615	1770.38
493.833	1758.38
494.05	1835.38
494.268	1822.38
494.485	1797.38
494.703	1802.38
494.92	1834.38
495.138	1834.38
495.355	1792.38
495.573	1814.38
495.79	1812.38
496.008	1846.38
496.225	1830.38
496.442	1848.38
496.66	1890.38
496.877	1889.38
497.094	1922.38
497.312	1946.38
497.529	2012.38
497.746	2067.38
497.963	2083.38
498.181	2188.38
498.398	2275.38
498.615	2347.38
498.832	2474.38
499.049	2629.38
499.267	2867.38
499.484	3027.38
499.701	3276.38
499.918	3590.38
500.135	4004.38
500.352	4300.38
500.569	4445.38
500.786	4430.38
501.003	4153.38
501.22	3850.38
501.437	3525.38
501.654	3209.38
501.871	2974.38
502.088	2788.38
502.305	2639.38
502.522	2533.38
502.739	2404.38
502.956	2313.38
503.172	2222.38
503.389	2149.38
503.606	2051.38
503.823	2020.38
504.04	2016.38
504.256	2020.38
504.473	2014.38
504.69	2009.38
504.907	2016.38
505.123	1905.38
505.34	1809.38
505.557	1756.38
505.773	1743.38
505.99	1690.38
506.207	1637.38
506.423	1629.38
506.64	1607.38
506.856	1562.38
507.073	1577.38
507.289	1554.38
507.506	1569.38
507.722	1531.38
507.939	1521.38
508.155	1512.38
508.372	1494.38
508.588	1490.38
508.805	1463.38
509.021	1449.38
509.238	1449.38
509.454	1498.38
509.67	1420.38
509.887	1443.38
510.103	1425.38
510.319	1392.38
510.536	1383.38
510.752	1426.38
510.968	1435.38
511.184	1389.38
511.401	1392.38
511.617	1394.38
511.833	1397.38
512.049	1370.38
512.265	1404.38
512.481	1418.38
512.698	1395.38
512.914	1382.38
513.13	1406.38
513.346	1399.38
513.562	1411.38
513.778	1406.38
513.994	1397.38
514.21	1436.38
514.426	1431.38
514.642	1451.38
514.858	1396.38
515.074	1398.38
515.29	1441.38
515.506	1464.38
515.721	1482.38
515.937	1520.38
516.153	1499.38
516.369	1519.38
516.585	1556.38
516.801	1629.38
517.016	1685.38
517.232	1716.38
517.448	1802.38
517.664	1802.38
517.879	1827.38
518.095	1826.38
518.311	1804.38
518.527	1755.38
518.742	1714.38
518.958	1666.38
519.173	1614.38
519.389	1573.38
519.605	1511.38
519.82	1524.38
520.036	1496.38
520.251	1409.38
520.467	1451.38
520.682	1428.38
520.898	1390.38
521.113	1373.38
521.329	1366.38
521.544	1342.38
521.76	1348.38
521.975	1342.38
522.19	1345.38
522.406	1319.38
522.621	1313.38
522.836	1311.38
523.052	1298.38
523.267	1309.38
523.482	1297.38
523.698	1299.38
523.913	1264.38
524.128	1275.38
524.343	1272.38
524.559	1241.38
524.774	1258.38
524.989	1268.38
525.204	1287.38
525.419	1254.38
525.634	1246.38
525.849	1271.38
526.064	1247.38
526.28	1220.38
526.495	1254.38
526.71	1232.38
526.925	1208.38
527.14	1222.38
527.355	1246.38
527.57	1211.38
527.785	1236.38
527.999	1247.38
528.214	1243.38
528.429	1217.38
528.644	1200.38
528.859	1238.38
529.074	1217.38
529.289	1212.38
529.503	1234.38
529.718	1248.38
529.933	1214.38
530.148	1227.38
530.363	1231.38
530.577	1234.38
530.792	1164.38
531.007	1248.38
531.221	1220.38
531.436	1228.38
531.651	1204.38
531.865	1231.38
532.08	1206.38
532.295	1239.38
532.509	1192.38
532.724	1220.38
532.938	1206.38
533.153	1233.38
533.367	1210.38
533.582	1193.38
533.796	1154.38
534.011	1203.38
534.225	1211.38
534.44	1197.38
534.654	1205.38
534.868	1167.38
535.083	1185.38
535.297	1178.38
535.511	1194.38
535.726	1170.38
535.94	1165.38
536.154	1152.38
536.369	1158.38
536.583	1128.38
536.797	1172.38
537.011	1147.38
537.225	1143.38
537.44	1101.38
537.654	1124.38
537.868	1103.38
538.082	1098.38
538.296	1131.38
538.51	1103.38
538.724	1122.38
538.938	1091.38
539.153	1076.38
539.367	1126.38
539.581	1103.38
539.795	1110.38
540.009	1096.38
540.222	1087.38
540.436	1094.38
540.65	1089.38
540.864	1082.38
541.078	1094.38
541.292	1089.38
541.506	1059.38
541.72	1076.38
541.934	1087.38
542.147	1084.38
542.361	1112.38
542.575	1072.38
542.789	1081.38
543.002	1065.38
543.216	1072.38
543.43	1056.38
543.644	1056.38
543.857	1037.38
544.071	1057.38
544.285	1086.38
544.498	1063.38
544.712	1048.38
544.925	1077.38
545.139	1092.38
545.352	1104.38
545.566	1101.38
545.779	1076.38
545.993	1082.38
546.206	1105.38
546.42	1099.38
546.633	1082.38
546.847	1071.38
547.06	1071.38
547.274	1100.38
547.487	1105.38
547.7	1111.38
547.914	1076.38
548.127	1095.38
548.34	1089.38
548.554	1104.38
548.767	1079.38
548.98	1090.38
549.193	1116.38
549.407	1096.38
549.62	1075.38
549.833	1146.38
550.046	1096.38
550.259	1094.38
550.473	1095.38
550.686	1079.38
550.899	1076.38
551.112	1084.38
551.325	1071.38
551.538	1077.38
551.751	1097.38
551.964	1056.38
552.177	1091.38
552.39	1116.38
552.603	1115.38
552.816	1126.38
553.029	1161.38
553.242	1180.38
553.455	1176.38
553.667	1183.38
553.88	1152.38
554.093	1134.38
554.306	1127.38
554.519	1080.38
554.732	1104.38
554.944	1063.38
555.157	1035.38
555.37	1038.38
555.583	1026.38
555.795	1003.38
556.008	984.38
556.221	986.38
556.433	967.38
556.646	944.38
556.859	970.38
557.071	937.38
557.284	959.38
557.496	930.38
557.709	936.38
557.921	936.38
558.134	907.38
558.346	947.38
558.559	933.38
558.771	950.38
558.984	955.38
559.196	900.38
559.409	926.38
559.621	928.38
559.833	904.38
560.046	912.38
560.258	889.38
560.47	898.38
560.683	890.38
560.895	890.38
561.107	901.38
561.32	905.38
561.532	899.38
561.744	895.38
561.956	908.38
562.168	907.38
562.381	883.38
562.593	922.38
562.805	905.38
563.017	911.38
563.229	919.38
563.441	931.38
563.653	887.38
563.865	906.38
564.077	939.38
564.289	942.38
564.501	958.38
564.713	987.38
564.925	1003.38
565.137	979.38
565.349	1008.38
565.561	1036.38
565.773	1087.38
565.985	1104.38
566.197	1145.38
566.408	1215.38
566.62	1292.38
566.832	1403.38
567.044	1371.38
567.255	1381.38
567.467	1398.38
567.679	1487.38
567.891	1534.38
568.102	1540.38
568.314	1468.38
568.526	1383.38
568.737	1272.38
568.949	1181.38
569.161	1101.38
569.372	1065.38
569.584	990.38
569.795	1012.38
570.007	965.38
570.218	958.38
570.43	920.38
570.641	919.38
570.853	907.38
571.064	904.38
571.276	897.38
571.487	877.38
571.698	865.38
571.91	832.38
572.121	826.38
572.333	783.38
572.544	809.38
572.755	782.38
572.966	776.38
573.178	786.38
573.389	768.38
573.6	745.38
573.811	736.38
574.023	745.38
574.234	768.38
574.445	748.38
574.656	747.38
574.867	730.38
575.078	721.38
575.289	739.38
575.501	727.38
575.712	725.38
575.923	710.38
576.134	690.38
576.345	688.38
576.556	692.38
576.767	675.38
576.978	699.38
577.188	677.38
577.399	686.38
577.61	695.38
577.821	660.38
578.032	659.38
578.243	668.38
578.454	664.38
578.665	640.38
578.875	658.38
579.086	658.38
579.297	630.38
579.508	648.38
579.718	653.38
579.929	642.38
580.14	633.38
580.35	630.38
580.561	622.38
580.772	623.38
580.982	650.38
581.193	606.38
581.403	631.38
581.614	634.38
581.825	642.38
582.035	619.38
582.246	604.38
582.456	615.38
582.667	633.38
582.877	619.38
583.087	601.38
583.298	619.38
583.508	593.38
583.719	627.38
583.929	610.38
584.139	598.38
584.35	594.38
584.56	596.38
584.77	592.38
584.981	601.38
585.191	603.38
585.401	583.38
585.611	564.38
585.821	577.38
586.032	590.38
586.242	577.38
586.452	599.38
586.662	582.38
586.872	587.38
587.082	580.38
587.292	592.38
587.502	600.38
587.713	599.38
587.923	592.38
588.133	611.38
588.343	561.38
588.553	584.38
588.762	575.38
588.972	586.38
589.182	597.38
589.392	602.38
589.602	578.38
589.812	595.38
590.022	600.38
590.232	571.38
590.441	593.38
590.651	597.38
590.861	599.38
591.071	613.38
591.281	595.38
591.49	602.38
591.7	608.38
591.91	622.38
592.119	629.38
592.329	655.38
592.539	656.38
592.748	673.38
592.958	661.38
593.167	696.38
593.377	691.38
593.587	724.38
593.796	706.38
594.006	705.38
594.215	713.38
594.424	707.38
594.634	688.38
594.843	679.38
595.053	661.38
595.262	615.38
595.472	636.38
595.681	614.38
595.89	603.38
596.1	569.38
596.309	569.38
596.518	566.38
596.727	539.38
596.937	533.38
597.146	556.38
597.355	546.38
597.564	527.38
597.774	540.38
597.983	506.38
598.192	528.38
598.401	507.38
598.61	507.38
598.819	521.38
599.028	499.38
599.237	509.38
599.446	503.38
599.655	497.38
599.864	491.38
600.073	518.38
600.282	516.38
600.491	486.38
600.7	482.38
600.909	479.38
601.118	476.38
601.327	510.38
601.536	490.38
601.745	467.38
601.953	485.38
602.162	460.38
602.371	456.38
602.58	455.38
602.789	457.38
602.997	462.38
603.206	474.38
603.415	458.38
603.623	481.38
603.832	464.38
604.041	449.38
604.249	456.38
604.458	447.38
604.666	440.38
604.875	442.38
605.084	443.38
605.292	440.38
605.501	463.38
605.709	442.38
605.918	442.38
606.126	420.38
606.334	445.38
606.543	428.38
606.751	438.38
606.96	432.38
607.168	448.38
607.376	436.38
607.585	439.38
607.793	446.38
608.001	444.38
608.21	440.38
608.418	425.38
608.626	438.38
608.834	427.38
609.043	426.38
609.251	438.38
609.459	427.38
609.667	432.38
609.875	402.38
610.083	417.38
610.291	438.38
610.499	428.38
610.707	418.38
610.916	414.38
611.124	420.38
611.332	416.38
611.54	417.38
611.748	407.38
611.955	416.38
612.163	414.38
612.371	436.38
612.579	397.38
612.787	412.38
612.995	410.38
613.203	412.38
613.411	396.38
613.618	412.38
613.826	400.38
614.034	401.38
614.242	418.38
614.449	406.38
614.657	404.38
614.865	411.38
615.072	428.38
615.28	406.38
615.488	419.38
615.695	403.38
615.903	414.38
616.111	406.38
616.318	404.38
616.526	414.38
616.733	411.38
616.941	394.38
617.148	418.38
617.356	419.38
617.563	404.38
617.771	414.38
617.978	406.38
618.185	407.38
618.393	388.38
618.6	395.38
618.807	394.38
619.015	383.38
619.222	383.38
619.429	389.38
619.637	401.38
619.844	397.38
620.051	387.38
620.258	376.38
620.466	396.38
620.673	374.38
620.88	372.38
621.087	359.38
621.294	382.38
621.501	368.38
621.708	371.38
621.915	357.38
622.122	380.38
622.329	366.38
622.536	381.38
622.743	402.38
622.95	378.38
623.157	364.38
623.364	364.38
623.571	378.38
623.778	360.38
623.985	350.38
624.192	365.38
624.399	356.38
624.606	342.38
624.812	374.38
625.019	352.38
625.226	353.38
625.433	338.38
625.639	353.38
625.846	356.38
626.053	337.38
626.259	364.38
626.466	351.38
626.673	332.38
626.879	351.38
627.086	327.38
627.293	348.38
627.499	333.38
627.706	355.38
627.912	330.38
628.119	331.38
628.325	330.38
628.532	338.38
628.738	338.38
628.945	343.38
629.151	339.38
629.357	338.38
629.564	311.38
629.77	315.38
629.976	330.38
630.183	323.38
630.389	322.38
630.595	319.38
630.802	315.38
631.008	314.38
631.214	304.38
631.42	331.38
631.627	314.38
631.833	314.38
632.039	300.38
632.245	306.38
632.451	311.38
632.657	320.38
632.863	321.38
633.069	306.38
633.275	309.38
633.481	296.38
633.688	311.38
633.893	303.38
634.099	318.38
634.305	305.38
634.511	311.38
634.717	303.38
634.923	307.38
635.129	299.38
635.335	318.38
635.541	288.38
635.747	294.38
635.952	291.38
636.158	306.38
636.364	315.38
636.57	290.38
636.775	282.38
636.981	291.38
637.187	287.38
637.392	282.38
637.598	286.38
637.804	305.38
638.009	299.38
638.215	286.38
638.421	266.38
638.626	281.38
638.832	287.38
639.037	274.38
639.243	292.38
639.448	280.38
639.654	279.38
639.859	293.38
640.065	279.38
640.27	294.38
640.475	296.38
640.681	267.38
640.886	273.38
641.091	263.38
641.297	284.38
641.502	274.38
641.707	277.38
641.913	262.38
642.118	269.38
642.323	272.38
642.528	278.38
642.733	274.38
642.939	263.38
643.144	283.38
643.349	278.38
643.554	288.38
643.759	277.38
643.964	234.38
644.169	274.38
644.374	268.38
644.579	288.38
644.784	266.38
644.989	276.38
645.194	276.38
645.399	273.38
645.604	263.38
645.809	276.38
646.014	286.38
646.219	291.38
646.423	281.38
646.628	286.38
646.833	283.38
647.038	281.38
647.243	279.38
647.447	291.38
647.652	275.38
647.857	302.38
648.062	295.38
648.266	307.38
648.471	312.38
648.676	303.38
648.88	311.38
649.085	282.38
649.289	289.38
649.494	282.38
649.698	288.38
649.903	267.38
650.107	286.38
650.312	304.38
650.516	289.38
650.721	254.38
650.925	290.38
651.13	278.38
651.334	276.38
651.539	282.38
651.743	260.38
651.947	274.38
652.152	273.38
652.356	273.38
652.56	275.38
652.764	255.38
652.969	264.38
653.173	257.38
653.377	254.38
653.581	279.38
653.785	259.38
653.99	266.38
654.194	286.38
654.398	270.38
654.602	294.38
654.806	299.38
655.01	264.38
655.214	284.38
655.418	298.38
655.622	306.38
655.826	336.38
656.03	344.38
656.234	385.38
656.438	399.38
656.642	405.38
656.846	376.38
657.049	342.38
657.253	302.38
657.457	262.38
657.661	254.38
657.865	229.38
658.068	220.38
658.272	200.38
658.476	193.38
658.68	172.38
658.883	165.38
659.087	162.38
659.291	151.38
659.494	155.38
659.698	139.38
659.901	142.38
660.105	132.38
660.309	113.38
660.512	119.38
660.716	121.38
660.919	114.38
661.123	123.38
661.326	114.38
661.53	103.38
661.733	103.38
661.936	96.38
662.14	91.38
662.343	72.38
662.546	84.38
662.75	94.38
662.953	96.38
663.156	75.38
663.36	94.38
663.563	87.38
663.766	82.38
663.969	96.38
664.173	78.38
664.376	83.38
664.579	86.38
664.782	90.38
664.985	93.38
665.188	78.38
665.391	81.38
665.594	79.38
665.797	79.38
666	83.38
666.203	85.38
666.406	83.38
666.609	87.38
666.812	89.38
667.015	86.38
667.218	86.38
667.421	79.38
667.624	74.38
667.827	68.38
668.03	75.38
668.232	79.38
668.435	80.38
668.638	80.38
668.841	93.38
669.043	84.38
669.246	71.38
669.449	67.38
669.651	65.38
669.854	84.38
670.057	91.38
670.259	69.38
670.462	81.38
670.665	79.38
670.867	85.38
671.07	91.38
671.272	82.38
671.475	92.38
671.677	80.38
671.88	88.38
672.082	108.38
672.284	83.38
672.487	88.38
672.689	87.38
672.892	79.38
