Data from NiCl2@0.0625M.TitratingCurve.Agarose3%dH2O.NegLispCup.LampEnergy10.LIBS07252019_HRD10591_18-33-24-577.txt Node
Date: Thu Jul 25 18:33:24 EDT 2019
User: cochatt
Spectrometer: HR+D1059
Trigger mode: 1
Integration Time (sec): 1.000000E-1
Scans to average: 1
Electric dark correction enabled: true
Nonlinearity correction enabled: false
Boxcar width: 0
XAxis mode: Wavelengths
Number of Pixels in Spectrum: 2048
>>>>>Begin Spectral Data<<<<<
223.165	-14.75
223.4	-14.75
223.635	-14.75
223.869	-20.75
224.104	-26.75
224.338	-17.75
224.573	-16.75
224.808	-5.75
225.042	-4.75
225.277	-8.75
225.511	-7.75
225.746	-4.75
225.98	11.25
226.215	21.25
226.449	12.25
226.683	18.25
226.918	26.25
227.152	39.25
227.387	38.25
227.621	46.25
227.856	52.25
228.09	43.25
228.324	48.25
228.559	53.25
228.793	78.25
229.027	146.25
229.262	159.25
229.496	161.25
229.73	170.25
229.964	177.25
230.199	186.25
230.433	175.25
230.667	192.25
230.901	198.25
231.136	198.25
231.37	194.25
231.604	195.25
231.838	204.25
232.072	200.25
232.306	218.25
232.541	218.25
232.775	208.25
233.009	226.25
233.243	214.25
233.477	226.25
233.711	205.25
233.945	219.25
234.179	229.25
234.413	227.25
234.647	227.25
234.881	233.25
235.115	223.25
235.349	224.25
235.583	229.25
235.817	239.25
236.051	237.25
236.285	218.25
236.519	238.25
236.753	233.25
236.987	249.25
237.221	242.25
237.455	273.25
237.689	240.25
237.922	254.25
238.156	252.25
238.39	255.25
238.624	266.25
238.858	263.25
239.091	260.25
239.325	266.25
239.559	281.25
239.793	269.25
240.027	296.25
240.26	286.25
240.494	282.25
240.728	294.25
240.961	283.25
241.195	307.25
241.429	316.25
241.662	312.25
241.896	302.25
242.13	319.25
242.363	320.25
242.597	311.25
242.83	322.25
243.064	320.25
243.298	334.25
243.531	342.25
243.765	348.25
243.998	338.25
244.232	344.25
244.465	353.25
244.699	357.25
244.932	369.25
245.166	366.25
245.399	374.25
245.633	373.25
245.866	347.25
246.099	356.25
246.333	390.25
246.566	368.25
246.8	376.25
247.033	376.25
247.266	387.25
247.5	396.25
247.733	397.25
247.966	396.25
248.2	400.25
248.433	412.25
248.666	433.25
248.899	408.25
249.133	416.25
249.366	419.25
249.599	430.25
249.832	404.25
250.066	424.25
250.299	436.25
250.532	457.25
250.765	422.25
250.998	448.25
251.231	441.25
251.465	454.25
251.698	451.25
251.931	444.25
252.164	458.25
252.397	450.25
252.63	484.25
252.863	478.25
253.096	470.25
253.329	482.25
253.562	490.25
253.795	481.25
254.028	501.25
254.261	486.25
254.494	499.25
254.727	474.25
254.96	490.25
255.193	484.25
255.426	494.25
255.659	483.25
255.892	495.25
256.124	505.25
256.357	495.25
256.59	524.25
256.823	510.25
257.056	508.25
257.289	514.25
257.521	542.25
257.754	524.25
257.987	518.25
258.22	531.25
258.452	530.25
258.685	543.25
258.918	558.25
259.151	539.25
259.383	546.25
259.616	545.25
259.849	558.25
260.081	545.25
260.314	551.25
260.547	553.25
260.779	545.25
261.012	575.25
261.244	556.25
261.477	560.25
261.71	569.25
261.942	564.25
262.175	586.25
262.407	584.25
262.64	575.25
262.872	600.25
263.105	579.25
263.337	596.25
263.57	597.25
263.802	596.25
264.035	627.25
264.267	615.25
264.499	594.25
264.732	633.25
264.964	613.25
265.197	612.25
265.429	608.25
265.661	612.25
265.894	624.25
266.126	626.25
266.358	625.25
266.591	635.25
266.823	622.25
267.055	634.25
267.287	647.25
267.52	644.25
267.752	664.25
267.984	669.25
268.216	634.25
268.448	682.25
268.681	669.25
268.913	652.25
269.145	661.25
269.377	664.25
269.609	650.25
269.841	683.25
270.073	673.25
270.306	675.25
270.538	668.25
270.77	698.25
271.002	698.25
271.234	710.25
271.466	710.25
271.698	709.25
271.93	703.25
272.162	692.25
272.394	722.25
272.626	710.25
272.858	708.25
273.09	721.25
273.322	730.25
273.553	697.25
273.785	730.25
274.017	732.25
274.249	754.25
274.481	741.25
274.713	737.25
274.945	747.25
275.176	770.25
275.408	740.25
275.64	762.25
275.872	751.25
276.104	746.25
276.335	804.25
276.567	781.25
276.799	721.25
277.031	778.25
277.262	798.25
277.494	788.25
277.726	778.25
277.957	794.25
278.189	821.25
278.421	793.25
278.652	789.25
278.884	800.25
279.115	788.25
279.347	825.25
279.579	791.25
279.81	852.25
280.042	808.25
280.273	810.25
280.505	852.25
280.736	812.25
280.968	832.25
281.199	843.25
281.431	847.25
281.662	832.25
281.894	827.25
282.125	848.25
282.356	851.25
282.588	863.25
282.819	859.25
283.051	874.25
283.282	869.25
283.513	878.25
283.745	877.25
283.976	898.25
284.207	882.25
284.439	920.25
284.67	883.25
284.901	897.25
285.132	866.25
285.364	862.25
285.595	919.25
285.826	872.25
286.057	908.25
286.288	911.25
286.52	897.25
286.751	915.25
286.982	900.25
287.213	896.25
287.444	923.25
287.675	924.25
287.906	916.25
288.138	929.25
288.369	895.25
288.6	918.25
288.831	915.25
289.062	937.25
289.293	926.25
289.524	947.25
289.755	974.25
289.986	946.25
290.217	961.25
290.448	952.25
290.679	956.25
290.91	961.25
291.141	970.25
291.371	952.25
291.602	1003.25
291.833	975.25
292.064	922.25
292.295	945.25
292.526	960.25
292.757	974.25
292.987	944.25
293.218	968.25
293.449	968.25
293.68	975.25
293.91	936.25
294.141	958.25
294.372	946.25
294.603	962.25
294.833	995.25
295.064	962.25
295.295	1001.25
295.525	961.25
295.756	976.25
295.987	984.25
296.217	1009.25
296.448	987.25
296.679	1011.25
296.909	1028.25
297.14	1016.25
297.37	1061.25
297.601	1039.25
297.831	1019.25
298.062	1039.25
298.292	1020.25
298.523	1072.25
298.753	1055.25
298.984	1053.25
299.214	1037.25
299.445	1037.25
299.675	1032.25
299.905	1090.25
300.136	1031.25
300.366	1043.25
300.597	1058.25
300.827	1103.25
301.057	1070.25
301.288	1109.25
301.518	1089.25
301.748	1129.25
301.979	1140.25
302.209	1126.25
302.439	1126.25
302.669	1095.25
302.9	1099.25
303.13	1092.25
303.36	1098.25
303.59	1085.25
303.82	1055.25
304.051	1099.25
304.281	1104.25
304.511	1106.25
304.741	1103.25
304.971	1103.25
305.201	1104.25
305.431	1072.25
305.661	1093.25
305.891	1066.25
306.121	1071.25
306.352	1113.25
306.582	1094.25
306.812	1076.25
307.042	1084.25
307.272	1084.25
307.502	1087.25
307.731	1082.25
307.961	1093.25
308.191	1059.25
308.421	1064.25
308.651	1088.25
308.881	1093.25
309.111	1059.25
309.341	1082.25
309.571	1112.25
309.8	1105.25
310.03	1102.25
310.26	1091.25
310.49	1116.25
310.72	1095.25
310.949	1091.25
311.179	1120.25
311.409	1127.25
311.639	1121.25
311.868	1124.25
312.098	1150.25
312.328	1116.25
312.557	1150.25
312.787	1143.25
313.017	1123.25
313.246	1160.25
313.476	1170.25
313.706	1168.25
313.935	1173.25
314.165	1173.25
314.394	1172.25
314.624	1203.25
314.853	1156.25
315.083	1174.25
315.312	1206.25
315.542	1169.25
315.771	1187.25
316.001	1178.25
316.23	1160.25
316.46	1169.25
316.689	1200.25
316.919	1187.25
317.148	1204.25
317.377	1150.25
317.607	1143.25
317.836	1160.25
318.065	1165.25
318.295	1211.25
318.524	1182.25
318.753	1175.25
318.983	1182.25
319.212	1144.25
319.441	1181.25
319.67	1176.25
319.9	1161.25
320.129	1161.25
320.358	1177.25
320.587	1165.25
320.816	1163.25
321.046	1191.25
321.275	1182.25
321.504	1160.25
321.733	1143.25
321.962	1188.25
322.191	1187.25
322.42	1187.25
322.649	1198.25
322.878	1173.25
323.108	1194.25
323.337	1188.25
323.566	1210.25
323.795	1220.25
324.024	1228.25
324.253	1226.25
324.482	1228.25
324.71	1218.25
324.939	1244.25
325.168	1219.25
325.397	1199.25
325.626	1236.25
325.855	1231.25
326.084	1259.25
326.313	1259.25
326.542	1289.25
326.77	1278.25
326.999	1259.25
327.228	1297.25
327.457	1256.25
327.686	1282.25
327.914	1257.25
328.143	1287.25
328.372	1247.25
328.6	1294.25
328.829	1261.25
329.058	1273.25
329.287	1310.25
329.515	1311.25
329.744	1268.25
329.972	1306.25
330.201	1286.25
330.43	1305.25
330.658	1311.25
330.887	1288.25
331.115	1346.25
331.344	1343.25
331.572	1335.25
331.801	1352.25
332.03	1429.25
332.258	1446.25
332.486	1454.25
332.715	1502.25
332.943	1478.25
333.172	1548.25
333.4	1643.25
333.629	1617.25
333.857	1657.25
334.085	1641.25
334.314	1652.25
334.542	1589.25
334.771	1632.25
334.999	1570.25
335.227	1643.25
335.455	1586.25
335.684	1574.25
335.912	1623.25
336.14	1579.25
336.369	1577.25
336.597	1545.25
336.825	1503.25
337.053	1510.25
337.281	1479.25
337.51	1475.25
337.738	1473.25
337.966	1429.25
338.194	1406.25
338.422	1399.25
338.65	1432.25
338.878	1413.25
339.106	1432.25
339.334	1396.25
339.562	1410.25
339.79	1323.25
340.018	1359.25
340.246	1315.25
340.474	1348.25
340.702	1342.25
340.93	1355.25
341.158	1352.25
341.386	1346.25
341.614	1359.25
341.842	1370.25
342.07	1367.25
342.298	1340.25
342.526	1346.25
342.754	1339.25
342.981	1364.25
343.209	1367.25
343.437	1419.25
343.665	1484.25
343.893	1555.25
344.12	1588.25
344.348	1565.25
344.576	1484.25
344.804	1447.25
345.031	1393.25
345.259	1390.25
345.487	1352.25
345.714	1370.25
345.942	1352.25
346.17	1336.25
346.397	1322.25
346.625	1316.25
346.853	1268.25
347.08	1253.25
347.308	1304.25
347.535	1288.25
347.763	1291.25
347.99	1279.25
348.218	1302.25
348.445	1269.25
348.673	1273.25
348.9	1299.25
349.128	1290.25
349.355	1269.25
349.583	1296.25
349.81	1260.25
350.037	1266.25
350.265	1246.25
350.492	1224.25
350.72	1230.25
350.947	1223.25
351.174	1254.25
351.402	1251.25
351.629	1244.25
351.856	1219.25
352.083	1235.25
352.311	1225.25
352.538	1222.25
352.765	1226.25
352.992	1238.25
353.22	1210.25
353.447	1214.25
353.674	1222.25
353.901	1220.25
354.128	1242.25
354.355	1235.25
354.583	1214.25
354.81	1255.25
355.037	1238.25
355.264	1270.25
355.491	1254.25
355.718	1242.25
355.945	1218.25
356.172	1227.25
356.399	1262.25
356.626	1246.25
356.853	1262.25
357.08	1274.25
357.307	1264.25
357.534	1246.25
357.761	1257.25
357.988	1240.25
358.215	1234.25
358.441	1242.25
358.668	1221.25
358.895	1244.25
359.122	1232.25
359.349	1259.25
359.576	1253.25
359.802	1255.25
360.029	1240.25
360.256	1270.25
360.483	1231.25
360.709	1264.25
360.936	1248.25
361.163	1239.25
361.39	1234.25
361.616	1242.25
361.843	1251.25
362.07	1239.25
362.296	1237.25
362.523	1236.25
362.749	1242.25
362.976	1232.25
363.203	1256.25
363.429	1265.25
363.656	1227.25
363.882	1264.25
364.109	1235.25
364.335	1255.25
364.562	1275.25
364.788	1250.25
365.015	1250.25
365.241	1250.25
365.468	1231.25
365.694	1249.25
365.92	1238.25
366.147	1286.25
366.373	1290.25
366.599	1246.25
366.826	1282.25
367.052	1268.25
367.278	1280.25
367.505	1242.25
367.731	1258.25
367.957	1263.25
368.184	1277.25
368.41	1262.25
368.636	1265.25
368.862	1298.25
369.089	1278.25
369.315	1316.25
369.541	1308.25
369.767	1302.25
369.993	1295.25
370.219	1310.25
370.445	1333.25
370.672	1302.25
370.898	1312.25
371.124	1345.25
371.35	1340.25
371.576	1374.25
371.802	1379.25
372.028	1363.25
372.254	1369.25
372.48	1367.25
372.706	1369.25
372.932	1380.25
373.158	1389.25
373.384	1360.25
373.61	1341.25
373.835	1382.25
374.061	1352.25
374.287	1362.25
374.513	1411.25
374.739	1404.25
374.965	1449.25
375.191	1495.25
375.416	1478.25
375.642	1424.25
375.868	1406.25
376.094	1384.25
376.319	1363.25
376.545	1361.25
376.771	1351.25
376.997	1332.25
377.222	1360.25
377.448	1355.25
377.674	1370.25
377.899	1326.25
378.125	1355.25
378.35	1349.25
378.576	1316.25
378.802	1332.25
379.027	1325.25
379.253	1362.25
379.478	1307.25
379.704	1299.25
379.929	1350.25
380.155	1316.25
380.38	1348.25
380.606	1336.25
380.831	1321.25
381.057	1332.25
381.282	1338.25
381.507	1330.25
381.733	1360.25
381.958	1383.25
382.184	1426.25
382.409	1402.25
382.634	1455.25
382.86	1407.25
383.085	1429.25
383.31	1445.25
383.535	1477.25
383.761	1503.25
383.986	1498.25
384.211	1504.25
384.436	1514.25
384.662	1595.25
384.887	1583.25
385.112	1572.25
385.337	1603.25
385.562	1629.25
385.787	1594.25
386.013	1629.25
386.238	1644.25
386.463	1602.25
386.688	1619.25
386.913	1568.25
387.138	1602.25
387.363	1609.25
387.588	1591.25
387.813	1623.25
388.038	1601.25
388.263	1620.25
388.488	1612.25
388.713	1602.25
388.938	1608.25
389.163	1580.25
389.387	1590.25
389.612	1589.25
389.837	1601.25
390.062	1610.25
390.287	1604.25
390.512	1582.25
390.736	1623.25
390.961	1638.25
391.186	1662.25
391.411	1700.25
391.636	1711.25
391.86	1756.25
392.085	1754.25
392.31	1778.25
392.534	1734.25
392.759	1737.25
392.984	1734.25
393.208	1709.25
393.433	1732.25
393.658	1718.25
393.882	1682.25
394.107	1677.25
394.331	1700.25
394.556	1698.25
394.78	1705.25
395.005	1717.25
395.229	1753.25
395.454	1794.25
395.678	1823.25
395.903	1796.25
396.127	1784.25
396.352	1731.25
396.576	1722.25
396.801	1739.25
397.025	1768.25
397.249	1772.25
397.474	1832.25
397.698	1753.25
397.922	1811.25
398.147	1799.25
398.371	1864.25
398.595	1892.25
398.82	2002.25
399.044	2117.25
399.268	2285.25
399.492	2559.25
399.717	2734.25
399.941	2759.25
400.165	2565.25
400.389	2364.25
400.613	2237.25
400.837	2105.25
401.062	2050.25
401.286	2004.25
401.51	1978.25
401.734	2009.25
401.958	2006.25
402.182	2014.25
402.406	2050.25
402.63	2091.25
402.854	2081.25
403.078	2047.25
403.302	2152.25
403.526	2144.25
403.75	2192.25
403.974	2219.25
404.198	2171.25
404.422	2183.25
404.645	2212.25
404.869	2152.25
405.093	2186.25
405.317	2111.25
405.541	2144.25
405.765	2182.25
405.988	2144.25
406.212	2171.25
406.436	2138.25
406.66	2187.25
406.883	2227.25
407.107	2400.25
407.331	2475.25
407.555	2505.25
407.778	2530.25
408.002	2486.25
408.226	2422.25
408.449	2381.25
408.673	2265.25
408.896	2249.25
409.12	2224.25
409.344	2209.25
409.567	2197.25
409.791	2243.25
410.014	2222.25
410.238	2194.25
410.461	2185.25
410.685	2162.25
410.908	2142.25
411.132	2115.25
411.355	2083.25
411.578	2083.25
411.802	2080.25
412.025	2064.25
412.249	2102.25
412.472	2123.25
412.695	2015.25
412.919	2001.25
413.142	2012.25
413.365	2014.25
413.589	2039.25
413.812	1984.25
414.035	1949.25
414.258	1966.25
414.482	1972.25
414.705	2039.25
414.928	2030.25
415.151	1961.25
415.374	1992.25
415.597	1961.25
415.821	1926.25
416.044	1910.25
416.267	1945.25
416.49	1923.25
416.713	1898.25
416.936	1933.25
417.159	1927.25
417.382	1865.25
417.605	1904.25
417.828	1910.25
418.051	1967.25
418.274	1944.25
418.497	1924.25
418.72	1925.25
418.943	1947.25
419.166	2077.25
419.389	2236.25
419.611	2144.25
419.834	2086.25
420.057	2008.25
420.28	1931.25
420.503	1919.25
420.726	1881.25
420.948	1860.25
421.171	1931.25
421.394	1931.25
421.617	1900.25
421.839	1934.25
422.062	1921.25
422.285	1914.25
422.507	1980.25
422.73	1934.25
422.953	1933.25
423.175	1945.25
423.398	1960.25
423.621	1950.25
423.843	1999.25
424.066	2007.25
424.288	1964.25
424.511	1958.25
424.733	1935.25
424.956	1893.25
425.178	1963.25
425.401	1973.25
425.623	1934.25
425.846	1908.25
426.068	1871.25
426.291	1856.25
426.513	1854.25
426.735	1851.25
426.958	1821.25
427.18	1783.25
427.402	1783.25
427.625	1841.25
427.847	1752.25
428.069	1754.25
428.292	1794.25
428.514	1723.25
428.736	1747.25
428.958	1747.25
429.181	1728.25
429.403	1766.25
429.625	1717.25
429.847	1729.25
430.069	1739.25
430.292	1740.25
430.514	1707.25
430.736	1710.25
430.958	1720.25
431.18	1760.25
431.402	1747.25
431.624	1750.25
431.846	1774.25
432.068	1754.25
432.29	1783.25
432.512	1757.25
432.734	1784.25
432.956	1720.25
433.178	1808.25
433.4	1765.25
433.622	1810.25
433.844	1809.25
434.066	1810.25
434.287	1820.25
434.509	1876.25
434.731	1932.25
434.953	1961.25
435.175	1935.25
435.397	1946.25
435.618	1862.25
435.84	1848.25
436.062	1802.25
436.284	1763.25
436.505	1739.25
436.727	1777.25
436.949	1719.25
437.17	1774.25
437.392	1752.25
437.614	1749.25
437.835	1674.25
438.057	1706.25
438.278	1676.25
438.5	1681.25
438.721	1610.25
438.943	1694.25
439.165	1652.25
439.386	1674.25
439.608	1730.25
439.829	1733.25
440.05	1731.25
440.272	1699.25
440.493	1787.25
440.715	1738.25
440.936	1752.25
441.158	1836.25
441.379	1804.25
441.6	1924.25
441.822	1887.25
442.043	1908.25
442.264	1843.25
442.486	1855.25
442.707	1860.25
442.928	1881.25
443.149	1870.25
443.371	1855.25
443.592	1888.25
443.813	1904.25
444.034	1886.25
444.255	1958.25
444.476	2018.25
444.698	2123.25
444.919	2144.25
445.14	2207.25
445.361	2105.25
445.582	1959.25
445.803	1850.25
446.024	1844.25
446.245	1824.25
446.466	1795.25
446.687	1700.25
446.908	1730.25
447.129	1690.25
447.35	1701.25
447.571	1658.25
447.792	1665.25
448.013	1650.25
448.234	1584.25
448.455	1575.25
448.675	1580.25
448.896	1590.25
449.117	1568.25
449.338	1549.25
449.559	1538.25
449.779	1536.25
450	1567.25
450.221	1537.25
450.442	1521.25
450.662	1530.25
450.883	1569.25
451.104	1579.25
451.324	1554.25
451.545	1534.25
451.766	1600.25
451.986	1564.25
452.207	1575.25
452.428	1499.25
452.648	1522.25
452.869	1501.25
453.089	1514.25
453.31	1506.25
453.53	1499.25
453.751	1497.25
453.971	1505.25
454.192	1527.25
454.412	1484.25
454.633	1492.25
454.853	1465.25
455.073	1451.25
455.294	1460.25
455.514	1438.25
455.734	1422.25
455.955	1452.25
456.175	1425.25
456.395	1433.25
456.616	1443.25
456.836	1486.25
457.056	1473.25
457.276	1456.25
457.497	1457.25
457.717	1484.25
457.937	1500.25
458.157	1519.25
458.377	1519.25
458.598	1573.25
458.818	1611.25
459.038	1648.25
459.258	1688.25
459.478	1734.25
459.698	1804.25
459.918	1797.25
460.138	1828.25
460.358	1958.25
460.578	1926.25
460.798	1959.25
461.018	1982.25
461.238	1934.25
461.458	1946.25
461.678	1946.25
461.898	2001.25
462.118	2024.25
462.338	2107.25
462.558	2155.25
462.777	2190.25
462.997	2371.25
463.217	2482.25
463.437	2504.25
463.657	2361.25
463.876	2268.25
464.096	2270.25
464.316	2242.25
464.536	2229.25
464.755	2195.25
464.975	2161.25
465.195	2044.25
465.414	1986.25
465.634	1838.25
465.854	1765.25
466.073	1760.25
466.293	1705.25
466.512	1680.25
466.732	1662.25
466.951	1640.25
467.171	1682.25
467.391	1689.25
467.61	1614.25
467.829	1604.25
468.049	1612.25
468.268	1588.25
468.488	1574.25
468.707	1577.25
468.927	1582.25
469.146	1585.25
469.365	1589.25
469.585	1607.25
469.804	1612.25
470.023	1627.25
470.243	1630.25
470.462	1685.25
470.681	1676.25
470.901	1681.25
471.12	1635.25
471.339	1652.25
471.558	1634.25
471.777	1626.25
471.997	1614.25
472.216	1616.25
472.435	1625.25
472.654	1566.25
472.873	1547.25
473.092	1569.25
473.311	1586.25
473.53	1594.25
473.749	1577.25
473.968	1607.25
474.187	1541.25
474.406	1555.25
474.625	1590.25
474.844	1578.25
475.063	1580.25
475.282	1584.25
475.501	1595.25
475.72	1644.25
475.939	1596.25
476.158	1626.25
476.377	1654.25
476.596	1663.25
476.814	1706.25
477.033	1658.25
477.252	1721.25
477.471	1740.25
477.69	1770.25
477.908	1814.25
478.127	1849.25
478.346	1864.25
478.564	1910.25
478.783	1902.25
479.002	1945.25
479.22	1977.25
479.439	1998.25
479.658	1977.25
479.876	1980.25
480.095	2043.25
480.313	2050.25
480.532	2089.25
480.751	2129.25
480.969	2047.25
481.188	1972.25
481.406	1959.25
481.624	1914.25
481.843	1940.25
482.061	1954.25
482.28	1914.25
482.498	1900.25
482.717	1899.25
482.935	1953.25
483.153	1920.25
483.372	1907.25
483.59	1961.25
483.808	1937.25
484.027	1963.25
484.245	2003.25
484.463	1986.25
484.681	2032.25
484.9	2046.25
485.118	2058.25
485.336	2060.25
485.554	2095.25
485.772	2128.25
485.99	2090.25
486.209	2094.25
486.427	2039.25
486.645	2099.25
486.863	2091.25
487.081	2052.25
487.299	2103.25
487.517	2050.25
487.735	2044.25
487.953	2062.25
488.171	2062.25
488.389	2072.25
488.607	2054.25
488.825	1984.25
489.043	2014.25
489.261	1977.25
489.479	2022.25
489.696	1998.25
489.914	1981.25
490.132	1975.25
490.35	1970.25
490.568	1964.25
490.786	1988.25
491.003	1971.25
491.221	1999.25
491.439	1988.25
491.657	1997.25
491.874	1984.25
492.092	2003.25
492.31	1967.25
492.527	1977.25
492.745	1989.25
492.963	1985.25
493.18	1994.25
493.398	1990.25
493.615	2000.25
493.833	1989.25
494.05	1994.25
494.268	2045.25
494.485	2031.25
494.703	1995.25
494.92	2046.25
495.138	2019.25
495.355	2072.25
495.573	2043.25
495.79	2003.25
496.008	2072.25
496.225	2064.25
496.442	2098.25
496.66	2149.25
496.877	2138.25
497.094	2161.25
497.312	2173.25
497.529	2263.25
497.746	2280.25
497.963	2368.25
498.181	2444.25
498.398	2498.25
498.615	2646.25
498.832	2793.25
499.049	2938.25
499.267	3191.25
499.484	3528.25
499.701	3691.25
499.918	4075.25
500.135	4517.25
500.352	4890.25
500.569	5027.25
500.786	5051.25
501.003	4856.25
501.22	4420.25
501.437	3999.25
501.654	3641.25
501.871	3290.25
502.088	3134.25
502.305	2933.25
502.522	2762.25
502.739	2694.25
502.956	2568.25
503.172	2470.25
503.389	2383.25
503.606	2299.25
503.823	2271.25
504.04	2259.25
504.256	2244.25
504.473	2302.25
504.69	2282.25
504.907	2230.25
505.123	2182.25
505.34	2058.25
505.557	1978.25
505.773	1911.25
505.99	1895.25
506.207	1851.25
506.423	1797.25
506.64	1825.25
506.856	1788.25
507.073	1780.25
507.289	1740.25
507.506	1741.25
507.722	1702.25
507.939	1723.25
508.155	1707.25
508.372	1671.25
508.588	1612.25
508.805	1659.25
509.021	1652.25
509.238	1619.25
509.454	1611.25
509.67	1598.25
509.887	1586.25
510.103	1602.25
510.319	1588.25
510.536	1604.25
510.752	1596.25
510.968	1560.25
511.184	1566.25
511.401	1574.25
511.617	1584.25
511.833	1562.25
512.049	1564.25
512.265	1527.25
512.481	1562.25
512.698	1547.25
512.914	1573.25
513.13	1558.25
513.346	1567.25
513.562	1529.25
513.778	1593.25
513.994	1554.25
514.21	1586.25
514.426	1569.25
514.642	1570.25
514.858	1603.25
515.074	1618.25
515.29	1612.25
515.506	1658.25
515.721	1664.25
515.937	1635.25
516.153	1718.25
516.369	1752.25
516.585	1766.25
516.801	1813.25
517.016	1879.25
517.232	1937.25
517.448	2017.25
517.664	2048.25
517.879	2057.25
518.095	2042.25
518.311	2052.25
518.527	1979.25
518.742	1932.25
518.958	1846.25
519.173	1790.25
519.389	1755.25
519.605	1686.25
519.82	1670.25
520.036	1646.25
520.251	1578.25
520.467	1596.25
520.682	1560.25
520.898	1559.25
521.113	1510.25
521.329	1539.25
521.544	1496.25
521.76	1472.25
521.975	1491.25
522.19	1482.25
522.406	1485.25
522.621	1466.25
522.836	1465.25
523.052	1459.25
523.267	1450.25
523.482	1462.25
523.698	1436.25
523.913	1419.25
524.128	1412.25
524.343	1425.25
524.559	1417.25
524.774	1416.25
524.989	1406.25
525.204	1415.25
525.419	1383.25
525.634	1409.25
525.849	1402.25
526.064	1390.25
526.28	1391.25
526.495	1410.25
526.71	1373.25
526.925	1375.25
527.14	1396.25
527.355	1364.25
527.57	1376.25
527.785	1370.25
527.999	1409.25
528.214	1370.25
528.429	1341.25
528.644	1398.25
528.859	1383.25
529.074	1362.25
529.289	1372.25
529.503	1362.25
529.718	1374.25
529.933	1368.25
530.148	1385.25
530.363	1366.25
530.577	1350.25
530.792	1362.25
531.007	1341.25
531.221	1394.25
531.436	1392.25
531.651	1385.25
531.865	1359.25
532.08	1382.25
532.295	1387.25
532.509	1343.25
532.724	1352.25
532.938	1335.25
533.153	1365.25
533.367	1361.25
533.582	1368.25
533.796	1347.25
534.011	1359.25
534.225	1339.25
534.44	1334.25
534.654	1334.25
534.868	1321.25
535.083	1323.25
535.297	1342.25
535.511	1326.25
535.726	1305.25
535.94	1314.25
536.154	1329.25
536.369	1288.25
536.583	1279.25
536.797	1262.25
537.011	1254.25
537.225	1267.25
537.44	1240.25
537.654	1258.25
537.868	1263.25
538.082	1213.25
538.296	1242.25
538.51	1270.25
538.724	1249.25
538.938	1258.25
539.153	1224.25
539.367	1239.25
539.581	1246.25
539.795	1228.25
540.009	1242.25
540.222	1212.25
540.436	1242.25
540.65	1239.25
540.864	1199.25
541.078	1219.25
541.292	1203.25
541.506	1222.25
541.72	1212.25
541.934	1193.25
542.147	1202.25
542.361	1186.25
542.575	1175.25
542.789	1182.25
543.002	1155.25
543.216	1153.25
543.43	1218.25
543.644	1171.25
543.857	1221.25
544.071	1186.25
544.285	1193.25
544.498	1158.25
544.712	1191.25
544.925	1180.25
545.139	1194.25
545.352	1240.25
545.566	1226.25
545.779	1225.25
545.993	1228.25
546.206	1220.25
546.42	1217.25
546.633	1214.25
546.847	1161.25
547.06	1246.25
547.274	1198.25
547.487	1208.25
547.7	1219.25
547.914	1218.25
548.127	1222.25
548.34	1223.25
548.554	1225.25
548.767	1237.25
548.98	1256.25
549.193	1224.25
549.407	1234.25
549.62	1263.25
549.833	1276.25
550.046	1241.25
550.259	1242.25
550.473	1207.25
550.686	1214.25
550.899	1210.25
551.112	1208.25
551.325	1188.25
551.538	1192.25
551.751	1206.25
551.964	1170.25
552.177	1215.25
552.39	1241.25
552.603	1259.25
552.816	1280.25
553.029	1291.25
553.242	1282.25
553.455	1305.25
553.667	1315.25
553.88	1292.25
554.093	1260.25
554.306	1249.25
554.519	1217.25
554.732	1210.25
554.944	1160.25
555.157	1156.25
555.37	1156.25
555.583	1169.25
555.795	1128.25
556.008	1092.25
556.221	1092.25
556.433	1064.25
556.646	1067.25
556.859	1078.25
557.071	1045.25
557.284	1083.25
557.496	1049.25
557.709	1038.25
557.921	1028.25
558.134	1016.25
558.346	1022.25
558.559	1067.25
558.771	1014.25
558.984	1024.25
559.196	1033.25
559.409	1021.25
559.621	999.25
559.833	1035.25
560.046	1015.25
560.258	977.25
560.47	979.25
560.683	1009.25
560.895	1052.25
561.107	982.25
561.32	994.25
561.532	1015.25
561.744	990.25
561.956	1034.25
562.168	1008.25
562.381	1013.25
562.593	1021.25
562.805	998.25
563.017	992.25
563.229	1029.25
563.441	1021.25
563.653	1018.25
563.865	1029.25
564.077	1067.25
564.289	1040.25
564.501	1081.25
564.713	1102.25
564.925	1059.25
565.137	1107.25
565.349	1168.25
565.561	1154.25
565.773	1228.25
565.985	1256.25
566.197	1302.25
566.408	1397.25
566.62	1488.25
566.832	1547.25
567.044	1573.25
567.255	1572.25
567.467	1611.25
567.679	1683.25
567.891	1769.25
568.102	1757.25
568.314	1670.25
568.526	1570.25
568.737	1470.25
568.949	1338.25
569.161	1238.25
569.372	1196.25
569.584	1164.25
569.795	1120.25
570.007	1059.25
570.218	1074.25
570.43	1055.25
570.641	1020.25
570.853	997.25
571.064	1029.25
571.276	995.25
571.487	999.25
571.698	983.25
571.91	954.25
572.121	913.25
572.333	912.25
572.544	883.25
572.755	885.25
572.966	864.25
573.178	858.25
573.389	827.25
573.6	848.25
573.811	802.25
574.023	839.25
574.234	829.25
574.445	811.25
574.656	808.25
574.867	819.25
575.078	826.25
575.289	814.25
575.501	798.25
575.712	777.25
575.923	814.25
576.134	787.25
576.345	772.25
576.556	757.25
576.767	750.25
576.978	747.25
577.188	786.25
577.399	729.25
577.61	757.25
577.821	766.25
578.032	750.25
578.243	723.25
578.454	739.25
578.665	728.25
578.875	720.25
579.086	710.25
579.297	727.25
579.508	735.25
579.718	719.25
579.929	701.25
580.14	684.25
580.35	720.25
580.561	693.25
580.772	700.25
580.982	688.25
581.193	687.25
581.403	675.25
581.614	688.25
581.825	692.25
582.035	701.25
582.246	676.25
582.456	665.25
582.667	669.25
582.877	692.25
583.087	690.25
583.298	686.25
583.508	688.25
583.719	653.25
583.929	683.25
584.139	646.25
584.35	658.25
584.56	694.25
584.77	670.25
584.981	666.25
585.191	665.25
585.401	645.25
585.611	650.25
585.821	645.25
586.032	665.25
586.242	672.25
586.452	670.25
586.662	632.25
586.872	644.25
587.082	634.25
587.292	676.25
587.502	650.25
587.713	632.25
587.923	651.25
588.133	640.25
588.343	650.25
588.553	644.25
588.762	640.25
588.972	641.25
589.182	652.25
589.392	676.25
589.602	631.25
589.812	640.25
590.022	654.25
590.232	647.25
590.441	660.25
590.651	640.25
590.861	633.25
591.071	666.25
591.281	654.25
591.49	670.25
591.7	685.25
591.91	707.25
592.119	668.25
592.329	700.25
592.539	739.25
592.748	709.25
592.958	774.25
593.167	792.25
593.377	754.25
593.587	805.25
593.796	766.25
594.006	799.25
594.215	753.25
594.424	763.25
594.634	754.25
594.843	731.25
595.053	739.25
595.262	711.25
595.472	690.25
595.681	665.25
595.89	664.25
596.1	645.25
596.309	617.25
596.518	626.25
596.727	595.25
596.937	598.25
597.146	587.25
597.355	578.25
597.564	594.25
597.774	582.25
597.983	577.25
598.192	568.25
598.401	566.25
598.61	581.25
598.819	567.25
599.028	552.25
599.237	566.25
599.446	568.25
599.655	557.25
599.864	553.25
600.073	541.25
600.282	546.25
600.491	518.25
600.7	543.25
600.909	525.25
601.118	552.25
601.327	548.25
601.536	524.25
601.745	531.25
601.953	518.25
602.162	520.25
602.371	520.25
602.58	524.25
602.789	522.25
602.997	525.25
603.206	507.25
603.415	502.25
603.623	488.25
603.832	520.25
604.041	494.25
604.249	490.25
604.458	487.25
604.666	501.25
604.875	519.25
605.084	497.25
605.292	470.25
605.501	487.25
605.709	514.25
605.918	467.25
606.126	485.25
606.334	510.25
606.543	495.25
606.751	471.25
606.96	458.25
607.168	478.25
607.376	464.25
607.585	468.25
607.793	501.25
608.001	488.25
608.21	469.25
608.418	484.25
608.626	475.25
608.834	471.25
609.043	465.25
609.251	479.25
609.459	468.25
609.667	473.25
609.875	460.25
610.083	467.25
610.291	458.25
610.499	459.25
610.707	467.25
610.916	456.25
611.124	482.25
611.332	461.25
611.54	481.25
611.748	472.25
611.955	464.25
612.163	459.25
612.371	460.25
612.579	461.25
612.787	462.25
612.995	455.25
613.203	463.25
613.411	465.25
613.618	441.25
613.826	463.25
614.034	430.25
614.242	466.25
614.449	448.25
614.657	444.25
614.865	433.25
615.072	460.25
615.28	456.25
615.488	453.25
615.695	450.25
615.903	430.25
616.111	437.25
616.318	454.25
616.526	466.25
616.733	451.25
616.941	460.25
617.148	431.25
617.356	450.25
617.563	436.25
617.771	480.25
617.978	436.25
618.185	411.25
618.393	435.25
618.6	439.25
618.807	454.25
619.015	445.25
619.222	446.25
619.429	420.25
619.637	443.25
619.844	422.25
620.051	446.25
620.258	418.25
620.466	433.25
620.673	412.25
620.88	387.25
621.087	403.25
621.294	417.25
621.501	419.25
621.708	391.25
621.915	416.25
622.122	421.25
622.329	407.25
622.536	432.25
622.743	422.25
622.95	410.25
623.157	397.25
623.364	394.25
623.571	373.25
623.778	393.25
623.985	385.25
624.192	390.25
624.399	393.25
624.606	396.25
624.812	385.25
625.019	384.25
625.226	400.25
625.433	388.25
625.639	374.25
625.846	383.25
626.053	367.25
626.259	366.25
626.466	373.25
626.673	364.25
626.879	368.25
627.086	363.25
627.293	382.25
627.499	370.25
627.706	384.25
627.912	374.25
628.119	377.25
628.325	384.25
628.532	356.25
628.738	378.25
628.945	366.25
629.151	353.25
629.357	366.25
629.564	357.25
629.77	343.25
629.976	345.25
630.183	348.25
630.389	370.25
630.595	340.25
630.802	337.25
631.008	345.25
631.214	346.25
631.42	334.25
631.627	344.25
631.833	346.25
632.039	344.25
632.245	344.25
632.451	325.25
632.657	329.25
632.863	331.25
633.069	335.25
633.275	315.25
633.481	329.25
633.688	325.25
633.893	323.25
634.099	319.25
634.305	324.25
634.511	340.25
634.717	335.25
634.923	335.25
635.129	311.25
635.335	314.25
635.541	333.25
635.747	327.25
635.952	315.25
636.158	315.25
636.364	322.25
636.57	312.25
636.775	324.25
636.981	333.25
637.187	337.25
637.392	327.25
637.598	338.25
637.804	315.25
638.009	311.25
638.215	309.25
638.421	312.25
638.626	319.25
638.832	308.25
639.037	311.25
639.243	310.25
639.448	316.25
639.654	328.25
639.859	310.25
640.065	310.25
640.27	306.25
640.475	304.25
640.681	319.25
640.886	305.25
641.091	285.25
641.297	305.25
641.502	309.25
641.707	294.25
641.913	291.25
642.118	296.25
642.323	315.25
642.528	298.25
642.733	305.25
642.939	292.25
643.144	297.25
643.349	305.25
643.554	288.25
643.759	291.25
643.964	306.25
644.169	294.25
644.374	289.25
644.579	306.25
644.784	302.25
644.989	303.25
645.194	290.25
645.399	282.25
645.604	308.25
645.809	295.25
646.014	340.25
646.219	302.25
646.423	311.25
646.628	330.25
646.833	320.25
647.038	310.25
647.243	295.25
647.447	311.25
647.652	319.25
647.857	325.25
648.062	319.25
648.266	322.25
648.471	343.25
648.676	316.25
648.88	334.25
649.085	325.25
649.289	315.25
649.494	305.25
649.698	315.25
649.903	319.25
650.107	316.25
650.312	314.25
650.516	300.25
650.721	312.25
650.925	298.25
651.13	297.25
651.334	302.25
651.539	310.25
651.743	302.25
651.947	312.25
652.152	294.25
652.356	295.25
652.56	320.25
652.764	270.25
652.969	256.25
653.173	288.25
653.377	294.25
653.581	296.25
653.785	298.25
653.99	292.25
654.194	277.25
654.398	304.25
654.602	312.25
654.806	316.25
655.01	321.25
655.214	324.25
655.418	316.25
655.622	352.25
655.826	363.25
656.03	371.25
656.234	398.25
656.438	403.25
656.642	422.25
656.846	384.25
657.049	357.25
657.253	320.25
657.457	304.25
657.661	266.25
657.865	231.25
658.068	230.25
658.272	206.25
658.476	202.25
658.68	192.25
658.883	180.25
659.087	171.25
659.291	162.25
659.494	136.25
659.698	158.25
659.901	141.25
660.105	145.25
660.309	126.25
660.512	132.25
660.716	111.25
660.919	126.25
661.123	112.25
661.326	110.25
661.53	113.25
661.733	110.25
661.936	115.25
662.14	104.25
662.343	96.25
662.546	113.25
662.75	94.25
662.953	87.25
663.156	102.25
663.36	85.25
663.563	87.25
663.766	80.25
663.969	84.25
664.173	84.25
664.376	88.25
664.579	87.25
664.782	83.25
664.985	73.25
665.188	87.25
665.391	79.25
665.594	84.25
665.797	86.25
666	72.25
666.203	83.25
666.406	86.25
666.609	74.25
666.812	75.25
667.015	77.25
667.218	76.25
667.421	88.25
667.624	92.25
667.827	89.25
668.03	91.25
668.232	101.25
668.435	87.25
668.638	86.25
668.841	84.25
669.043	67.25
669.246	89.25
669.449	88.25
669.651	73.25
669.854	74.25
670.057	79.25
670.259	85.25
670.462	75.25
670.665	79.25
670.867	76.25
671.07	80.25
671.272	94.25
671.475	106.25
671.677	92.25
671.88	85.25
672.082	73.25
672.284	68.25
672.487	67.25
672.689	78.25
672.892	88.25
