Data from NiCl2@0.0625M.TitratingCurve.Agarose3%dH2O.NegLispCup.LampEnergy10.LIBS07252019_HRD10591_18-33-00-576.txt Node
Date: Thu Jul 25 18:33:00 EDT 2019
User: cochatt
Spectrometer: HR+D1059
Trigger mode: 1
Integration Time (sec): 1.000000E-1
Scans to average: 1
Electric dark correction enabled: true
Nonlinearity correction enabled: false
Boxcar width: 0
XAxis mode: Wavelengths
Number of Pixels in Spectrum: 2048
>>>>>Begin Spectral Data<<<<<
223.165	-22.44
223.4	-22.44
223.635	-22.44
223.869	-10.44
224.104	-19.44
224.338	-15.44
224.573	-25.44
224.808	-5.44
225.042	-19.44
225.277	8.56
225.511	2.56
225.746	15.56
225.98	5.56
226.215	10.56
226.449	15.56
226.683	5.56
226.918	30.56
227.152	23.56
227.387	32.56
227.621	42.56
227.856	33.56
228.09	35.56
228.324	56.56
228.559	46.56
228.793	92.56
229.027	153.56
229.262	139.56
229.496	164.56
229.73	180.56
229.964	195.56
230.199	172.56
230.433	190.56
230.667	177.56
230.901	211.56
231.136	185.56
231.37	174.56
231.604	210.56
231.838	202.56
232.072	205.56
232.306	205.56
232.541	211.56
232.775	212.56
233.009	226.56
233.243	217.56
233.477	211.56
233.711	197.56
233.945	229.56
234.179	226.56
234.413	200.56
234.647	222.56
234.881	227.56
235.115	215.56
235.349	205.56
235.583	234.56
235.817	247.56
236.051	227.56
236.285	243.56
236.519	254.56
236.753	264.56
236.987	247.56
237.221	259.56
237.455	259.56
237.689	265.56
237.922	244.56
238.156	262.56
238.39	279.56
238.624	254.56
238.858	269.56
239.091	278.56
239.325	263.56
239.559	268.56
239.793	290.56
240.027	295.56
240.26	307.56
240.494	277.56
240.728	297.56
240.961	301.56
241.195	301.56
241.429	310.56
241.662	313.56
241.896	318.56
242.13	301.56
242.363	312.56
242.597	329.56
242.83	326.56
243.064	325.56
243.298	329.56
243.531	330.56
243.765	323.56
243.998	340.56
244.232	331.56
244.465	340.56
244.699	345.56
244.932	354.56
245.166	350.56
245.399	350.56
245.633	358.56
245.866	358.56
246.099	363.56
246.333	362.56
246.566	370.56
246.8	369.56
247.033	371.56
247.266	385.56
247.5	355.56
247.733	388.56
247.966	410.56
248.2	415.56
248.433	413.56
248.666	415.56
248.899	393.56
249.133	398.56
249.366	387.56
249.599	410.56
249.832	392.56
250.066	398.56
250.299	397.56
250.532	419.56
250.765	425.56
250.998	427.56
251.231	427.56
251.465	440.56
251.698	458.56
251.931	430.56
252.164	430.56
252.397	443.56
252.63	446.56
252.863	455.56
253.096	470.56
253.329	463.56
253.562	444.56
253.795	452.56
254.028	469.56
254.261	473.56
254.494	465.56
254.727	468.56
254.96	473.56
255.193	462.56
255.426	500.56
255.659	501.56
255.892	489.56
256.124	499.56
256.357	497.56
256.59	498.56
256.823	520.56
257.056	525.56
257.289	494.56
257.521	514.56
257.754	494.56
257.987	528.56
258.22	518.56
258.452	509.56
258.685	541.56
258.918	533.56
259.151	524.56
259.383	531.56
259.616	525.56
259.849	544.56
260.081	554.56
260.314	557.56
260.547	543.56
260.779	540.56
261.012	542.56
261.244	569.56
261.477	567.56
261.71	554.56
261.942	544.56
262.175	564.56
262.407	555.56
262.64	577.56
262.872	594.56
263.105	579.56
263.337	573.56
263.57	586.56
263.802	601.56
264.035	581.56
264.267	579.56
264.499	577.56
264.732	589.56
264.964	611.56
265.197	613.56
265.429	620.56
265.661	592.56
265.894	599.56
266.126	596.56
266.358	640.56
266.591	614.56
266.823	636.56
267.055	628.56
267.287	619.56
267.52	629.56
267.752	639.56
267.984	647.56
268.216	638.56
268.448	655.56
268.681	653.56
268.913	658.56
269.145	673.56
269.377	646.56
269.609	650.56
269.841	657.56
270.073	643.56
270.306	666.56
270.538	670.56
270.77	651.56
271.002	679.56
271.234	661.56
271.466	667.56
271.698	667.56
271.93	679.56
272.162	682.56
272.394	712.56
272.626	679.56
272.858	713.56
273.09	707.56
273.322	710.56
273.553	702.56
273.785	719.56
274.017	711.56
274.249	724.56
274.481	743.56
274.713	724.56
274.945	737.56
275.176	739.56
275.408	751.56
275.64	744.56
275.872	735.56
276.104	778.56
276.335	741.56
276.567	750.56
276.799	744.56
277.031	769.56
277.262	749.56
277.494	752.56
277.726	751.56
277.957	776.56
278.189	760.56
278.421	776.56
278.652	755.56
278.884	793.56
279.115	761.56
279.347	801.56
279.579	805.56
279.81	786.56
280.042	802.56
280.273	819.56
280.505	798.56
280.736	798.56
280.968	806.56
281.199	791.56
281.431	834.56
281.662	821.56
281.894	837.56
282.125	837.56
282.356	845.56
282.588	825.56
282.819	837.56
283.051	850.56
283.282	861.56
283.513	840.56
283.745	843.56
283.976	840.56
284.207	839.56
284.439	858.56
284.67	861.56
284.901	859.56
285.132	855.56
285.364	862.56
285.595	858.56
285.826	870.56
286.057	906.56
286.288	889.56
286.52	882.56
286.751	896.56
286.982	890.56
287.213	871.56
287.444	901.56
287.675	891.56
287.906	911.56
288.138	889.56
288.369	897.56
288.6	927.56
288.831	914.56
289.062	939.56
289.293	922.56
289.524	910.56
289.755	938.56
289.986	916.56
290.217	921.56
290.448	920.56
290.679	923.56
290.91	948.56
291.141	927.56
291.371	923.56
291.602	920.56
291.833	914.56
292.064	931.56
292.295	926.56
292.526	913.56
292.757	947.56
292.987	951.56
293.218	945.56
293.449	950.56
293.68	931.56
293.91	928.56
294.141	949.56
294.372	940.56
294.603	939.56
294.833	932.56
295.064	978.56
295.295	966.56
295.525	948.56
295.756	945.56
295.987	979.56
296.217	999.56
296.448	953.56
296.679	960.56
296.909	947.56
297.14	998.56
297.37	991.56
297.601	1009.56
297.831	986.56
298.062	1025.56
298.292	1027.56
298.523	1037.56
298.753	1034.56
298.984	999.56
299.214	1010.56
299.445	1007.56
299.675	964.56
299.905	1009.56
300.136	1027.56
300.366	1014.56
300.597	1040.56
300.827	1013.56
301.057	1046.56
301.288	1063.56
301.518	1043.56
301.748	1074.56
301.979	1067.56
302.209	1084.56
302.439	1093.56
302.669	1052.56
302.9	1059.56
303.13	1062.56
303.36	1081.56
303.59	1060.56
303.82	1064.56
304.051	1098.56
304.281	1057.56
304.511	1056.56
304.741	1076.56
304.971	1050.56
305.201	1057.56
305.431	1051.56
305.661	1056.56
305.891	1053.56
306.121	1077.56
306.352	1062.56
306.582	1035.56
306.812	1057.56
307.042	1067.56
307.272	1042.56
307.502	1071.56
307.731	1073.56
307.961	1075.56
308.191	1073.56
308.421	1055.56
308.651	1077.56
308.881	1037.56
309.111	1059.56
309.341	1057.56
309.571	1065.56
309.8	1073.56
310.03	1064.56
310.26	1052.56
310.49	1079.56
310.72	1067.56
310.949	1078.56
311.179	1075.56
311.409	1070.56
311.639	1081.56
311.868	1072.56
312.098	1089.56
312.328	1090.56
312.557	1087.56
312.787	1100.56
313.017	1103.56
313.246	1105.56
313.476	1133.56
313.706	1118.56
313.935	1161.56
314.165	1114.56
314.394	1180.56
314.624	1128.56
314.853	1126.56
315.083	1137.56
315.312	1160.56
315.542	1155.56
315.771	1118.56
316.001	1128.56
316.23	1124.56
316.46	1131.56
316.689	1132.56
316.919	1147.56
317.148	1118.56
317.377	1117.56
317.607	1101.56
317.836	1125.56
318.065	1099.56
318.295	1151.56
318.524	1159.56
318.753	1129.56
318.983	1113.56
319.212	1111.56
319.441	1147.56
319.67	1145.56
319.9	1127.56
320.129	1159.56
320.358	1117.56
320.587	1141.56
320.816	1130.56
321.046	1134.56
321.275	1139.56
321.504	1153.56
321.733	1139.56
321.962	1150.56
322.191	1153.56
322.42	1145.56
322.649	1137.56
322.878	1160.56
323.108	1158.56
323.337	1187.56
323.566	1174.56
323.795	1181.56
324.024	1171.56
324.253	1188.56
324.482	1180.56
324.71	1171.56
324.939	1183.56
325.168	1189.56
325.397	1202.56
325.626	1238.56
325.855	1217.56
326.084	1233.56
326.313	1216.56
326.542	1218.56
326.77	1257.56
326.999	1224.56
327.228	1240.56
327.457	1218.56
327.686	1245.56
327.914	1240.56
328.143	1243.56
328.372	1211.56
328.6	1222.56
328.829	1229.56
329.058	1231.56
329.287	1238.56
329.515	1255.56
329.744	1242.56
329.972	1291.56
330.201	1273.56
330.43	1271.56
330.658	1259.56
330.887	1272.56
331.115	1265.56
331.344	1307.56
331.572	1294.56
331.801	1313.56
332.03	1368.56
332.258	1349.56
332.486	1387.56
332.715	1408.56
332.943	1469.56
333.172	1507.56
333.4	1526.56
333.629	1565.56
333.857	1575.56
334.085	1583.56
334.314	1606.56
334.542	1539.56
334.771	1541.56
334.999	1518.56
335.227	1533.56
335.455	1500.56
335.684	1491.56
335.912	1516.56
336.14	1523.56
336.369	1465.56
336.597	1488.56
336.825	1462.56
337.053	1450.56
337.281	1439.56
337.51	1436.56
337.738	1445.56
337.966	1398.56
338.194	1370.56
338.422	1394.56
338.65	1395.56
338.878	1361.56
339.106	1363.56
339.334	1370.56
339.562	1363.56
339.79	1308.56
340.018	1333.56
340.246	1321.56
340.474	1298.56
340.702	1296.56
340.93	1310.56
341.158	1342.56
341.386	1354.56
341.614	1322.56
341.842	1289.56
342.07	1293.56
342.298	1291.56
342.526	1294.56
342.754	1289.56
342.981	1281.56
343.209	1324.56
343.437	1364.56
343.665	1404.56
343.893	1479.56
344.12	1522.56
344.348	1491.56
344.576	1442.56
344.804	1426.56
345.031	1386.56
345.259	1321.56
345.487	1294.56
345.714	1315.56
345.942	1285.56
346.17	1294.56
346.397	1256.56
346.625	1245.56
346.853	1258.56
347.08	1238.56
347.308	1246.56
347.535	1282.56
347.763	1246.56
347.99	1253.56
348.218	1253.56
348.445	1253.56
348.673	1258.56
348.9	1244.56
349.128	1239.56
349.355	1235.56
349.583	1275.56
349.81	1245.56
350.037	1266.56
350.265	1182.56
350.492	1242.56
350.72	1182.56
350.947	1222.56
351.174	1196.56
351.402	1205.56
351.629	1183.56
351.856	1211.56
352.083	1205.56
352.311	1232.56
352.538	1192.56
352.765	1189.56
352.992	1173.56
353.22	1195.56
353.447	1201.56
353.674	1199.56
353.901	1207.56
354.128	1183.56
354.355	1192.56
354.583	1169.56
354.81	1185.56
355.037	1212.56
355.264	1208.56
355.491	1193.56
355.718	1191.56
355.945	1207.56
356.172	1229.56
356.399	1207.56
356.626	1225.56
356.853	1206.56
357.08	1202.56
357.307	1256.56
357.534	1219.56
357.761	1260.56
357.988	1212.56
358.215	1202.56
358.441	1209.56
358.668	1202.56
358.895	1197.56
359.122	1213.56
359.349	1208.56
359.576	1231.56
359.802	1211.56
360.029	1205.56
360.256	1237.56
360.483	1211.56
360.709	1174.56
360.936	1212.56
361.163	1210.56
361.39	1196.56
361.616	1191.56
361.843	1219.56
362.07	1165.56
362.296	1215.56
362.523	1167.56
362.749	1217.56
362.976	1213.56
363.203	1195.56
363.429	1177.56
363.656	1189.56
363.882	1249.56
364.109	1194.56
364.335	1186.56
364.562	1210.56
364.788	1234.56
365.015	1242.56
365.241	1229.56
365.468	1190.56
365.694	1185.56
365.92	1209.56
366.147	1203.56
366.373	1190.56
366.599	1233.56
366.826	1201.56
367.052	1186.56
367.278	1224.56
367.505	1226.56
367.731	1227.56
367.957	1210.56
368.184	1244.56
368.41	1219.56
368.636	1236.56
368.862	1245.56
369.089	1260.56
369.315	1261.56
369.541	1251.56
369.767	1227.56
369.993	1243.56
370.219	1286.56
370.445	1253.56
370.672	1229.56
370.898	1306.56
371.124	1303.56
371.35	1324.56
371.576	1297.56
371.802	1303.56
372.028	1322.56
372.254	1350.56
372.48	1315.56
372.706	1371.56
372.932	1353.56
373.158	1354.56
373.384	1341.56
373.61	1334.56
373.835	1316.56
374.061	1317.56
374.287	1367.56
374.513	1358.56
374.739	1361.56
374.965	1391.56
375.191	1429.56
375.416	1437.56
375.642	1388.56
375.868	1385.56
376.094	1367.56
376.319	1313.56
376.545	1352.56
376.771	1305.56
376.997	1333.56
377.222	1294.56
377.448	1319.56
377.674	1327.56
377.899	1326.56
378.125	1330.56
378.35	1292.56
378.576	1294.56
378.802	1286.56
379.027	1285.56
379.253	1306.56
379.478	1285.56
379.704	1294.56
379.929	1283.56
380.155	1310.56
380.38	1301.56
380.606	1290.56
380.831	1287.56
381.057	1299.56
381.282	1291.56
381.507	1311.56
381.733	1337.56
381.958	1307.56
382.184	1331.56
382.409	1369.56
382.634	1345.56
382.86	1380.56
383.085	1370.56
383.31	1393.56
383.535	1412.56
383.761	1423.56
383.986	1413.56
384.211	1470.56
384.436	1477.56
384.662	1472.56
384.887	1523.56
385.112	1498.56
385.337	1517.56
385.562	1540.56
385.787	1531.56
386.013	1541.56
386.238	1599.56
386.463	1575.56
386.688	1609.56
386.913	1567.56
387.138	1575.56
387.363	1567.56
387.588	1580.56
387.813	1523.56
388.038	1533.56
388.263	1569.56
388.488	1562.56
388.713	1563.56
388.938	1565.56
389.163	1564.56
389.387	1542.56
389.612	1538.56
389.837	1524.56
390.062	1551.56
390.287	1551.56
390.512	1557.56
390.736	1522.56
390.961	1578.56
391.186	1614.56
391.411	1630.56
391.636	1686.56
391.86	1673.56
392.085	1723.56
392.31	1683.56
392.534	1681.56
392.759	1685.56
392.984	1678.56
393.208	1631.56
393.433	1663.56
393.658	1722.56
393.882	1679.56
394.107	1621.56
394.331	1614.56
394.556	1643.56
394.78	1695.56
395.005	1694.56
395.229	1669.56
395.454	1705.56
395.678	1695.56
395.903	1700.56
396.127	1687.56
396.352	1681.56
396.576	1674.56
396.801	1656.56
397.025	1715.56
397.249	1700.56
397.474	1754.56
397.698	1745.56
397.922	1754.56
398.147	1749.56
398.371	1770.56
398.595	1859.56
398.82	1893.56
399.044	2015.56
399.268	2111.56
399.492	2390.56
399.717	2642.56
399.941	2599.56
400.165	2467.56
400.389	2289.56
400.613	2158.56
400.837	2045.56
401.062	1961.56
401.286	1954.56
401.51	1934.56
401.734	1914.56
401.958	1901.56
402.182	1910.56
402.406	1930.56
402.63	1969.56
402.854	2014.56
403.078	1995.56
403.302	2033.56
403.526	2028.56
403.75	2027.56
403.974	2087.56
404.198	2085.56
404.422	2131.56
404.645	2062.56
404.869	2091.56
405.093	2110.56
405.317	2035.56
405.541	2047.56
405.765	2057.56
405.988	2039.56
406.212	2134.56
406.436	2058.56
406.66	2160.56
406.883	2138.56
407.107	2278.56
407.331	2361.56
407.555	2369.56
407.778	2410.56
408.002	2407.56
408.226	2327.56
408.449	2252.56
408.673	2225.56
408.896	2144.56
409.12	2155.56
409.344	2146.56
409.567	2125.56
409.791	2155.56
410.014	2095.56
410.238	2111.56
410.461	2091.56
410.685	2054.56
410.908	2054.56
411.132	2050.56
411.355	1986.56
411.578	2004.56
411.802	1977.56
412.025	2013.56
412.249	2000.56
412.472	1993.56
412.695	1964.56
412.919	1911.56
413.142	1981.56
413.365	1926.56
413.589	1943.56
413.812	1909.56
414.035	1902.56
414.258	1911.56
414.482	1934.56
414.705	1911.56
414.928	1918.56
415.151	1928.56
415.374	1907.56
415.597	1875.56
415.821	1865.56
416.044	1875.56
416.267	1841.56
416.49	1853.56
416.713	1812.56
416.936	1862.56
417.159	1843.56
417.382	1835.56
417.605	1805.56
417.828	1833.56
418.051	1878.56
418.274	1859.56
418.497	1861.56
418.72	1913.56
418.943	1871.56
419.166	2027.56
419.389	2102.56
419.611	2094.56
419.834	1953.56
420.057	1922.56
420.28	1892.56
420.503	1805.56
420.726	1836.56
420.948	1860.56
421.171	1867.56
421.394	1855.56
421.617	1836.56
421.839	1838.56
422.062	1858.56
422.285	1831.56
422.507	1871.56
422.73	1907.56
422.953	1875.56
423.175	1891.56
423.398	1879.56
423.621	1878.56
423.843	1893.56
424.066	1905.56
424.288	1881.56
424.511	1914.56
424.733	1896.56
424.956	1836.56
425.178	1857.56
425.401	1893.56
425.623	1839.56
425.846	1815.56
426.068	1814.56
426.291	1785.56
426.513	1777.56
426.735	1749.56
426.958	1786.56
427.18	1750.56
427.402	1726.56
427.625	1755.56
427.847	1688.56
428.069	1697.56
428.292	1706.56
428.514	1663.56
428.736	1640.56
428.958	1669.56
429.181	1673.56
429.403	1658.56
429.625	1657.56
429.847	1691.56
430.069	1671.56
430.292	1659.56
430.514	1655.56
430.736	1650.56
430.958	1702.56
431.18	1646.56
431.402	1661.56
431.624	1671.56
431.846	1707.56
432.068	1711.56
432.29	1716.56
432.512	1675.56
432.734	1677.56
432.956	1697.56
433.178	1675.56
433.4	1743.56
433.622	1702.56
433.844	1737.56
434.066	1710.56
434.287	1806.56
434.509	1832.56
434.731	1785.56
434.953	1855.56
435.175	1902.56
435.397	1819.56
435.618	1799.56
435.84	1732.56
436.062	1737.56
436.284	1702.56
436.505	1723.56
436.727	1702.56
436.949	1705.56
437.17	1711.56
437.392	1628.56
437.614	1662.56
437.835	1620.56
438.057	1594.56
438.278	1578.56
438.5	1603.56
438.721	1621.56
438.943	1635.56
439.165	1582.56
439.386	1606.56
439.608	1651.56
439.829	1653.56
440.05	1630.56
440.272	1665.56
440.493	1651.56
440.715	1725.56
440.936	1697.56
441.158	1724.56
441.379	1723.56
441.6	1822.56
441.822	1838.56
442.043	1833.56
442.264	1822.56
442.486	1779.56
442.707	1797.56
442.928	1786.56
443.149	1782.56
443.371	1773.56
443.592	1782.56
443.813	1793.56
444.034	1841.56
444.255	1854.56
444.476	2006.56
444.698	2021.56
444.919	2108.56
445.14	2148.56
445.361	1995.56
445.582	1890.56
445.803	1805.56
446.024	1757.56
446.245	1741.56
446.466	1687.56
446.687	1667.56
446.908	1684.56
447.129	1621.56
447.35	1593.56
447.571	1570.56
447.792	1573.56
448.013	1548.56
448.234	1567.56
448.455	1546.56
448.675	1552.56
448.896	1539.56
449.117	1542.56
449.338	1526.56
449.559	1480.56
449.779	1481.56
450	1488.56
450.221	1508.56
450.442	1496.56
450.662	1526.56
450.883	1517.56
451.104	1511.56
451.324	1524.56
451.545	1501.56
451.766	1498.56
451.986	1490.56
452.207	1500.56
452.428	1415.56
452.648	1493.56
452.869	1478.56
453.089	1445.56
453.31	1445.56
453.53	1438.56
453.751	1447.56
453.971	1423.56
454.192	1463.56
454.412	1389.56
454.633	1437.56
454.853	1463.56
455.073	1413.56
455.294	1397.56
455.514	1411.56
455.734	1408.56
455.955	1397.56
456.175	1395.56
456.395	1399.56
456.616	1389.56
456.836	1441.56
457.056	1406.56
457.276	1379.56
457.497	1487.56
457.717	1431.56
457.937	1442.56
458.157	1448.56
458.377	1458.56
458.598	1539.56
458.818	1536.56
459.038	1603.56
459.258	1586.56
459.478	1640.56
459.698	1718.56
459.918	1720.56
460.138	1778.56
460.358	1850.56
460.578	1839.56
460.798	1886.56
461.018	1862.56
461.238	1893.56
461.458	1854.56
461.678	1865.56
461.898	1927.56
462.118	1937.56
462.338	2009.56
462.558	2042.56
462.777	2147.56
462.997	2265.56
463.217	2363.56
463.437	2384.56
463.657	2253.56
463.876	2214.56
464.096	2160.56
464.316	2156.56
464.536	2102.56
464.755	2116.56
464.975	2007.56
465.195	1947.56
465.414	1857.56
465.634	1759.56
465.854	1746.56
466.073	1691.56
466.293	1659.56
466.512	1610.56
466.732	1615.56
466.951	1607.56
467.171	1618.56
467.391	1596.56
467.61	1557.56
467.829	1585.56
468.049	1582.56
468.268	1549.56
468.488	1519.56
468.707	1566.56
468.927	1520.56
469.146	1547.56
469.365	1544.56
469.585	1557.56
469.804	1601.56
470.023	1589.56
470.243	1601.56
470.462	1607.56
470.681	1575.56
470.901	1646.56
471.12	1594.56
471.339	1603.56
471.558	1587.56
471.777	1578.56
471.997	1574.56
472.216	1531.56
472.435	1541.56
472.654	1469.56
472.873	1518.56
473.092	1501.56
473.311	1525.56
473.53	1539.56
473.749	1510.56
473.968	1508.56
474.187	1494.56
474.406	1521.56
474.625	1520.56
474.844	1534.56
475.063	1545.56
475.282	1575.56
475.501	1549.56
475.72	1557.56
475.939	1572.56
476.158	1558.56
476.377	1607.56
476.596	1601.56
476.814	1620.56
477.033	1665.56
477.252	1657.56
477.471	1657.56
477.69	1748.56
477.908	1747.56
478.127	1787.56
478.346	1807.56
478.564	1826.56
478.783	1857.56
479.002	1881.56
479.22	1885.56
479.439	1930.56
479.658	1925.56
479.876	1877.56
480.095	1906.56
480.313	1995.56
480.532	2015.56
480.751	1989.56
480.969	1963.56
481.188	1932.56
481.406	1894.56
481.624	1899.56
481.843	1875.56
482.061	1844.56
482.28	1825.56
482.498	1843.56
482.717	1842.56
482.935	1845.56
483.153	1858.56
483.372	1873.56
483.59	1886.56
483.808	1875.56
484.027	1905.56
484.245	1925.56
484.463	1891.56
484.681	1997.56
484.9	1965.56
485.118	1963.56
485.336	1979.56
485.554	1998.56
485.772	1998.56
485.99	2018.56
486.209	1977.56
486.427	1979.56
486.645	1977.56
486.863	1976.56
487.081	1965.56
487.299	1966.56
487.517	1956.56
487.735	1957.56
487.953	1989.56
488.171	1962.56
488.389	1970.56
488.607	1909.56
488.825	1916.56
489.043	1915.56
489.261	1920.56
489.479	1941.56
489.696	1933.56
489.914	1908.56
490.132	1956.56
490.35	1943.56
490.568	1885.56
490.786	1897.56
491.003	1918.56
491.221	1921.56
491.439	1886.56
491.657	1905.56
491.874	1923.56
492.092	1914.56
492.31	1953.56
492.527	1909.56
492.745	1874.56
492.963	1936.56
493.18	1915.56
493.398	1973.56
493.615	1902.56
493.833	1942.56
494.05	1955.56
494.268	1933.56
494.485	1963.56
494.703	1905.56
494.92	1947.56
495.138	1939.56
495.355	1935.56
495.573	1939.56
495.79	2013.56
496.008	2053.56
496.225	2032.56
496.442	2018.56
496.66	2029.56
496.877	2043.56
497.094	2075.56
497.312	2125.56
497.529	2160.56
497.746	2215.56
497.963	2302.56
498.181	2334.56
498.398	2406.56
498.615	2572.56
498.832	2705.56
499.049	2841.56
499.267	3073.56
499.484	3257.56
499.701	3542.56
499.918	3813.56
500.135	4278.56
500.352	4597.56
500.569	4783.56
500.786	4707.56
501.003	4518.56
501.22	4158.56
501.437	3893.56
501.654	3443.56
501.871	3212.56
502.088	2995.56
502.305	2863.56
502.522	2712.56
502.739	2573.56
502.956	2491.56
503.172	2383.56
503.389	2304.56
503.606	2224.56
503.823	2189.56
504.04	2171.56
504.256	2208.56
504.473	2193.56
504.69	2204.56
504.907	2153.56
505.123	2072.56
505.34	1994.56
505.557	1864.56
505.773	1843.56
505.99	1806.56
506.207	1773.56
506.423	1801.56
506.64	1745.56
506.856	1691.56
507.073	1745.56
507.289	1688.56
507.506	1646.56
507.722	1645.56
507.939	1674.56
508.155	1645.56
508.372	1615.56
508.588	1589.56
508.805	1627.56
509.021	1604.56
509.238	1559.56
509.454	1539.56
509.67	1542.56
509.887	1540.56
510.103	1567.56
510.319	1547.56
510.536	1501.56
510.752	1495.56
510.968	1549.56
511.184	1501.56
511.401	1502.56
511.617	1531.56
511.833	1510.56
512.049	1531.56
512.265	1502.56
512.481	1510.56
512.698	1541.56
512.914	1514.56
513.13	1488.56
513.346	1485.56
513.562	1486.56
513.778	1537.56
513.994	1534.56
514.21	1525.56
514.426	1529.56
514.642	1550.56
514.858	1583.56
515.074	1578.56
515.29	1596.56
515.506	1557.56
515.721	1563.56
515.937	1610.56
516.153	1673.56
516.369	1696.56
516.585	1694.56
516.801	1738.56
517.016	1803.56
517.232	1882.56
517.448	1883.56
517.664	1972.56
517.879	1945.56
518.095	1967.56
518.311	1930.56
518.527	1859.56
518.742	1863.56
518.958	1773.56
519.173	1725.56
519.389	1643.56
519.605	1657.56
519.82	1597.56
520.036	1598.56
520.251	1585.56
520.467	1545.56
520.682	1500.56
520.898	1487.56
521.113	1469.56
521.329	1489.56
521.544	1457.56
521.76	1415.56
521.975	1435.56
522.19	1413.56
522.406	1437.56
522.621	1430.56
522.836	1420.56
523.052	1427.56
523.267	1400.56
523.482	1396.56
523.698	1391.56
523.913	1379.56
524.128	1417.56
524.343	1367.56
524.559	1364.56
524.774	1343.56
524.989	1369.56
525.204	1358.56
525.419	1387.56
525.634	1331.56
525.849	1326.56
526.064	1317.56
526.28	1338.56
526.495	1335.56
526.71	1334.56
526.925	1344.56
527.14	1306.56
527.355	1335.56
527.57	1329.56
527.785	1377.56
527.999	1321.56
528.214	1329.56
528.429	1335.56
528.644	1334.56
528.859	1346.56
529.074	1370.56
529.289	1329.56
529.503	1336.56
529.718	1295.56
529.933	1323.56
530.148	1323.56
530.363	1327.56
530.577	1306.56
530.792	1305.56
531.007	1314.56
531.221	1330.56
531.436	1311.56
531.651	1283.56
531.865	1302.56
532.08	1314.56
532.295	1309.56
532.509	1329.56
532.724	1323.56
532.938	1338.56
533.153	1310.56
533.367	1319.56
533.582	1289.56
533.796	1303.56
534.011	1265.56
534.225	1332.56
534.44	1289.56
534.654	1309.56
534.868	1310.56
535.083	1314.56
535.297	1317.56
535.511	1281.56
535.726	1266.56
535.94	1254.56
536.154	1246.56
536.369	1236.56
536.583	1258.56
536.797	1253.56
537.011	1208.56
537.225	1208.56
537.44	1241.56
537.654	1241.56
537.868	1186.56
538.082	1205.56
538.296	1195.56
538.51	1185.56
538.724	1192.56
538.938	1203.56
539.153	1207.56
539.367	1190.56
539.581	1187.56
539.795	1167.56
540.009	1170.56
540.222	1171.56
540.436	1191.56
540.65	1149.56
540.864	1171.56
541.078	1167.56
541.292	1164.56
541.506	1212.56
541.72	1195.56
541.934	1148.56
542.147	1169.56
542.361	1155.56
542.575	1163.56
542.789	1165.56
543.002	1129.56
543.216	1160.56
543.43	1159.56
543.644	1110.56
543.857	1117.56
544.071	1147.56
544.285	1199.56
544.498	1145.56
544.712	1129.56
544.925	1135.56
545.139	1156.56
545.352	1190.56
545.566	1158.56
545.779	1179.56
545.993	1191.56
546.206	1165.56
546.42	1165.56
546.633	1183.56
546.847	1193.56
547.06	1153.56
547.274	1180.56
547.487	1189.56
547.7	1163.56
547.914	1149.56
548.127	1172.56
548.34	1203.56
548.554	1184.56
548.767	1203.56
548.98	1173.56
549.193	1186.56
549.407	1195.56
549.62	1212.56
549.833	1241.56
550.046	1185.56
550.259	1209.56
550.473	1198.56
550.686	1155.56
550.899	1161.56
551.112	1167.56
551.325	1155.56
551.538	1173.56
551.751	1146.56
551.964	1191.56
552.177	1167.56
552.39	1210.56
552.603	1198.56
552.816	1221.56
553.029	1283.56
553.242	1250.56
553.455	1261.56
553.667	1259.56
553.88	1242.56
554.093	1221.56
554.306	1192.56
554.519	1165.56
554.732	1194.56
554.944	1158.56
555.157	1143.56
555.37	1117.56
555.583	1107.56
555.795	1084.56
556.008	1111.56
556.221	1069.56
556.433	1035.56
556.646	1046.56
556.859	1029.56
557.071	1010.56
557.284	1011.56
557.496	1028.56
557.709	1018.56
557.921	1036.56
558.134	987.56
558.346	1018.56
558.559	997.56
558.771	1009.56
558.984	981.56
559.196	984.56
559.409	960.56
559.621	962.56
559.833	989.56
560.046	987.56
560.258	994.56
560.47	953.56
560.683	971.56
560.895	962.56
561.107	986.56
561.32	959.56
561.532	994.56
561.744	981.56
561.956	971.56
562.168	961.56
562.381	957.56
562.593	989.56
562.805	980.56
563.017	986.56
563.229	983.56
563.441	959.56
563.653	1010.56
563.865	965.56
564.077	1013.56
564.289	1059.56
564.501	1015.56
564.713	1069.56
564.925	1067.56
565.137	1084.56
565.349	1109.56
565.561	1114.56
565.773	1143.56
565.985	1189.56
566.197	1242.56
566.408	1320.56
566.62	1393.56
566.832	1481.56
567.044	1487.56
567.255	1505.56
567.467	1555.56
567.679	1590.56
567.891	1630.56
568.102	1653.56
568.314	1620.56
568.526	1508.56
568.737	1397.56
568.949	1295.56
569.161	1245.56
569.372	1156.56
569.584	1102.56
569.795	1089.56
570.007	1050.56
570.218	1010.56
570.43	977.56
570.641	979.56
570.853	979.56
571.064	1024.56
571.276	962.56
571.487	938.56
571.698	934.56
571.91	911.56
572.121	872.56
572.333	853.56
572.544	898.56
572.755	842.56
572.966	868.56
573.178	837.56
573.389	829.56
573.6	830.56
573.811	848.56
574.023	815.56
574.234	802.56
574.445	780.56
574.656	798.56
574.867	794.56
575.078	808.56
575.289	799.56
575.501	761.56
575.712	766.56
575.923	764.56
576.134	746.56
576.345	744.56
576.556	746.56
576.767	759.56
576.978	771.56
577.188	744.56
577.399	727.56
577.61	727.56
577.821	736.56
578.032	739.56
578.243	716.56
578.454	700.56
578.665	697.56
578.875	706.56
579.086	682.56
579.297	711.56
579.508	701.56
579.718	715.56
579.929	702.56
580.14	683.56
580.35	681.56
580.561	675.56
580.772	685.56
580.982	683.56
581.193	678.56
581.403	639.56
581.614	668.56
581.825	653.56
582.035	642.56
582.246	653.56
582.456	673.56
582.667	643.56
582.877	661.56
583.087	670.56
583.298	675.56
583.508	680.56
583.719	675.56
583.929	670.56
584.139	649.56
584.35	653.56
584.56	666.56
584.77	649.56
584.981	641.56
585.191	650.56
585.401	628.56
585.611	631.56
585.821	630.56
586.032	647.56
586.242	637.56
586.452	644.56
586.662	637.56
586.872	646.56
587.082	637.56
587.292	608.56
587.502	621.56
587.713	639.56
587.923	629.56
588.133	649.56
588.343	645.56
588.553	636.56
588.762	626.56
588.972	635.56
589.182	652.56
589.392	639.56
589.602	635.56
589.812	646.56
590.022	636.56
590.232	630.56
590.441	656.56
590.651	629.56
590.861	615.56
591.071	629.56
591.281	653.56
591.49	691.56
591.7	675.56
591.91	658.56
592.119	671.56
592.329	703.56
592.539	697.56
592.748	746.56
592.958	718.56
593.167	737.56
593.377	747.56
593.587	732.56
593.796	766.56
594.006	769.56
594.215	756.56
594.424	766.56
594.634	739.56
594.843	704.56
595.053	711.56
595.262	691.56
595.472	694.56
595.681	642.56
595.89	642.56
596.1	600.56
596.309	615.56
596.518	641.56
596.727	601.56
596.937	571.56
597.146	564.56
597.355	579.56
597.564	575.56
597.774	564.56
597.983	543.56
598.192	549.56
598.401	526.56
598.61	551.56
598.819	543.56
599.028	535.56
599.237	516.56
599.446	539.56
599.655	531.56
599.864	548.56
600.073	497.56
600.282	521.56
600.491	521.56
600.7	482.56
600.909	533.56
601.118	526.56
601.327	503.56
601.536	512.56
601.745	517.56
601.953	509.56
602.162	532.56
602.371	502.56
602.58	504.56
602.789	528.56
602.997	492.56
603.206	499.56
603.415	463.56
603.623	510.56
603.832	523.56
604.041	494.56
604.249	495.56
604.458	479.56
604.666	488.56
604.875	495.56
605.084	489.56
605.292	484.56
605.501	474.56
605.709	471.56
605.918	479.56
606.126	486.56
606.334	470.56
606.543	455.56
606.751	467.56
606.96	460.56
607.168	469.56
607.376	454.56
607.585	451.56
607.793	473.56
608.001	471.56
608.21	450.56
608.418	457.56
608.626	458.56
608.834	476.56
609.043	469.56
609.251	476.56
609.459	475.56
609.667	466.56
609.875	455.56
610.083	443.56
610.291	443.56
610.499	456.56
610.707	475.56
610.916	434.56
611.124	449.56
611.332	438.56
611.54	449.56
611.748	445.56
611.955	453.56
612.163	451.56
612.371	447.56
612.579	441.56
612.787	434.56
612.995	437.56
613.203	438.56
613.411	430.56
613.618	436.56
613.826	443.56
614.034	439.56
614.242	422.56
614.449	447.56
614.657	424.56
614.865	418.56
615.072	438.56
615.28	427.56
615.488	438.56
615.695	433.56
615.903	421.56
616.111	428.56
616.318	447.56
616.526	446.56
616.733	454.56
616.941	445.56
617.148	439.56
617.356	431.56
617.563	421.56
617.771	412.56
617.978	414.56
618.185	445.56
618.393	422.56
618.6	430.56
618.807	411.56
619.015	442.56
619.222	423.56
619.429	423.56
619.637	430.56
619.844	403.56
620.051	417.56
620.258	412.56
620.466	391.56
620.673	408.56
620.88	401.56
621.087	396.56
621.294	392.56
621.501	391.56
621.708	406.56
621.915	413.56
622.122	389.56
622.329	410.56
622.536	396.56
622.743	404.56
622.95	392.56
623.157	385.56
623.364	399.56
623.571	385.56
623.778	387.56
623.985	378.56
624.192	400.56
624.399	374.56
624.606	377.56
624.812	372.56
625.019	385.56
625.226	378.56
625.433	367.56
625.639	358.56
625.846	382.56
626.053	374.56
626.259	365.56
626.466	359.56
626.673	353.56
626.879	365.56
627.086	366.56
627.293	353.56
627.499	343.56
627.706	366.56
627.912	360.56
628.119	364.56
628.325	356.56
628.532	361.56
628.738	359.56
628.945	341.56
629.151	366.56
629.357	345.56
629.564	348.56
629.77	364.56
629.976	339.56
630.183	345.56
630.389	345.56
630.595	349.56
630.802	350.56
631.008	340.56
631.214	348.56
631.42	331.56
631.627	325.56
631.833	341.56
632.039	325.56
632.245	343.56
632.451	322.56
632.657	326.56
632.863	332.56
633.069	333.56
633.275	326.56
633.481	330.56
633.688	327.56
633.893	335.56
634.099	299.56
634.305	335.56
634.511	330.56
634.717	314.56
634.923	330.56
635.129	311.56
635.335	324.56
635.541	319.56
635.747	306.56
635.952	311.56
636.158	325.56
636.364	309.56
636.57	313.56
636.775	321.56
636.981	316.56
637.187	296.56
637.392	314.56
637.598	325.56
637.804	307.56
638.009	322.56
638.215	309.56
638.421	302.56
638.626	308.56
638.832	311.56
639.037	312.56
639.243	275.56
639.448	297.56
639.654	315.56
639.859	305.56
640.065	292.56
640.27	308.56
640.475	277.56
640.681	296.56
640.886	309.56
641.091	292.56
641.297	305.56
641.502	301.56
641.707	315.56
641.913	300.56
642.118	279.56
642.323	300.56
642.528	284.56
642.733	287.56
642.939	311.56
643.144	283.56
643.349	313.56
643.554	287.56
643.759	297.56
643.964	295.56
644.169	279.56
644.374	287.56
644.579	290.56
644.784	286.56
644.989	295.56
645.194	278.56
645.399	290.56
645.604	302.56
645.809	293.56
646.014	286.56
646.219	271.56
646.423	294.56
646.628	295.56
646.833	295.56
647.038	286.56
647.243	305.56
647.447	302.56
647.652	294.56
647.857	278.56
648.062	301.56
648.266	323.56
648.471	316.56
648.676	325.56
648.88	302.56
649.085	314.56
649.289	322.56
649.494	319.56
649.698	321.56
649.903	303.56
650.107	294.56
650.312	299.56
650.516	318.56
650.721	296.56
650.925	303.56
651.13	290.56
651.334	310.56
651.539	291.56
651.743	281.56
651.947	289.56
652.152	283.56
652.356	300.56
652.56	270.56
652.764	279.56
652.969	284.56
653.173	282.56
653.377	285.56
653.581	282.56
653.785	286.56
653.99	301.56
654.194	301.56
654.398	299.56
654.602	283.56
654.806	297.56
655.01	300.56
655.214	310.56
655.418	313.56
655.622	310.56
655.826	343.56
656.03	335.56
656.234	351.56
656.438	399.56
656.642	377.56
656.846	353.56
657.049	318.56
657.253	311.56
657.457	269.56
657.661	247.56
657.865	249.56
658.068	213.56
658.272	207.56
658.476	183.56
658.68	184.56
658.883	183.56
659.087	163.56
659.291	168.56
659.494	154.56
659.698	130.56
659.901	130.56
660.105	135.56
660.309	119.56
660.512	124.56
660.716	126.56
660.919	121.56
661.123	117.56
661.326	102.56
661.53	98.56
661.733	100.56
661.936	103.56
662.14	101.56
662.343	100.56
662.546	84.56
662.75	94.56
662.953	99.56
663.156	90.56
663.36	78.56
663.563	89.56
663.766	93.56
663.969	94.56
664.173	86.56
664.376	73.56
664.579	83.56
664.782	92.56
664.985	83.56
665.188	93.56
665.391	82.56
665.594	87.56
665.797	73.56
666	75.56
666.203	84.56
666.406	93.56
666.609	71.56
666.812	87.56
667.015	65.56
667.218	78.56
667.421	76.56
667.624	91.56
667.827	76.56
668.03	82.56
668.232	82.56
668.435	78.56
668.638	91.56
668.841	79.56
669.043	98.56
669.246	90.56
669.449	83.56
669.651	77.56
669.854	68.56
670.057	86.56
670.259	87.56
670.462	90.56
670.665	80.56
670.867	98.56
671.07	73.56
671.272	72.56
671.475	85.56
671.677	76.56
671.88	78.56
672.082	82.56
672.284	88.56
672.487	86.56
672.689	75.56
672.892	77.56
