Data from NiCl2@0.5M.TitratingCurve.Agarose3%dH2O.NegLispCup.LampEnergy10.LIBS07252019_HRD10591_18-21-29-571.txt Node
Date: Thu Jul 25 18:21:29 EDT 2019
User: cochatt
Spectrometer: HR+D1059
Trigger mode: 1
Integration Time (sec): 1.000000E-1
Scans to average: 1
Electric dark correction enabled: true
Nonlinearity correction enabled: false
Boxcar width: 0
XAxis mode: Wavelengths
Number of Pixels in Spectrum: 2048
>>>>>Begin Spectral Data<<<<<
223.165	-30.38
223.4	-30.38
223.635	-30.38
223.869	-11.38
224.104	-23.38
224.338	-22.38
224.573	-11.38
224.808	-4.38
225.042	-13.38
225.277	-5.38
225.511	8.62
225.746	0.62
225.98	2.62
226.215	11.62
226.449	14.62
226.683	17.62
226.918	29.62
227.152	36.62
227.387	44.62
227.621	31.62
227.856	50.62
228.09	42.62
228.324	37.62
228.559	48.62
228.793	68.62
229.027	99.62
229.262	112.62
229.496	109.62
229.73	93.62
229.964	111.62
230.199	116.62
230.433	128.62
230.667	116.62
230.901	122.62
231.136	129.62
231.37	124.62
231.604	125.62
231.838	133.62
232.072	125.62
232.306	140.62
232.541	130.62
232.775	137.62
233.009	141.62
233.243	148.62
233.477	136.62
233.711	134.62
233.945	136.62
234.179	124.62
234.413	121.62
234.647	127.62
234.881	129.62
235.115	128.62
235.349	140.62
235.583	138.62
235.817	128.62
236.051	112.62
236.285	141.62
236.519	134.62
236.753	134.62
236.987	130.62
237.221	140.62
237.455	145.62
237.689	138.62
237.922	155.62
238.156	142.62
238.39	126.62
238.624	144.62
238.858	150.62
239.091	146.62
239.325	157.62
239.559	141.62
239.793	160.62
240.027	162.62
240.26	159.62
240.494	157.62
240.728	157.62
240.961	159.62
241.195	154.62
241.429	156.62
241.662	159.62
241.896	145.62
242.13	150.62
242.363	166.62
242.597	170.62
242.83	170.62
243.064	173.62
243.298	161.62
243.531	178.62
243.765	182.62
243.998	180.62
244.232	177.62
244.465	172.62
244.699	163.62
244.932	180.62
245.166	182.62
245.399	182.62
245.633	174.62
245.866	194.62
246.099	189.62
246.333	189.62
246.566	190.62
246.8	181.62
247.033	184.62
247.266	194.62
247.5	202.62
247.733	217.62
247.966	183.62
248.2	184.62
248.433	186.62
248.666	203.62
248.899	196.62
249.133	202.62
249.366	202.62
249.599	208.62
249.832	196.62
250.066	209.62
250.299	205.62
250.532	199.62
250.765	202.62
250.998	213.62
251.231	211.62
251.465	227.62
251.698	229.62
251.931	214.62
252.164	222.62
252.397	233.62
252.63	231.62
252.863	222.62
253.096	224.62
253.329	232.62
253.562	231.62
253.795	223.62
254.028	237.62
254.261	220.62
254.494	222.62
254.727	218.62
254.96	238.62
255.193	223.62
255.426	251.62
255.659	238.62
255.892	234.62
256.124	210.62
256.357	230.62
256.59	250.62
256.823	228.62
257.056	239.62
257.289	214.62
257.521	250.62
257.754	247.62
257.987	259.62
258.22	246.62
258.452	254.62
258.685	249.62
258.918	233.62
259.151	254.62
259.383	253.62
259.616	254.62
259.849	246.62
260.081	250.62
260.314	262.62
260.547	265.62
260.779	258.62
261.012	274.62
261.244	255.62
261.477	267.62
261.71	282.62
261.942	274.62
262.175	251.62
262.407	268.62
262.64	249.62
262.872	269.62
263.105	266.62
263.337	286.62
263.57	275.62
263.802	286.62
264.035	271.62
264.267	279.62
264.499	263.62
264.732	270.62
264.964	298.62
265.197	278.62
265.429	264.62
265.661	276.62
265.894	290.62
266.126	286.62
266.358	298.62
266.591	299.62
266.823	282.62
267.055	293.62
267.287	304.62
267.52	276.62
267.752	306.62
267.984	297.62
268.216	296.62
268.448	292.62
268.681	322.62
268.913	308.62
269.145	314.62
269.377	314.62
269.609	300.62
269.841	322.62
270.073	298.62
270.306	303.62
270.538	314.62
270.77	303.62
271.002	312.62
271.234	320.62
271.466	315.62
271.698	309.62
271.93	320.62
272.162	317.62
272.394	312.62
272.626	327.62
272.858	341.62
273.09	339.62
273.322	328.62
273.553	327.62
273.785	322.62
274.017	320.62
274.249	332.62
274.481	319.62
274.713	330.62
274.945	338.62
275.176	342.62
275.408	343.62
275.64	326.62
275.872	336.62
276.104	344.62
276.335	335.62
276.567	346.62
276.799	344.62
277.031	358.62
277.262	336.62
277.494	354.62
277.726	340.62
277.957	352.62
278.189	340.62
278.421	341.62
278.652	353.62
278.884	356.62
279.115	361.62
279.347	336.62
279.579	370.62
279.81	338.62
280.042	360.62
280.273	375.62
280.505	362.62
280.736	374.62
280.968	394.62
281.199	388.62
281.431	378.62
281.662	378.62
281.894	374.62
282.125	379.62
282.356	384.62
282.588	391.62
282.819	385.62
283.051	386.62
283.282	357.62
283.513	384.62
283.745	393.62
283.976	396.62
284.207	388.62
284.439	382.62
284.67	395.62
284.901	389.62
285.132	399.62
285.364	395.62
285.595	401.62
285.826	402.62
286.057	416.62
286.288	407.62
286.52	411.62
286.751	410.62
286.982	424.62
287.213	402.62
287.444	404.62
287.675	411.62
287.906	416.62
288.138	402.62
288.369	411.62
288.6	425.62
288.831	409.62
289.062	416.62
289.293	408.62
289.524	408.62
289.755	424.62
289.986	420.62
290.217	396.62
290.448	392.62
290.679	424.62
290.91	423.62
291.141	430.62
291.371	431.62
291.602	419.62
291.833	414.62
292.064	420.62
292.295	423.62
292.526	434.62
292.757	426.62
292.987	419.62
293.218	428.62
293.449	435.62
293.68	427.62
293.91	427.62
294.141	443.62
294.372	445.62
294.603	420.62
294.833	436.62
295.064	442.62
295.295	430.62
295.525	420.62
295.756	426.62
295.987	445.62
296.217	434.62
296.448	449.62
296.679	445.62
296.909	440.62
297.14	444.62
297.37	468.62
297.601	454.62
297.831	459.62
298.062	469.62
298.292	484.62
298.523	484.62
298.753	477.62
298.984	458.62
299.214	463.62
299.445	460.62
299.675	483.62
299.905	485.62
300.136	454.62
300.366	462.62
300.597	504.62
300.827	482.62
301.057	479.62
301.288	496.62
301.518	506.62
301.748	491.62
301.979	516.62
302.209	494.62
302.439	485.62
302.669	486.62
302.9	481.62
303.13	478.62
303.36	477.62
303.59	480.62
303.82	490.62
304.051	495.62
304.281	502.62
304.511	508.62
304.741	491.62
304.971	510.62
305.201	493.62
305.431	472.62
305.661	490.62
305.891	487.62
306.121	471.62
306.352	492.62
306.582	472.62
306.812	492.62
307.042	490.62
307.272	472.62
307.502	475.62
307.731	480.62
307.961	484.62
308.191	479.62
308.421	487.62
308.651	472.62
308.881	501.62
309.111	497.62
309.341	479.62
309.571	487.62
309.8	487.62
310.03	486.62
310.26	509.62
310.49	507.62
310.72	492.62
310.949	476.62
311.179	514.62
311.409	485.62
311.639	476.62
311.868	482.62
312.098	503.62
312.328	501.62
312.557	523.62
312.787	501.62
313.017	529.62
313.246	526.62
313.476	515.62
313.706	532.62
313.935	518.62
314.165	523.62
314.394	510.62
314.624	514.62
314.853	538.62
315.083	534.62
315.312	503.62
315.542	518.62
315.771	499.62
316.001	527.62
316.23	519.62
316.46	535.62
316.689	511.62
316.919	517.62
317.148	500.62
317.377	519.62
317.607	522.62
317.836	489.62
318.065	496.62
318.295	525.62
318.524	512.62
318.753	498.62
318.983	521.62
319.212	506.62
319.441	508.62
319.67	518.62
319.9	531.62
320.129	539.62
320.358	519.62
320.587	518.62
320.816	510.62
321.046	535.62
321.275	521.62
321.504	502.62
321.733	524.62
321.962	532.62
322.191	551.62
322.42	528.62
322.649	517.62
322.878	560.62
323.108	523.62
323.337	527.62
323.566	532.62
323.795	542.62
324.024	531.62
324.253	527.62
324.482	544.62
324.71	535.62
324.939	546.62
325.168	556.62
325.397	521.62
325.626	534.62
325.855	549.62
326.084	555.62
326.313	564.62
326.542	567.62
326.77	585.62
326.999	550.62
327.228	560.62
327.457	577.62
327.686	548.62
327.914	528.62
328.143	554.62
328.372	574.62
328.6	574.62
328.829	560.62
329.058	556.62
329.287	571.62
329.515	568.62
329.744	582.62
329.972	582.62
330.201	569.62
330.43	596.62
330.658	586.62
330.887	585.62
331.115	591.62
331.344	594.62
331.572	593.62
331.801	619.62
332.03	624.62
332.258	642.62
332.486	644.62
332.715	653.62
332.943	674.62
333.172	706.62
333.4	698.62
333.629	745.62
333.857	736.62
334.085	734.62
334.314	746.62
334.542	730.62
334.771	732.62
334.999	710.62
335.227	735.62
335.455	687.62
335.684	690.62
335.912	685.62
336.14	711.62
336.369	693.62
336.597	693.62
336.825	699.62
337.053	703.62
337.281	708.62
337.51	670.62
337.738	636.62
337.966	651.62
338.194	647.62
338.422	623.62
338.65	615.62
338.878	614.62
339.106	614.62
339.334	639.62
339.562	623.62
339.79	590.62
340.018	603.62
340.246	595.62
340.474	598.62
340.702	603.62
340.93	583.62
341.158	595.62
341.386	610.62
341.614	609.62
341.842	597.62
342.07	578.62
342.298	573.62
342.526	585.62
342.754	596.62
342.981	600.62
343.209	616.62
343.437	636.62
343.665	664.62
343.893	696.62
344.12	686.62
344.348	688.62
344.576	674.62
344.804	669.62
345.031	645.62
345.259	626.62
345.487	610.62
345.714	625.62
345.942	619.62
346.17	617.62
346.397	597.62
346.625	582.62
346.853	592.62
347.08	587.62
347.308	595.62
347.535	584.62
347.763	589.62
347.99	582.62
348.218	580.62
348.445	590.62
348.673	583.62
348.9	567.62
349.128	598.62
349.355	578.62
349.583	586.62
349.81	571.62
350.037	565.62
350.265	562.62
350.492	558.62
350.72	566.62
350.947	546.62
351.174	559.62
351.402	575.62
351.629	559.62
351.856	568.62
352.083	559.62
352.311	555.62
352.538	564.62
352.765	583.62
352.992	568.62
353.22	536.62
353.447	550.62
353.674	549.62
353.901	547.62
354.128	534.62
354.355	537.62
354.583	529.62
354.81	539.62
355.037	539.62
355.264	540.62
355.491	558.62
355.718	539.62
355.945	534.62
356.172	552.62
356.399	557.62
356.626	551.62
356.853	558.62
357.08	558.62
357.307	567.62
357.534	573.62
357.761	538.62
357.988	544.62
358.215	534.62
358.441	536.62
358.668	547.62
358.895	557.62
359.122	551.62
359.349	549.62
359.576	553.62
359.802	532.62
360.029	544.62
360.256	556.62
360.483	544.62
360.709	554.62
360.936	546.62
361.163	548.62
361.39	575.62
361.616	562.62
361.843	576.62
362.07	553.62
362.296	573.62
362.523	548.62
362.749	533.62
362.976	526.62
363.203	550.62
363.429	544.62
363.656	548.62
363.882	548.62
364.109	537.62
364.335	553.62
364.562	518.62
364.788	542.62
365.015	547.62
365.241	536.62
365.468	529.62
365.694	548.62
365.92	536.62
366.147	531.62
366.373	536.62
366.599	555.62
366.826	534.62
367.052	525.62
367.278	569.62
367.505	548.62
367.731	564.62
367.957	550.62
368.184	558.62
368.41	547.62
368.636	558.62
368.862	551.62
369.089	556.62
369.315	541.62
369.541	565.62
369.767	546.62
369.993	564.62
370.219	574.62
370.445	564.62
370.672	573.62
370.898	582.62
371.124	583.62
371.35	581.62
371.576	589.62
371.802	599.62
372.028	590.62
372.254	590.62
372.48	588.62
372.706	598.62
372.932	606.62
373.158	596.62
373.384	592.62
373.61	583.62
373.835	575.62
374.061	580.62
374.287	593.62
374.513	618.62
374.739	629.62
374.965	664.62
375.191	630.62
375.416	631.62
375.642	613.62
375.868	626.62
376.094	598.62
376.319	576.62
376.545	615.62
376.771	585.62
376.997	570.62
377.222	588.62
377.448	584.62
377.674	580.62
377.899	591.62
378.125	582.62
378.35	599.62
378.576	585.62
378.802	580.62
379.027	568.62
379.253	578.62
379.478	577.62
379.704	588.62
379.929	547.62
380.155	573.62
380.38	576.62
380.606	575.62
380.831	604.62
381.057	578.62
381.282	597.62
381.507	605.62
381.733	622.62
381.958	597.62
382.184	586.62
382.409	594.62
382.634	615.62
382.86	588.62
383.085	626.62
383.31	627.62
383.535	655.62
383.761	645.62
383.986	638.62
384.211	648.62
384.436	668.62
384.662	663.62
384.887	660.62
385.112	670.62
385.337	669.62
385.562	670.62
385.787	680.62
386.013	691.62
386.238	702.62
386.463	677.62
386.688	692.62
386.913	671.62
387.138	669.62
387.363	643.62
387.588	672.62
387.813	687.62
388.038	666.62
388.263	670.62
388.488	674.62
388.713	674.62
388.938	696.62
389.163	686.62
389.387	670.62
389.612	698.62
389.837	678.62
390.062	664.62
390.287	680.62
390.512	666.62
390.736	670.62
390.961	692.62
391.186	730.62
391.411	740.62
391.636	718.62
391.86	751.62
392.085	764.62
392.31	737.62
392.534	770.62
392.759	752.62
392.984	742.62
393.208	712.62
393.433	738.62
393.658	735.62
393.882	755.62
394.107	721.62
394.331	734.62
394.556	743.62
394.78	742.62
395.005	766.62
395.229	744.62
395.454	770.62
395.678	778.62
395.903	769.62
396.127	766.62
396.352	748.62
396.576	746.62
396.801	750.62
397.025	736.62
397.249	754.62
397.474	778.62
397.698	771.62
397.922	793.62
398.147	803.62
398.371	816.62
398.595	827.62
398.82	860.62
399.044	895.62
399.268	1003.62
399.492	1090.62
399.717	1232.62
399.941	1187.62
400.165	1084.62
400.389	1013.62
400.613	951.62
400.837	904.62
401.062	898.62
401.286	848.62
401.51	879.62
401.734	877.62
401.958	893.62
402.182	855.62
402.406	899.62
402.63	890.62
402.854	908.62
403.078	914.62
403.302	954.62
403.526	964.62
403.75	983.62
403.974	964.62
404.198	954.62
404.422	959.62
404.645	977.62
404.869	958.62
405.093	958.62
405.317	942.62
405.541	934.62
405.765	930.62
405.988	927.62
406.212	922.62
406.436	913.62
406.66	964.62
406.883	962.62
407.107	1005.62
407.331	1055.62
407.555	1098.62
407.778	1104.62
408.002	1097.62
408.226	1037.62
408.449	1028.62
408.673	1017.62
408.896	960.62
409.12	992.62
409.344	980.62
409.567	975.62
409.791	978.62
410.014	956.62
410.238	967.62
410.461	969.62
410.685	948.62
410.908	966.62
411.132	942.62
411.355	896.62
411.578	901.62
411.802	866.62
412.025	898.62
412.249	925.62
412.472	909.62
412.695	893.62
412.919	883.62
413.142	879.62
413.365	859.62
413.589	885.62
413.812	882.62
414.035	883.62
414.258	850.62
414.482	871.62
414.705	880.62
414.928	878.62
415.151	899.62
415.374	874.62
415.597	885.62
415.821	840.62
416.044	857.62
416.267	852.62
416.49	860.62
416.713	879.62
416.936	851.62
417.159	863.62
417.382	853.62
417.605	843.62
417.828	814.62
418.051	842.62
418.274	882.62
418.497	858.62
418.72	883.62
418.943	868.62
419.166	923.62
419.389	979.62
419.611	958.62
419.834	908.62
420.057	911.62
420.28	875.62
420.503	878.62
420.726	865.62
420.948	847.62
421.171	851.62
421.394	850.62
421.617	868.62
421.839	890.62
422.062	878.62
422.285	857.62
422.507	877.62
422.73	874.62
422.953	896.62
423.175	904.62
423.398	884.62
423.621	884.62
423.843	899.62
424.066	902.62
424.288	862.62
424.511	882.62
424.733	872.62
424.956	859.62
425.178	880.62
425.401	883.62
425.623	870.62
425.846	840.62
426.068	824.62
426.291	848.62
426.513	848.62
426.735	829.62
426.958	818.62
427.18	786.62
427.402	791.62
427.625	805.62
427.847	777.62
428.069	780.62
428.292	791.62
428.514	797.62
428.736	778.62
428.958	795.62
429.181	765.62
429.403	744.62
429.625	770.62
429.847	780.62
430.069	763.62
430.292	765.62
430.514	755.62
430.736	784.62
430.958	760.62
431.18	784.62
431.402	776.62
431.624	775.62
431.846	790.62
432.068	795.62
432.29	802.62
432.512	781.62
432.734	780.62
432.956	812.62
433.178	801.62
433.4	773.62
433.622	792.62
433.844	808.62
434.066	793.62
434.287	828.62
434.509	803.62
434.731	857.62
434.953	900.62
435.175	860.62
435.397	863.62
435.618	797.62
435.84	806.62
436.062	806.62
436.284	808.62
436.505	812.62
436.727	831.62
436.949	800.62
437.17	768.62
437.392	754.62
437.614	766.62
437.835	757.62
438.057	754.62
438.278	783.62
438.5	776.62
438.721	764.62
438.943	775.62
439.165	781.62
439.386	785.62
439.608	791.62
439.829	798.62
440.05	811.62
440.272	781.62
440.493	810.62
440.715	815.62
440.936	827.62
441.158	847.62
441.379	835.62
441.6	855.62
441.822	878.62
442.043	892.62
442.264	878.62
442.486	867.62
442.707	868.62
442.928	853.62
443.149	863.62
443.371	880.62
443.592	883.62
443.813	896.62
444.034	890.62
444.255	886.62
444.476	943.62
444.698	1035.62
444.919	1029.62
445.14	1091.62
445.361	986.62
445.582	928.62
445.803	882.62
446.024	824.62
446.245	837.62
446.466	853.62
446.687	797.62
446.908	788.62
447.129	806.62
447.35	773.62
447.571	770.62
447.792	764.62
448.013	754.62
448.234	750.62
448.455	753.62
448.675	730.62
448.896	756.62
449.117	756.62
449.338	737.62
449.559	729.62
449.779	733.62
450	739.62
450.221	738.62
450.442	732.62
450.662	720.62
450.883	721.62
451.104	751.62
451.324	736.62
451.545	731.62
451.766	733.62
451.986	707.62
452.207	734.62
452.428	729.62
452.648	725.62
452.869	710.62
453.089	702.62
453.31	732.62
453.53	729.62
453.751	725.62
453.971	682.62
454.192	726.62
454.412	674.62
454.633	703.62
454.853	702.62
455.073	689.62
455.294	695.62
455.514	701.62
455.734	680.62
455.955	685.62
456.175	683.62
456.395	674.62
456.616	676.62
456.836	685.62
457.056	653.62
457.276	682.62
457.497	696.62
457.717	670.62
457.937	664.62
458.157	712.62
458.377	708.62
458.598	747.62
458.818	733.62
459.038	749.62
459.258	755.62
459.478	811.62
459.698	830.62
459.918	858.62
460.138	877.62
460.358	895.62
460.578	894.62
460.798	904.62
461.018	926.62
461.238	934.62
461.458	920.62
461.678	920.62
461.898	958.62
462.118	922.62
462.338	1000.62
462.558	1008.62
462.777	1059.62
462.997	1106.62
463.217	1187.62
463.437	1206.62
463.657	1127.62
463.876	1091.62
464.096	1089.62
464.316	1061.62
464.536	1085.62
464.755	1034.62
464.975	1000.62
465.195	983.62
465.414	893.62
465.634	850.62
465.854	851.62
466.073	844.62
466.293	799.62
466.512	794.62
466.732	790.62
466.951	782.62
467.171	768.62
467.391	774.62
467.61	781.62
467.829	777.62
468.049	790.62
468.268	754.62
468.488	756.62
468.707	718.62
468.927	729.62
469.146	721.62
469.365	756.62
469.585	761.62
469.804	762.62
470.023	772.62
470.243	770.62
470.462	780.62
470.681	803.62
470.901	787.62
471.12	791.62
471.339	772.62
471.558	789.62
471.777	774.62
471.997	742.62
472.216	734.62
472.435	756.62
472.654	733.62
472.873	706.62
473.092	715.62
473.311	727.62
473.53	754.62
473.749	704.62
473.968	714.62
474.187	732.62
474.406	743.62
474.625	761.62
474.844	738.62
475.063	751.62
475.282	716.62
475.501	722.62
475.72	763.62
475.939	724.62
476.158	754.62
476.377	747.62
476.596	735.62
476.814	760.62
477.033	758.62
477.252	774.62
477.471	804.62
477.69	810.62
477.908	822.62
478.127	831.62
478.346	842.62
478.564	875.62
478.783	898.62
479.002	852.62
479.22	882.62
479.439	894.62
479.658	919.62
479.876	910.62
480.095	914.62
480.313	916.62
480.532	952.62
480.751	952.62
480.969	882.62
481.188	883.62
481.406	877.62
481.624	858.62
481.843	859.62
482.061	837.62
482.28	833.62
482.498	822.62
482.717	837.62
482.935	847.62
483.153	822.62
483.372	838.62
483.59	845.62
483.808	837.62
484.027	835.62
484.245	845.62
484.463	838.62
484.681	873.62
484.9	867.62
485.118	871.62
485.336	862.62
485.554	838.62
485.772	844.62
485.99	861.62
486.209	877.62
486.427	884.62
486.645	884.62
486.863	848.62
487.081	861.62
487.299	883.62
487.517	882.62
487.735	858.62
487.953	888.62
488.171	891.62
488.389	847.62
488.607	854.62
488.825	844.62
489.043	858.62
489.261	861.62
489.479	894.62
489.696	887.62
489.914	883.62
490.132	874.62
490.35	871.62
490.568	870.62
490.786	879.62
491.003	880.62
491.221	870.62
491.439	894.62
491.657	895.62
491.874	883.62
492.092	898.62
492.31	905.62
492.527	924.62
492.745	915.62
492.963	902.62
493.18	920.62
493.398	903.62
493.615	953.62
493.833	943.62
494.05	944.62
494.268	937.62
494.485	932.62
494.703	921.62
494.92	934.62
495.138	918.62
495.355	946.62
495.573	920.62
495.79	933.62
496.008	943.62
496.225	962.62
496.442	963.62
496.66	982.62
496.877	974.62
497.094	958.62
497.312	1004.62
497.529	1026.62
497.746	1080.62
497.963	1094.62
498.181	1115.62
498.398	1176.62
498.615	1243.62
498.832	1310.62
499.049	1385.62
499.267	1490.62
499.484	1608.62
499.701	1824.62
499.918	1974.62
500.135	2190.62
500.352	2450.62
500.569	2540.62
500.786	2473.62
501.003	2387.62
501.22	2122.62
501.437	1903.62
501.654	1689.62
501.871	1589.62
502.088	1462.62
502.305	1362.62
502.522	1287.62
502.739	1280.62
502.956	1208.62
503.172	1140.62
503.389	1113.62
503.606	1076.62
503.823	1082.62
504.04	1050.62
504.256	1070.62
504.473	1061.62
504.69	1100.62
504.907	1080.62
505.123	1030.62
505.34	961.62
505.557	924.62
505.773	897.62
505.99	899.62
506.207	839.62
506.423	856.62
506.64	828.62
506.856	826.62
507.073	818.62
507.289	816.62
507.506	811.62
507.722	822.62
507.939	809.62
508.155	795.62
508.372	804.62
508.588	785.62
508.805	790.62
509.021	778.62
509.238	792.62
509.454	776.62
509.67	763.62
509.887	750.62
510.103	782.62
510.319	739.62
510.536	727.62
510.752	726.62
510.968	763.62
511.184	734.62
511.401	724.62
511.617	725.62
511.833	738.62
512.049	730.62
512.265	720.62
512.481	750.62
512.698	729.62
512.914	731.62
513.13	733.62
513.346	742.62
513.562	732.62
513.778	736.62
513.994	756.62
514.21	770.62
514.426	778.62
514.642	729.62
514.858	776.62
515.074	750.62
515.29	766.62
515.506	743.62
515.721	759.62
515.937	803.62
516.153	832.62
516.369	809.62
516.585	853.62
516.801	872.62
517.016	904.62
517.232	936.62
517.448	985.62
517.664	1000.62
517.879	1020.62
518.095	985.62
518.311	989.62
518.527	949.62
518.742	930.62
518.958	858.62
519.173	872.62
519.389	884.62
519.605	826.62
519.82	799.62
520.036	750.62
520.251	749.62
520.467	770.62
520.682	750.62
520.898	750.62
521.113	730.62
521.329	719.62
521.544	722.62
521.76	700.62
521.975	719.62
522.19	722.62
522.406	669.62
522.621	673.62
522.836	685.62
523.052	692.62
523.267	702.62
523.482	682.62
523.698	697.62
523.913	676.62
524.128	690.62
524.343	662.62
524.559	681.62
524.774	687.62
524.989	677.62
525.204	666.62
525.419	680.62
525.634	691.62
525.849	691.62
526.064	657.62
526.28	657.62
526.495	666.62
526.71	670.62
526.925	646.62
527.14	655.62
527.355	651.62
527.57	664.62
527.785	661.62
527.999	666.62
528.214	660.62
528.429	668.62
528.644	676.62
528.859	659.62
529.074	666.62
529.289	668.62
529.503	665.62
529.718	676.62
529.933	679.62
530.148	662.62
530.363	694.62
530.577	637.62
530.792	661.62
531.007	667.62
531.221	663.62
531.436	664.62
531.651	667.62
531.865	662.62
532.08	664.62
532.295	678.62
532.509	654.62
532.724	655.62
532.938	666.62
533.153	668.62
533.367	669.62
533.582	676.62
533.796	662.62
534.011	650.62
534.225	632.62
534.44	650.62
534.654	652.62
534.868	685.62
535.083	666.62
535.297	632.62
535.511	642.62
535.726	658.62
535.94	630.62
536.154	609.62
536.369	605.62
536.583	614.62
536.797	617.62
537.011	630.62
537.225	617.62
537.44	610.62
537.654	635.62
537.868	626.62
538.082	614.62
538.296	590.62
538.51	616.62
538.724	626.62
538.938	610.62
539.153	595.62
539.367	621.62
539.581	611.62
539.795	598.62
540.009	582.62
540.222	598.62
540.436	589.62
540.65	602.62
540.864	607.62
541.078	602.62
541.292	614.62
541.506	611.62
541.72	603.62
541.934	597.62
542.147	612.62
542.361	580.62
542.575	587.62
542.789	588.62
543.002	570.62
543.216	577.62
543.43	593.62
543.644	589.62
543.857	612.62
544.071	600.62
544.285	607.62
544.498	603.62
544.712	602.62
544.925	627.62
545.139	600.62
545.352	618.62
545.566	624.62
545.779	622.62
545.993	623.62
546.206	631.62
546.42	618.62
546.633	610.62
546.847	614.62
547.06	621.62
547.274	601.62
547.487	614.62
547.7	615.62
547.914	634.62
548.127	621.62
548.34	648.62
548.554	623.62
548.767	602.62
548.98	610.62
549.193	622.62
549.407	636.62
549.62	628.62
549.833	626.62
550.046	624.62
550.259	630.62
550.473	596.62
550.686	607.62
550.899	598.62
551.112	601.62
551.325	596.62
551.538	585.62
551.751	590.62
551.964	606.62
552.177	610.62
552.39	619.62
552.603	647.62
552.816	636.62
553.029	652.62
553.242	636.62
553.455	693.62
553.667	690.62
553.88	686.62
554.093	641.62
554.306	610.62
554.519	602.62
554.732	595.62
554.944	599.62
555.157	595.62
555.37	583.62
555.583	585.62
555.795	571.62
556.008	548.62
556.221	538.62
556.433	541.62
556.646	540.62
556.859	520.62
557.071	547.62
557.284	524.62
557.496	550.62
557.709	547.62
557.921	536.62
558.134	530.62
558.346	530.62
558.559	532.62
558.771	530.62
558.984	510.62
559.196	505.62
559.409	498.62
559.621	518.62
559.833	500.62
560.046	502.62
560.258	510.62
560.47	527.62
560.683	511.62
560.895	508.62
561.107	516.62
561.32	499.62
561.532	519.62
561.744	498.62
561.956	508.62
562.168	510.62
562.381	489.62
562.593	510.62
562.805	534.62
563.017	510.62
563.229	529.62
563.441	516.62
563.653	482.62
563.865	511.62
564.077	538.62
564.289	508.62
564.501	523.62
564.713	541.62
564.925	554.62
565.137	539.62
565.349	566.62
565.561	571.62
565.773	598.62
565.985	625.62
566.197	642.62
566.408	692.62
566.62	720.62
566.832	776.62
567.044	783.62
567.255	782.62
567.467	810.62
567.679	839.62
567.891	872.62
568.102	861.62
568.314	841.62
568.526	792.62
568.737	722.62
568.949	688.62
569.161	630.62
569.372	579.62
569.584	558.62
569.795	528.62
570.007	548.62
570.218	520.62
570.43	539.62
570.641	519.62
570.853	516.62
571.064	518.62
571.276	514.62
571.487	509.62
571.698	481.62
571.91	486.62
572.121	483.62
572.333	459.62
572.544	442.62
572.755	431.62
572.966	446.62
573.178	457.62
573.389	423.62
573.6	414.62
573.811	418.62
574.023	424.62
574.234	412.62
574.445	417.62
574.656	422.62
574.867	422.62
575.078	431.62
575.289	419.62
575.501	413.62
575.712	412.62
575.923	397.62
576.134	404.62
576.345	412.62
576.556	404.62
576.767	401.62
576.978	399.62
577.188	396.62
577.399	395.62
577.61	376.62
577.821	381.62
578.032	369.62
578.243	378.62
578.454	376.62
578.665	382.62
578.875	378.62
579.086	367.62
579.297	358.62
579.508	381.62
579.718	360.62
579.929	380.62
580.14	363.62
580.35	370.62
580.561	359.62
580.772	370.62
580.982	352.62
581.193	366.62
581.403	370.62
581.614	372.62
581.825	351.62
582.035	356.62
582.246	355.62
582.456	352.62
582.667	360.62
582.877	356.62
583.087	353.62
583.298	346.62
583.508	357.62
583.719	358.62
583.929	334.62
584.139	333.62
584.35	355.62
584.56	349.62
584.77	334.62
584.981	331.62
585.191	343.62
585.401	302.62
585.611	328.62
585.821	343.62
586.032	334.62
586.242	335.62
586.452	331.62
586.662	350.62
586.872	335.62
587.082	334.62
587.292	319.62
587.502	330.62
587.713	352.62
587.923	341.62
588.133	334.62
588.343	330.62
588.553	346.62
588.762	339.62
588.972	337.62
589.182	384.62
589.392	384.62
589.602	348.62
589.812	384.62
590.022	373.62
590.232	367.62
590.441	350.62
590.651	333.62
590.861	339.62
591.071	346.62
591.281	344.62
591.49	348.62
591.7	354.62
591.91	378.62
592.119	371.62
592.329	386.62
592.539	386.62
592.748	389.62
592.958	391.62
593.167	385.62
593.377	416.62
593.587	418.62
593.796	414.62
594.006	400.62
594.215	412.62
594.424	420.62
594.634	404.62
594.843	394.62
595.053	400.62
595.262	401.62
595.472	333.62
595.681	344.62
595.89	323.62
596.1	335.62
596.309	337.62
596.518	338.62
596.727	319.62
596.937	322.62
597.146	321.62
597.355	316.62
597.564	302.62
597.774	312.62
597.983	310.62
598.192	281.62
598.401	299.62
598.61	306.62
598.819	308.62
599.028	304.62
599.237	303.62
599.446	304.62
599.655	310.62
599.864	286.62
600.073	297.62
600.282	286.62
600.491	275.62
600.7	291.62
600.909	287.62
601.118	280.62
601.327	290.62
601.536	282.62
601.745	285.62
601.953	289.62
602.162	283.62
602.371	256.62
602.58	294.62
602.789	272.62
602.997	266.62
603.206	281.62
603.415	294.62
603.623	283.62
603.832	279.62
604.041	262.62
604.249	249.62
604.458	242.62
604.666	258.62
604.875	277.62
605.084	258.62
605.292	271.62
605.501	266.62
605.709	284.62
605.918	275.62
606.126	271.62
606.334	270.62
606.543	276.62
606.751	278.62
606.96	269.62
607.168	264.62
607.376	260.62
607.585	266.62
607.793	265.62
608.001	252.62
608.21	261.62
608.418	276.62
608.626	274.62
608.834	259.62
609.043	267.62
609.251	269.62
609.459	247.62
609.667	251.62
609.875	258.62
610.083	259.62
610.291	262.62
610.499	272.62
610.707	259.62
610.916	226.62
611.124	262.62
611.332	240.62
611.54	235.62
611.748	265.62
611.955	256.62
612.163	242.62
612.371	261.62
612.579	261.62
612.787	239.62
612.995	262.62
613.203	258.62
613.411	260.62
613.618	250.62
613.826	239.62
614.034	248.62
614.242	273.62
614.449	238.62
614.657	272.62
614.865	263.62
615.072	228.62
615.28	244.62
615.488	268.62
615.695	263.62
615.903	242.62
616.111	239.62
616.318	250.62
616.526	264.62
616.733	260.62
616.941	235.62
617.148	260.62
617.356	234.62
617.563	236.62
617.771	252.62
617.978	251.62
618.185	251.62
618.393	242.62
618.6	246.62
618.807	248.62
619.015	260.62
619.222	264.62
619.429	242.62
619.637	236.62
619.844	255.62
620.051	248.62
620.258	247.62
620.466	229.62
620.673	224.62
620.88	239.62
621.087	213.62
621.294	223.62
621.501	244.62
621.708	223.62
621.915	221.62
622.122	234.62
622.329	230.62
622.536	226.62
622.743	215.62
622.95	242.62
623.157	237.62
623.364	204.62
623.571	232.62
623.778	222.62
623.985	216.62
624.192	205.62
624.399	227.62
624.606	191.62
624.812	213.62
625.019	213.62
625.226	216.62
625.433	229.62
625.639	209.62
625.846	226.62
626.053	216.62
626.259	222.62
626.466	217.62
626.673	242.62
626.879	212.62
627.086	206.62
627.293	216.62
627.499	212.62
627.706	215.62
627.912	205.62
628.119	222.62
628.325	221.62
628.532	203.62
628.738	214.62
628.945	208.62
629.151	212.62
629.357	203.62
629.564	205.62
629.77	209.62
629.976	198.62
630.183	199.62
630.389	211.62
630.595	205.62
630.802	217.62
631.008	197.62
631.214	198.62
631.42	201.62
631.627	190.62
631.833	194.62
632.039	195.62
632.245	191.62
632.451	205.62
632.657	191.62
632.863	197.62
633.069	188.62
633.275	187.62
633.481	206.62
633.688	210.62
633.893	208.62
634.099	186.62
634.305	207.62
634.511	183.62
634.717	176.62
634.923	186.62
635.129	191.62
635.335	205.62
635.541	199.62
635.747	175.62
635.952	184.62
636.158	184.62
636.364	184.62
636.57	179.62
636.775	185.62
636.981	185.62
637.187	170.62
637.392	180.62
637.598	191.62
637.804	171.62
638.009	188.62
638.215	177.62
638.421	183.62
638.626	187.62
638.832	184.62
639.037	172.62
639.243	187.62
639.448	166.62
639.654	160.62
639.859	179.62
640.065	168.62
640.27	182.62
640.475	176.62
640.681	189.62
640.886	189.62
641.091	187.62
641.297	166.62
641.502	156.62
641.707	165.62
641.913	175.62
642.118	169.62
642.323	171.62
642.528	171.62
642.733	176.62
642.939	166.62
643.144	172.62
643.349	168.62
643.554	172.62
643.759	181.62
643.964	163.62
644.169	162.62
644.374	182.62
644.579	152.62
644.784	174.62
644.989	182.62
645.194	174.62
645.399	180.62
645.604	180.62
645.809	166.62
646.014	170.62
646.219	169.62
646.423	160.62
646.628	186.62
646.833	180.62
647.038	167.62
647.243	170.62
647.447	169.62
647.652	152.62
647.857	178.62
648.062	186.62
648.266	179.62
648.471	177.62
648.676	178.62
648.88	177.62
649.085	170.62
649.289	186.62
649.494	169.62
649.698	176.62
649.903	152.62
650.107	155.62
650.312	183.62
650.516	173.62
650.721	174.62
650.925	157.62
651.13	151.62
651.334	150.62
651.539	163.62
651.743	136.62
651.947	139.62
652.152	155.62
652.356	140.62
652.56	140.62
652.764	147.62
652.969	150.62
653.173	139.62
653.377	138.62
653.581	147.62
653.785	132.62
653.99	144.62
654.194	134.62
654.398	134.62
654.602	138.62
654.806	133.62
655.01	132.62
655.214	118.62
655.418	142.62
655.622	142.62
655.826	129.62
656.03	126.62
656.234	132.62
656.438	120.62
656.642	142.62
656.846	126.62
657.049	129.62
657.253	130.62
657.457	110.62
657.661	124.62
657.865	123.62
658.068	111.62
658.272	112.62
658.476	116.62
658.68	104.62
658.883	116.62
659.087	110.62
659.291	102.62
659.494	104.62
659.698	112.62
659.901	122.62
660.105	113.62
660.309	100.62
660.512	86.62
660.716	101.62
660.919	106.62
661.123	101.62
661.326	96.62
661.53	90.62
661.733	94.62
661.936	85.62
662.14	93.62
662.343	84.62
662.546	89.62
662.75	88.62
662.953	96.62
663.156	83.62
663.36	95.62
663.563	91.62
663.766	69.62
663.969	96.62
664.173	78.62
664.376	79.62
664.579	84.62
664.782	94.62
664.985	85.62
665.188	97.62
665.391	80.62
665.594	79.62
665.797	86.62
666	80.62
666.203	77.62
666.406	86.62
666.609	84.62
666.812	85.62
667.015	93.62
667.218	82.62
667.421	84.62
667.624	85.62
667.827	83.62
668.03	69.62
668.232	87.62
668.435	76.62
668.638	81.62
668.841	74.62
669.043	72.62
669.246	83.62
669.449	96.62
669.651	86.62
669.854	78.62
670.057	86.62
670.259	80.62
670.462	91.62
670.665	75.62
670.867	85.62
671.07	74.62
671.272	92.62
671.475	88.62
671.677	98.62
671.88	86.62
672.082	94.62
672.284	89.62
672.487	83.62
672.689	75.62
672.892	95.62
