Data from NiCl2@0.25M.TitratingCurve.Agarose3%dH2O.NegLispCup.LampEnergy10.LIBS07252019_HRD10591_18-24-55-574.txt Node
Date: Thu Jul 25 18:24:55 EDT 2019
User: cochatt
Spectrometer: HR+D1059
Trigger mode: 1
Integration Time (sec): 1.000000E-1
Scans to average: 1
Electric dark correction enabled: true
Nonlinearity correction enabled: false
Boxcar width: 0
XAxis mode: Wavelengths
Number of Pixels in Spectrum: 2048
>>>>>Begin Spectral Data<<<<<
223.165	-20.25
223.4	-20.25
223.635	-20.25
223.869	-10.25
224.104	-13.25
224.338	-4.25
224.573	-2.25
224.808	-23.25
225.042	-14.25
225.277	-7.25
225.511	-3.25
225.746	5.75
225.98	2.75
226.215	7.75
226.449	5.75
226.683	12.75
226.918	34.75
227.152	28.75
227.387	30.75
227.621	52.75
227.856	40.75
228.09	47.75
228.324	44.75
228.559	70.75
228.793	85.75
229.027	116.75
229.262	143.75
229.496	146.75
229.73	147.75
229.964	152.75
230.199	159.75
230.433	153.75
230.667	158.75
230.901	153.75
231.136	140.75
231.37	170.75
231.604	176.75
231.838	176.75
232.072	173.75
232.306	182.75
232.541	182.75
232.775	169.75
233.009	186.75
233.243	174.75
233.477	178.75
233.711	195.75
233.945	186.75
234.179	191.75
234.413	185.75
234.647	180.75
234.881	176.75
235.115	183.75
235.349	186.75
235.583	198.75
235.817	176.75
236.051	198.75
236.285	176.75
236.519	185.75
236.753	201.75
236.987	200.75
237.221	196.75
237.455	203.75
237.689	210.75
237.922	220.75
238.156	212.75
238.39	225.75
238.624	220.75
238.858	215.75
239.091	213.75
239.325	221.75
239.559	231.75
239.793	224.75
240.027	236.75
240.26	224.75
240.494	241.75
240.728	244.75
240.961	229.75
241.195	236.75
241.429	258.75
241.662	228.75
241.896	243.75
242.13	241.75
242.363	254.75
242.597	248.75
242.83	249.75
243.064	244.75
243.298	261.75
243.531	275.75
243.765	264.75
243.998	266.75
244.232	256.75
244.465	283.75
244.699	288.75
244.932	282.75
245.166	283.75
245.399	269.75
245.633	284.75
245.866	270.75
246.099	271.75
246.333	297.75
246.566	299.75
246.8	293.75
247.033	281.75
247.266	299.75
247.5	296.75
247.733	299.75
247.966	315.75
248.2	303.75
248.433	328.75
248.666	317.75
248.899	326.75
249.133	313.75
249.366	302.75
249.599	314.75
249.832	315.75
250.066	302.75
250.299	333.75
250.532	337.75
250.765	345.75
250.998	346.75
251.231	338.75
251.465	345.75
251.698	336.75
251.931	359.75
252.164	359.75
252.397	363.75
252.63	373.75
252.863	380.75
253.096	378.75
253.329	355.75
253.562	354.75
253.795	362.75
254.028	358.75
254.261	382.75
254.494	369.75
254.727	368.75
254.96	364.75
255.193	385.75
255.426	388.75
255.659	382.75
255.892	392.75
256.124	384.75
256.357	382.75
256.59	378.75
256.823	398.75
257.056	394.75
257.289	418.75
257.521	397.75
257.754	408.75
257.987	408.75
258.22	413.75
258.452	416.75
258.685	406.75
258.918	426.75
259.151	420.75
259.383	425.75
259.616	402.75
259.849	433.75
260.081	426.75
260.314	452.75
260.547	439.75
260.779	442.75
261.012	434.75
261.244	430.75
261.477	446.75
261.71	428.75
261.942	427.75
262.175	449.75
262.407	455.75
262.64	439.75
262.872	452.75
263.105	426.75
263.337	466.75
263.57	436.75
263.802	456.75
264.035	451.75
264.267	455.75
264.499	442.75
264.732	458.75
264.964	470.75
265.197	468.75
265.429	473.75
265.661	481.75
265.894	477.75
266.126	476.75
266.358	483.75
266.591	496.75
266.823	490.75
267.055	462.75
267.287	476.75
267.52	484.75
267.752	474.75
267.984	486.75
268.216	493.75
268.448	486.75
268.681	471.75
268.913	512.75
269.145	494.75
269.377	511.75
269.609	516.75
269.841	525.75
270.073	502.75
270.306	530.75
270.538	512.75
270.77	526.75
271.002	538.75
271.234	536.75
271.466	534.75
271.698	510.75
271.93	524.75
272.162	534.75
272.394	567.75
272.626	546.75
272.858	534.75
273.09	552.75
273.322	562.75
273.553	542.75
273.785	554.75
274.017	562.75
274.249	544.75
274.481	579.75
274.713	578.75
274.945	551.75
275.176	570.75
275.408	594.75
275.64	588.75
275.872	587.75
276.104	575.75
276.335	567.75
276.567	577.75
276.799	596.75
277.031	585.75
277.262	601.75
277.494	577.75
277.726	572.75
277.957	606.75
278.189	612.75
278.421	584.75
278.652	588.75
278.884	596.75
279.115	599.75
279.347	591.75
279.579	624.75
279.81	601.75
280.042	606.75
280.273	632.75
280.505	625.75
280.736	629.75
280.968	608.75
281.199	608.75
281.431	612.75
281.662	644.75
281.894	648.75
282.125	618.75
282.356	617.75
282.588	642.75
282.819	646.75
283.051	642.75
283.282	638.75
283.513	652.75
283.745	659.75
283.976	660.75
284.207	687.75
284.439	664.75
284.67	668.75
284.901	669.75
285.132	691.75
285.364	712.75
285.595	674.75
285.826	662.75
286.057	678.75
286.288	685.75
286.52	700.75
286.751	717.75
286.982	692.75
287.213	704.75
287.444	706.75
287.675	724.75
287.906	720.75
288.138	716.75
288.369	700.75
288.6	725.75
288.831	720.75
289.062	700.75
289.293	703.75
289.524	712.75
289.755	728.75
289.986	713.75
290.217	711.75
290.448	710.75
290.679	732.75
290.91	725.75
291.141	717.75
291.371	734.75
291.602	711.75
291.833	732.75
292.064	715.75
292.295	724.75
292.526	723.75
292.757	717.75
292.987	733.75
293.218	742.75
293.449	729.75
293.68	709.75
293.91	726.75
294.141	706.75
294.372	727.75
294.603	769.75
294.833	741.75
295.064	729.75
295.295	738.75
295.525	744.75
295.756	734.75
295.987	735.75
296.217	735.75
296.448	765.75
296.679	770.75
296.909	761.75
297.14	768.75
297.37	794.75
297.601	789.75
297.831	777.75
298.062	783.75
298.292	783.75
298.523	802.75
298.753	813.75
298.984	800.75
299.214	778.75
299.445	804.75
299.675	789.75
299.905	800.75
300.136	806.75
300.366	811.75
300.597	788.75
300.827	848.75
301.057	818.75
301.288	841.75
301.518	837.75
301.748	819.75
301.979	863.75
302.209	875.75
302.439	821.75
302.669	816.75
302.9	824.75
303.13	823.75
303.36	829.75
303.59	817.75
303.82	844.75
304.051	824.75
304.281	845.75
304.511	842.75
304.741	852.75
304.971	847.75
305.201	864.75
305.431	824.75
305.661	817.75
305.891	786.75
306.121	820.75
306.352	831.75
306.582	806.75
306.812	825.75
307.042	826.75
307.272	802.75
307.502	791.75
307.731	811.75
307.961	796.75
308.191	840.75
308.421	800.75
308.651	784.75
308.881	795.75
309.111	816.75
309.341	825.75
309.571	828.75
309.8	840.75
310.03	830.75
310.26	829.75
310.49	828.75
310.72	814.75
310.949	824.75
311.179	832.75
311.409	827.75
311.639	833.75
311.868	829.75
312.098	816.75
312.328	840.75
312.557	840.75
312.787	835.75
313.017	857.75
313.246	854.75
313.476	898.75
313.706	899.75
313.935	882.75
314.165	887.75
314.394	889.75
314.624	874.75
314.853	875.75
315.083	885.75
315.312	874.75
315.542	864.75
315.771	893.75
316.001	868.75
316.23	867.75
316.46	862.75
316.689	861.75
316.919	877.75
317.148	877.75
317.377	835.75
317.607	846.75
317.836	839.75
318.065	865.75
318.295	864.75
318.524	844.75
318.753	868.75
318.983	869.75
319.212	846.75
319.441	862.75
319.67	861.75
319.9	844.75
320.129	861.75
320.358	872.75
320.587	868.75
320.816	848.75
321.046	862.75
321.275	834.75
321.504	858.75
321.733	884.75
321.962	873.75
322.191	876.75
322.42	880.75
322.649	868.75
322.878	900.75
323.108	861.75
323.337	880.75
323.566	895.75
323.795	908.75
324.024	882.75
324.253	904.75
324.482	896.75
324.71	888.75
324.939	896.75
325.168	913.75
325.397	911.75
325.626	932.75
325.855	918.75
326.084	934.75
326.313	962.75
326.542	947.75
326.77	989.75
326.999	930.75
327.228	928.75
327.457	929.75
327.686	905.75
327.914	942.75
328.143	938.75
328.372	963.75
328.6	936.75
328.829	982.75
329.058	958.75
329.287	929.75
329.515	944.75
329.744	968.75
329.972	987.75
330.201	978.75
330.43	971.75
330.658	972.75
330.887	998.75
331.115	974.75
331.344	1029.75
331.572	1008.75
331.801	1033.75
332.03	1043.75
332.258	1067.75
332.486	1120.75
332.715	1134.75
332.943	1204.75
333.172	1246.75
333.4	1322.75
333.629	1304.75
333.857	1349.75
334.085	1282.75
334.314	1257.75
334.542	1240.75
334.771	1212.75
334.999	1203.75
335.227	1211.75
335.455	1219.75
335.684	1191.75
335.912	1150.75
336.14	1164.75
336.369	1125.75
336.597	1149.75
336.825	1140.75
337.053	1143.75
337.281	1099.75
337.51	1099.75
337.738	1113.75
337.966	1050.75
338.194	1047.75
338.422	1053.75
338.65	1034.75
338.878	1003.75
339.106	1023.75
339.334	1050.75
339.562	1051.75
339.79	1010.75
340.018	991.75
340.246	974.75
340.474	983.75
340.702	1001.75
340.93	988.75
341.158	992.75
341.386	1019.75
341.614	989.75
341.842	962.75
342.07	1000.75
342.298	988.75
342.526	971.75
342.754	995.75
342.981	1007.75
343.209	1008.75
343.437	1066.75
343.665	1117.75
343.893	1233.75
344.12	1230.75
344.348	1178.75
344.576	1125.75
344.804	1089.75
345.031	1017.75
345.259	1045.75
345.487	1009.75
345.714	989.75
345.942	984.75
346.17	956.75
346.397	951.75
346.625	945.75
346.853	948.75
347.08	941.75
347.308	926.75
347.535	964.75
347.763	912.75
347.99	951.75
348.218	971.75
348.445	938.75
348.673	944.75
348.9	944.75
349.128	973.75
349.355	941.75
349.583	916.75
349.81	937.75
350.037	938.75
350.265	928.75
350.492	936.75
350.72	930.75
350.947	937.75
351.174	949.75
351.402	889.75
351.629	915.75
351.856	938.75
352.083	906.75
352.311	912.75
352.538	936.75
352.765	931.75
352.992	905.75
353.22	917.75
353.447	887.75
353.674	889.75
353.901	895.75
354.128	903.75
354.355	896.75
354.583	917.75
354.81	906.75
355.037	906.75
355.264	904.75
355.491	902.75
355.718	900.75
355.945	916.75
356.172	914.75
356.399	933.75
356.626	916.75
356.853	957.75
357.08	904.75
357.307	924.75
357.534	920.75
357.761	918.75
357.988	907.75
358.215	910.75
358.441	932.75
358.668	916.75
358.895	913.75
359.122	914.75
359.349	904.75
359.576	918.75
359.802	921.75
360.029	896.75
360.256	925.75
360.483	918.75
360.709	917.75
360.936	927.75
361.163	918.75
361.39	936.75
361.616	912.75
361.843	921.75
362.07	940.75
362.296	939.75
362.523	914.75
362.749	906.75
362.976	913.75
363.203	904.75
363.429	885.75
363.656	925.75
363.882	911.75
364.109	908.75
364.335	888.75
364.562	892.75
364.788	903.75
365.015	913.75
365.241	877.75
365.468	889.75
365.694	894.75
365.92	901.75
366.147	904.75
366.373	908.75
366.599	897.75
366.826	896.75
367.052	918.75
367.278	930.75
367.505	915.75
367.731	926.75
367.957	913.75
368.184	924.75
368.41	910.75
368.636	908.75
368.862	936.75
369.089	898.75
369.315	924.75
369.541	959.75
369.767	955.75
369.993	945.75
370.219	938.75
370.445	947.75
370.672	942.75
370.898	974.75
371.124	988.75
371.35	991.75
371.576	979.75
371.802	980.75
372.028	982.75
372.254	984.75
372.48	981.75
372.706	1012.75
372.932	1024.75
373.158	1015.75
373.384	1005.75
373.61	1016.75
373.835	952.75
374.061	996.75
374.287	987.75
374.513	994.75
374.739	1052.75
374.965	1067.75
375.191	1098.75
375.416	1096.75
375.642	1044.75
375.868	1042.75
376.094	1052.75
376.319	1048.75
376.545	998.75
376.771	1005.75
376.997	1004.75
377.222	994.75
377.448	1027.75
377.674	981.75
377.899	975.75
378.125	985.75
378.35	995.75
378.576	977.75
378.802	988.75
379.027	990.75
379.253	966.75
379.478	970.75
379.704	981.75
379.929	965.75
380.155	964.75
380.38	972.75
380.606	982.75
380.831	981.75
381.057	973.75
381.282	989.75
381.507	983.75
381.733	1004.75
381.958	1002.75
382.184	1008.75
382.409	1008.75
382.634	1052.75
382.86	1028.75
383.085	1056.75
383.31	1060.75
383.535	1072.75
383.761	1098.75
383.986	1130.75
384.211	1138.75
384.436	1190.75
384.662	1169.75
384.887	1206.75
385.112	1222.75
385.337	1214.75
385.562	1240.75
385.787	1208.75
386.013	1192.75
386.238	1208.75
386.463	1209.75
386.688	1224.75
386.913	1240.75
387.138	1196.75
387.363	1178.75
387.588	1150.75
387.813	1213.75
388.038	1184.75
388.263	1210.75
388.488	1216.75
388.713	1185.75
388.938	1189.75
389.163	1148.75
389.387	1158.75
389.612	1131.75
389.837	1149.75
390.062	1179.75
390.287	1153.75
390.512	1178.75
390.736	1147.75
390.961	1197.75
391.186	1208.75
391.411	1274.75
391.636	1269.75
391.86	1379.75
392.085	1350.75
392.31	1360.75
392.534	1306.75
392.759	1323.75
392.984	1287.75
393.208	1271.75
393.433	1269.75
393.658	1275.75
393.882	1254.75
394.107	1284.75
394.331	1263.75
394.556	1286.75
394.78	1305.75
395.005	1325.75
395.229	1284.75
395.454	1300.75
395.678	1360.75
395.903	1389.75
396.127	1371.75
396.352	1294.75
396.576	1271.75
396.801	1255.75
397.025	1298.75
397.249	1334.75
397.474	1361.75
397.698	1357.75
397.922	1355.75
398.147	1376.75
398.371	1385.75
398.595	1454.75
398.82	1514.75
399.044	1641.75
399.268	1774.75
399.492	2081.75
399.717	2348.75
399.941	2355.75
400.165	2102.75
400.389	1849.75
400.613	1702.75
400.837	1631.75
401.062	1549.75
401.286	1554.75
401.51	1544.75
401.734	1559.75
401.958	1610.75
402.182	1597.75
402.406	1568.75
402.63	1580.75
402.854	1669.75
403.078	1656.75
403.302	1707.75
403.526	1757.75
403.75	1769.75
403.974	1801.75
404.198	1804.75
404.422	1785.75
404.645	1740.75
404.869	1767.75
405.093	1716.75
405.317	1690.75
405.541	1698.75
405.765	1694.75
405.988	1651.75
406.212	1694.75
406.436	1681.75
406.66	1721.75
406.883	1728.75
407.107	1860.75
407.331	1938.75
407.555	2022.75
407.778	1969.75
408.002	1937.75
408.226	1933.75
408.449	1824.75
408.673	1759.75
408.896	1740.75
409.12	1682.75
409.344	1712.75
409.567	1714.75
409.791	1743.75
410.014	1698.75
410.238	1687.75
410.461	1656.75
410.685	1655.75
410.908	1658.75
411.132	1584.75
411.355	1572.75
411.578	1581.75
411.802	1532.75
412.025	1620.75
412.249	1580.75
412.472	1592.75
412.695	1546.75
412.919	1574.75
413.142	1533.75
413.365	1505.75
413.589	1536.75
413.812	1488.75
414.035	1468.75
414.258	1471.75
414.482	1543.75
414.705	1542.75
414.928	1551.75
415.151	1525.75
415.374	1486.75
415.597	1477.75
415.821	1464.75
416.044	1466.75
416.267	1456.75
416.49	1475.75
416.713	1442.75
416.936	1515.75
417.159	1462.75
417.382	1490.75
417.605	1501.75
417.828	1485.75
418.051	1512.75
418.274	1523.75
418.497	1493.75
418.72	1564.75
418.943	1534.75
419.166	1606.75
419.389	1713.75
419.611	1690.75
419.834	1608.75
420.057	1564.75
420.28	1515.75
420.503	1449.75
420.726	1473.75
420.948	1476.75
421.171	1498.75
421.394	1478.75
421.617	1472.75
421.839	1506.75
422.062	1494.75
422.285	1486.75
422.507	1488.75
422.73	1508.75
422.953	1527.75
423.175	1532.75
423.398	1588.75
423.621	1571.75
423.843	1592.75
424.066	1593.75
424.288	1572.75
424.511	1556.75
424.733	1584.75
424.956	1515.75
425.178	1505.75
425.401	1494.75
425.623	1494.75
425.846	1447.75
426.068	1446.75
426.291	1424.75
426.513	1422.75
426.735	1440.75
426.958	1434.75
427.18	1352.75
427.402	1343.75
427.625	1360.75
427.847	1346.75
428.069	1302.75
428.292	1377.75
428.514	1316.75
428.736	1316.75
428.958	1293.75
429.181	1281.75
429.403	1314.75
429.625	1278.75
429.847	1257.75
430.069	1268.75
430.292	1298.75
430.514	1298.75
430.736	1272.75
430.958	1268.75
431.18	1284.75
431.402	1309.75
431.624	1286.75
431.846	1320.75
432.068	1301.75
432.29	1341.75
432.512	1300.75
432.734	1301.75
432.956	1322.75
433.178	1312.75
433.4	1307.75
433.622	1307.75
433.844	1316.75
434.066	1319.75
434.287	1336.75
434.509	1355.75
434.731	1458.75
434.953	1450.75
435.175	1508.75
435.397	1447.75
435.618	1412.75
435.84	1342.75
436.062	1336.75
436.284	1313.75
436.505	1292.75
436.727	1287.75
436.949	1308.75
437.17	1313.75
437.392	1257.75
437.614	1260.75
437.835	1228.75
438.057	1273.75
438.278	1225.75
438.5	1209.75
438.721	1247.75
438.943	1260.75
439.165	1239.75
439.386	1289.75
439.608	1278.75
439.829	1275.75
440.05	1288.75
440.272	1316.75
440.493	1329.75
440.715	1316.75
440.936	1361.75
441.158	1341.75
441.379	1394.75
441.6	1479.75
441.822	1472.75
442.043	1502.75
442.264	1451.75
442.486	1428.75
442.707	1423.75
442.928	1444.75
443.149	1442.75
443.371	1454.75
443.592	1465.75
443.813	1450.75
444.034	1498.75
444.255	1550.75
444.476	1602.75
444.698	1725.75
444.919	1794.75
445.14	1874.75
445.361	1685.75
445.582	1559.75
445.803	1459.75
446.024	1367.75
446.245	1360.75
446.466	1349.75
446.687	1324.75
446.908	1312.75
447.129	1277.75
447.35	1230.75
447.571	1195.75
447.792	1177.75
448.013	1217.75
448.234	1186.75
448.455	1172.75
448.675	1168.75
448.896	1208.75
449.117	1161.75
449.338	1152.75
449.559	1149.75
449.779	1155.75
450	1184.75
450.221	1164.75
450.442	1176.75
450.662	1191.75
450.883	1157.75
451.104	1190.75
451.324	1233.75
451.545	1190.75
451.766	1225.75
451.986	1156.75
452.207	1155.75
452.428	1187.75
452.648	1180.75
452.869	1121.75
453.089	1166.75
453.31	1142.75
453.53	1154.75
453.751	1169.75
453.971	1124.75
454.192	1131.75
454.412	1103.75
454.633	1123.75
454.853	1105.75
455.073	1096.75
455.294	1132.75
455.514	1102.75
455.734	1101.75
455.955	1098.75
456.175	1094.75
456.395	1080.75
456.616	1076.75
456.836	1078.75
457.056	1090.75
457.276	1078.75
457.497	1129.75
457.717	1106.75
457.937	1140.75
458.157	1138.75
458.377	1151.75
458.598	1161.75
458.818	1210.75
459.038	1244.75
459.258	1266.75
459.478	1332.75
459.698	1344.75
459.918	1382.75
460.138	1462.75
460.358	1520.75
460.578	1564.75
460.798	1542.75
461.018	1597.75
461.238	1537.75
461.458	1547.75
461.678	1536.75
461.898	1570.75
462.118	1563.75
462.338	1682.75
462.558	1667.75
462.777	1795.75
462.997	1961.75
463.217	2113.75
463.437	2129.75
463.657	1958.75
463.876	1870.75
464.096	1801.75
464.316	1829.75
464.536	1821.75
464.755	1735.75
464.975	1669.75
465.195	1617.75
465.414	1510.75
465.634	1402.75
465.854	1377.75
466.073	1362.75
466.293	1326.75
466.512	1283.75
466.732	1250.75
466.951	1249.75
467.171	1212.75
467.391	1229.75
467.61	1218.75
467.829	1242.75
468.049	1208.75
468.268	1205.75
468.488	1192.75
468.707	1192.75
468.927	1204.75
469.146	1166.75
469.365	1217.75
469.585	1211.75
469.804	1245.75
470.023	1272.75
470.243	1284.75
470.462	1281.75
470.681	1292.75
470.901	1291.75
471.12	1268.75
471.339	1255.75
471.558	1211.75
471.777	1206.75
471.997	1190.75
472.216	1207.75
472.435	1180.75
472.654	1175.75
472.873	1117.75
473.092	1140.75
473.311	1151.75
473.53	1153.75
473.749	1158.75
473.968	1171.75
474.187	1116.75
474.406	1128.75
474.625	1177.75
474.844	1133.75
475.063	1172.75
475.282	1202.75
475.501	1157.75
475.72	1197.75
475.939	1155.75
476.158	1171.75
476.377	1196.75
476.596	1182.75
476.814	1213.75
477.033	1205.75
477.252	1250.75
477.471	1302.75
477.69	1323.75
477.908	1336.75
478.127	1389.75
478.346	1371.75
478.564	1437.75
478.783	1449.75
479.002	1497.75
479.22	1441.75
479.439	1442.75
479.658	1459.75
479.876	1463.75
480.095	1486.75
480.313	1554.75
480.532	1581.75
480.751	1613.75
480.969	1536.75
481.188	1463.75
481.406	1397.75
481.624	1375.75
481.843	1334.75
482.061	1352.75
482.28	1342.75
482.498	1334.75
482.717	1334.75
482.935	1307.75
483.153	1328.75
483.372	1318.75
483.59	1324.75
483.808	1323.75
484.027	1336.75
484.245	1345.75
484.463	1355.75
484.681	1404.75
484.9	1350.75
485.118	1375.75
485.336	1352.75
485.554	1367.75
485.772	1415.75
485.99	1393.75
486.209	1384.75
486.427	1398.75
486.645	1366.75
486.863	1389.75
487.081	1398.75
487.299	1416.75
487.517	1380.75
487.735	1406.75
487.953	1391.75
488.171	1389.75
488.389	1357.75
488.607	1376.75
488.825	1353.75
489.043	1362.75
489.261	1362.75
489.479	1380.75
489.696	1392.75
489.914	1364.75
490.132	1388.75
490.35	1394.75
490.568	1385.75
490.786	1390.75
491.003	1404.75
491.221	1410.75
491.439	1394.75
491.657	1389.75
491.874	1402.75
492.092	1388.75
492.31	1401.75
492.527	1492.75
492.745	1438.75
492.963	1440.75
493.18	1448.75
493.398	1452.75
493.615	1470.75
493.833	1444.75
494.05	1444.75
494.268	1467.75
494.485	1475.75
494.703	1479.75
494.92	1448.75
495.138	1460.75
495.355	1498.75
495.573	1512.75
495.79	1487.75
496.008	1524.75
496.225	1532.75
496.442	1580.75
496.66	1584.75
496.877	1576.75
497.094	1617.75
497.312	1630.75
497.529	1651.75
497.746	1680.75
497.963	1743.75
498.181	1858.75
498.398	1933.75
498.615	2033.75
498.832	2166.75
499.049	2436.75
499.267	2562.75
499.484	2809.75
499.701	3109.75
499.918	3453.75
500.135	4000.75
500.352	4529.75
500.569	4780.75
500.786	4682.75
501.003	4382.75
501.22	3959.75
501.437	3456.75
501.654	3033.75
501.871	2740.75
502.088	2482.75
502.305	2346.75
502.522	2169.75
502.739	2122.75
502.956	2001.75
503.172	1906.75
503.389	1856.75
503.606	1760.75
503.823	1732.75
504.04	1728.75
504.256	1749.75
504.473	1790.75
504.69	1828.75
504.907	1792.75
505.123	1674.75
505.34	1584.75
505.557	1480.75
505.773	1486.75
505.99	1453.75
506.207	1405.75
506.423	1372.75
506.64	1357.75
506.856	1335.75
507.073	1309.75
507.289	1295.75
507.506	1332.75
507.722	1333.75
507.939	1298.75
508.155	1274.75
508.372	1261.75
508.588	1266.75
508.805	1240.75
509.021	1208.75
509.238	1226.75
509.454	1230.75
509.67	1217.75
509.887	1204.75
510.103	1192.75
510.319	1245.75
510.536	1194.75
510.752	1160.75
510.968	1218.75
511.184	1184.75
511.401	1195.75
511.617	1208.75
511.833	1164.75
512.049	1180.75
512.265	1205.75
512.481	1191.75
512.698	1174.75
512.914	1195.75
513.13	1222.75
513.346	1168.75
513.562	1187.75
513.778	1205.75
513.994	1190.75
514.21	1214.75
514.426	1189.75
514.642	1220.75
514.858	1232.75
515.074	1226.75
515.29	1219.75
515.506	1242.75
515.721	1288.75
515.937	1296.75
516.153	1299.75
516.369	1363.75
516.585	1428.75
516.801	1450.75
517.016	1505.75
517.232	1570.75
517.448	1645.75
517.664	1744.75
517.879	1722.75
518.095	1732.75
518.311	1656.75
518.527	1604.75
518.742	1525.75
518.958	1465.75
519.173	1425.75
519.389	1365.75
519.605	1308.75
519.82	1284.75
520.036	1253.75
520.251	1245.75
520.467	1212.75
520.682	1186.75
520.898	1201.75
521.113	1172.75
521.329	1189.75
521.544	1186.75
521.76	1149.75
521.975	1148.75
522.19	1137.75
522.406	1123.75
522.621	1138.75
522.836	1126.75
523.052	1136.75
523.267	1116.75
523.482	1124.75
523.698	1110.75
523.913	1107.75
524.128	1095.75
524.343	1099.75
524.559	1086.75
524.774	1056.75
524.989	1112.75
525.204	1100.75
525.419	1065.75
525.634	1046.75
525.849	1091.75
526.064	1101.75
526.28	1048.75
526.495	1091.75
526.71	1070.75
526.925	1074.75
527.14	1050.75
527.355	1039.75
527.57	1089.75
527.785	1068.75
527.999	1064.75
528.214	1055.75
528.429	1066.75
528.644	1074.75
528.859	1080.75
529.074	1064.75
529.289	1057.75
529.503	1082.75
529.718	1066.75
529.933	1052.75
530.148	1072.75
530.363	1083.75
530.577	1063.75
530.792	1048.75
531.007	1076.75
531.221	1054.75
531.436	1049.75
531.651	1058.75
531.865	1098.75
532.08	1069.75
532.295	1069.75
532.509	1061.75
532.724	1070.75
532.938	1076.75
533.153	1092.75
533.367	1054.75
533.582	1072.75
533.796	1057.75
534.011	1046.75
534.225	1058.75
534.44	1044.75
534.654	1034.75
534.868	1036.75
535.083	1060.75
535.297	1042.75
535.511	1017.75
535.726	1017.75
535.94	1011.75
536.154	994.75
536.369	1013.75
536.583	992.75
536.797	981.75
537.011	996.75
537.225	987.75
537.44	959.75
537.654	956.75
537.868	982.75
538.082	953.75
538.296	985.75
538.51	989.75
538.724	1000.75
538.938	956.75
539.153	961.75
539.367	930.75
539.581	951.75
539.795	941.75
540.009	961.75
540.222	953.75
540.436	970.75
540.65	954.75
540.864	968.75
541.078	977.75
541.292	957.75
541.506	948.75
541.72	958.75
541.934	940.75
542.147	965.75
542.361	960.75
542.575	933.75
542.789	955.75
543.002	918.75
543.216	946.75
543.43	934.75
543.644	909.75
543.857	930.75
544.071	921.75
544.285	928.75
544.498	947.75
544.712	968.75
544.925	955.75
545.139	985.75
545.352	977.75
545.566	967.75
545.779	982.75
545.993	956.75
546.206	942.75
546.42	973.75
546.633	985.75
546.847	944.75
547.06	963.75
547.274	953.75
547.487	968.75
547.7	986.75
547.914	985.75
548.127	962.75
548.34	994.75
548.554	1009.75
548.767	970.75
548.98	976.75
549.193	972.75
549.407	986.75
549.62	1011.75
549.833	1015.75
550.046	993.75
550.259	1012.75
550.473	954.75
550.686	957.75
550.899	935.75
551.112	942.75
551.325	950.75
551.538	940.75
551.751	969.75
551.964	930.75
552.177	953.75
552.39	987.75
552.603	969.75
552.816	1038.75
553.029	1052.75
553.242	1085.75
553.455	1092.75
553.667	1092.75
553.88	1072.75
554.093	1032.75
554.306	996.75
554.519	978.75
554.732	949.75
554.944	955.75
555.157	918.75
555.37	924.75
555.583	925.75
555.795	909.75
556.008	881.75
556.221	853.75
556.433	856.75
556.646	836.75
556.859	866.75
557.071	855.75
557.284	841.75
557.496	841.75
557.709	852.75
557.921	813.75
558.134	801.75
558.346	830.75
558.559	809.75
558.771	818.75
558.984	809.75
559.196	819.75
559.409	809.75
559.621	779.75
559.833	810.75
560.046	772.75
560.258	800.75
560.47	812.75
560.683	799.75
560.895	794.75
561.107	776.75
561.32	797.75
561.532	783.75
561.744	795.75
561.956	778.75
562.168	774.75
562.381	766.75
562.593	782.75
562.805	794.75
563.017	780.75
563.229	798.75
563.441	818.75
563.653	816.75
563.865	803.75
564.077	792.75
564.289	803.75
564.501	829.75
564.713	858.75
564.925	843.75
565.137	904.75
565.349	871.75
565.561	906.75
565.773	970.75
565.985	1028.75
566.197	1030.75
566.408	1129.75
566.62	1245.75
566.832	1304.75
567.044	1389.75
567.255	1372.75
567.467	1376.75
567.679	1490.75
567.891	1598.75
568.102	1576.75
568.314	1552.75
568.526	1348.75
568.737	1258.75
568.949	1154.75
569.161	1037.75
569.372	983.75
569.584	924.75
569.795	876.75
570.007	853.75
570.218	821.75
570.43	825.75
570.641	839.75
570.853	828.75
571.064	824.75
571.276	836.75
571.487	794.75
571.698	760.75
571.91	717.75
572.121	734.75
572.333	703.75
572.544	704.75
572.755	676.75
572.966	678.75
573.178	689.75
573.389	680.75
573.6	683.75
573.811	653.75
574.023	660.75
574.234	651.75
574.445	654.75
574.656	619.75
574.867	640.75
575.078	648.75
575.289	654.75
575.501	629.75
575.712	608.75
575.923	629.75
576.134	626.75
576.345	630.75
576.556	627.75
576.767	633.75
576.978	624.75
577.188	621.75
577.399	622.75
577.61	603.75
577.821	603.75
578.032	586.75
578.243	589.75
578.454	581.75
578.665	582.75
578.875	573.75
579.086	560.75
579.297	597.75
579.508	557.75
579.718	569.75
579.929	557.75
580.14	546.75
580.35	547.75
580.561	570.75
580.772	557.75
580.982	558.75
581.193	549.75
581.403	555.75
581.614	548.75
581.825	540.75
582.035	540.75
582.246	539.75
582.456	550.75
582.667	545.75
582.877	532.75
583.087	526.75
583.298	554.75
583.508	534.75
583.719	532.75
583.929	525.75
584.139	532.75
584.35	524.75
584.56	535.75
584.77	526.75
584.981	538.75
585.191	522.75
585.401	541.75
585.611	499.75
585.821	527.75
586.032	523.75
586.242	527.75
586.452	512.75
586.662	521.75
586.872	510.75
587.082	507.75
587.292	517.75
587.502	522.75
587.713	530.75
587.923	533.75
588.133	498.75
588.343	516.75
588.553	514.75
588.762	516.75
588.972	535.75
589.182	525.75
589.392	544.75
589.602	521.75
589.812	522.75
590.022	524.75
590.232	502.75
590.441	518.75
590.651	519.75
590.861	512.75
591.071	527.75
591.281	528.75
591.49	543.75
591.7	555.75
591.91	586.75
592.119	565.75
592.329	568.75
592.539	614.75
592.748	619.75
592.958	636.75
593.167	632.75
593.377	642.75
593.587	656.75
593.796	653.75
594.006	696.75
594.215	681.75
594.424	688.75
594.634	669.75
594.843	630.75
595.053	618.75
595.262	606.75
595.472	574.75
595.681	524.75
595.89	544.75
596.1	527.75
596.309	506.75
596.518	496.75
596.727	476.75
596.937	473.75
597.146	491.75
597.355	494.75
597.564	454.75
597.774	436.75
597.983	459.75
598.192	460.75
598.401	468.75
598.61	440.75
598.819	440.75
599.028	425.75
599.237	448.75
599.446	444.75
599.655	426.75
599.864	426.75
600.073	434.75
600.282	436.75
600.491	420.75
600.7	438.75
600.909	416.75
601.118	419.75
601.327	394.75
601.536	392.75
601.745	404.75
601.953	416.75
602.162	392.75
602.371	390.75
602.58	396.75
602.789	402.75
602.997	420.75
603.206	417.75
603.415	405.75
603.623	400.75
603.832	418.75
604.041	401.75
604.249	419.75
604.458	408.75
604.666	412.75
604.875	390.75
605.084	374.75
605.292	381.75
605.501	386.75
605.709	398.75
605.918	405.75
606.126	374.75
606.334	377.75
606.543	383.75
606.751	382.75
606.96	385.75
607.168	387.75
607.376	369.75
607.585	368.75
607.793	378.75
608.001	383.75
608.21	362.75
608.418	374.75
608.626	376.75
608.834	384.75
609.043	387.75
609.251	374.75
609.459	373.75
609.667	402.75
609.875	361.75
610.083	363.75
610.291	344.75
610.499	359.75
610.707	386.75
610.916	369.75
611.124	374.75
611.332	375.75
611.54	374.75
611.748	376.75
611.955	375.75
612.163	357.75
612.371	356.75
612.579	384.75
612.787	376.75
612.995	366.75
613.203	357.75
613.411	352.75
613.618	372.75
613.826	376.75
614.034	356.75
614.242	358.75
614.449	377.75
614.657	361.75
614.865	366.75
615.072	341.75
615.28	357.75
615.488	369.75
615.695	354.75
615.903	359.75
616.111	350.75
616.318	368.75
616.526	368.75
616.733	352.75
616.941	356.75
617.148	377.75
617.356	363.75
617.563	360.75
617.771	368.75
617.978	370.75
618.185	342.75
618.393	375.75
618.6	349.75
618.807	358.75
619.015	338.75
619.222	343.75
619.429	349.75
619.637	356.75
619.844	332.75
620.051	349.75
620.258	334.75
620.466	337.75
620.673	331.75
620.88	320.75
621.087	309.75
621.294	344.75
621.501	334.75
621.708	330.75
621.915	325.75
622.122	312.75
622.329	322.75
622.536	344.75
622.743	320.75
622.95	338.75
623.157	322.75
623.364	324.75
623.571	317.75
623.778	325.75
623.985	312.75
624.192	319.75
624.399	323.75
624.606	317.75
624.812	294.75
625.019	308.75
625.226	301.75
625.433	301.75
625.639	297.75
625.846	288.75
626.053	294.75
626.259	299.75
626.466	301.75
626.673	311.75
626.879	288.75
627.086	319.75
627.293	295.75
627.499	314.75
627.706	285.75
627.912	300.75
628.119	307.75
628.325	318.75
628.532	302.75
628.738	310.75
628.945	292.75
629.151	293.75
629.357	285.75
629.564	300.75
629.77	288.75
629.976	277.75
630.183	282.75
630.389	271.75
630.595	291.75
630.802	277.75
631.008	290.75
631.214	270.75
631.42	278.75
631.627	296.75
631.833	283.75
632.039	267.75
632.245	264.75
632.451	270.75
632.657	260.75
632.863	249.75
633.069	264.75
633.275	261.75
633.481	265.75
633.688	271.75
633.893	276.75
634.099	262.75
634.305	254.75
634.511	249.75
634.717	274.75
634.923	256.75
635.129	275.75
635.335	264.75
635.541	260.75
635.747	268.75
635.952	262.75
636.158	260.75
636.364	270.75
636.57	249.75
636.775	261.75
636.981	261.75
637.187	249.75
637.392	275.75
637.598	260.75
637.804	251.75
638.009	240.75
638.215	247.75
638.421	240.75
638.626	235.75
638.832	235.75
639.037	221.75
639.243	251.75
639.448	244.75
639.654	248.75
639.859	237.75
640.065	241.75
640.27	222.75
640.475	221.75
640.681	235.75
640.886	240.75
641.091	224.75
641.297	236.75
641.502	234.75
641.707	220.75
641.913	230.75
642.118	236.75
642.323	234.75
642.528	241.75
642.733	219.75
642.939	231.75
643.144	237.75
643.349	228.75
643.554	213.75
643.759	225.75
643.964	232.75
644.169	248.75
644.374	210.75
644.579	228.75
644.784	218.75
644.989	219.75
645.194	225.75
645.399	231.75
645.604	232.75
645.809	228.75
646.014	232.75
646.219	220.75
646.423	240.75
646.628	244.75
646.833	227.75
647.038	215.75
647.243	222.75
647.447	224.75
647.652	236.75
647.857	235.75
648.062	241.75
648.266	220.75
648.471	242.75
648.676	252.75
648.88	214.75
649.085	219.75
649.289	219.75
649.494	213.75
649.698	215.75
649.903	229.75
650.107	201.75
650.312	221.75
650.516	215.75
650.721	217.75
650.925	193.75
651.13	196.75
651.334	199.75
651.539	197.75
651.743	198.75
651.947	196.75
652.152	195.75
652.356	185.75
652.56	192.75
652.764	171.75
652.969	187.75
653.173	183.75
653.377	169.75
653.581	180.75
653.785	196.75
653.99	167.75
654.194	170.75
654.398	171.75
654.602	167.75
654.806	160.75
655.01	160.75
655.214	153.75
655.418	166.75
655.622	188.75
655.826	166.75
656.03	176.75
656.234	156.75
656.438	154.75
656.642	168.75
656.846	153.75
657.049	145.75
657.253	138.75
657.457	140.75
657.661	121.75
657.865	134.75
658.068	134.75
658.272	131.75
658.476	126.75
658.68	119.75
658.883	129.75
659.087	123.75
659.291	114.75
659.494	127.75
659.698	92.75
659.901	103.75
660.105	100.75
660.309	88.75
660.512	105.75
660.716	92.75
660.919	98.75
661.123	93.75
661.326	92.75
661.53	97.75
661.733	86.75
661.936	96.75
662.14	82.75
662.343	85.75
662.546	90.75
662.75	89.75
662.953	85.75
663.156	77.75
663.36	92.75
663.563	84.75
663.766	78.75
663.969	82.75
664.173	92.75
664.376	92.75
664.579	91.75
664.782	82.75
664.985	88.75
665.188	80.75
665.391	79.75
665.594	88.75
665.797	87.75
666	75.75
666.203	71.75
666.406	83.75
666.609	87.75
666.812	84.75
667.015	68.75
667.218	81.75
667.421	76.75
667.624	93.75
667.827	81.75
668.03	94.75
668.232	80.75
668.435	80.75
668.638	76.75
668.841	89.75
669.043	91.75
669.246	86.75
669.449	84.75
669.651	76.75
669.854	86.75
670.057	100.75
670.259	80.75
670.462	67.75
670.665	81.75
670.867	81.75
671.07	82.75
671.272	88.75
671.475	93.75
671.677	82.75
671.88	87.75
672.082	85.75
672.284	73.75
672.487	77.75
672.689	89.75
672.892	79.75
