Data from NiCl2@0.125M.TitratingCurve.Agarose3%dH2O.NegLispCup.LampEnergy10.LIBS07252019_HRD10591_18-27-29-574.txt Node
Date: Thu Jul 25 18:27:29 EDT 2019
User: cochatt
Spectrometer: HR+D1059
Trigger mode: 1
Integration Time (sec): 1.000000E-1
Scans to average: 1
Electric dark correction enabled: true
Nonlinearity correction enabled: false
Boxcar width: 0
XAxis mode: Wavelengths
Number of Pixels in Spectrum: 2048
>>>>>Begin Spectral Data<<<<<
223.165	-22.75
223.4	-22.75
223.635	-22.75
223.869	-20.75
224.104	-28.75
224.338	-18.75
224.573	-7.75
224.808	-11.75
225.042	-4.75
225.277	3.25
225.511	-4.75
225.746	4.25
225.98	7.25
226.215	18.25
226.449	3.25
226.683	24.25
226.918	23.25
227.152	36.25
227.387	44.25
227.621	37.25
227.856	40.25
228.09	47.25
228.324	61.25
228.559	53.25
228.793	75.25
229.027	135.25
229.262	130.25
229.496	136.25
229.73	139.25
229.964	146.25
230.199	146.25
230.433	138.25
230.667	158.25
230.901	145.25
231.136	143.25
231.37	152.25
231.604	143.25
231.838	158.25
232.072	161.25
232.306	173.25
232.541	169.25
232.775	171.25
233.009	170.25
233.243	167.25
233.477	163.25
233.711	166.25
233.945	161.25
234.179	175.25
234.413	176.25
234.647	165.25
234.881	161.25
235.115	173.25
235.349	172.25
235.583	153.25
235.817	163.25
236.051	168.25
236.285	179.25
236.519	187.25
236.753	156.25
236.987	190.25
237.221	171.25
237.455	174.25
237.689	181.25
237.922	189.25
238.156	191.25
238.39	199.25
238.624	180.25
238.858	181.25
239.091	199.25
239.325	201.25
239.559	192.25
239.793	210.25
240.027	201.25
240.26	207.25
240.494	203.25
240.728	217.25
240.961	216.25
241.195	229.25
241.429	215.25
241.662	209.25
241.896	203.25
242.13	218.25
242.363	230.25
242.597	222.25
242.83	228.25
243.064	232.25
243.298	228.25
243.531	225.25
243.765	234.25
243.998	248.25
244.232	251.25
244.465	232.25
244.699	225.25
244.932	249.25
245.166	244.25
245.399	252.25
245.633	270.25
245.866	250.25
246.099	253.25
246.333	265.25
246.566	250.25
246.8	275.25
247.033	274.25
247.266	293.25
247.5	277.25
247.733	257.25
247.966	269.25
248.2	264.25
248.433	275.25
248.666	273.25
248.899	274.25
249.133	289.25
249.366	289.25
249.599	284.25
249.832	298.25
250.066	271.25
250.299	297.25
250.532	294.25
250.765	279.25
250.998	302.25
251.231	304.25
251.465	275.25
251.698	309.25
251.931	322.25
252.164	328.25
252.397	307.25
252.63	323.25
252.863	303.25
253.096	318.25
253.329	319.25
253.562	319.25
253.795	335.25
254.028	328.25
254.261	332.25
254.494	313.25
254.727	344.25
254.96	336.25
255.193	323.25
255.426	339.25
255.659	337.25
255.892	345.25
256.124	335.25
256.357	335.25
256.59	357.25
256.823	355.25
257.056	339.25
257.289	337.25
257.521	345.25
257.754	358.25
257.987	364.25
258.22	349.25
258.452	351.25
258.685	354.25
258.918	346.25
259.151	362.25
259.383	348.25
259.616	362.25
259.849	379.25
260.081	387.25
260.314	348.25
260.547	368.25
260.779	376.25
261.012	360.25
261.244	379.25
261.477	373.25
261.71	386.25
261.942	392.25
262.175	392.25
262.407	398.25
262.64	378.25
262.872	382.25
263.105	394.25
263.337	414.25
263.57	400.25
263.802	391.25
264.035	403.25
264.267	401.25
264.499	391.25
264.732	390.25
264.964	407.25
265.197	421.25
265.429	407.25
265.661	398.25
265.894	396.25
266.126	404.25
266.358	412.25
266.591	419.25
266.823	421.25
267.055	424.25
267.287	428.25
267.52	423.25
267.752	421.25
267.984	436.25
268.216	440.25
268.448	455.25
268.681	437.25
268.913	416.25
269.145	435.25
269.377	437.25
269.609	443.25
269.841	452.25
270.073	429.25
270.306	434.25
270.538	448.25
270.77	439.25
271.002	448.25
271.234	446.25
271.466	444.25
271.698	449.25
271.93	469.25
272.162	456.25
272.394	466.25
272.626	459.25
272.858	486.25
273.09	473.25
273.322	497.25
273.553	469.25
273.785	462.25
274.017	459.25
274.249	473.25
274.481	486.25
274.713	477.25
274.945	487.25
275.176	495.25
275.408	494.25
275.64	479.25
275.872	478.25
276.104	483.25
276.335	481.25
276.567	471.25
276.799	486.25
277.031	507.25
277.262	518.25
277.494	493.25
277.726	513.25
277.957	511.25
278.189	514.25
278.421	525.25
278.652	511.25
278.884	537.25
279.115	534.25
279.347	542.25
279.579	494.25
279.81	527.25
280.042	535.25
280.273	552.25
280.505	533.25
280.736	558.25
280.968	541.25
281.199	529.25
281.431	560.25
281.662	551.25
281.894	549.25
282.125	547.25
282.356	541.25
282.588	561.25
282.819	556.25
283.051	566.25
283.282	557.25
283.513	575.25
283.745	592.25
283.976	569.25
284.207	591.25
284.439	588.25
284.67	599.25
284.901	572.25
285.132	584.25
285.364	577.25
285.595	571.25
285.826	590.25
286.057	596.25
286.288	585.25
286.52	597.25
286.751	587.25
286.982	597.25
287.213	606.25
287.444	597.25
287.675	597.25
287.906	621.25
288.138	605.25
288.369	606.25
288.6	624.25
288.831	612.25
289.062	597.25
289.293	590.25
289.524	615.25
289.755	595.25
289.986	631.25
290.217	612.25
290.448	605.25
290.679	637.25
290.91	616.25
291.141	613.25
291.371	643.25
291.602	629.25
291.833	635.25
292.064	628.25
292.295	616.25
292.526	620.25
292.757	634.25
292.987	617.25
293.218	619.25
293.449	631.25
293.68	627.25
293.91	616.25
294.141	620.25
294.372	643.25
294.603	622.25
294.833	637.25
295.064	618.25
295.295	644.25
295.525	639.25
295.756	648.25
295.987	636.25
296.217	637.25
296.448	630.25
296.679	659.25
296.909	655.25
297.14	664.25
297.37	675.25
297.601	670.25
297.831	697.25
298.062	665.25
298.292	681.25
298.523	712.25
298.753	697.25
298.984	679.25
299.214	695.25
299.445	665.25
299.675	665.25
299.905	676.25
300.136	680.25
300.366	707.25
300.597	705.25
300.827	691.25
301.057	712.25
301.288	712.25
301.518	702.25
301.748	723.25
301.979	703.25
302.209	727.25
302.439	742.25
302.669	702.25
302.9	727.25
303.13	717.25
303.36	703.25
303.59	727.25
303.82	695.25
304.051	704.25
304.281	739.25
304.511	722.25
304.741	715.25
304.971	712.25
305.201	712.25
305.431	720.25
305.661	713.25
305.891	719.25
306.121	705.25
306.352	699.25
306.582	710.25
306.812	686.25
307.042	700.25
307.272	703.25
307.502	703.25
307.731	688.25
307.961	718.25
308.191	711.25
308.421	704.25
308.651	713.25
308.881	705.25
309.111	712.25
309.341	691.25
309.571	689.25
309.8	697.25
310.03	699.25
310.26	714.25
310.49	714.25
310.72	702.25
310.949	684.25
311.179	724.25
311.409	728.25
311.639	691.25
311.868	687.25
312.098	720.25
312.328	716.25
312.557	743.25
312.787	715.25
313.017	748.25
313.246	735.25
313.476	730.25
313.706	744.25
313.935	767.25
314.165	757.25
314.394	752.25
314.624	766.25
314.853	743.25
315.083	742.25
315.312	729.25
315.542	768.25
315.771	758.25
316.001	735.25
316.23	751.25
316.46	722.25
316.689	731.25
316.919	733.25
317.148	744.25
317.377	729.25
317.607	732.25
317.836	723.25
318.065	728.25
318.295	721.25
318.524	737.25
318.753	740.25
318.983	733.25
319.212	717.25
319.441	733.25
319.67	746.25
319.9	734.25
320.129	733.25
320.358	758.25
320.587	735.25
320.816	733.25
321.046	757.25
321.275	756.25
321.504	725.25
321.733	734.25
321.962	750.25
322.191	758.25
322.42	742.25
322.649	775.25
322.878	737.25
323.108	756.25
323.337	766.25
323.566	756.25
323.795	790.25
324.024	762.25
324.253	775.25
324.482	760.25
324.71	758.25
324.939	777.25
325.168	767.25
325.397	772.25
325.626	799.25
325.855	778.25
326.084	822.25
326.313	816.25
326.542	785.25
326.77	843.25
326.999	799.25
327.228	789.25
327.457	783.25
327.686	803.25
327.914	808.25
328.143	799.25
328.372	813.25
328.6	808.25
328.829	807.25
329.058	814.25
329.287	819.25
329.515	795.25
329.744	826.25
329.972	828.25
330.201	832.25
330.43	821.25
330.658	851.25
330.887	814.25
331.115	835.25
331.344	832.25
331.572	864.25
331.801	856.25
332.03	894.25
332.258	915.25
332.486	911.25
332.715	951.25
332.943	999.25
333.172	1009.25
333.4	1059.25
333.629	1083.25
333.857	1068.25
334.085	1085.25
334.314	1059.25
334.542	1034.25
334.771	1023.25
334.999	1036.25
335.227	1016.25
335.455	1004.25
335.684	1002.25
335.912	982.25
336.14	963.25
336.369	977.25
336.597	989.25
336.825	966.25
337.053	984.25
337.281	925.25
337.51	928.25
337.738	917.25
337.966	915.25
338.194	883.25
338.422	887.25
338.65	889.25
338.878	875.25
339.106	865.25
339.334	873.25
339.562	884.25
339.79	823.25
340.018	831.25
340.246	837.25
340.474	822.25
340.702	859.25
340.93	860.25
341.158	846.25
341.386	869.25
341.614	832.25
341.842	853.25
342.07	850.25
342.298	832.25
342.526	851.25
342.754	860.25
342.981	836.25
343.209	855.25
343.437	899.25
343.665	935.25
343.893	1011.25
344.12	1027.25
344.348	988.25
344.576	967.25
344.804	929.25
345.031	880.25
345.259	875.25
345.487	869.25
345.714	839.25
345.942	842.25
346.17	845.25
346.397	827.25
346.625	810.25
346.853	826.25
347.08	813.25
347.308	831.25
347.535	854.25
347.763	835.25
347.99	812.25
348.218	832.25
348.445	831.25
348.673	811.25
348.9	803.25
349.128	819.25
349.355	810.25
349.583	793.25
349.81	796.25
350.037	775.25
350.265	788.25
350.492	803.25
350.72	764.25
350.947	807.25
351.174	777.25
351.402	809.25
351.629	765.25
351.856	782.25
352.083	779.25
352.311	772.25
352.538	756.25
352.765	777.25
352.992	781.25
353.22	776.25
353.447	768.25
353.674	822.25
353.901	767.25
354.128	803.25
354.355	776.25
354.583	793.25
354.81	780.25
355.037	807.25
355.264	741.25
355.491	796.25
355.718	803.25
355.945	802.25
356.172	771.25
356.399	798.25
356.626	799.25
356.853	801.25
357.08	807.25
357.307	777.25
357.534	771.25
357.761	786.25
357.988	796.25
358.215	798.25
358.441	811.25
358.668	759.25
358.895	779.25
359.122	769.25
359.349	798.25
359.576	776.25
359.802	786.25
360.029	783.25
360.256	777.25
360.483	815.25
360.709	804.25
360.936	820.25
361.163	792.25
361.39	801.25
361.616	784.25
361.843	777.25
362.07	783.25
362.296	784.25
362.523	772.25
362.749	782.25
362.976	784.25
363.203	779.25
363.429	804.25
363.656	793.25
363.882	807.25
364.109	788.25
364.335	778.25
364.562	780.25
364.788	764.25
365.015	815.25
365.241	772.25
365.468	775.25
365.694	764.25
365.92	783.25
366.147	763.25
366.373	783.25
366.599	778.25
366.826	792.25
367.052	763.25
367.278	790.25
367.505	799.25
367.731	775.25
367.957	771.25
368.184	780.25
368.41	775.25
368.636	809.25
368.862	803.25
369.089	807.25
369.315	799.25
369.541	798.25
369.767	812.25
369.993	820.25
370.219	831.25
370.445	821.25
370.672	837.25
370.898	860.25
371.124	860.25
371.35	842.25
371.576	864.25
371.802	857.25
372.028	864.25
372.254	890.25
372.48	861.25
372.706	879.25
372.932	887.25
373.158	877.25
373.384	864.25
373.61	867.25
373.835	859.25
374.061	822.25
374.287	886.25
374.513	879.25
374.739	889.25
374.965	921.25
375.191	955.25
375.416	960.25
375.642	903.25
375.868	896.25
376.094	899.25
376.319	871.25
376.545	859.25
376.771	865.25
376.997	856.25
377.222	856.25
377.448	859.25
377.674	863.25
377.899	842.25
378.125	844.25
378.35	841.25
378.576	836.25
378.802	813.25
379.027	827.25
379.253	838.25
379.478	827.25
379.704	818.25
379.929	824.25
380.155	842.25
380.38	842.25
380.606	831.25
380.831	854.25
381.057	857.25
381.282	866.25
381.507	857.25
381.733	879.25
381.958	865.25
382.184	879.25
382.409	910.25
382.634	895.25
382.86	891.25
383.085	923.25
383.31	930.25
383.535	931.25
383.761	957.25
383.986	973.25
384.211	967.25
384.436	977.25
384.662	979.25
384.887	1004.25
385.112	995.25
385.337	1021.25
385.562	999.25
385.787	1048.25
386.013	1030.25
386.238	1045.25
386.463	1033.25
386.688	1034.25
386.913	1035.25
387.138	1025.25
387.363	1001.25
387.588	1017.25
387.813	1003.25
388.038	1025.25
388.263	1035.25
388.488	1031.25
388.713	1016.25
388.938	1011.25
389.163	1008.25
389.387	1010.25
389.612	979.25
389.837	982.25
390.062	1017.25
390.287	998.25
390.512	1003.25
390.736	1035.25
390.961	1040.25
391.186	1051.25
391.411	1079.25
391.636	1121.25
391.86	1143.25
392.085	1169.25
392.31	1153.25
392.534	1140.25
392.759	1110.25
392.984	1079.25
393.208	1094.25
393.433	1088.25
393.658	1106.25
393.882	1108.25
394.107	1119.25
394.331	1125.25
394.556	1102.25
394.78	1075.25
395.005	1106.25
395.229	1099.25
395.454	1161.25
395.678	1155.25
395.903	1169.25
396.127	1141.25
396.352	1114.25
396.576	1118.25
396.801	1069.25
397.025	1102.25
397.249	1129.25
397.474	1180.25
397.698	1149.25
397.922	1190.25
398.147	1162.25
398.371	1193.25
398.595	1239.25
398.82	1293.25
399.044	1367.25
399.268	1492.25
399.492	1725.25
399.717	1957.25
399.941	1923.25
400.165	1731.25
400.389	1587.25
400.613	1423.25
400.837	1378.25
401.062	1344.25
401.286	1331.25
401.51	1274.25
401.734	1299.25
401.958	1327.25
402.182	1307.25
402.406	1351.25
402.63	1352.25
402.854	1391.25
403.078	1372.25
403.302	1428.25
403.526	1441.25
403.75	1455.25
403.974	1493.25
404.198	1491.25
404.422	1498.25
404.645	1470.25
404.869	1477.25
405.093	1465.25
405.317	1425.25
405.541	1406.25
405.765	1440.25
405.988	1422.25
406.212	1427.25
406.436	1399.25
406.66	1471.25
406.883	1464.25
407.107	1557.25
407.331	1649.25
407.555	1684.25
407.778	1657.25
408.002	1662.25
408.226	1616.25
408.449	1572.25
408.673	1497.25
408.896	1469.25
409.12	1434.25
409.344	1490.25
409.567	1450.25
409.791	1477.25
410.014	1444.25
410.238	1424.25
410.461	1454.25
410.685	1421.25
410.908	1384.25
411.132	1392.25
411.355	1346.25
411.578	1352.25
411.802	1370.25
412.025	1343.25
412.249	1352.25
412.472	1373.25
412.695	1333.25
412.919	1326.25
413.142	1349.25
413.365	1301.25
413.589	1336.25
413.812	1313.25
414.035	1287.25
414.258	1309.25
414.482	1303.25
414.705	1306.25
414.928	1341.25
415.151	1302.25
415.374	1329.25
415.597	1319.25
415.821	1317.25
416.044	1229.25
416.267	1249.25
416.49	1277.25
416.713	1251.25
416.936	1245.25
417.159	1230.25
417.382	1254.25
417.605	1240.25
417.828	1271.25
418.051	1273.25
418.274	1297.25
418.497	1256.25
418.72	1297.25
418.943	1315.25
419.166	1360.25
419.389	1479.25
419.611	1450.25
419.834	1412.25
420.057	1324.25
420.28	1285.25
420.503	1267.25
420.726	1303.25
420.948	1271.25
421.171	1264.25
421.394	1269.25
421.617	1264.25
421.839	1294.25
422.062	1297.25
422.285	1296.25
422.507	1297.25
422.73	1294.25
422.953	1312.25
423.175	1333.25
423.398	1339.25
423.621	1324.25
423.843	1355.25
424.066	1348.25
424.288	1353.25
424.511	1323.25
424.733	1340.25
424.956	1291.25
425.178	1300.25
425.401	1270.25
425.623	1260.25
425.846	1231.25
426.068	1251.25
426.291	1235.25
426.513	1222.25
426.735	1219.25
426.958	1186.25
427.18	1174.25
427.402	1172.25
427.625	1196.25
427.847	1159.25
428.069	1147.25
428.292	1183.25
428.514	1150.25
428.736	1143.25
428.958	1125.25
429.181	1129.25
429.403	1117.25
429.625	1082.25
429.847	1107.25
430.069	1108.25
430.292	1111.25
430.514	1094.25
430.736	1133.25
430.958	1133.25
431.18	1112.25
431.402	1098.25
431.624	1101.25
431.846	1153.25
432.068	1130.25
432.29	1155.25
432.512	1149.25
432.734	1097.25
432.956	1136.25
433.178	1141.25
433.4	1163.25
433.622	1151.25
433.844	1160.25
434.066	1181.25
434.287	1163.25
434.509	1207.25
434.731	1228.25
434.953	1257.25
435.175	1284.25
435.397	1279.25
435.618	1192.25
435.84	1179.25
436.062	1155.25
436.284	1136.25
436.505	1134.25
436.727	1136.25
436.949	1159.25
437.17	1143.25
437.392	1088.25
437.614	1111.25
437.835	1085.25
438.057	1114.25
438.278	1071.25
438.5	1120.25
438.721	1117.25
438.943	1099.25
439.165	1084.25
439.386	1137.25
439.608	1142.25
439.829	1111.25
440.05	1151.25
440.272	1137.25
440.493	1171.25
440.715	1181.25
440.936	1192.25
441.158	1198.25
441.379	1215.25
441.6	1284.25
441.822	1276.25
442.043	1257.25
442.264	1207.25
442.486	1231.25
442.707	1245.25
442.928	1252.25
443.149	1276.25
443.371	1267.25
443.592	1295.25
443.813	1261.25
444.034	1281.25
444.255	1326.25
444.476	1407.25
444.698	1433.25
444.919	1522.25
445.14	1603.25
445.361	1452.25
445.582	1335.25
445.803	1266.25
446.024	1234.25
446.245	1244.25
446.466	1160.25
446.687	1139.25
446.908	1144.25
447.129	1126.25
447.35	1085.25
447.571	1104.25
447.792	1089.25
448.013	1084.25
448.234	1049.25
448.455	1075.25
448.675	1039.25
448.896	1084.25
449.117	1021.25
449.338	1050.25
449.559	1041.25
449.779	1033.25
450	1031.25
450.221	1040.25
450.442	1070.25
450.662	1055.25
450.883	1054.25
451.104	1060.25
451.324	1079.25
451.545	1081.25
451.766	1040.25
451.986	1062.25
452.207	1066.25
452.428	1049.25
452.648	1047.25
452.869	1003.25
453.089	999.25
453.31	1049.25
453.53	1009.25
453.751	1000.25
453.971	1032.25
454.192	1001.25
454.412	976.25
454.633	966.25
454.853	967.25
455.073	989.25
455.294	983.25
455.514	957.25
455.734	998.25
455.955	969.25
456.175	965.25
456.395	958.25
456.616	963.25
456.836	989.25
457.056	944.25
457.276	965.25
457.497	973.25
457.717	970.25
457.937	992.25
458.157	1011.25
458.377	988.25
458.598	1032.25
458.818	1082.25
459.038	1055.25
459.258	1122.25
459.478	1138.25
459.698	1156.25
459.918	1178.25
460.138	1231.25
460.358	1306.25
460.578	1335.25
460.798	1324.25
461.018	1356.25
461.238	1303.25
461.458	1341.25
461.678	1343.25
461.898	1355.25
462.118	1326.25
462.338	1436.25
462.558	1445.25
462.777	1488.25
462.997	1621.25
463.217	1753.25
463.437	1731.25
463.657	1613.25
463.876	1574.25
464.096	1535.25
464.316	1519.25
464.536	1601.25
464.755	1536.25
464.975	1468.25
465.195	1400.25
465.414	1318.25
465.634	1233.25
465.854	1170.25
466.073	1151.25
466.293	1144.25
466.512	1130.25
466.732	1100.25
466.951	1131.25
467.171	1112.25
467.391	1078.25
467.61	1080.25
467.829	1061.25
468.049	1080.25
468.268	1059.25
468.488	1012.25
468.707	1002.25
468.927	1024.25
469.146	1032.25
469.365	1081.25
469.585	1049.25
469.804	1084.25
470.023	1113.25
470.243	1113.25
470.462	1146.25
470.681	1135.25
470.901	1146.25
471.12	1127.25
471.339	1109.25
471.558	1063.25
471.777	1075.25
471.997	1058.25
472.216	1032.25
472.435	1037.25
472.654	1039.25
472.873	1049.25
473.092	1008.25
473.311	1007.25
473.53	1015.25
473.749	1018.25
473.968	1034.25
474.187	1005.25
474.406	1007.25
474.625	1008.25
474.844	1016.25
475.063	1041.25
475.282	1047.25
475.501	1041.25
475.72	1032.25
475.939	1037.25
476.158	1054.25
476.377	1059.25
476.596	1053.25
476.814	1097.25
477.033	1111.25
477.252	1098.25
477.471	1119.25
477.69	1163.25
477.908	1157.25
478.127	1172.25
478.346	1219.25
478.564	1214.25
478.783	1260.25
479.002	1261.25
479.22	1242.25
479.439	1279.25
479.658	1262.25
479.876	1271.25
480.095	1271.25
480.313	1361.25
480.532	1313.25
480.751	1331.25
480.969	1343.25
481.188	1274.25
481.406	1227.25
481.624	1206.25
481.843	1182.25
482.061	1161.25
482.28	1152.25
482.498	1159.25
482.717	1127.25
482.935	1168.25
483.153	1152.25
483.372	1165.25
483.59	1171.25
483.808	1193.25
484.027	1161.25
484.245	1160.25
484.463	1168.25
484.681	1179.25
484.9	1224.25
485.118	1216.25
485.336	1205.25
485.554	1236.25
485.772	1209.25
485.99	1239.25
486.209	1224.25
486.427	1213.25
486.645	1208.25
486.863	1253.25
487.081	1242.25
487.299	1225.25
487.517	1214.25
487.735	1206.25
487.953	1237.25
488.171	1219.25
488.389	1215.25
488.607	1184.25
488.825	1196.25
489.043	1188.25
489.261	1193.25
489.479	1207.25
489.696	1220.25
489.914	1187.25
490.132	1187.25
490.35	1229.25
490.568	1221.25
490.786	1216.25
491.003	1237.25
491.221	1216.25
491.439	1239.25
491.657	1221.25
491.874	1207.25
492.092	1230.25
492.31	1243.25
492.527	1253.25
492.745	1264.25
492.963	1272.25
493.18	1262.25
493.398	1273.25
493.615	1269.25
493.833	1259.25
494.05	1267.25
494.268	1307.25
494.485	1303.25
494.703	1332.25
494.92	1323.25
495.138	1283.25
495.355	1297.25
495.573	1297.25
495.79	1272.25
496.008	1347.25
496.225	1360.25
496.442	1351.25
496.66	1359.25
496.877	1360.25
497.094	1371.25
497.312	1409.25
497.529	1447.25
497.746	1482.25
497.963	1535.25
498.181	1577.25
498.398	1617.25
498.615	1704.25
498.832	1870.25
499.049	1968.25
499.267	2144.25
499.484	2361.25
499.701	2582.25
499.918	2813.25
500.135	3208.25
500.352	3555.25
500.569	3768.25
500.786	3735.25
501.003	3518.25
501.22	3163.25
501.437	2813.25
501.654	2470.25
501.871	2247.25
502.088	2101.25
502.305	1957.25
502.522	1888.25
502.739	1821.25
502.956	1705.25
503.172	1633.25
503.389	1600.25
503.606	1532.25
503.823	1480.25
504.04	1489.25
504.256	1509.25
504.473	1519.25
504.69	1545.25
504.907	1531.25
505.123	1398.25
505.34	1356.25
505.557	1306.25
505.773	1252.25
505.99	1260.25
506.207	1173.25
506.423	1169.25
506.64	1186.25
506.856	1132.25
507.073	1152.25
507.289	1152.25
507.506	1116.25
507.722	1114.25
507.939	1130.25
508.155	1097.25
508.372	1108.25
508.588	1106.25
508.805	1081.25
509.021	1080.25
509.238	1085.25
509.454	1049.25
509.67	1058.25
509.887	1042.25
510.103	1035.25
510.319	1041.25
510.536	1040.25
510.752	1015.25
510.968	1051.25
511.184	1024.25
511.401	1048.25
511.617	1031.25
511.833	1028.25
512.049	1029.25
512.265	1037.25
512.481	1046.25
512.698	1023.25
512.914	1040.25
513.13	1029.25
513.346	1007.25
513.562	1014.25
513.778	1051.25
513.994	1029.25
514.21	1055.25
514.426	1034.25
514.642	1037.25
514.858	1074.25
515.074	1059.25
515.29	1072.25
515.506	1087.25
515.721	1067.25
515.937	1097.25
516.153	1139.25
516.369	1178.25
516.585	1152.25
516.801	1218.25
517.016	1244.25
517.232	1321.25
517.448	1411.25
517.664	1431.25
517.879	1399.25
518.095	1400.25
518.311	1403.25
518.527	1399.25
518.742	1289.25
518.958	1268.25
519.173	1212.25
519.389	1139.25
519.605	1127.25
519.82	1124.25
520.036	1135.25
520.251	1093.25
520.467	1060.25
520.682	1033.25
520.898	1017.25
521.113	1035.25
521.329	1027.25
521.544	1006.25
521.76	975.25
521.975	977.25
522.19	963.25
522.406	978.25
522.621	977.25
522.836	977.25
523.052	982.25
523.267	951.25
523.482	963.25
523.698	982.25
523.913	927.25
524.128	954.25
524.343	942.25
524.559	954.25
524.774	927.25
524.989	976.25
525.204	951.25
525.419	927.25
525.634	899.25
525.849	907.25
526.064	929.25
526.28	935.25
526.495	920.25
526.71	910.25
526.925	910.25
527.14	929.25
527.355	934.25
527.57	903.25
527.785	931.25
527.999	928.25
528.214	928.25
528.429	919.25
528.644	949.25
528.859	944.25
529.074	896.25
529.289	911.25
529.503	940.25
529.718	896.25
529.933	917.25
530.148	919.25
530.363	932.25
530.577	919.25
530.792	874.25
531.007	916.25
531.221	900.25
531.436	922.25
531.651	912.25
531.865	909.25
532.08	939.25
532.295	889.25
532.509	932.25
532.724	920.25
532.938	906.25
533.153	933.25
533.367	902.25
533.582	940.25
533.796	927.25
534.011	904.25
534.225	917.25
534.44	899.25
534.654	891.25
534.868	897.25
535.083	891.25
535.297	899.25
535.511	876.25
535.726	894.25
535.94	874.25
536.154	888.25
536.369	876.25
536.583	853.25
536.797	852.25
537.011	853.25
537.225	854.25
537.44	869.25
537.654	833.25
537.868	817.25
538.082	855.25
538.296	830.25
538.51	844.25
538.724	853.25
538.938	849.25
539.153	834.25
539.367	827.25
539.581	868.25
539.795	816.25
540.009	834.25
540.222	821.25
540.436	809.25
540.65	823.25
540.864	822.25
541.078	825.25
541.292	817.25
541.506	813.25
541.72	812.25
541.934	835.25
542.147	823.25
542.361	839.25
542.575	825.25
542.789	827.25
543.002	809.25
543.216	816.25
543.43	812.25
543.644	810.25
543.857	814.25
544.071	841.25
544.285	825.25
544.498	810.25
544.712	832.25
544.925	865.25
545.139	846.25
545.352	853.25
545.566	839.25
545.779	872.25
545.993	847.25
546.206	848.25
546.42	837.25
546.633	841.25
546.847	841.25
547.06	850.25
547.274	835.25
547.487	824.25
547.7	859.25
547.914	839.25
548.127	871.25
548.34	865.25
548.554	838.25
548.767	872.25
548.98	876.25
549.193	827.25
549.407	861.25
549.62	875.25
549.833	870.25
550.046	877.25
550.259	831.25
550.473	844.25
550.686	849.25
550.899	860.25
551.112	847.25
551.325	818.25
551.538	825.25
551.751	839.25
551.964	823.25
552.177	841.25
552.39	851.25
552.603	876.25
552.816	883.25
553.029	921.25
553.242	897.25
553.455	921.25
553.667	929.25
553.88	916.25
554.093	902.25
554.306	885.25
554.519	864.25
554.732	846.25
554.944	822.25
555.157	812.25
555.37	815.25
555.583	803.25
555.795	787.25
556.008	756.25
556.221	740.25
556.433	758.25
556.646	745.25
556.859	755.25
557.071	737.25
557.284	725.25
557.496	733.25
557.709	739.25
557.921	715.25
558.134	689.25
558.346	696.25
558.559	712.25
558.771	702.25
558.984	686.25
559.196	693.25
559.409	725.25
559.621	708.25
559.833	698.25
560.046	674.25
560.258	700.25
560.47	699.25
560.683	698.25
560.895	688.25
561.107	671.25
561.32	646.25
561.532	681.25
561.744	702.25
561.956	703.25
562.168	691.25
562.381	675.25
562.593	691.25
562.805	688.25
563.017	702.25
563.229	719.25
563.441	715.25
563.653	710.25
563.865	695.25
564.077	713.25
564.289	741.25
564.501	734.25
564.713	732.25
564.925	747.25
565.137	777.25
565.349	784.25
565.561	814.25
565.773	831.25
565.985	887.25
566.197	883.25
566.408	973.25
566.62	1029.25
566.832	1116.25
567.044	1165.25
567.255	1150.25
567.467	1161.25
567.679	1224.25
567.891	1332.25
568.102	1268.25
568.314	1261.25
568.526	1141.25
568.737	1059.25
568.949	985.25
569.161	898.25
569.372	823.25
569.584	801.25
569.795	769.25
570.007	722.25
570.218	722.25
570.43	750.25
570.641	743.25
570.853	721.25
571.064	716.25
571.276	723.25
571.487	688.25
571.698	675.25
571.91	647.25
572.121	633.25
572.333	633.25
572.544	606.25
572.755	609.25
572.966	620.25
573.178	593.25
573.389	566.25
573.6	573.25
573.811	574.25
574.023	579.25
574.234	573.25
574.445	602.25
574.656	579.25
574.867	585.25
575.078	571.25
575.289	545.25
575.501	536.25
575.712	550.25
575.923	556.25
576.134	545.25
576.345	549.25
576.556	548.25
576.767	525.25
576.978	527.25
577.188	541.25
577.399	533.25
577.61	543.25
577.821	533.25
578.032	507.25
578.243	525.25
578.454	527.25
578.665	497.25
578.875	490.25
579.086	506.25
579.297	523.25
579.508	503.25
579.718	511.25
579.929	493.25
580.14	489.25
580.35	483.25
580.561	481.25
580.772	481.25
580.982	480.25
581.193	477.25
581.403	483.25
581.614	485.25
581.825	489.25
582.035	481.25
582.246	491.25
582.456	471.25
582.667	468.25
582.877	479.25
583.087	471.25
583.298	483.25
583.508	465.25
583.719	479.25
583.929	469.25
584.139	464.25
584.35	471.25
584.56	459.25
584.77	471.25
584.981	462.25
585.191	445.25
585.401	472.25
585.611	466.25
585.821	449.25
586.032	462.25
586.242	449.25
586.452	467.25
586.662	455.25
586.872	448.25
587.082	456.25
587.292	454.25
587.502	447.25
587.713	465.25
587.923	462.25
588.133	465.25
588.343	451.25
588.553	448.25
588.762	441.25
588.972	470.25
589.182	487.25
589.392	468.25
589.602	446.25
589.812	470.25
590.022	463.25
590.232	432.25
590.441	468.25
590.651	464.25
590.861	449.25
591.071	464.25
591.281	474.25
591.49	451.25
591.7	463.25
591.91	505.25
592.119	499.25
592.329	497.25
592.539	517.25
592.748	513.25
592.958	555.25
593.167	542.25
593.377	579.25
593.587	589.25
593.796	586.25
594.006	588.25
594.215	574.25
594.424	580.25
594.634	563.25
594.843	540.25
595.053	552.25
595.262	527.25
595.472	504.25
595.681	493.25
595.89	477.25
596.1	470.25
596.309	471.25
596.518	459.25
596.727	435.25
596.937	424.25
597.146	445.25
597.355	431.25
597.564	424.25
597.774	439.25
597.983	407.25
598.192	403.25
598.401	403.25
598.61	394.25
598.819	387.25
599.028	383.25
599.237	389.25
599.446	384.25
599.655	401.25
599.864	395.25
600.073	381.25
600.282	391.25
600.491	371.25
600.7	377.25
600.909	380.25
601.118	382.25
601.327	390.25
601.536	370.25
601.745	371.25
601.953	375.25
602.162	376.25
602.371	373.25
602.58	359.25
602.789	383.25
602.997	352.25
603.206	366.25
603.415	355.25
603.623	360.25
603.832	373.25
604.041	359.25
604.249	362.25
604.458	367.25
604.666	368.25
604.875	364.25
605.084	333.25
605.292	352.25
605.501	356.25
605.709	371.25
605.918	361.25
606.126	359.25
606.334	365.25
606.543	371.25
606.751	344.25
606.96	349.25
607.168	355.25
607.376	340.25
607.585	357.25
607.793	369.25
608.001	372.25
608.21	360.25
608.418	363.25
608.626	335.25
608.834	355.25
609.043	336.25
609.251	349.25
609.459	336.25
609.667	335.25
609.875	345.25
610.083	344.25
610.291	347.25
610.499	352.25
610.707	315.25
610.916	335.25
611.124	356.25
611.332	329.25
611.54	353.25
611.748	333.25
611.955	335.25
612.163	318.25
612.371	332.25
612.579	330.25
612.787	338.25
612.995	320.25
613.203	329.25
613.411	335.25
613.618	335.25
613.826	349.25
614.034	343.25
614.242	336.25
614.449	341.25
614.657	341.25
614.865	330.25
615.072	319.25
615.28	327.25
615.488	334.25
615.695	317.25
615.903	343.25
616.111	329.25
616.318	348.25
616.526	336.25
616.733	327.25
616.941	330.25
617.148	324.25
617.356	310.25
617.563	336.25
617.771	344.25
617.978	319.25
618.185	303.25
618.393	317.25
618.6	307.25
618.807	322.25
619.015	328.25
619.222	319.25
619.429	320.25
619.637	324.25
619.844	318.25
620.051	315.25
620.258	308.25
620.466	289.25
620.673	289.25
620.88	316.25
621.087	309.25
621.294	296.25
621.501	316.25
621.708	281.25
621.915	307.25
622.122	286.25
622.329	291.25
622.536	298.25
622.743	291.25
622.95	291.25
623.157	295.25
623.364	296.25
623.571	310.25
623.778	302.25
623.985	277.25
624.192	300.25
624.399	285.25
624.606	304.25
624.812	280.25
625.019	285.25
625.226	283.25
625.433	300.25
625.639	281.25
625.846	286.25
626.053	274.25
626.259	268.25
626.466	271.25
626.673	262.25
626.879	276.25
627.086	276.25
627.293	273.25
627.499	263.25
627.706	265.25
627.912	272.25
628.119	281.25
628.325	294.25
628.532	274.25
628.738	285.25
628.945	278.25
629.151	260.25
629.357	285.25
629.564	252.25
629.77	271.25
629.976	259.25
630.183	266.25
630.389	277.25
630.595	263.25
630.802	269.25
631.008	246.25
631.214	258.25
631.42	245.25
631.627	257.25
631.833	246.25
632.039	243.25
632.245	240.25
632.451	247.25
632.657	239.25
632.863	240.25
633.069	246.25
633.275	239.25
633.481	239.25
633.688	255.25
633.893	259.25
634.099	250.25
634.305	235.25
634.511	243.25
634.717	233.25
634.923	239.25
635.129	245.25
635.335	243.25
635.541	245.25
635.747	244.25
635.952	243.25
636.158	240.25
636.364	239.25
636.57	257.25
636.775	237.25
636.981	239.25
637.187	252.25
637.392	236.25
637.598	236.25
637.804	238.25
638.009	228.25
638.215	230.25
638.421	219.25
638.626	205.25
638.832	228.25
639.037	230.25
639.243	223.25
639.448	223.25
639.654	227.25
639.859	208.25
640.065	235.25
640.27	238.25
640.475	223.25
640.681	233.25
640.886	227.25
641.091	210.25
641.297	226.25
641.502	216.25
641.707	229.25
641.913	205.25
642.118	240.25
642.323	230.25
642.528	204.25
642.733	212.25
642.939	225.25
643.144	197.25
643.349	201.25
643.554	210.25
643.759	203.25
643.964	208.25
644.169	229.25
644.374	204.25
644.579	220.25
644.784	219.25
644.989	214.25
645.194	210.25
645.399	204.25
645.604	199.25
645.809	213.25
646.014	213.25
646.219	223.25
646.423	217.25
646.628	215.25
646.833	213.25
647.038	222.25
647.243	208.25
647.447	213.25
647.652	222.25
647.857	219.25
648.062	217.25
648.266	233.25
648.471	216.25
648.676	213.25
648.88	221.25
649.085	213.25
649.289	212.25
649.494	216.25
649.698	212.25
649.903	199.25
650.107	211.25
650.312	200.25
650.516	214.25
650.721	191.25
650.925	179.25
651.13	191.25
651.334	197.25
651.539	180.25
651.743	185.25
651.947	195.25
652.152	187.25
652.356	194.25
652.56	191.25
652.764	185.25
652.969	156.25
653.173	184.25
653.377	170.25
653.581	163.25
653.785	187.25
653.99	158.25
654.194	172.25
654.398	163.25
654.602	164.25
654.806	154.25
655.01	168.25
655.214	168.25
655.418	170.25
655.622	164.25
655.826	166.25
656.03	144.25
656.234	165.25
656.438	165.25
656.642	151.25
656.846	158.25
657.049	157.25
657.253	144.25
657.457	146.25
657.661	134.25
657.865	135.25
658.068	129.25
658.272	126.25
658.476	147.25
658.68	147.25
658.883	126.25
659.087	109.25
659.291	107.25
659.494	107.25
659.698	109.25
659.901	101.25
660.105	94.25
660.309	119.25
660.512	108.25
660.716	111.25
660.919	98.25
661.123	96.25
661.326	101.25
661.53	108.25
661.733	90.25
661.936	106.25
662.14	77.25
662.343	89.25
662.546	81.25
662.75	94.25
662.953	96.25
663.156	86.25
663.36	96.25
663.563	81.25
663.766	88.25
663.969	79.25
664.173	85.25
664.376	99.25
664.579	84.25
664.782	89.25
664.985	97.25
665.188	94.25
665.391	70.25
665.594	87.25
665.797	82.25
666	80.25
666.203	94.25
666.406	89.25
666.609	80.25
666.812	92.25
667.015	84.25
667.218	77.25
667.421	84.25
667.624	83.25
667.827	92.25
668.03	95.25
668.232	92.25
668.435	81.25
668.638	90.25
668.841	79.25
669.043	70.25
669.246	85.25
669.449	93.25
669.651	90.25
669.854	92.25
670.057	82.25
670.259	81.25
670.462	95.25
670.665	85.25
670.867	95.25
671.07	76.25
671.272	87.25
671.475	78.25
671.677	83.25
671.88	92.25
672.082	79.25
672.284	78.25
672.487	91.25
672.689	80.25
672.892	80.25
