Data from NiCl2@0.25M.TitratingCurve.Agarose3%dH2O.NegLispCup.LampEnergy10.LIBS07252019_HRD10591_18-24-44-572.txt Node
Date: Thu Jul 25 18:24:44 EDT 2019
User: cochatt
Spectrometer: HR+D1059
Trigger mode: 1
Integration Time (sec): 1.000000E-1
Scans to average: 1
Electric dark correction enabled: true
Nonlinearity correction enabled: false
Boxcar width: 0
XAxis mode: Wavelengths
Number of Pixels in Spectrum: 2048
>>>>>Begin Spectral Data<<<<<
223.165	-21.44
223.4	-21.44
223.635	-21.44
223.869	-7.44
224.104	-23.44
224.338	-11.44
224.573	-20.44
224.808	2.56
225.042	-13.44
225.277	-5.44
225.511	0.56
225.746	-0.44
225.98	14.56
226.215	9.56
226.449	7.56
226.683	18.56
226.918	20.56
227.152	29.56
227.387	17.56
227.621	29.56
227.856	36.56
228.09	48.56
228.324	35.56
228.559	52.56
228.793	73.56
229.027	106.56
229.262	111.56
229.496	127.56
229.73	129.56
229.964	136.56
230.199	149.56
230.433	126.56
230.667	137.56
230.901	129.56
231.136	142.56
231.37	147.56
231.604	147.56
231.838	152.56
232.072	154.56
232.306	140.56
232.541	148.56
232.775	132.56
233.009	145.56
233.243	160.56
233.477	156.56
233.711	153.56
233.945	155.56
234.179	152.56
234.413	162.56
234.647	176.56
234.881	158.56
235.115	170.56
235.349	168.56
235.583	161.56
235.817	163.56
236.051	174.56
236.285	162.56
236.519	176.56
236.753	164.56
236.987	159.56
237.221	155.56
237.455	175.56
237.689	161.56
237.922	164.56
238.156	177.56
238.39	164.56
238.624	176.56
238.858	184.56
239.091	183.56
239.325	170.56
239.559	167.56
239.793	193.56
240.027	189.56
240.26	187.56
240.494	187.56
240.728	199.56
240.961	199.56
241.195	201.56
241.429	203.56
241.662	198.56
241.896	195.56
242.13	208.56
242.363	218.56
242.597	220.56
242.83	224.56
243.064	207.56
243.298	205.56
243.531	230.56
243.765	240.56
243.998	230.56
244.232	227.56
244.465	230.56
244.699	221.56
244.932	244.56
245.166	235.56
245.399	245.56
245.633	249.56
245.866	239.56
246.099	235.56
246.333	237.56
246.566	260.56
246.8	232.56
247.033	250.56
247.266	239.56
247.5	242.56
247.733	236.56
247.966	229.56
248.2	255.56
248.433	266.56
248.666	262.56
248.899	269.56
249.133	257.56
249.366	251.56
249.599	266.56
249.832	266.56
250.066	284.56
250.299	269.56
250.532	274.56
250.765	265.56
250.998	266.56
251.231	279.56
251.465	289.56
251.698	292.56
251.931	297.56
252.164	298.56
252.397	279.56
252.63	302.56
252.863	306.56
253.096	283.56
253.329	315.56
253.562	314.56
253.795	303.56
254.028	304.56
254.261	314.56
254.494	298.56
254.727	301.56
254.96	307.56
255.193	296.56
255.426	305.56
255.659	317.56
255.892	303.56
256.124	307.56
256.357	325.56
256.59	329.56
256.823	316.56
257.056	323.56
257.289	303.56
257.521	320.56
257.754	334.56
257.987	315.56
258.22	331.56
258.452	326.56
258.685	334.56
258.918	343.56
259.151	330.56
259.383	336.56
259.616	343.56
259.849	330.56
260.081	329.56
260.314	328.56
260.547	359.56
260.779	345.56
261.012	335.56
261.244	340.56
261.477	345.56
261.71	346.56
261.942	357.56
262.175	353.56
262.407	345.56
262.64	365.56
262.872	354.56
263.105	372.56
263.337	377.56
263.57	375.56
263.802	387.56
264.035	373.56
264.267	359.56
264.499	373.56
264.732	375.56
264.964	373.56
265.197	398.56
265.429	374.56
265.661	359.56
265.894	389.56
266.126	394.56
266.358	406.56
266.591	386.56
266.823	401.56
267.055	382.56
267.287	386.56
267.52	374.56
267.752	381.56
267.984	421.56
268.216	396.56
268.448	395.56
268.681	417.56
268.913	401.56
269.145	390.56
269.377	402.56
269.609	393.56
269.841	400.56
270.073	406.56
270.306	427.56
270.538	402.56
270.77	415.56
271.002	431.56
271.234	421.56
271.466	415.56
271.698	401.56
271.93	413.56
272.162	446.56
272.394	434.56
272.626	441.56
272.858	441.56
273.09	452.56
273.322	439.56
273.553	437.56
273.785	442.56
274.017	444.56
274.249	436.56
274.481	443.56
274.713	473.56
274.945	447.56
275.176	479.56
275.408	444.56
275.64	434.56
275.872	475.56
276.104	474.56
276.335	470.56
276.567	460.56
276.799	475.56
277.031	457.56
277.262	473.56
277.494	455.56
277.726	488.56
277.957	469.56
278.189	447.56
278.421	460.56
278.652	489.56
278.884	507.56
279.115	489.56
279.347	508.56
279.579	493.56
279.81	477.56
280.042	503.56
280.273	495.56
280.505	511.56
280.736	497.56
280.968	495.56
281.199	497.56
281.431	511.56
281.662	512.56
281.894	523.56
282.125	519.56
282.356	531.56
282.588	530.56
282.819	519.56
283.051	505.56
283.282	504.56
283.513	537.56
283.745	535.56
283.976	505.56
284.207	517.56
284.439	523.56
284.67	538.56
284.901	564.56
285.132	543.56
285.364	531.56
285.595	536.56
285.826	559.56
286.057	562.56
286.288	559.56
286.52	557.56
286.751	553.56
286.982	556.56
287.213	543.56
287.444	567.56
287.675	570.56
287.906	558.56
288.138	542.56
288.369	545.56
288.6	554.56
288.831	576.56
289.062	585.56
289.293	562.56
289.524	586.56
289.755	577.56
289.986	572.56
290.217	561.56
290.448	594.56
290.679	593.56
290.91	576.56
291.141	582.56
291.371	590.56
291.602	574.56
291.833	585.56
292.064	601.56
292.295	577.56
292.526	595.56
292.757	591.56
292.987	577.56
293.218	562.56
293.449	599.56
293.68	586.56
293.91	587.56
294.141	586.56
294.372	566.56
294.603	590.56
294.833	611.56
295.064	593.56
295.295	581.56
295.525	576.56
295.756	591.56
295.987	599.56
296.217	596.56
296.448	598.56
296.679	607.56
296.909	567.56
297.14	610.56
297.37	623.56
297.601	629.56
297.831	623.56
298.062	614.56
298.292	630.56
298.523	651.56
298.753	658.56
298.984	645.56
299.214	648.56
299.445	640.56
299.675	635.56
299.905	653.56
300.136	645.56
300.366	631.56
300.597	647.56
300.827	663.56
301.057	649.56
301.288	674.56
301.518	673.56
301.748	656.56
301.979	696.56
302.209	678.56
302.439	679.56
302.669	650.56
302.9	667.56
303.13	669.56
303.36	641.56
303.59	646.56
303.82	650.56
304.051	657.56
304.281	659.56
304.511	647.56
304.741	661.56
304.971	653.56
305.201	659.56
305.431	663.56
305.661	639.56
305.891	662.56
306.121	665.56
306.352	639.56
306.582	630.56
306.812	641.56
307.042	651.56
307.272	659.56
307.502	621.56
307.731	630.56
307.961	638.56
308.191	642.56
308.421	645.56
308.651	641.56
308.881	645.56
309.111	660.56
309.341	635.56
309.571	669.56
309.8	664.56
310.03	637.56
310.26	655.56
310.49	634.56
310.72	659.56
310.949	658.56
311.179	655.56
311.409	647.56
311.639	647.56
311.868	681.56
312.098	661.56
312.328	632.56
312.557	693.56
312.787	663.56
313.017	688.56
313.246	697.56
313.476	695.56
313.706	696.56
313.935	678.56
314.165	710.56
314.394	703.56
314.624	706.56
314.853	709.56
315.083	732.56
315.312	705.56
315.542	724.56
315.771	697.56
316.001	699.56
316.23	676.56
316.46	707.56
316.689	691.56
316.919	696.56
317.148	690.56
317.377	705.56
317.607	666.56
317.836	674.56
318.065	669.56
318.295	689.56
318.524	665.56
318.753	652.56
318.983	672.56
319.212	673.56
319.441	679.56
319.67	691.56
319.9	685.56
320.129	660.56
320.358	710.56
320.587	675.56
320.816	687.56
321.046	677.56
321.275	690.56
321.504	693.56
321.733	686.56
321.962	678.56
322.191	679.56
322.42	705.56
322.649	688.56
322.878	682.56
323.108	689.56
323.337	704.56
323.566	710.56
323.795	705.56
324.024	695.56
324.253	702.56
324.482	671.56
324.71	709.56
324.939	694.56
325.168	686.56
325.397	751.56
325.626	710.56
325.855	736.56
326.084	723.56
326.313	737.56
326.542	740.56
326.77	742.56
326.999	760.56
327.228	761.56
327.457	739.56
327.686	733.56
327.914	751.56
328.143	745.56
328.372	739.56
328.6	735.56
328.829	757.56
329.058	743.56
329.287	767.56
329.515	786.56
329.744	785.56
329.972	742.56
330.201	770.56
330.43	769.56
330.658	790.56
330.887	758.56
331.115	790.56
331.344	797.56
331.572	809.56
331.801	826.56
332.03	854.56
332.258	834.56
332.486	870.56
332.715	884.56
332.943	941.56
333.172	971.56
333.4	968.56
333.629	1064.56
333.857	1045.56
334.085	1030.56
334.314	1019.56
334.542	1026.56
334.771	1001.56
334.999	1014.56
335.227	968.56
335.455	967.56
335.684	950.56
335.912	971.56
336.14	922.56
336.369	929.56
336.597	933.56
336.825	915.56
337.053	918.56
337.281	899.56
337.51	893.56
337.738	862.56
337.966	851.56
338.194	829.56
338.422	844.56
338.65	821.56
338.878	803.56
339.106	837.56
339.334	835.56
339.562	827.56
339.79	815.56
340.018	777.56
340.246	763.56
340.474	802.56
340.702	805.56
340.93	774.56
341.158	792.56
341.386	787.56
341.614	787.56
341.842	800.56
342.07	779.56
342.298	775.56
342.526	793.56
342.754	767.56
342.981	803.56
343.209	801.56
343.437	856.56
343.665	887.56
343.893	951.56
344.12	980.56
344.348	968.56
344.576	903.56
344.804	893.56
345.031	825.56
345.259	790.56
345.487	783.56
345.714	802.56
345.942	779.56
346.17	777.56
346.397	782.56
346.625	767.56
346.853	746.56
347.08	785.56
347.308	788.56
347.535	789.56
347.763	763.56
347.99	803.56
348.218	791.56
348.445	760.56
348.673	749.56
348.9	761.56
349.128	768.56
349.355	754.56
349.583	751.56
349.81	727.56
350.037	742.56
350.265	739.56
350.492	724.56
350.72	726.56
350.947	740.56
351.174	716.56
351.402	727.56
351.629	746.56
351.856	749.56
352.083	730.56
352.311	743.56
352.538	734.56
352.765	739.56
352.992	720.56
353.22	690.56
353.447	715.56
353.674	728.56
353.901	725.56
354.128	702.56
354.355	718.56
354.583	700.56
354.81	724.56
355.037	746.56
355.264	757.56
355.491	719.56
355.718	725.56
355.945	708.56
356.172	747.56
356.399	717.56
356.626	751.56
356.853	752.56
357.08	739.56
357.307	720.56
357.534	703.56
357.761	725.56
357.988	744.56
358.215	733.56
358.441	720.56
358.668	724.56
358.895	720.56
359.122	737.56
359.349	746.56
359.576	747.56
359.802	738.56
360.029	715.56
360.256	727.56
360.483	751.56
360.709	713.56
360.936	751.56
361.163	729.56
361.39	724.56
361.616	767.56
361.843	747.56
362.07	749.56
362.296	767.56
362.523	729.56
362.749	741.56
362.976	754.56
363.203	749.56
363.429	714.56
363.656	710.56
363.882	724.56
364.109	752.56
364.335	712.56
364.562	736.56
364.788	718.56
365.015	727.56
365.241	703.56
365.468	738.56
365.694	733.56
365.92	723.56
366.147	705.56
366.373	711.56
366.599	730.56
366.826	717.56
367.052	720.56
367.278	726.56
367.505	712.56
367.731	721.56
367.957	730.56
368.184	699.56
368.41	713.56
368.636	744.56
368.862	747.56
369.089	750.56
369.315	763.56
369.541	774.56
369.767	770.56
369.993	756.56
370.219	765.56
370.445	770.56
370.672	766.56
370.898	782.56
371.124	769.56
371.35	789.56
371.576	831.56
371.802	818.56
372.028	788.56
372.254	787.56
372.48	771.56
372.706	816.56
372.932	843.56
373.158	807.56
373.384	782.56
373.61	805.56
373.835	809.56
374.061	792.56
374.287	803.56
374.513	822.56
374.739	859.56
374.965	903.56
375.191	890.56
375.416	906.56
375.642	870.56
375.868	868.56
376.094	831.56
376.319	833.56
376.545	830.56
376.771	808.56
376.997	806.56
377.222	775.56
377.448	810.56
377.674	808.56
377.899	800.56
378.125	810.56
378.35	800.56
378.576	795.56
378.802	801.56
379.027	806.56
379.253	795.56
379.478	784.56
379.704	773.56
379.929	789.56
380.155	785.56
380.38	794.56
380.606	753.56
380.831	789.56
381.057	780.56
381.282	797.56
381.507	794.56
381.733	811.56
381.958	805.56
382.184	831.56
382.409	825.56
382.634	840.56
382.86	825.56
383.085	874.56
383.31	859.56
383.535	872.56
383.761	883.56
383.986	887.56
384.211	889.56
384.436	936.56
384.662	961.56
384.887	941.56
385.112	962.56
385.337	970.56
385.562	961.56
385.787	994.56
386.013	961.56
386.238	983.56
386.463	986.56
386.688	985.56
386.913	959.56
387.138	995.56
387.363	965.56
387.588	962.56
387.813	949.56
388.038	975.56
388.263	993.56
388.488	957.56
388.713	966.56
388.938	960.56
389.163	949.56
389.387	934.56
389.612	922.56
389.837	958.56
390.062	931.56
390.287	968.56
390.512	963.56
390.736	963.56
390.961	970.56
391.186	1006.56
391.411	1028.56
391.636	1066.56
391.86	1076.56
392.085	1123.56
392.31	1110.56
392.534	1067.56
392.759	1070.56
392.984	1066.56
393.208	1037.56
393.433	1028.56
393.658	1046.56
393.882	1049.56
394.107	1042.56
394.331	1048.56
394.556	1053.56
394.78	1071.56
395.005	1039.56
395.229	1058.56
395.454	1097.56
395.678	1107.56
395.903	1105.56
396.127	1117.56
396.352	1087.56
396.576	1039.56
396.801	1034.56
397.025	1059.56
397.249	1085.56
397.474	1111.56
397.698	1080.56
397.922	1158.56
398.147	1111.56
398.371	1142.56
398.595	1187.56
398.82	1230.56
399.044	1290.56
399.268	1479.56
399.492	1649.56
399.717	1874.56
399.941	1894.56
400.165	1758.56
400.389	1556.56
400.613	1448.56
400.837	1349.56
401.062	1329.56
401.286	1286.56
401.51	1254.56
401.734	1261.56
401.958	1310.56
402.182	1266.56
402.406	1288.56
402.63	1326.56
402.854	1365.56
403.078	1322.56
403.302	1363.56
403.526	1377.56
403.75	1402.56
403.974	1459.56
404.198	1408.56
404.422	1434.56
404.645	1430.56
404.869	1392.56
405.093	1433.56
405.317	1386.56
405.541	1400.56
405.765	1397.56
405.988	1374.56
406.212	1393.56
406.436	1362.56
406.66	1413.56
406.883	1418.56
407.107	1520.56
407.331	1579.56
407.555	1673.56
407.778	1634.56
408.002	1607.56
408.226	1527.56
408.449	1494.56
408.673	1461.56
408.896	1441.56
409.12	1365.56
409.344	1403.56
409.567	1385.56
409.791	1417.56
410.014	1392.56
410.238	1360.56
410.461	1347.56
410.685	1364.56
410.908	1325.56
411.132	1314.56
411.355	1267.56
411.578	1301.56
411.802	1299.56
412.025	1270.56
412.249	1290.56
412.472	1330.56
412.695	1301.56
412.919	1270.56
413.142	1244.56
413.365	1254.56
413.589	1280.56
413.812	1239.56
414.035	1220.56
414.258	1209.56
414.482	1248.56
414.705	1255.56
414.928	1254.56
415.151	1217.56
415.374	1240.56
415.597	1217.56
415.821	1215.56
416.044	1230.56
416.267	1213.56
416.49	1189.56
416.713	1186.56
416.936	1245.56
417.159	1212.56
417.382	1237.56
417.605	1208.56
417.828	1221.56
418.051	1238.56
418.274	1215.56
418.497	1240.56
418.72	1258.56
418.943	1289.56
419.166	1348.56
419.389	1435.56
419.611	1399.56
419.834	1335.56
420.057	1300.56
420.28	1223.56
420.503	1224.56
420.726	1219.56
420.948	1209.56
421.171	1230.56
421.394	1239.56
421.617	1211.56
421.839	1240.56
422.062	1229.56
422.285	1198.56
422.507	1265.56
422.73	1265.56
422.953	1258.56
423.175	1243.56
423.398	1285.56
423.621	1284.56
423.843	1289.56
424.066	1326.56
424.288	1289.56
424.511	1273.56
424.733	1269.56
424.956	1232.56
425.178	1216.56
425.401	1239.56
425.623	1255.56
425.846	1205.56
426.068	1171.56
426.291	1173.56
426.513	1129.56
426.735	1155.56
426.958	1130.56
427.18	1108.56
427.402	1140.56
427.625	1103.56
427.847	1108.56
428.069	1097.56
428.292	1090.56
428.514	1080.56
428.736	1088.56
428.958	1091.56
429.181	1053.56
429.403	1073.56
429.625	1046.56
429.847	1061.56
430.069	1065.56
430.292	1038.56
430.514	1030.56
430.736	1058.56
430.958	1042.56
431.18	1050.56
431.402	1076.56
431.624	1075.56
431.846	1073.56
432.068	1064.56
432.29	1091.56
432.512	1073.56
432.734	1074.56
432.956	1083.56
433.178	1073.56
433.4	1057.56
433.622	1105.56
433.844	1111.56
434.066	1089.56
434.287	1081.56
434.509	1127.56
434.731	1176.56
434.953	1208.56
435.175	1209.56
435.397	1201.56
435.618	1131.56
435.84	1147.56
436.062	1102.56
436.284	1085.56
436.505	1076.56
436.727	1095.56
436.949	1072.56
437.17	1058.56
437.392	1054.56
437.614	1061.56
437.835	1009.56
438.057	1035.56
438.278	1015.56
438.5	1018.56
438.721	1016.56
438.943	1056.56
439.165	1041.56
439.386	1022.56
439.608	1081.56
439.829	1069.56
440.05	1094.56
440.272	1077.56
440.493	1082.56
440.715	1072.56
440.936	1083.56
441.158	1137.56
441.379	1171.56
441.6	1163.56
441.822	1206.56
442.043	1208.56
442.264	1183.56
442.486	1182.56
442.707	1211.56
442.928	1213.56
443.149	1180.56
443.371	1199.56
443.592	1177.56
443.813	1191.56
444.034	1229.56
444.255	1296.56
444.476	1306.56
444.698	1406.56
444.919	1466.56
445.14	1547.56
445.361	1391.56
445.582	1280.56
445.803	1189.56
446.024	1181.56
446.245	1123.56
446.466	1134.56
446.687	1085.56
446.908	1093.56
447.129	1051.56
447.35	1011.56
447.571	1034.56
447.792	1033.56
448.013	995.56
448.234	1012.56
448.455	992.56
448.675	986.56
448.896	977.56
449.117	952.56
449.338	974.56
449.559	961.56
449.779	983.56
450	981.56
450.221	965.56
450.442	980.56
450.662	972.56
450.883	984.56
451.104	987.56
451.324	995.56
451.545	1014.56
451.766	1006.56
451.986	957.56
452.207	960.56
452.428	985.56
452.648	945.56
452.869	941.56
453.089	930.56
453.31	968.56
453.53	935.56
453.751	930.56
453.971	924.56
454.192	964.56
454.412	945.56
454.633	898.56
454.853	931.56
455.073	911.56
455.294	939.56
455.514	902.56
455.734	930.56
455.955	907.56
456.175	910.56
456.395	937.56
456.616	920.56
456.836	919.56
457.056	929.56
457.276	906.56
457.497	913.56
457.717	926.56
457.937	942.56
458.157	938.56
458.377	968.56
458.598	972.56
458.818	986.56
459.038	1049.56
459.258	1073.56
459.478	1121.56
459.698	1139.56
459.918	1145.56
460.138	1190.56
460.358	1255.56
460.578	1300.56
460.798	1312.56
461.018	1331.56
461.238	1310.56
461.458	1303.56
461.678	1295.56
461.898	1317.56
462.118	1337.56
462.338	1386.56
462.558	1437.56
462.777	1505.56
462.997	1626.56
463.217	1711.56
463.437	1753.56
463.657	1650.56
463.876	1501.56
464.096	1544.56
464.316	1523.56
464.536	1486.56
464.755	1459.56
464.975	1448.56
465.195	1317.56
465.414	1273.56
465.634	1153.56
465.854	1160.56
466.073	1100.56
466.293	1089.56
466.512	1060.56
466.732	1033.56
466.951	1035.56
467.171	1002.56
467.391	1030.56
467.61	1007.56
467.829	999.56
468.049	1032.56
468.268	1035.56
468.488	992.56
468.707	987.56
468.927	1013.56
469.146	1000.56
469.365	1005.56
469.585	1017.56
469.804	1041.56
470.023	1029.56
470.243	1052.56
470.462	1085.56
470.681	1094.56
470.901	1063.56
471.12	1071.56
471.339	1008.56
471.558	1020.56
471.777	1016.56
471.997	1008.56
472.216	965.56
472.435	953.56
472.654	974.56
472.873	981.56
473.092	951.56
473.311	947.56
473.53	983.56
473.749	964.56
473.968	947.56
474.187	946.56
474.406	969.56
474.625	960.56
474.844	977.56
475.063	977.56
475.282	976.56
475.501	981.56
475.72	993.56
475.939	962.56
476.158	987.56
476.377	1014.56
476.596	1003.56
476.814	1013.56
477.033	1021.56
477.252	1039.56
477.471	1062.56
477.69	1108.56
477.908	1087.56
478.127	1157.56
478.346	1137.56
478.564	1201.56
478.783	1199.56
479.002	1221.56
479.22	1200.56
479.439	1200.56
479.658	1237.56
479.876	1238.56
480.095	1192.56
480.313	1273.56
480.532	1321.56
480.751	1332.56
480.969	1272.56
481.188	1191.56
481.406	1173.56
481.624	1161.56
481.843	1104.56
482.061	1107.56
482.28	1112.56
482.498	1079.56
482.717	1085.56
482.935	1122.56
483.153	1074.56
483.372	1098.56
483.59	1083.56
483.808	1093.56
484.027	1110.56
484.245	1115.56
484.463	1129.56
484.681	1133.56
484.9	1122.56
485.118	1135.56
485.336	1123.56
485.554	1149.56
485.772	1147.56
485.99	1144.56
486.209	1163.56
486.427	1167.56
486.645	1159.56
486.863	1184.56
487.081	1126.56
487.299	1145.56
487.517	1124.56
487.735	1149.56
487.953	1137.56
488.171	1161.56
488.389	1126.56
488.607	1139.56
488.825	1128.56
489.043	1139.56
489.261	1135.56
489.479	1129.56
489.696	1133.56
489.914	1150.56
490.132	1175.56
490.35	1162.56
490.568	1175.56
490.786	1174.56
491.003	1181.56
491.221	1183.56
491.439	1161.56
491.657	1164.56
491.874	1153.56
492.092	1177.56
492.31	1155.56
492.527	1205.56
492.745	1209.56
492.963	1182.56
493.18	1223.56
493.398	1187.56
493.615	1215.56
493.833	1229.56
494.05	1237.56
494.268	1240.56
494.485	1247.56
494.703	1292.56
494.92	1264.56
495.138	1292.56
495.355	1233.56
495.573	1277.56
495.79	1240.56
496.008	1234.56
496.225	1281.56
496.442	1285.56
496.66	1319.56
496.877	1326.56
497.094	1368.56
497.312	1399.56
497.529	1399.56
497.746	1456.56
497.963	1458.56
498.181	1556.56
498.398	1600.56
498.615	1722.56
498.832	1854.56
499.049	2000.56
499.267	2179.56
499.484	2401.56
499.701	2664.56
499.918	2949.56
500.135	3286.56
500.352	3718.56
500.569	3899.56
500.786	3915.56
501.003	3640.56
501.22	3298.56
501.437	2931.56
501.654	2580.56
501.871	2364.56
502.088	2165.56
502.305	2010.56
502.522	1895.56
502.739	1820.56
502.956	1710.56
503.172	1633.56
503.389	1522.56
503.606	1487.56
503.823	1451.56
504.04	1474.56
504.256	1496.56
504.473	1519.56
504.69	1530.56
504.907	1486.56
505.123	1413.56
505.34	1338.56
505.557	1294.56
505.773	1235.56
505.99	1202.56
506.207	1190.56
506.423	1176.56
506.64	1126.56
506.856	1093.56
507.073	1136.56
507.289	1094.56
507.506	1110.56
507.722	1086.56
507.939	1101.56
508.155	1064.56
508.372	1064.56
508.588	1028.56
508.805	1034.56
509.021	1038.56
509.238	1029.56
509.454	1028.56
509.67	1026.56
509.887	1002.56
510.103	998.56
510.319	989.56
510.536	1003.56
510.752	1001.56
510.968	979.56
511.184	981.56
511.401	1008.56
511.617	971.56
511.833	1002.56
512.049	996.56
512.265	1023.56
512.481	1007.56
512.698	1008.56
512.914	1004.56
513.13	1012.56
513.346	1019.56
513.562	1006.56
513.778	993.56
513.994	1001.56
514.21	1015.56
514.426	1021.56
514.642	1034.56
514.858	1008.56
515.074	1005.56
515.29	1051.56
515.506	1064.56
515.721	1079.56
515.937	1108.56
516.153	1094.56
516.369	1159.56
516.585	1181.56
516.801	1187.56
517.016	1251.56
517.232	1291.56
517.448	1350.56
517.664	1417.56
517.879	1423.56
518.095	1433.56
518.311	1395.56
518.527	1336.56
518.742	1335.56
518.958	1231.56
519.173	1194.56
519.389	1158.56
519.605	1118.56
519.82	1085.56
520.036	1072.56
520.251	1047.56
520.467	1037.56
520.682	1003.56
520.898	993.56
521.113	1003.56
521.329	975.56
521.544	971.56
521.76	985.56
521.975	955.56
522.19	954.56
522.406	942.56
522.621	918.56
522.836	954.56
523.052	915.56
523.267	924.56
523.482	933.56
523.698	905.56
523.913	934.56
524.128	920.56
524.343	912.56
524.559	901.56
524.774	941.56
524.989	920.56
525.204	912.56
525.419	903.56
525.634	888.56
525.849	899.56
526.064	922.56
526.28	886.56
526.495	886.56
526.71	921.56
526.925	884.56
527.14	895.56
527.355	897.56
527.57	887.56
527.785	903.56
527.999	894.56
528.214	868.56
528.429	894.56
528.644	905.56
528.859	878.56
529.074	919.56
529.289	903.56
529.503	886.56
529.718	891.56
529.933	870.56
530.148	869.56
530.363	889.56
530.577	839.56
530.792	894.56
531.007	870.56
531.221	893.56
531.436	901.56
531.651	898.56
531.865	881.56
532.08	875.56
532.295	912.56
532.509	877.56
532.724	881.56
532.938	884.56
533.153	885.56
533.367	882.56
533.582	882.56
533.796	886.56
534.011	859.56
534.225	849.56
534.44	858.56
534.654	861.56
534.868	874.56
535.083	885.56
535.297	869.56
535.511	848.56
535.726	875.56
535.94	858.56
536.154	828.56
536.369	826.56
536.583	794.56
536.797	831.56
537.011	820.56
537.225	807.56
537.44	825.56
537.654	838.56
537.868	778.56
538.082	798.56
538.296	819.56
538.51	825.56
538.724	818.56
538.938	836.56
539.153	817.56
539.367	806.56
539.581	802.56
539.795	786.56
540.009	768.56
540.222	787.56
540.436	794.56
540.65	798.56
540.864	784.56
541.078	772.56
541.292	787.56
541.506	794.56
541.72	806.56
541.934	803.56
542.147	805.56
542.361	797.56
542.575	779.56
542.789	793.56
543.002	779.56
543.216	806.56
543.43	772.56
543.644	795.56
543.857	781.56
544.071	789.56
544.285	826.56
544.498	797.56
544.712	809.56
544.925	799.56
545.139	819.56
545.352	812.56
545.566	805.56
545.779	839.56
545.993	826.56
546.206	827.56
546.42	808.56
546.633	805.56
546.847	833.56
547.06	803.56
547.274	830.56
547.487	806.56
547.7	824.56
547.914	817.56
548.127	840.56
548.34	858.56
548.554	814.56
548.767	819.56
548.98	827.56
549.193	816.56
549.407	837.56
549.62	874.56
549.833	859.56
550.046	821.56
550.259	872.56
550.473	797.56
550.686	799.56
550.899	804.56
551.112	787.56
551.325	810.56
551.538	817.56
551.751	802.56
551.964	781.56
552.177	819.56
552.39	847.56
552.603	857.56
552.816	875.56
553.029	889.56
553.242	910.56
553.455	891.56
553.667	916.56
553.88	895.56
554.093	857.56
554.306	851.56
554.519	838.56
554.732	836.56
554.944	810.56
555.157	776.56
555.37	763.56
555.583	748.56
555.795	751.56
556.008	752.56
556.221	727.56
556.433	710.56
556.646	727.56
556.859	714.56
557.071	710.56
557.284	705.56
557.496	703.56
557.709	701.56
557.921	719.56
558.134	691.56
558.346	666.56
558.559	671.56
558.771	680.56
558.984	675.56
559.196	692.56
559.409	680.56
559.621	676.56
559.833	669.56
560.046	685.56
560.258	663.56
560.47	680.56
560.683	676.56
560.895	652.56
561.107	697.56
561.32	689.56
561.532	666.56
561.744	664.56
561.956	663.56
562.168	656.56
562.381	657.56
562.593	679.56
562.805	671.56
563.017	672.56
563.229	692.56
563.441	674.56
563.653	681.56
563.865	699.56
564.077	716.56
564.289	692.56
564.501	715.56
564.713	758.56
564.925	759.56
565.137	779.56
565.349	770.56
565.561	789.56
565.773	835.56
565.985	843.56
566.197	902.56
566.408	973.56
566.62	1091.56
566.832	1117.56
567.044	1153.56
567.255	1183.56
567.467	1175.56
567.679	1246.56
567.891	1322.56
568.102	1294.56
568.314	1247.56
568.526	1171.56
568.737	1086.56
568.949	975.56
569.161	916.56
569.372	851.56
569.584	799.56
569.795	771.56
570.007	742.56
570.218	723.56
570.43	729.56
570.641	732.56
570.853	701.56
571.064	718.56
571.276	694.56
571.487	679.56
571.698	661.56
571.91	650.56
572.121	601.56
572.333	613.56
572.544	617.56
572.755	592.56
572.966	566.56
573.178	571.56
573.389	564.56
573.6	558.56
573.811	579.56
574.023	586.56
574.234	581.56
574.445	546.56
574.656	559.56
574.867	568.56
575.078	553.56
575.289	541.56
575.501	567.56
575.712	524.56
575.923	521.56
576.134	527.56
576.345	541.56
576.556	527.56
576.767	505.56
576.978	527.56
577.188	530.56
577.399	505.56
577.61	523.56
577.821	528.56
578.032	489.56
578.243	483.56
578.454	527.56
578.665	488.56
578.875	474.56
579.086	503.56
579.297	493.56
579.508	474.56
579.718	477.56
579.929	481.56
580.14	505.56
580.35	472.56
580.561	469.56
580.772	485.56
580.982	457.56
581.193	487.56
581.403	480.56
581.614	466.56
581.825	467.56
582.035	461.56
582.246	466.56
582.456	475.56
582.667	454.56
582.877	454.56
583.087	469.56
583.298	455.56
583.508	470.56
583.719	461.56
583.929	461.56
584.139	456.56
584.35	457.56
584.56	445.56
584.77	451.56
584.981	459.56
585.191	436.56
585.401	447.56
585.611	452.56
585.821	454.56
586.032	456.56
586.242	447.56
586.452	447.56
586.662	419.56
586.872	447.56
587.082	443.56
587.292	434.56
587.502	459.56
587.713	446.56
587.923	458.56
588.133	443.56
588.343	440.56
588.553	417.56
588.762	429.56
588.972	442.56
589.182	447.56
589.392	451.56
589.602	462.56
589.812	464.56
590.022	451.56
590.232	450.56
590.441	470.56
590.651	442.56
590.861	442.56
591.071	451.56
591.281	463.56
591.49	472.56
591.7	467.56
591.91	497.56
592.119	483.56
592.329	514.56
592.539	514.56
592.748	538.56
592.958	541.56
593.167	551.56
593.377	546.56
593.587	586.56
593.796	575.56
594.006	578.56
594.215	573.56
594.424	556.56
594.634	553.56
594.843	539.56
595.053	511.56
595.262	496.56
595.472	498.56
595.681	479.56
595.89	470.56
596.1	436.56
596.309	445.56
596.518	411.56
596.727	425.56
596.937	423.56
597.146	431.56
597.355	433.56
597.564	409.56
597.774	403.56
597.983	385.56
598.192	388.56
598.401	395.56
598.61	398.56
598.819	391.56
599.028	372.56
599.237	398.56
599.446	386.56
599.655	380.56
599.864	371.56
600.073	379.56
600.282	361.56
600.491	371.56
600.7	367.56
600.909	353.56
601.118	351.56
601.327	377.56
601.536	346.56
601.745	370.56
601.953	353.56
602.162	361.56
602.371	342.56
602.58	355.56
602.789	337.56
602.997	346.56
603.206	362.56
603.415	366.56
603.623	344.56
603.832	341.56
604.041	345.56
604.249	356.56
604.458	330.56
604.666	343.56
604.875	351.56
605.084	314.56
605.292	325.56
605.501	329.56
605.709	338.56
605.918	333.56
606.126	307.56
606.334	334.56
606.543	324.56
606.751	342.56
606.96	330.56
607.168	333.56
607.376	315.56
607.585	337.56
607.793	328.56
608.001	330.56
608.21	328.56
608.418	324.56
608.626	314.56
608.834	321.56
609.043	316.56
609.251	325.56
609.459	313.56
609.667	330.56
609.875	305.56
610.083	307.56
610.291	303.56
610.499	309.56
610.707	306.56
610.916	310.56
611.124	314.56
611.332	316.56
611.54	322.56
611.748	320.56
611.955	314.56
612.163	309.56
612.371	326.56
612.579	313.56
612.787	319.56
612.995	315.56
613.203	299.56
613.411	307.56
613.618	305.56
613.826	315.56
614.034	310.56
614.242	321.56
614.449	305.56
614.657	312.56
614.865	307.56
615.072	299.56
615.28	317.56
615.488	319.56
615.695	308.56
615.903	319.56
616.111	304.56
616.318	293.56
616.526	313.56
616.733	310.56
616.941	288.56
617.148	308.56
617.356	308.56
617.563	314.56
617.771	302.56
617.978	310.56
618.185	294.56
618.393	317.56
618.6	309.56
618.807	298.56
619.015	301.56
619.222	310.56
619.429	311.56
619.637	296.56
619.844	298.56
620.051	304.56
620.258	287.56
620.466	278.56
620.673	290.56
620.88	278.56
621.087	302.56
621.294	294.56
621.501	279.56
621.708	284.56
621.915	308.56
622.122	297.56
622.329	276.56
622.536	291.56
622.743	304.56
622.95	293.56
623.157	279.56
623.364	275.56
623.571	257.56
623.778	268.56
623.985	279.56
624.192	300.56
624.399	266.56
624.606	286.56
624.812	273.56
625.019	275.56
625.226	298.56
625.433	275.56
625.639	237.56
625.846	242.56
626.053	272.56
626.259	278.56
626.466	257.56
626.673	263.56
626.879	253.56
627.086	256.56
627.293	263.56
627.499	254.56
627.706	279.56
627.912	263.56
628.119	233.56
628.325	261.56
628.532	263.56
628.738	257.56
628.945	259.56
629.151	247.56
629.357	264.56
629.564	239.56
629.77	255.56
629.976	264.56
630.183	257.56
630.389	247.56
630.595	240.56
630.802	222.56
631.008	233.56
631.214	244.56
631.42	248.56
631.627	246.56
631.833	229.56
632.039	237.56
632.245	229.56
632.451	228.56
632.657	240.56
632.863	241.56
633.069	233.56
633.275	226.56
633.481	222.56
633.688	225.56
633.893	241.56
634.099	233.56
634.305	239.56
634.511	223.56
634.717	234.56
634.923	224.56
635.129	234.56
635.335	212.56
635.541	237.56
635.747	217.56
635.952	233.56
636.158	216.56
636.364	229.56
636.57	217.56
636.775	207.56
636.981	230.56
637.187	209.56
637.392	222.56
637.598	215.56
637.804	215.56
638.009	224.56
638.215	236.56
638.421	212.56
638.626	224.56
638.832	205.56
639.037	212.56
639.243	221.56
639.448	222.56
639.654	205.56
639.859	212.56
640.065	199.56
640.27	210.56
640.475	200.56
640.681	202.56
640.886	216.56
641.091	211.56
641.297	214.56
641.502	209.56
641.707	192.56
641.913	191.56
642.118	208.56
642.323	198.56
642.528	209.56
642.733	191.56
642.939	207.56
643.144	202.56
643.349	224.56
643.554	186.56
643.759	191.56
643.964	194.56
644.169	203.56
644.374	205.56
644.579	189.56
644.784	194.56
644.989	200.56
645.194	216.56
645.399	200.56
645.604	199.56
645.809	195.56
646.014	200.56
646.219	193.56
646.423	189.56
646.628	192.56
646.833	200.56
647.038	189.56
647.243	203.56
647.447	198.56
647.652	211.56
647.857	192.56
648.062	206.56
648.266	210.56
648.471	196.56
648.676	221.56
648.88	212.56
649.085	193.56
649.289	199.56
649.494	201.56
649.698	206.56
649.903	186.56
650.107	184.56
650.312	190.56
650.516	179.56
650.721	193.56
650.925	167.56
651.13	171.56
651.334	177.56
651.539	175.56
651.743	164.56
651.947	179.56
652.152	179.56
652.356	153.56
652.56	161.56
652.764	158.56
652.969	153.56
653.173	151.56
653.377	151.56
653.581	155.56
653.785	162.56
653.99	144.56
654.194	153.56
654.398	152.56
654.602	147.56
654.806	145.56
655.01	137.56
655.214	156.56
655.418	139.56
655.622	150.56
655.826	145.56
656.03	134.56
656.234	141.56
656.438	137.56
656.642	138.56
656.846	125.56
657.049	119.56
657.253	136.56
657.457	128.56
657.661	121.56
657.865	119.56
658.068	113.56
658.272	117.56
658.476	104.56
658.68	96.56
658.883	107.56
659.087	93.56
659.291	112.56
659.494	96.56
659.698	86.56
659.901	115.56
660.105	113.56
660.309	104.56
660.512	86.56
660.716	84.56
660.919	96.56
661.123	99.56
661.326	102.56
661.53	85.56
661.733	92.56
661.936	105.56
662.14	92.56
662.343	87.56
662.546	85.56
662.75	75.56
662.953	85.56
663.156	93.56
663.36	84.56
663.563	85.56
663.766	83.56
663.969	89.56
664.173	82.56
664.376	70.56
664.579	93.56
664.782	91.56
664.985	69.56
665.188	83.56
665.391	87.56
665.594	76.56
665.797	90.56
666	101.56
666.203	80.56
666.406	83.56
666.609	73.56
666.812	74.56
667.015	80.56
667.218	79.56
667.421	87.56
667.624	83.56
667.827	82.56
668.03	67.56
668.232	80.56
668.435	86.56
668.638	92.56
668.841	81.56
669.043	76.56
669.246	70.56
669.449	69.56
669.651	84.56
669.854	86.56
670.057	91.56
670.259	82.56
670.462	86.56
670.665	76.56
670.867	83.56
671.07	80.56
671.272	78.56
671.475	83.56
671.677	82.56
671.88	84.56
672.082	80.56
672.284	70.56
672.487	65.56
672.689	74.56
672.892	86.56
