Data from NiCl2@0.0625M.TitratingCurve.Agarose3%dH2O.NegLispCup.LampEnergy10.LIBS07252019_HRD10591_18-34-57-576.txt Node
Date: Thu Jul 25 18:34:57 EDT 2019
User: cochatt
Spectrometer: HR+D1059
Trigger mode: 1
Integration Time (sec): 1.000000E-1
Scans to average: 1
Electric dark correction enabled: true
Nonlinearity correction enabled: false
Boxcar width: 0
XAxis mode: Wavelengths
Number of Pixels in Spectrum: 2048
>>>>>Begin Spectral Data<<<<<
223.165	-33.19
223.4	-33.19
223.635	-33.19
223.869	7.81
224.104	-11.19
224.338	-8.19
224.573	-15.19
224.808	-14.19
225.042	-7.19
225.277	-17.19
225.511	-7.19
225.746	6.81
225.98	14.81
226.215	10.81
226.449	-3.19
226.683	18.81
226.918	29.81
227.152	27.81
227.387	32.81
227.621	37.81
227.856	46.81
228.09	42.81
228.324	52.81
228.559	61.81
228.793	82.81
229.027	134.81
229.262	132.81
229.496	124.81
229.73	154.81
229.964	165.81
230.199	168.81
230.433	162.81
230.667	169.81
230.901	176.81
231.136	169.81
231.37	190.81
231.604	182.81
231.838	179.81
232.072	180.81
232.306	175.81
232.541	208.81
232.775	182.81
233.009	200.81
233.243	194.81
233.477	205.81
233.711	184.81
233.945	200.81
234.179	193.81
234.413	201.81
234.647	194.81
234.881	189.81
235.115	198.81
235.349	203.81
235.583	199.81
235.817	209.81
236.051	197.81
236.285	194.81
236.519	209.81
236.753	195.81
236.987	206.81
237.221	210.81
237.455	224.81
237.689	210.81
237.922	225.81
238.156	233.81
238.39	228.81
238.624	222.81
238.858	233.81
239.091	224.81
239.325	225.81
239.559	231.81
239.793	238.81
240.027	240.81
240.26	244.81
240.494	267.81
240.728	248.81
240.961	273.81
241.195	266.81
241.429	260.81
241.662	265.81
241.896	286.81
242.13	277.81
242.363	273.81
242.597	292.81
242.83	269.81
243.064	297.81
243.298	278.81
243.531	276.81
243.765	285.81
243.998	278.81
244.232	301.81
244.465	306.81
244.699	307.81
244.932	308.81
245.166	329.81
245.399	308.81
245.633	316.81
245.866	297.81
246.099	317.81
246.333	324.81
246.566	334.81
246.8	322.81
247.033	330.81
247.266	324.81
247.5	344.81
247.733	317.81
247.966	349.81
248.2	352.81
248.433	322.81
248.666	340.81
248.899	347.81
249.133	362.81
249.366	373.81
249.599	364.81
249.832	363.81
250.066	358.81
250.299	367.81
250.532	360.81
250.765	375.81
250.998	378.81
251.231	396.81
251.465	389.81
251.698	390.81
251.931	406.81
252.164	384.81
252.397	397.81
252.63	388.81
252.863	403.81
253.096	394.81
253.329	393.81
253.562	402.81
253.795	392.81
254.028	391.81
254.261	413.81
254.494	412.81
254.727	414.81
254.96	401.81
255.193	416.81
255.426	421.81
255.659	432.81
255.892	434.81
256.124	403.81
256.357	434.81
256.59	424.81
256.823	442.81
257.056	432.81
257.289	442.81
257.521	452.81
257.754	429.81
257.987	473.81
258.22	426.81
258.452	453.81
258.685	461.81
258.918	458.81
259.151	458.81
259.383	457.81
259.616	452.81
259.849	461.81
260.081	481.81
260.314	463.81
260.547	466.81
260.779	468.81
261.012	474.81
261.244	496.81
261.477	494.81
261.71	490.81
261.942	472.81
262.175	488.81
262.407	501.81
262.64	490.81
262.872	503.81
263.105	491.81
263.337	512.81
263.57	536.81
263.802	536.81
264.035	512.81
264.267	505.81
264.499	511.81
264.732	515.81
264.964	545.81
265.197	542.81
265.429	528.81
265.661	506.81
265.894	543.81
266.126	540.81
266.358	538.81
266.591	522.81
266.823	545.81
267.055	565.81
267.287	559.81
267.52	553.81
267.752	563.81
267.984	541.81
268.216	564.81
268.448	580.81
268.681	568.81
268.913	555.81
269.145	570.81
269.377	567.81
269.609	566.81
269.841	584.81
270.073	586.81
270.306	588.81
270.538	569.81
270.77	577.81
271.002	591.81
271.234	578.81
271.466	582.81
271.698	610.81
271.93	589.81
272.162	601.81
272.394	594.81
272.626	610.81
272.858	613.81
273.09	600.81
273.322	616.81
273.553	614.81
273.785	650.81
274.017	630.81
274.249	626.81
274.481	636.81
274.713	626.81
274.945	650.81
275.176	628.81
275.408	638.81
275.64	649.81
275.872	644.81
276.104	654.81
276.335	633.81
276.567	649.81
276.799	663.81
277.031	671.81
277.262	660.81
277.494	656.81
277.726	644.81
277.957	671.81
278.189	658.81
278.421	670.81
278.652	666.81
278.884	675.81
279.115	700.81
279.347	672.81
279.579	684.81
279.81	688.81
280.042	687.81
280.273	670.81
280.505	702.81
280.736	681.81
280.968	701.81
281.199	697.81
281.431	714.81
281.662	701.81
281.894	714.81
282.125	722.81
282.356	746.81
282.588	718.81
282.819	736.81
283.051	713.81
283.282	694.81
283.513	715.81
283.745	755.81
283.976	725.81
284.207	718.81
284.439	721.81
284.67	758.81
284.901	753.81
285.132	752.81
285.364	744.81
285.595	736.81
285.826	736.81
286.057	779.81
286.288	780.81
286.52	764.81
286.751	794.81
286.982	780.81
287.213	784.81
287.444	776.81
287.675	790.81
287.906	764.81
288.138	805.81
288.369	796.81
288.6	786.81
288.831	810.81
289.062	803.81
289.293	815.81
289.524	804.81
289.755	802.81
289.986	806.81
290.217	795.81
290.448	807.81
290.679	829.81
290.91	797.81
291.141	812.81
291.371	774.81
291.602	827.81
291.833	821.81
292.064	807.81
292.295	814.81
292.526	813.81
292.757	813.81
292.987	800.81
293.218	820.81
293.449	824.81
293.68	806.81
293.91	855.81
294.141	809.81
294.372	819.81
294.603	817.81
294.833	799.81
295.064	797.81
295.295	823.81
295.525	837.81
295.756	828.81
295.987	844.81
296.217	849.81
296.448	828.81
296.679	828.81
296.909	840.81
297.14	829.81
297.37	865.81
297.601	893.81
297.831	861.81
298.062	852.81
298.292	888.81
298.523	880.81
298.753	902.81
298.984	888.81
299.214	868.81
299.445	898.81
299.675	870.81
299.905	888.81
300.136	858.81
300.366	904.81
300.597	885.81
300.827	893.81
301.057	944.81
301.288	900.81
301.518	932.81
301.748	908.81
301.979	955.81
302.209	919.81
302.439	914.81
302.669	927.81
302.9	908.81
303.13	904.81
303.36	923.81
303.59	904.81
303.82	903.81
304.051	919.81
304.281	956.81
304.511	936.81
304.741	914.81
304.971	921.81
305.201	925.81
305.431	900.81
305.661	922.81
305.891	900.81
306.121	934.81
306.352	903.81
306.582	928.81
306.812	915.81
307.042	914.81
307.272	945.81
307.502	898.81
307.731	919.81
307.961	914.81
308.191	926.81
308.421	896.81
308.651	916.81
308.881	918.81
309.111	921.81
309.341	909.81
309.571	917.81
309.8	916.81
310.03	909.81
310.26	938.81
310.49	929.81
310.72	942.81
310.949	901.81
311.179	927.81
311.409	920.81
311.639	941.81
311.868	949.81
312.098	969.81
312.328	934.81
312.557	968.81
312.787	950.81
313.017	947.81
313.246	965.81
313.476	978.81
313.706	984.81
313.935	991.81
314.165	977.81
314.394	969.81
314.624	1009.81
314.853	986.81
315.083	973.81
315.312	977.81
315.542	976.81
315.771	970.81
316.001	973.81
316.23	978.81
316.46	961.81
316.689	965.81
316.919	973.81
317.148	980.81
317.377	982.81
317.607	974.81
317.836	980.81
318.065	960.81
318.295	966.81
318.524	973.81
318.753	956.81
318.983	981.81
319.212	951.81
319.441	972.81
319.67	947.81
319.9	988.81
320.129	1011.81
320.358	982.81
320.587	950.81
320.816	978.81
321.046	995.81
321.275	993.81
321.504	976.81
321.733	962.81
321.962	1018.81
322.191	1002.81
322.42	995.81
322.649	991.81
322.878	1000.81
323.108	1022.81
323.337	1008.81
323.566	1011.81
323.795	1003.81
324.024	1026.81
324.253	1017.81
324.482	1026.81
324.71	997.81
324.939	1006.81
325.168	1010.81
325.397	1001.81
325.626	1044.81
325.855	1053.81
326.084	1054.81
326.313	1068.81
326.542	1018.81
326.77	1090.81
326.999	1042.81
327.228	1052.81
327.457	1061.81
327.686	1053.81
327.914	1054.81
328.143	1044.81
328.372	1090.81
328.6	1078.81
328.829	1074.81
329.058	1062.81
329.287	1072.81
329.515	1066.81
329.744	1085.81
329.972	1108.81
330.201	1085.81
330.43	1093.81
330.658	1098.81
330.887	1120.81
331.115	1135.81
331.344	1098.81
331.572	1129.81
331.801	1134.81
332.03	1179.81
332.258	1167.81
332.486	1192.81
332.715	1214.81
332.943	1268.81
333.172	1298.81
333.4	1340.81
333.629	1333.81
333.857	1401.81
334.085	1376.81
334.314	1354.81
334.542	1343.81
334.771	1340.81
334.999	1318.81
335.227	1303.81
335.455	1306.81
335.684	1312.81
335.912	1310.81
336.14	1285.81
336.369	1290.81
336.597	1286.81
336.825	1287.81
337.053	1291.81
337.281	1292.81
337.51	1241.81
337.738	1230.81
337.966	1206.81
338.194	1230.81
338.422	1188.81
338.65	1185.81
338.878	1168.81
339.106	1131.81
339.334	1166.81
339.562	1139.81
339.79	1136.81
340.018	1141.81
340.246	1096.81
340.474	1140.81
340.702	1124.81
340.93	1150.81
341.158	1146.81
341.386	1123.81
341.614	1144.81
341.842	1108.81
342.07	1105.81
342.298	1137.81
342.526	1127.81
342.754	1128.81
342.981	1101.81
343.209	1162.81
343.437	1196.81
343.665	1269.81
343.893	1304.81
344.12	1332.81
344.348	1287.81
344.576	1247.81
344.804	1220.81
345.031	1189.81
345.259	1180.81
345.487	1130.81
345.714	1121.81
345.942	1120.81
346.17	1116.81
346.397	1093.81
346.625	1098.81
346.853	1081.81
347.08	1097.81
347.308	1103.81
347.535	1078.81
347.763	1078.81
347.99	1082.81
348.218	1062.81
348.445	1064.81
348.673	1054.81
348.9	1081.81
349.128	1089.81
349.355	1058.81
349.583	1064.81
349.81	1051.81
350.037	1067.81
350.265	1039.81
350.492	1034.81
350.72	1051.81
350.947	1021.81
351.174	1016.81
351.402	1079.81
351.629	1051.81
351.856	1010.81
352.083	1046.81
352.311	1023.81
352.538	1026.81
352.765	1018.81
352.992	1032.81
353.22	1038.81
353.447	1034.81
353.674	1006.81
353.901	1012.81
354.128	999.81
354.355	1043.81
354.583	1041.81
354.81	1032.81
355.037	1013.81
355.264	1050.81
355.491	1032.81
355.718	1036.81
355.945	1048.81
356.172	1030.81
356.399	1048.81
356.626	1072.81
356.853	1050.81
357.08	1053.81
357.307	1062.81
357.534	1032.81
357.761	1054.81
357.988	1051.81
358.215	1027.81
358.441	1034.81
358.668	1026.81
358.895	1043.81
359.122	1038.81
359.349	1032.81
359.576	1041.81
359.802	1042.81
360.029	1025.81
360.256	1027.81
360.483	1022.81
360.709	1053.81
360.936	1052.81
361.163	999.81
361.39	1032.81
361.616	1034.81
361.843	1028.81
362.07	1034.81
362.296	1027.81
362.523	1027.81
362.749	1061.81
362.976	1049.81
363.203	1008.81
363.429	1036.81
363.656	1053.81
363.882	1055.81
364.109	1037.81
364.335	1059.81
364.562	1039.81
364.788	1029.81
365.015	1044.81
365.241	1034.81
365.468	1041.81
365.694	1029.81
365.92	1058.81
366.147	1052.81
366.373	1051.81
366.599	1029.81
366.826	1008.81
367.052	1037.81
367.278	1036.81
367.505	1057.81
367.731	1048.81
367.957	1044.81
368.184	1061.81
368.41	1071.81
368.636	1046.81
368.862	1088.81
369.089	1048.81
369.315	1061.81
369.541	1066.81
369.767	1068.81
369.993	1067.81
370.219	1059.81
370.445	1109.81
370.672	1104.81
370.898	1069.81
371.124	1123.81
371.35	1120.81
371.576	1122.81
371.802	1149.81
372.028	1093.81
372.254	1124.81
372.48	1114.81
372.706	1144.81
372.932	1152.81
373.158	1150.81
373.384	1139.81
373.61	1138.81
373.835	1176.81
374.061	1121.81
374.287	1146.81
374.513	1145.81
374.739	1175.81
374.965	1197.81
375.191	1241.81
375.416	1230.81
375.642	1194.81
375.868	1177.81
376.094	1170.81
376.319	1179.81
376.545	1153.81
376.771	1148.81
376.997	1120.81
377.222	1157.81
377.448	1108.81
377.674	1133.81
377.899	1106.81
378.125	1108.81
378.35	1112.81
378.576	1090.81
378.802	1125.81
379.027	1126.81
379.253	1106.81
379.478	1125.81
379.704	1106.81
379.929	1132.81
380.155	1126.81
380.38	1098.81
380.606	1125.81
380.831	1100.81
381.057	1122.81
381.282	1124.81
381.507	1123.81
381.733	1120.81
381.958	1150.81
382.184	1133.81
382.409	1166.81
382.634	1170.81
382.86	1173.81
383.085	1184.81
383.31	1164.81
383.535	1235.81
383.761	1208.81
383.986	1222.81
384.211	1246.81
384.436	1273.81
384.662	1314.81
384.887	1308.81
385.112	1295.81
385.337	1348.81
385.562	1323.81
385.787	1347.81
386.013	1339.81
386.238	1349.81
386.463	1317.81
386.688	1354.81
386.913	1344.81
387.138	1340.81
387.363	1330.81
387.588	1334.81
387.813	1312.81
388.038	1370.81
388.263	1320.81
388.488	1326.81
388.713	1338.81
388.938	1325.81
389.163	1314.81
389.387	1316.81
389.612	1307.81
389.837	1305.81
390.062	1332.81
390.287	1349.81
390.512	1307.81
390.736	1374.81
390.961	1341.81
391.186	1396.81
391.411	1400.81
391.636	1443.81
391.86	1450.81
392.085	1493.81
392.31	1526.81
392.534	1462.81
392.759	1451.81
392.984	1432.81
393.208	1409.81
393.433	1404.81
393.658	1435.81
393.882	1435.81
394.107	1427.81
394.331	1408.81
394.556	1426.81
394.78	1434.81
395.005	1435.81
395.229	1467.81
395.454	1498.81
395.678	1530.81
395.903	1497.81
396.127	1470.81
396.352	1462.81
396.576	1429.81
396.801	1459.81
397.025	1477.81
397.249	1489.81
397.474	1543.81
397.698	1532.81
397.922	1520.81
398.147	1512.81
398.371	1566.81
398.595	1600.81
398.82	1656.81
399.044	1766.81
399.268	1882.81
399.492	2104.81
399.717	2335.81
399.941	2346.81
400.165	2171.81
400.389	2009.81
400.613	1875.81
400.837	1753.81
401.062	1741.81
401.286	1669.81
401.51	1678.81
401.734	1667.81
401.958	1694.81
402.182	1664.81
402.406	1692.81
402.63	1734.81
402.854	1746.81
403.078	1758.81
403.302	1770.81
403.526	1798.81
403.75	1762.81
403.974	1835.81
404.198	1835.81
404.422	1862.81
404.645	1829.81
404.869	1822.81
405.093	1824.81
405.317	1800.81
405.541	1787.81
405.765	1817.81
405.988	1804.81
406.212	1828.81
406.436	1795.81
406.66	1865.81
406.883	1869.81
407.107	1989.81
407.331	2076.81
407.555	2096.81
407.778	2099.81
408.002	2029.81
408.226	1987.81
408.449	1990.81
408.673	1893.81
408.896	1928.81
409.12	1870.81
409.344	1904.81
409.567	1841.81
409.791	1858.81
410.014	1853.81
410.238	1814.81
410.461	1820.81
410.685	1820.81
410.908	1840.81
411.132	1765.81
411.355	1790.81
411.578	1720.81
411.802	1760.81
412.025	1761.81
412.249	1739.81
412.472	1760.81
412.695	1691.81
412.919	1678.81
413.142	1703.81
413.365	1713.81
413.589	1696.81
413.812	1631.81
414.035	1658.81
414.258	1661.81
414.482	1612.81
414.705	1716.81
414.928	1689.81
415.151	1678.81
415.374	1686.81
415.597	1681.81
415.821	1619.81
416.044	1638.81
416.267	1590.81
416.49	1668.81
416.713	1622.81
416.936	1610.81
417.159	1597.81
417.382	1578.81
417.605	1588.81
417.828	1560.81
418.051	1602.81
418.274	1634.81
418.497	1607.81
418.72	1657.81
418.943	1637.81
419.166	1768.81
419.389	1861.81
419.611	1852.81
419.834	1699.81
420.057	1693.81
420.28	1633.81
420.503	1584.81
420.726	1561.81
420.948	1579.81
421.171	1603.81
421.394	1591.81
421.617	1613.81
421.839	1618.81
422.062	1592.81
422.285	1585.81
422.507	1619.81
422.73	1610.81
422.953	1662.81
423.175	1651.81
423.398	1626.81
423.621	1651.81
423.843	1656.81
424.066	1660.81
424.288	1643.81
424.511	1600.81
424.733	1656.81
424.956	1634.81
425.178	1627.81
425.401	1668.81
425.623	1596.81
425.846	1553.81
426.068	1573.81
426.291	1571.81
426.513	1578.81
426.735	1548.81
426.958	1520.81
427.18	1485.81
427.402	1474.81
427.625	1503.81
427.847	1460.81
428.069	1492.81
428.292	1517.81
428.514	1458.81
428.736	1477.81
428.958	1463.81
429.181	1430.81
429.403	1410.81
429.625	1460.81
429.847	1434.81
430.069	1464.81
430.292	1463.81
430.514	1429.81
430.736	1427.81
430.958	1464.81
431.18	1501.81
431.402	1461.81
431.624	1428.81
431.846	1477.81
432.068	1500.81
432.29	1522.81
432.512	1462.81
432.734	1492.81
432.956	1454.81
433.178	1459.81
433.4	1510.81
433.622	1504.81
433.844	1505.81
434.066	1505.81
434.287	1516.81
434.509	1579.81
434.731	1598.81
434.953	1606.81
435.175	1630.81
435.397	1588.81
435.618	1557.81
435.84	1509.81
436.062	1493.81
436.284	1446.81
436.505	1477.81
436.727	1514.81
436.949	1458.81
437.17	1485.81
437.392	1411.81
437.614	1425.81
437.835	1388.81
438.057	1412.81
438.278	1376.81
438.5	1430.81
438.721	1404.81
438.943	1407.81
439.165	1412.81
439.386	1438.81
439.608	1462.81
439.829	1440.81
440.05	1426.81
440.272	1453.81
440.493	1447.81
440.715	1483.81
440.936	1478.81
441.158	1477.81
441.379	1548.81
441.6	1602.81
441.822	1596.81
442.043	1607.81
442.264	1597.81
442.486	1544.81
442.707	1576.81
442.928	1552.81
443.149	1591.81
443.371	1556.81
443.592	1575.81
443.813	1614.81
444.034	1602.81
444.255	1625.81
444.476	1728.81
444.698	1772.81
444.919	1789.81
445.14	1897.81
445.361	1765.81
445.582	1642.81
445.803	1580.81
446.024	1556.81
446.245	1478.81
446.466	1498.81
446.687	1421.81
446.908	1437.81
447.129	1407.81
447.35	1405.81
447.571	1387.81
447.792	1376.81
448.013	1392.81
448.234	1337.81
448.455	1336.81
448.675	1331.81
448.896	1321.81
449.117	1331.81
449.338	1322.81
449.559	1295.81
449.779	1303.81
450	1287.81
450.221	1274.81
450.442	1321.81
450.662	1289.81
450.883	1322.81
451.104	1328.81
451.324	1323.81
451.545	1304.81
451.766	1315.81
451.986	1313.81
452.207	1290.81
452.428	1283.81
452.648	1284.81
452.869	1267.81
453.089	1226.81
453.31	1306.81
453.53	1238.81
453.751	1240.81
453.971	1218.81
454.192	1235.81
454.412	1246.81
454.633	1226.81
454.853	1237.81
455.073	1214.81
455.294	1244.81
455.514	1228.81
455.734	1251.81
455.955	1207.81
456.175	1228.81
456.395	1220.81
456.616	1228.81
456.836	1227.81
457.056	1231.81
457.276	1213.81
457.497	1261.81
457.717	1210.81
457.937	1247.81
458.157	1281.81
458.377	1274.81
458.598	1317.81
458.818	1348.81
459.038	1368.81
459.258	1372.81
459.478	1438.81
459.698	1488.81
459.918	1516.81
460.138	1558.81
460.358	1580.81
460.578	1601.81
460.798	1641.81
461.018	1688.81
461.238	1659.81
461.458	1652.81
461.678	1610.81
461.898	1686.81
462.118	1694.81
462.338	1767.81
462.558	1804.81
462.777	1894.81
462.997	1925.81
463.217	2061.81
463.437	2123.81
463.657	2022.81
463.876	1914.81
464.096	1891.81
464.316	1824.81
464.536	1896.81
464.755	1840.81
464.975	1780.81
465.195	1695.81
465.414	1657.81
465.634	1554.81
465.854	1518.81
466.073	1472.81
466.293	1428.81
466.512	1412.81
466.732	1372.81
466.951	1391.81
467.171	1404.81
467.391	1404.81
467.61	1365.81
467.829	1323.81
468.049	1388.81
468.268	1325.81
468.488	1328.81
468.707	1316.81
468.927	1343.81
469.146	1336.81
469.365	1340.81
469.585	1356.81
469.804	1401.81
470.023	1389.81
470.243	1410.81
470.462	1390.81
470.681	1412.81
470.901	1428.81
471.12	1400.81
471.339	1396.81
471.558	1383.81
471.777	1362.81
471.997	1343.81
472.216	1319.81
472.435	1300.81
472.654	1328.81
472.873	1294.81
473.092	1340.81
473.311	1305.81
473.53	1333.81
473.749	1287.81
473.968	1333.81
474.187	1319.81
474.406	1292.81
474.625	1313.81
474.844	1298.81
475.063	1330.81
475.282	1343.81
475.501	1326.81
475.72	1312.81
475.939	1334.81
476.158	1365.81
476.377	1399.81
476.596	1392.81
476.814	1403.81
477.033	1426.81
477.252	1414.81
477.471	1432.81
477.69	1438.81
477.908	1495.81
478.127	1511.81
478.346	1565.81
478.564	1603.81
478.783	1635.81
479.002	1643.81
479.22	1631.81
479.439	1622.81
479.658	1676.81
479.876	1638.81
480.095	1658.81
480.313	1716.81
480.532	1740.81
480.751	1721.81
480.969	1703.81
481.188	1672.81
481.406	1596.81
481.624	1579.81
481.843	1581.81
482.061	1573.81
482.28	1579.81
482.498	1560.81
482.717	1556.81
482.935	1592.81
483.153	1548.81
483.372	1573.81
483.59	1604.81
483.808	1586.81
484.027	1624.81
484.245	1623.81
484.463	1662.81
484.681	1701.81
484.9	1697.81
485.118	1681.81
485.336	1706.81
485.554	1704.81
485.772	1751.81
485.99	1737.81
486.209	1749.81
486.427	1725.81
486.645	1703.81
486.863	1737.81
487.081	1684.81
487.299	1708.81
487.517	1709.81
487.735	1683.81
487.953	1712.81
488.171	1714.81
488.389	1700.81
488.607	1673.81
488.825	1620.81
489.043	1638.81
489.261	1645.81
489.479	1636.81
489.696	1638.81
489.914	1662.81
490.132	1638.81
490.35	1654.81
490.568	1652.81
490.786	1644.81
491.003	1612.81
491.221	1656.81
491.439	1644.81
491.657	1632.81
491.874	1640.81
492.092	1686.81
492.31	1632.81
492.527	1626.81
492.745	1639.81
492.963	1654.81
493.18	1637.81
493.398	1656.81
493.615	1646.81
493.833	1642.81
494.05	1666.81
494.268	1670.81
494.485	1661.81
494.703	1652.81
494.92	1684.81
495.138	1698.81
495.355	1691.81
495.573	1727.81
495.79	1691.81
496.008	1707.81
496.225	1730.81
496.442	1712.81
496.66	1753.81
496.877	1783.81
497.094	1830.81
497.312	1834.81
497.529	1824.81
497.746	1888.81
497.963	1957.81
498.181	2046.81
498.398	2082.81
498.615	2176.81
498.832	2351.81
499.049	2485.81
499.267	2704.81
499.484	2890.81
499.701	3141.81
499.918	3404.81
500.135	3784.81
500.352	4098.81
500.569	4253.81
500.786	4268.81
501.003	4030.81
501.22	3763.81
501.437	3406.81
501.654	3114.81
501.871	2839.81
502.088	2661.81
502.305	2443.81
502.522	2298.81
502.739	2292.81
502.956	2129.81
503.172	2070.81
503.389	1979.81
503.606	1933.81
503.823	1885.81
504.04	1869.81
504.256	1854.81
504.473	1861.81
504.69	1890.81
504.907	1854.81
505.123	1760.81
505.34	1728.81
505.557	1630.81
505.773	1605.81
505.99	1589.81
506.207	1485.81
506.423	1516.81
506.64	1514.81
506.856	1486.81
507.073	1464.81
507.289	1469.81
507.506	1451.81
507.722	1418.81
507.939	1451.81
508.155	1406.81
508.372	1377.81
508.588	1365.81
508.805	1351.81
509.021	1354.81
509.238	1362.81
509.454	1337.81
509.67	1334.81
509.887	1342.81
510.103	1349.81
510.319	1338.81
510.536	1304.81
510.752	1311.81
510.968	1311.81
511.184	1305.81
511.401	1288.81
511.617	1297.81
511.833	1309.81
512.049	1279.81
512.265	1313.81
512.481	1284.81
512.698	1309.81
512.914	1320.81
513.13	1292.81
513.346	1298.81
513.562	1275.81
513.778	1319.81
513.994	1310.81
514.21	1314.81
514.426	1344.81
514.642	1346.81
514.858	1344.81
515.074	1375.81
515.29	1371.81
515.506	1401.81
515.721	1387.81
515.937	1386.81
516.153	1428.81
516.369	1449.81
516.585	1503.81
516.801	1561.81
517.016	1564.81
517.232	1630.81
517.448	1652.81
517.664	1686.81
517.879	1732.81
518.095	1680.81
518.311	1676.81
518.527	1642.81
518.742	1573.81
518.958	1561.81
519.173	1494.81
519.389	1472.81
519.605	1446.81
519.82	1404.81
520.036	1370.81
520.251	1346.81
520.467	1321.81
520.682	1309.81
520.898	1269.81
521.113	1298.81
521.329	1261.81
521.544	1265.81
521.76	1252.81
521.975	1253.81
522.19	1243.81
522.406	1229.81
522.621	1259.81
522.836	1242.81
523.052	1232.81
523.267	1191.81
523.482	1156.81
523.698	1173.81
523.913	1173.81
524.128	1170.81
524.343	1189.81
524.559	1176.81
524.774	1144.81
524.989	1171.81
525.204	1182.81
525.419	1150.81
525.634	1172.81
525.849	1155.81
526.064	1145.81
526.28	1161.81
526.495	1178.81
526.71	1160.81
526.925	1154.81
527.14	1149.81
527.355	1165.81
527.57	1166.81
527.785	1141.81
527.999	1117.81
528.214	1148.81
528.429	1164.81
528.644	1165.81
528.859	1157.81
529.074	1132.81
529.289	1152.81
529.503	1166.81
529.718	1154.81
529.933	1136.81
530.148	1149.81
530.363	1114.81
530.577	1128.81
530.792	1125.81
531.007	1121.81
531.221	1120.81
531.436	1114.81
531.651	1156.81
531.865	1116.81
532.08	1131.81
532.295	1152.81
532.509	1120.81
532.724	1129.81
532.938	1151.81
533.153	1171.81
533.367	1134.81
533.582	1144.81
533.796	1144.81
534.011	1125.81
534.225	1130.81
534.44	1084.81
534.654	1089.81
534.868	1121.81
535.083	1113.81
535.297	1116.81
535.511	1082.81
535.726	1123.81
535.94	1114.81
536.154	1085.81
536.369	1083.81
536.583	1077.81
536.797	1076.81
537.011	1052.81
537.225	1038.81
537.44	1039.81
537.654	1050.81
537.868	1053.81
538.082	1030.81
538.296	1030.81
538.51	1038.81
538.724	1041.81
538.938	1045.81
539.153	1023.81
539.367	1040.81
539.581	1048.81
539.795	1017.81
540.009	1035.81
540.222	1015.81
540.436	1044.81
540.65	1023.81
540.864	1022.81
541.078	1007.81
541.292	1000.81
541.506	1006.81
541.72	1027.81
541.934	1005.81
542.147	990.81
542.361	1026.81
542.575	1009.81
542.789	999.81
543.002	1000.81
543.216	1006.81
543.43	997.81
543.644	975.81
543.857	984.81
544.071	988.81
544.285	978.81
544.498	1010.81
544.712	998.81
544.925	1032.81
545.139	1022.81
545.352	1033.81
545.566	1024.81
545.779	1044.81
545.993	1044.81
546.206	1012.81
546.42	1041.81
546.633	1023.81
546.847	1012.81
547.06	1000.81
547.274	1046.81
547.487	1011.81
547.7	1006.81
547.914	1002.81
548.127	1035.81
548.34	1036.81
548.554	1051.81
548.767	1031.81
548.98	1049.81
549.193	1036.81
549.407	1048.81
549.62	1051.81
549.833	1068.81
550.046	1013.81
550.259	1036.81
550.473	1006.81
550.686	1006.81
550.899	1010.81
551.112	1012.81
551.325	993.81
551.538	1006.81
551.751	1013.81
551.964	1023.81
552.177	1034.81
552.39	1041.81
552.603	1049.81
552.816	1068.81
553.029	1060.81
553.242	1085.81
553.455	1108.81
553.667	1094.81
553.88	1094.81
554.093	1037.81
554.306	1044.81
554.519	1024.81
554.732	1026.81
554.944	1011.81
555.157	994.81
555.37	946.81
555.583	947.81
555.795	957.81
556.008	933.81
556.221	936.81
556.433	912.81
556.646	926.81
556.859	895.81
557.071	890.81
557.284	888.81
557.496	893.81
557.709	896.81
557.921	894.81
558.134	841.81
558.346	880.81
558.559	871.81
558.771	857.81
558.984	832.81
559.196	844.81
559.409	842.81
559.621	829.81
559.833	854.81
560.046	844.81
560.258	842.81
560.47	835.81
560.683	847.81
560.895	851.81
561.107	854.81
561.32	857.81
561.532	832.81
561.744	844.81
561.956	836.81
562.168	846.81
562.381	821.81
562.593	866.81
562.805	820.81
563.017	845.81
563.229	849.81
563.441	869.81
563.653	869.81
563.865	875.81
564.077	882.81
564.289	880.81
564.501	901.81
564.713	903.81
564.925	924.81
565.137	919.81
565.349	957.81
565.561	965.81
565.773	1028.81
565.985	1084.81
566.197	1113.81
566.408	1161.81
566.62	1225.81
566.832	1273.81
567.044	1332.81
567.255	1360.81
567.467	1381.81
567.679	1405.81
567.891	1476.81
568.102	1459.81
568.314	1405.81
568.526	1290.81
568.737	1211.81
568.949	1153.81
569.161	1094.81
569.372	1018.81
569.584	973.81
569.795	934.81
570.007	904.81
570.218	895.81
570.43	900.81
570.641	867.81
570.853	881.81
571.064	892.81
571.276	846.81
571.487	842.81
571.698	818.81
571.91	793.81
572.121	777.81
572.333	754.81
572.544	760.81
572.755	717.81
572.966	744.81
573.178	730.81
573.389	730.81
573.6	719.81
573.811	692.81
574.023	710.81
574.234	714.81
574.445	681.81
574.656	692.81
574.867	704.81
575.078	684.81
575.289	678.81
575.501	712.81
575.712	677.81
575.923	669.81
576.134	683.81
576.345	681.81
576.556	649.81
576.767	660.81
576.978	625.81
577.188	628.81
577.399	622.81
577.61	624.81
577.821	644.81
578.032	627.81
578.243	624.81
578.454	625.81
578.665	625.81
578.875	617.81
579.086	609.81
579.297	604.81
579.508	624.81
579.718	626.81
579.929	617.81
580.14	624.81
580.35	606.81
580.561	600.81
580.772	604.81
580.982	573.81
581.193	593.81
581.403	588.81
581.614	603.81
581.825	586.81
582.035	602.81
582.246	589.81
582.456	581.81
582.667	611.81
582.877	579.81
583.087	578.81
583.298	582.81
583.508	582.81
583.719	571.81
583.929	592.81
584.139	575.81
584.35	566.81
584.56	573.81
584.77	563.81
584.981	545.81
585.191	570.81
585.401	554.81
585.611	580.81
585.821	560.81
586.032	564.81
586.242	558.81
586.452	530.81
586.662	544.81
586.872	550.81
587.082	576.81
587.292	536.81
587.502	574.81
587.713	539.81
587.923	535.81
588.133	537.81
588.343	532.81
588.553	523.81
588.762	562.81
588.972	564.81
589.182	551.81
589.392	541.81
589.602	546.81
589.812	534.81
590.022	549.81
590.232	539.81
590.441	542.81
590.651	566.81
590.861	543.81
591.071	577.81
591.281	580.81
591.49	592.81
591.7	601.81
591.91	600.81
592.119	599.81
592.329	599.81
592.539	604.81
592.748	619.81
592.958	631.81
593.167	647.81
593.377	668.81
593.587	705.81
593.796	687.81
594.006	680.81
594.215	702.81
594.424	652.81
594.634	668.81
594.843	645.81
595.053	631.81
595.262	592.81
595.472	600.81
595.681	579.81
595.89	574.81
596.1	553.81
596.309	563.81
596.518	518.81
596.727	527.81
596.937	520.81
597.146	503.81
597.355	512.81
597.564	485.81
597.774	496.81
597.983	480.81
598.192	481.81
598.401	491.81
598.61	502.81
598.819	477.81
599.028	458.81
599.237	473.81
599.446	444.81
599.655	468.81
599.864	481.81
600.073	454.81
600.282	475.81
600.491	452.81
600.7	460.81
600.909	469.81
601.118	436.81
601.327	435.81
601.536	468.81
601.745	461.81
601.953	441.81
602.162	434.81
602.371	469.81
602.58	460.81
602.789	422.81
602.997	425.81
603.206	425.81
603.415	450.81
603.623	464.81
603.832	445.81
604.041	435.81
604.249	428.81
604.458	424.81
604.666	436.81
604.875	421.81
605.084	412.81
605.292	421.81
605.501	428.81
605.709	436.81
605.918	407.81
606.126	414.81
606.334	427.81
606.543	404.81
606.751	416.81
606.96	427.81
607.168	404.81
607.376	400.81
607.585	408.81
607.793	404.81
608.001	420.81
608.21	403.81
608.418	391.81
608.626	389.81
608.834	386.81
609.043	416.81
609.251	414.81
609.459	411.81
609.667	423.81
609.875	403.81
610.083	392.81
610.291	389.81
610.499	393.81
610.707	392.81
610.916	406.81
611.124	387.81
611.332	393.81
611.54	392.81
611.748	404.81
611.955	377.81
612.163	404.81
612.371	398.81
612.579	390.81
612.787	409.81
612.995	399.81
613.203	389.81
613.411	397.81
613.618	381.81
613.826	381.81
614.034	389.81
614.242	376.81
614.449	398.81
614.657	392.81
614.865	380.81
615.072	390.81
615.28	379.81
615.488	377.81
615.695	395.81
615.903	374.81
616.111	385.81
616.318	393.81
616.526	400.81
616.733	406.81
616.941	418.81
617.148	390.81
617.356	383.81
617.563	378.81
617.771	393.81
617.978	398.81
618.185	396.81
618.393	382.81
618.6	369.81
618.807	372.81
619.015	392.81
619.222	365.81
619.429	359.81
619.637	387.81
619.844	368.81
620.051	382.81
620.258	368.81
620.466	363.81
620.673	338.81
620.88	342.81
621.087	352.81
621.294	365.81
621.501	352.81
621.708	374.81
621.915	351.81
622.122	356.81
622.329	358.81
622.536	355.81
622.743	358.81
622.95	358.81
623.157	360.81
623.364	347.81
623.571	337.81
623.778	349.81
623.985	358.81
624.192	346.81
624.399	341.81
624.606	337.81
624.812	338.81
625.019	345.81
625.226	328.81
625.433	354.81
625.639	331.81
625.846	342.81
626.053	342.81
626.259	325.81
626.466	316.81
626.673	311.81
626.879	335.81
627.086	313.81
627.293	320.81
627.499	330.81
627.706	299.81
627.912	336.81
628.119	335.81
628.325	332.81
628.532	315.81
628.738	331.81
628.945	319.81
629.151	306.81
629.357	303.81
629.564	302.81
629.77	312.81
629.976	320.81
630.183	302.81
630.389	306.81
630.595	302.81
630.802	299.81
631.008	314.81
631.214	318.81
631.42	291.81
631.627	302.81
631.833	295.81
632.039	283.81
632.245	291.81
632.451	277.81
632.657	314.81
632.863	298.81
633.069	289.81
633.275	294.81
633.481	298.81
633.688	299.81
633.893	285.81
634.099	293.81
634.305	289.81
634.511	283.81
634.717	291.81
634.923	299.81
635.129	288.81
635.335	277.81
635.541	270.81
635.747	292.81
635.952	274.81
636.158	282.81
636.364	278.81
636.57	277.81
636.775	283.81
636.981	298.81
637.187	292.81
637.392	289.81
637.598	290.81
637.804	275.81
638.009	285.81
638.215	265.81
638.421	288.81
638.626	274.81
638.832	300.81
639.037	273.81
639.243	274.81
639.448	273.81
639.654	240.81
639.859	254.81
640.065	271.81
640.27	276.81
640.475	285.81
640.681	270.81
640.886	268.81
641.091	261.81
641.297	261.81
641.502	264.81
641.707	248.81
641.913	257.81
642.118	270.81
642.323	242.81
642.528	277.81
642.733	262.81
642.939	252.81
643.144	260.81
643.349	270.81
643.554	264.81
643.759	275.81
643.964	276.81
644.169	266.81
644.374	253.81
644.579	245.81
644.784	243.81
644.989	256.81
645.194	286.81
645.399	284.81
645.604	269.81
645.809	265.81
646.014	266.81
646.219	248.81
646.423	245.81
646.628	241.81
646.833	258.81
647.038	262.81
647.243	278.81
647.447	274.81
647.652	269.81
647.857	268.81
648.062	267.81
648.266	276.81
648.471	278.81
648.676	296.81
648.88	275.81
649.085	278.81
649.289	300.81
649.494	280.81
649.698	252.81
649.903	270.81
650.107	278.81
650.312	274.81
650.516	262.81
650.721	261.81
650.925	243.81
651.13	263.81
651.334	268.81
651.539	248.81
651.743	234.81
651.947	234.81
652.152	257.81
652.356	245.81
652.56	240.81
652.764	252.81
652.969	235.81
653.173	245.81
653.377	264.81
653.581	240.81
653.785	245.81
653.99	244.81
654.194	265.81
654.398	262.81
654.602	256.81
654.806	259.81
655.01	268.81
655.214	254.81
655.418	289.81
655.622	293.81
655.826	291.81
656.03	312.81
656.234	336.81
656.438	360.81
656.642	348.81
656.846	332.81
657.049	302.81
657.253	276.81
657.457	245.81
657.661	230.81
657.865	206.81
658.068	196.81
658.272	180.81
658.476	168.81
658.68	166.81
658.883	150.81
659.087	157.81
659.291	141.81
659.494	131.81
659.698	123.81
659.901	133.81
660.105	123.81
660.309	113.81
660.512	122.81
660.716	114.81
660.919	103.81
661.123	117.81
661.326	98.81
661.53	105.81
661.733	96.81
661.936	97.81
662.14	101.81
662.343	99.81
662.546	89.81
662.75	86.81
662.953	105.81
663.156	73.81
663.36	85.81
663.563	94.81
663.766	81.81
663.969	76.81
664.173	80.81
664.376	86.81
664.579	85.81
664.782	80.81
664.985	82.81
665.188	84.81
665.391	98.81
665.594	92.81
665.797	85.81
666	78.81
666.203	74.81
666.406	93.81
666.609	67.81
666.812	89.81
667.015	81.81
667.218	66.81
667.421	88.81
667.624	82.81
667.827	83.81
668.03	94.81
668.232	90.81
668.435	82.81
668.638	72.81
668.841	76.81
669.043	82.81
669.246	79.81
669.449	84.81
669.651	83.81
669.854	93.81
670.057	73.81
670.259	89.81
670.462	77.81
670.665	89.81
670.867	83.81
671.07	92.81
671.272	83.81
671.475	78.81
671.677	81.81
671.88	90.81
672.082	81.81
672.284	89.81
672.487	84.81
672.689	80.81
672.892	81.81
