Data from NiCl2@0.5M.TitratingCurve.Agarose3%dH2O.NegLispCup.LampEnergy10.LIBS07252019_HRD10591_18-21-15-572.txt Node
Date: Thu Jul 25 18:21:15 EDT 2019
User: cochatt
Spectrometer: HR+D1059
Trigger mode: 1
Integration Time (sec): 1.000000E-1
Scans to average: 1
Electric dark correction enabled: true
Nonlinearity correction enabled: false
Boxcar width: 0
XAxis mode: Wavelengths
Number of Pixels in Spectrum: 2048
>>>>>Begin Spectral Data<<<<<
223.165	-7.06
223.4	-7.06
223.635	-7.06
223.869	-11.06
224.104	-34.06
224.338	-9.06
224.573	-18.06
224.808	-3.06
225.042	-6.06
225.277	-7.06
225.511	-9.06
225.746	1.94
225.98	3.94
226.215	5.94
226.449	27.94
226.683	26.94
226.918	15.94
227.152	21.94
227.387	27.94
227.621	41.94
227.856	46.94
228.09	40.94
228.324	50.94
228.559	50.94
228.793	57.94
229.027	82.94
229.262	99.94
229.496	115.94
229.73	121.94
229.964	113.94
230.199	122.94
230.433	110.94
230.667	117.94
230.901	106.94
231.136	129.94
231.37	116.94
231.604	133.94
231.838	134.94
232.072	126.94
232.306	123.94
232.541	137.94
232.775	131.94
233.009	133.94
233.243	126.94
233.477	122.94
233.711	129.94
233.945	139.94
234.179	136.94
234.413	149.94
234.647	132.94
234.881	135.94
235.115	127.94
235.349	143.94
235.583	153.94
235.817	142.94
236.051	160.94
236.285	148.94
236.519	141.94
236.753	144.94
236.987	141.94
237.221	130.94
237.455	154.94
237.689	137.94
237.922	144.94
238.156	165.94
238.39	166.94
238.624	156.94
238.858	171.94
239.091	155.94
239.325	153.94
239.559	159.94
239.793	163.94
240.027	153.94
240.26	155.94
240.494	171.94
240.728	186.94
240.961	158.94
241.195	181.94
241.429	179.94
241.662	175.94
241.896	181.94
242.13	169.94
242.363	162.94
242.597	172.94
242.83	185.94
243.064	153.94
243.298	179.94
243.531	181.94
243.765	169.94
243.998	196.94
244.232	189.94
244.465	194.94
244.699	181.94
244.932	202.94
245.166	195.94
245.399	196.94
245.633	189.94
245.866	195.94
246.099	199.94
246.333	208.94
246.566	189.94
246.8	202.94
247.033	190.94
247.266	186.94
247.5	209.94
247.733	195.94
247.966	217.94
248.2	207.94
248.433	216.94
248.666	207.94
248.899	212.94
249.133	230.94
249.366	218.94
249.599	217.94
249.832	230.94
250.066	223.94
250.299	213.94
250.532	233.94
250.765	228.94
250.998	242.94
251.231	210.94
251.465	214.94
251.698	223.94
251.931	231.94
252.164	221.94
252.397	262.94
252.63	246.94
252.863	228.94
253.096	251.94
253.329	245.94
253.562	231.94
253.795	249.94
254.028	253.94
254.261	248.94
254.494	252.94
254.727	240.94
254.96	241.94
255.193	248.94
255.426	255.94
255.659	245.94
255.892	268.94
256.124	255.94
256.357	270.94
256.59	271.94
256.823	267.94
257.056	259.94
257.289	269.94
257.521	281.94
257.754	255.94
257.987	275.94
258.22	269.94
258.452	274.94
258.685	294.94
258.918	274.94
259.151	265.94
259.383	281.94
259.616	279.94
259.849	289.94
260.081	296.94
260.314	277.94
260.547	288.94
260.779	297.94
261.012	286.94
261.244	286.94
261.477	286.94
261.71	295.94
261.942	270.94
262.175	290.94
262.407	290.94
262.64	302.94
262.872	291.94
263.105	315.94
263.337	281.94
263.57	304.94
263.802	304.94
264.035	304.94
264.267	315.94
264.499	294.94
264.732	303.94
264.964	307.94
265.197	307.94
265.429	324.94
265.661	285.94
265.894	319.94
266.126	317.94
266.358	304.94
266.591	338.94
266.823	339.94
267.055	295.94
267.287	334.94
267.52	325.94
267.752	342.94
267.984	328.94
268.216	322.94
268.448	332.94
268.681	322.94
268.913	339.94
269.145	332.94
269.377	339.94
269.609	352.94
269.841	324.94
270.073	351.94
270.306	329.94
270.538	349.94
270.77	342.94
271.002	340.94
271.234	339.94
271.466	347.94
271.698	343.94
271.93	354.94
272.162	350.94
272.394	364.94
272.626	346.94
272.858	342.94
273.09	365.94
273.322	358.94
273.553	353.94
273.785	351.94
274.017	372.94
274.249	354.94
274.481	353.94
274.713	360.94
274.945	374.94
275.176	367.94
275.408	374.94
275.64	370.94
275.872	372.94
276.104	361.94
276.335	395.94
276.567	381.94
276.799	383.94
277.031	388.94
277.262	401.94
277.494	383.94
277.726	401.94
277.957	375.94
278.189	391.94
278.421	394.94
278.652	385.94
278.884	395.94
279.115	393.94
279.347	380.94
279.579	403.94
279.81	397.94
280.042	402.94
280.273	405.94
280.505	390.94
280.736	395.94
280.968	395.94
281.199	394.94
281.431	409.94
281.662	421.94
281.894	415.94
282.125	415.94
282.356	427.94
282.588	413.94
282.819	415.94
283.051	421.94
283.282	427.94
283.513	436.94
283.745	429.94
283.976	418.94
284.207	418.94
284.439	437.94
284.67	435.94
284.901	449.94
285.132	445.94
285.364	432.94
285.595	437.94
285.826	435.94
286.057	459.94
286.288	441.94
286.52	446.94
286.751	424.94
286.982	439.94
287.213	469.94
287.444	457.94
287.675	463.94
287.906	453.94
288.138	454.94
288.369	451.94
288.6	457.94
288.831	442.94
289.062	465.94
289.293	439.94
289.524	452.94
289.755	437.94
289.986	463.94
290.217	479.94
290.448	482.94
290.679	479.94
290.91	456.94
291.141	482.94
291.371	500.94
291.602	487.94
291.833	463.94
292.064	483.94
292.295	462.94
292.526	470.94
292.757	472.94
292.987	472.94
293.218	471.94
293.449	491.94
293.68	462.94
293.91	470.94
294.141	478.94
294.372	469.94
294.603	480.94
294.833	475.94
295.064	494.94
295.295	459.94
295.525	471.94
295.756	480.94
295.987	478.94
296.217	480.94
296.448	490.94
296.679	479.94
296.909	496.94
297.14	513.94
297.37	513.94
297.601	511.94
297.831	500.94
298.062	519.94
298.292	525.94
298.523	535.94
298.753	533.94
298.984	536.94
299.214	522.94
299.445	528.94
299.675	533.94
299.905	510.94
300.136	516.94
300.366	517.94
300.597	541.94
300.827	531.94
301.057	524.94
301.288	562.94
301.518	576.94
301.748	558.94
301.979	550.94
302.209	578.94
302.439	537.94
302.669	554.94
302.9	543.94
303.13	538.94
303.36	558.94
303.59	565.94
303.82	538.94
304.051	569.94
304.281	530.94
304.511	525.94
304.741	547.94
304.971	560.94
305.201	577.94
305.431	571.94
305.661	567.94
305.891	535.94
306.121	537.94
306.352	531.94
306.582	541.94
306.812	552.94
307.042	522.94
307.272	526.94
307.502	532.94
307.731	536.94
307.961	519.94
308.191	535.94
308.421	545.94
308.651	531.94
308.881	549.94
309.111	538.94
309.341	513.94
309.571	537.94
309.8	544.94
310.03	549.94
310.26	559.94
310.49	548.94
310.72	567.94
310.949	539.94
311.179	563.94
311.409	548.94
311.639	561.94
311.868	559.94
312.098	577.94
312.328	559.94
312.557	574.94
312.787	569.94
313.017	562.94
313.246	597.94
313.476	574.94
313.706	607.94
313.935	609.94
314.165	590.94
314.394	566.94
314.624	581.94
314.853	590.94
315.083	582.94
315.312	564.94
315.542	575.94
315.771	586.94
316.001	583.94
316.23	612.94
316.46	582.94
316.689	582.94
316.919	583.94
317.148	587.94
317.377	573.94
317.607	571.94
317.836	578.94
318.065	565.94
318.295	605.94
318.524	610.94
318.753	570.94
318.983	543.94
319.212	575.94
319.441	562.94
319.67	577.94
319.9	587.94
320.129	595.94
320.358	579.94
320.587	582.94
320.816	569.94
321.046	578.94
321.275	603.94
321.504	578.94
321.733	591.94
321.962	594.94
322.191	601.94
322.42	589.94
322.649	590.94
322.878	578.94
323.108	599.94
323.337	613.94
323.566	602.94
323.795	614.94
324.024	616.94
324.253	601.94
324.482	596.94
324.71	603.94
324.939	602.94
325.168	625.94
325.397	601.94
325.626	603.94
325.855	621.94
326.084	637.94
326.313	619.94
326.542	631.94
326.77	639.94
326.999	610.94
327.228	604.94
327.457	634.94
327.686	643.94
327.914	633.94
328.143	630.94
328.372	607.94
328.6	619.94
328.829	632.94
329.058	636.94
329.287	619.94
329.515	637.94
329.744	633.94
329.972	656.94
330.201	658.94
330.43	671.94
330.658	652.94
330.887	655.94
331.115	664.94
331.344	657.94
331.572	657.94
331.801	698.94
332.03	703.94
332.258	687.94
332.486	731.94
332.715	731.94
332.943	781.94
333.172	770.94
333.4	801.94
333.629	851.94
333.857	833.94
334.085	832.94
334.314	824.94
334.542	807.94
334.771	805.94
334.999	791.94
335.227	792.94
335.455	808.94
335.684	820.94
335.912	801.94
336.14	765.94
336.369	754.94
336.597	792.94
336.825	765.94
337.053	765.94
337.281	743.94
337.51	728.94
337.738	724.94
337.966	729.94
338.194	736.94
338.422	730.94
338.65	714.94
338.878	693.94
339.106	683.94
339.334	689.94
339.562	691.94
339.79	655.94
340.018	651.94
340.246	662.94
340.474	678.94
340.702	688.94
340.93	664.94
341.158	698.94
341.386	659.94
341.614	680.94
341.842	695.94
342.07	670.94
342.298	650.94
342.526	686.94
342.754	665.94
342.981	658.94
343.209	696.94
343.437	713.94
343.665	769.94
343.893	817.94
344.12	788.94
344.348	772.94
344.576	759.94
344.804	741.94
345.031	704.94
345.259	704.94
345.487	699.94
345.714	679.94
345.942	697.94
346.17	687.94
346.397	679.94
346.625	649.94
346.853	659.94
347.08	653.94
347.308	664.94
347.535	645.94
347.763	657.94
347.99	637.94
348.218	634.94
348.445	659.94
348.673	662.94
348.9	646.94
349.128	632.94
349.355	693.94
349.583	686.94
349.81	626.94
350.037	637.94
350.265	630.94
350.492	626.94
350.72	625.94
350.947	651.94
351.174	646.94
351.402	667.94
351.629	629.94
351.856	645.94
352.083	625.94
352.311	636.94
352.538	636.94
352.765	651.94
352.992	622.94
353.22	610.94
353.447	645.94
353.674	615.94
353.901	622.94
354.128	602.94
354.355	614.94
354.583	608.94
354.81	599.94
355.037	607.94
355.264	626.94
355.491	616.94
355.718	609.94
355.945	617.94
356.172	642.94
356.399	643.94
356.626	648.94
356.853	646.94
357.08	633.94
357.307	607.94
357.534	646.94
357.761	616.94
357.988	631.94
358.215	603.94
358.441	610.94
358.668	617.94
358.895	589.94
359.122	617.94
359.349	605.94
359.576	631.94
359.802	617.94
360.029	650.94
360.256	630.94
360.483	629.94
360.709	624.94
360.936	615.94
361.163	623.94
361.39	613.94
361.616	613.94
361.843	631.94
362.07	665.94
362.296	637.94
362.523	622.94
362.749	616.94
362.976	617.94
363.203	617.94
363.429	602.94
363.656	618.94
363.882	618.94
364.109	624.94
364.335	632.94
364.562	623.94
364.788	611.94
365.015	625.94
365.241	621.94
365.468	610.94
365.694	618.94
365.92	610.94
366.147	616.94
366.373	617.94
366.599	617.94
366.826	626.94
367.052	603.94
367.278	609.94
367.505	618.94
367.731	623.94
367.957	614.94
368.184	624.94
368.41	617.94
368.636	610.94
368.862	634.94
369.089	615.94
369.315	625.94
369.541	647.94
369.767	618.94
369.993	642.94
370.219	619.94
370.445	627.94
370.672	651.94
370.898	655.94
371.124	649.94
371.35	658.94
371.576	655.94
371.802	655.94
372.028	646.94
372.254	671.94
372.48	655.94
372.706	650.94
372.932	692.94
373.158	664.94
373.384	686.94
373.61	675.94
373.835	657.94
374.061	640.94
374.287	655.94
374.513	687.94
374.739	692.94
374.965	737.94
375.191	746.94
375.416	731.94
375.642	693.94
375.868	712.94
376.094	694.94
376.319	660.94
376.545	678.94
376.771	658.94
376.997	687.94
377.222	645.94
377.448	677.94
377.674	690.94
377.899	645.94
378.125	649.94
378.35	639.94
378.576	615.94
378.802	657.94
379.027	642.94
379.253	637.94
379.478	627.94
379.704	636.94
379.929	639.94
380.155	650.94
380.38	637.94
380.606	650.94
380.831	672.94
381.057	655.94
381.282	641.94
381.507	655.94
381.733	671.94
381.958	671.94
382.184	677.94
382.409	678.94
382.634	685.94
382.86	688.94
383.085	705.94
383.31	714.94
383.535	694.94
383.761	713.94
383.986	737.94
384.211	746.94
384.436	746.94
384.662	763.94
384.887	769.94
385.112	749.94
385.337	771.94
385.562	742.94
385.787	795.94
386.013	815.94
386.238	814.94
386.463	775.94
386.688	807.94
386.913	780.94
387.138	778.94
387.363	768.94
387.588	769.94
387.813	761.94
388.038	769.94
388.263	761.94
388.488	759.94
388.713	760.94
388.938	787.94
389.163	759.94
389.387	767.94
389.612	747.94
389.837	761.94
390.062	764.94
390.287	747.94
390.512	774.94
390.736	789.94
390.961	777.94
391.186	769.94
391.411	824.94
391.636	826.94
391.86	841.94
392.085	851.94
392.31	893.94
392.534	819.94
392.759	838.94
392.984	834.94
393.208	808.94
393.433	819.94
393.658	813.94
393.882	823.94
394.107	830.94
394.331	827.94
394.556	831.94
394.78	837.94
395.005	826.94
395.229	836.94
395.454	882.94
395.678	859.94
395.903	884.94
396.127	848.94
396.352	834.94
396.576	835.94
396.801	819.94
397.025	828.94
397.249	847.94
397.474	897.94
397.698	889.94
397.922	862.94
398.147	858.94
398.371	908.94
398.595	929.94
398.82	961.94
399.044	1045.94
399.268	1153.94
399.492	1274.94
399.717	1378.94
399.941	1387.94
400.165	1267.94
400.389	1161.94
400.613	1058.94
400.837	1020.94
401.062	1029.94
401.286	984.94
401.51	968.94
401.734	966.94
401.958	1011.94
402.182	1020.94
402.406	992.94
402.63	1005.94
402.854	1029.94
403.078	1028.94
403.302	1066.94
403.526	1073.94
403.75	1055.94
403.974	1130.94
404.198	1078.94
404.422	1096.94
404.645	1070.94
404.869	1102.94
405.093	1092.94
405.317	1055.94
405.541	1089.94
405.765	1072.94
405.988	1083.94
406.212	1071.94
406.436	1041.94
406.66	1113.94
406.883	1082.94
407.107	1169.94
407.331	1197.94
407.555	1251.94
407.778	1215.94
408.002	1205.94
408.226	1178.94
408.449	1137.94
408.673	1126.94
408.896	1087.94
409.12	1113.94
409.344	1104.94
409.567	1086.94
409.791	1113.94
410.014	1081.94
410.238	1073.94
410.461	1085.94
410.685	1099.94
410.908	1034.94
411.132	1049.94
411.355	1001.94
411.578	1035.94
411.802	1006.94
412.025	1021.94
412.249	1041.94
412.472	1035.94
412.695	992.94
412.919	976.94
413.142	1006.94
413.365	991.94
413.589	1011.94
413.812	965.94
414.035	957.94
414.258	963.94
414.482	977.94
414.705	973.94
414.928	1006.94
415.151	991.94
415.374	1012.94
415.597	981.94
415.821	950.94
416.044	943.94
416.267	943.94
416.49	922.94
416.713	921.94
416.936	970.94
417.159	964.94
417.382	941.94
417.605	947.94
417.828	936.94
418.051	944.94
418.274	985.94
418.497	957.94
418.72	994.94
418.943	987.94
419.166	1042.94
419.389	1074.94
419.611	1081.94
419.834	1047.94
420.057	1006.94
420.28	962.94
420.503	947.94
420.726	921.94
420.948	948.94
421.171	967.94
421.394	985.94
421.617	971.94
421.839	971.94
422.062	964.94
422.285	938.94
422.507	990.94
422.73	965.94
422.953	1009.94
423.175	1012.94
423.398	1021.94
423.621	1013.94
423.843	1033.94
424.066	1023.94
424.288	986.94
424.511	991.94
424.733	1010.94
424.956	980.94
425.178	971.94
425.401	966.94
425.623	974.94
425.846	925.94
426.068	930.94
426.291	938.94
426.513	931.94
426.735	917.94
426.958	927.94
427.18	903.94
427.402	882.94
427.625	893.94
427.847	895.94
428.069	888.94
428.292	909.94
428.514	893.94
428.736	855.94
428.958	891.94
429.181	858.94
429.403	854.94
429.625	866.94
429.847	886.94
430.069	901.94
430.292	885.94
430.514	863.94
430.736	871.94
430.958	859.94
431.18	881.94
431.402	863.94
431.624	881.94
431.846	875.94
432.068	877.94
432.29	905.94
432.512	891.94
432.734	867.94
432.956	889.94
433.178	905.94
433.4	901.94
433.622	872.94
433.844	881.94
434.066	922.94
434.287	910.94
434.509	925.94
434.731	971.94
434.953	991.94
435.175	968.94
435.397	983.94
435.618	927.94
435.84	921.94
436.062	903.94
436.284	894.94
436.505	890.94
436.727	915.94
436.949	912.94
437.17	878.94
437.392	867.94
437.614	863.94
437.835	834.94
438.057	849.94
438.278	841.94
438.5	848.94
438.721	873.94
438.943	869.94
439.165	848.94
439.386	853.94
439.608	879.94
439.829	897.94
440.05	890.94
440.272	895.94
440.493	904.94
440.715	917.94
440.936	936.94
441.158	913.94
441.379	952.94
441.6	994.94
441.822	973.94
442.043	984.94
442.264	962.94
442.486	965.94
442.707	944.94
442.928	969.94
443.149	985.94
443.371	969.94
443.592	986.94
443.813	1026.94
444.034	981.94
444.255	995.94
444.476	1045.94
444.698	1104.94
444.919	1151.94
445.14	1211.94
445.361	1102.94
445.582	1041.94
445.803	968.94
446.024	943.94
446.245	937.94
446.466	943.94
446.687	913.94
446.908	899.94
447.129	867.94
447.35	852.94
447.571	873.94
447.792	853.94
448.013	833.94
448.234	810.94
448.455	844.94
448.675	811.94
448.896	825.94
449.117	813.94
449.338	813.94
449.559	822.94
449.779	799.94
450	807.94
450.221	830.94
450.442	827.94
450.662	825.94
450.883	823.94
451.104	850.94
451.324	839.94
451.545	843.94
451.766	816.94
451.986	808.94
452.207	842.94
452.428	806.94
452.648	807.94
452.869	813.94
453.089	805.94
453.31	782.94
453.53	805.94
453.751	790.94
453.971	763.94
454.192	792.94
454.412	779.94
454.633	790.94
454.853	773.94
455.073	776.94
455.294	778.94
455.514	766.94
455.734	769.94
455.955	770.94
456.175	763.94
456.395	742.94
456.616	743.94
456.836	776.94
457.056	759.94
457.276	738.94
457.497	771.94
457.717	754.94
457.937	759.94
458.157	790.94
458.377	786.94
458.598	795.94
458.818	830.94
459.038	843.94
459.258	852.94
459.478	941.94
459.698	928.94
459.918	922.94
460.138	944.94
460.358	1030.94
460.578	1033.94
460.798	1051.94
461.018	1054.94
461.238	1061.94
461.458	1054.94
461.678	1021.94
461.898	1025.94
462.118	1057.94
462.338	1087.94
462.558	1161.94
462.777	1181.94
462.997	1277.94
463.217	1349.94
463.437	1350.94
463.657	1264.94
463.876	1198.94
464.096	1209.94
464.316	1208.94
464.536	1202.94
464.755	1180.94
464.975	1099.94
465.195	1071.94
465.414	1018.94
465.634	950.94
465.854	945.94
466.073	905.94
466.293	911.94
466.512	887.94
466.732	878.94
466.951	874.94
467.171	870.94
467.391	870.94
467.61	881.94
467.829	853.94
468.049	871.94
468.268	850.94
468.488	833.94
468.707	825.94
468.927	839.94
469.146	844.94
469.365	845.94
469.585	872.94
469.804	878.94
470.023	877.94
470.243	894.94
470.462	917.94
470.681	856.94
470.901	919.94
471.12	881.94
471.339	852.94
471.558	859.94
471.777	828.94
471.997	841.94
472.216	844.94
472.435	823.94
472.654	799.94
472.873	782.94
473.092	810.94
473.311	808.94
473.53	792.94
473.749	811.94
473.968	826.94
474.187	824.94
474.406	827.94
474.625	805.94
474.844	822.94
475.063	840.94
475.282	806.94
475.501	829.94
475.72	833.94
475.939	849.94
476.158	856.94
476.377	870.94
476.596	847.94
476.814	859.94
477.033	862.94
477.252	880.94
477.471	913.94
477.69	922.94
477.908	950.94
478.127	949.94
478.346	957.94
478.564	993.94
478.783	995.94
479.002	1016.94
479.22	1006.94
479.439	1012.94
479.658	1012.94
479.876	1003.94
480.095	1040.94
480.313	1056.94
480.532	1066.94
480.751	1066.94
480.969	1042.94
481.188	1015.94
481.406	1012.94
481.624	970.94
481.843	962.94
482.061	936.94
482.28	954.94
482.498	937.94
482.717	948.94
482.935	985.94
483.153	959.94
483.372	955.94
483.59	950.94
483.808	987.94
484.027	969.94
484.245	959.94
484.463	992.94
484.681	979.94
484.9	958.94
485.118	999.94
485.336	989.94
485.554	982.94
485.772	1014.94
485.99	1002.94
486.209	1002.94
486.427	1014.94
486.645	1015.94
486.863	1018.94
487.081	1010.94
487.299	1003.94
487.517	990.94
487.735	994.94
487.953	956.94
488.171	1017.94
488.389	995.94
488.607	966.94
488.825	974.94
489.043	971.94
489.261	959.94
489.479	961.94
489.696	992.94
489.914	991.94
490.132	991.94
490.35	1005.94
490.568	1018.94
490.786	993.94
491.003	996.94
491.221	992.94
491.439	1014.94
491.657	997.94
491.874	1003.94
492.092	1019.94
492.31	1037.94
492.527	1031.94
492.745	1025.94
492.963	1041.94
493.18	1042.94
493.398	1034.94
493.615	1046.94
493.833	1039.94
494.05	1043.94
494.268	1042.94
494.485	1071.94
494.703	1048.94
494.92	1081.94
495.138	1042.94
495.355	1062.94
495.573	1058.94
495.79	1080.94
496.008	1079.94
496.225	1102.94
496.442	1073.94
496.66	1105.94
496.877	1123.94
497.094	1142.94
497.312	1173.94
497.529	1194.94
497.746	1179.94
497.963	1227.94
498.181	1269.94
498.398	1336.94
498.615	1407.94
498.832	1503.94
499.049	1582.94
499.267	1695.94
499.484	1880.94
499.701	2035.94
499.918	2217.94
500.135	2488.94
500.352	2723.94
500.569	2868.94
500.786	2857.94
501.003	2630.94
501.22	2429.94
501.437	2145.94
501.654	1877.94
501.871	1768.94
502.088	1667.94
502.305	1561.94
502.522	1482.94
502.739	1417.94
502.956	1340.94
503.172	1273.94
503.389	1247.94
503.606	1190.94
503.823	1155.94
504.04	1220.94
504.256	1199.94
504.473	1205.94
504.69	1242.94
504.907	1188.94
505.123	1104.94
505.34	1083.94
505.557	1035.94
505.773	1038.94
505.99	993.94
506.207	959.94
506.423	968.94
506.64	945.94
506.856	939.94
507.073	938.94
507.289	945.94
507.506	907.94
507.722	913.94
507.939	918.94
508.155	905.94
508.372	901.94
508.588	865.94
508.805	903.94
509.021	851.94
509.238	859.94
509.454	856.94
509.67	847.94
509.887	852.94
510.103	837.94
510.319	823.94
510.536	856.94
510.752	829.94
510.968	847.94
511.184	830.94
511.401	835.94
511.617	833.94
511.833	839.94
512.049	815.94
512.265	839.94
512.481	832.94
512.698	831.94
512.914	799.94
513.13	851.94
513.346	839.94
513.562	833.94
513.778	837.94
513.994	832.94
514.21	810.94
514.426	851.94
514.642	821.94
514.858	856.94
515.074	854.94
515.29	858.94
515.506	891.94
515.721	881.94
515.937	913.94
516.153	930.94
516.369	906.94
516.585	952.94
516.801	986.94
517.016	1010.94
517.232	1055.94
517.448	1087.94
517.664	1142.94
517.879	1133.94
518.095	1144.94
518.311	1107.94
518.527	1027.94
518.742	997.94
518.958	985.94
519.173	959.94
519.389	922.94
519.605	897.94
519.82	862.94
520.036	874.94
520.251	839.94
520.467	854.94
520.682	824.94
520.898	841.94
521.113	834.94
521.329	816.94
521.544	802.94
521.76	797.94
521.975	801.94
522.19	791.94
522.406	806.94
522.621	794.94
522.836	783.94
523.052	776.94
523.267	783.94
523.482	757.94
523.698	772.94
523.913	786.94
524.128	763.94
524.343	774.94
524.559	779.94
524.774	750.94
524.989	798.94
525.204	761.94
525.419	745.94
525.634	761.94
525.849	754.94
526.064	757.94
526.28	774.94
526.495	759.94
526.71	767.94
526.925	736.94
527.14	746.94
527.355	769.94
527.57	760.94
527.785	763.94
527.999	738.94
528.214	721.94
528.429	737.94
528.644	736.94
528.859	767.94
529.074	767.94
529.289	773.94
529.503	772.94
529.718	764.94
529.933	757.94
530.148	748.94
530.363	766.94
530.577	720.94
530.792	732.94
531.007	743.94
531.221	744.94
531.436	743.94
531.651	754.94
531.865	749.94
532.08	747.94
532.295	741.94
532.509	733.94
532.724	740.94
532.938	747.94
533.153	746.94
533.367	733.94
533.582	729.94
533.796	739.94
534.011	744.94
534.225	745.94
534.44	738.94
534.654	719.94
534.868	710.94
535.083	695.94
535.297	720.94
535.511	722.94
535.726	709.94
535.94	711.94
536.154	708.94
536.369	681.94
536.583	706.94
536.797	732.94
537.011	689.94
537.225	707.94
537.44	672.94
537.654	689.94
537.868	698.94
538.082	682.94
538.296	691.94
538.51	697.94
538.724	666.94
538.938	690.94
539.153	670.94
539.367	685.94
539.581	689.94
539.795	671.94
540.009	666.94
540.222	670.94
540.436	679.94
540.65	697.94
540.864	669.94
541.078	689.94
541.292	684.94
541.506	690.94
541.72	693.94
541.934	666.94
542.147	659.94
542.361	687.94
542.575	692.94
542.789	657.94
543.002	662.94
543.216	655.94
543.43	670.94
543.644	674.94
543.857	652.94
544.071	663.94
544.285	671.94
544.498	692.94
544.712	687.94
544.925	690.94
545.139	682.94
545.352	674.94
545.566	690.94
545.779	683.94
545.993	690.94
546.206	687.94
546.42	697.94
546.633	687.94
546.847	712.94
547.06	698.94
547.274	666.94
547.487	680.94
547.7	705.94
547.914	688.94
548.127	695.94
548.34	691.94
548.554	693.94
548.767	679.94
548.98	691.94
549.193	671.94
549.407	683.94
549.62	711.94
549.833	722.94
550.046	717.94
550.259	679.94
550.473	671.94
550.686	690.94
550.899	681.94
551.112	667.94
551.325	654.94
551.538	689.94
551.751	680.94
551.964	663.94
552.177	678.94
552.39	675.94
552.603	699.94
552.816	723.94
553.029	730.94
553.242	743.94
553.455	742.94
553.667	730.94
553.88	715.94
554.093	715.94
554.306	703.94
554.519	696.94
554.732	713.94
554.944	658.94
555.157	659.94
555.37	648.94
555.583	651.94
555.795	630.94
556.008	616.94
556.221	615.94
556.433	626.94
556.646	591.94
556.859	614.94
557.071	600.94
557.284	589.94
557.496	599.94
557.709	589.94
557.921	565.94
558.134	591.94
558.346	572.94
558.559	603.94
558.771	582.94
558.984	567.94
559.196	575.94
559.409	581.94
559.621	569.94
559.833	564.94
560.046	587.94
560.258	546.94
560.47	566.94
560.683	568.94
560.895	562.94
561.107	582.94
561.32	571.94
561.532	563.94
561.744	569.94
561.956	572.94
562.168	560.94
562.381	555.94
562.593	583.94
562.805	567.94
563.017	571.94
563.229	567.94
563.441	581.94
563.653	584.94
563.865	574.94
564.077	593.94
564.289	583.94
564.501	591.94
564.713	617.94
564.925	606.94
565.137	633.94
565.349	637.94
565.561	649.94
565.773	645.94
565.985	690.94
566.197	713.94
566.408	766.94
566.62	817.94
566.832	857.94
567.044	859.94
567.255	866.94
567.467	902.94
567.679	940.94
567.891	994.94
568.102	1018.94
568.314	983.94
568.526	917.94
568.737	818.94
568.949	735.94
569.161	692.94
569.372	641.94
569.584	629.94
569.795	629.94
570.007	593.94
570.218	595.94
570.43	573.94
570.641	554.94
570.853	571.94
571.064	577.94
571.276	590.94
571.487	561.94
571.698	560.94
571.91	532.94
572.121	510.94
572.333	510.94
572.544	498.94
572.755	490.94
572.966	503.94
573.178	478.94
573.389	479.94
573.6	457.94
573.811	458.94
574.023	482.94
574.234	463.94
574.445	451.94
574.656	439.94
574.867	473.94
575.078	461.94
575.289	446.94
575.501	482.94
575.712	449.94
575.923	469.94
576.134	445.94
576.345	448.94
576.556	440.94
576.767	437.94
576.978	433.94
577.188	419.94
577.399	441.94
577.61	427.94
577.821	408.94
578.032	425.94
578.243	403.94
578.454	406.94
578.665	412.94
578.875	410.94
579.086	405.94
579.297	414.94
579.508	424.94
579.718	393.94
579.929	414.94
580.14	402.94
580.35	385.94
580.561	417.94
580.772	393.94
580.982	399.94
581.193	399.94
581.403	406.94
581.614	423.94
581.825	409.94
582.035	393.94
582.246	413.94
582.456	394.94
582.667	383.94
582.877	405.94
583.087	387.94
583.298	381.94
583.508	383.94
583.719	391.94
583.929	394.94
584.139	389.94
584.35	389.94
584.56	384.94
584.77	378.94
584.981	378.94
585.191	382.94
585.401	372.94
585.611	368.94
585.821	369.94
586.032	350.94
586.242	383.94
586.452	390.94
586.662	386.94
586.872	375.94
587.082	370.94
587.292	335.94
587.502	377.94
587.713	369.94
587.923	373.94
588.133	356.94
588.343	369.94
588.553	379.94
588.762	381.94
588.972	381.94
589.182	448.94
589.392	404.94
589.602	389.94
589.812	445.94
590.022	399.94
590.232	355.94
590.441	369.94
590.651	385.94
590.861	391.94
591.071	361.94
591.281	374.94
591.49	399.94
591.7	388.94
591.91	394.94
592.119	407.94
592.329	406.94
592.539	392.94
592.748	433.94
592.958	422.94
593.167	455.94
593.377	446.94
593.587	435.94
593.796	449.94
594.006	442.94
594.215	445.94
594.424	454.94
594.634	448.94
594.843	421.94
595.053	433.94
595.262	395.94
595.472	393.94
595.681	378.94
595.89	394.94
596.1	365.94
596.309	377.94
596.518	368.94
596.727	369.94
596.937	343.94
597.146	338.94
597.355	325.94
597.564	346.94
597.774	349.94
597.983	333.94
598.192	346.94
598.401	331.94
598.61	334.94
598.819	325.94
599.028	317.94
599.237	329.94
599.446	324.94
599.655	309.94
599.864	332.94
600.073	319.94
600.282	328.94
600.491	315.94
600.7	313.94
600.909	307.94
601.118	316.94
601.327	317.94
601.536	326.94
601.745	298.94
601.953	318.94
602.162	309.94
602.371	306.94
602.58	298.94
602.789	304.94
602.997	306.94
603.206	302.94
603.415	315.94
603.623	299.94
603.832	287.94
604.041	285.94
604.249	279.94
604.458	283.94
604.666	285.94
604.875	287.94
605.084	302.94
605.292	294.94
605.501	288.94
605.709	310.94
605.918	298.94
606.126	303.94
606.334	281.94
606.543	293.94
606.751	296.94
606.96	279.94
607.168	291.94
607.376	279.94
607.585	291.94
607.793	293.94
608.001	286.94
608.21	298.94
608.418	273.94
608.626	288.94
608.834	271.94
609.043	273.94
609.251	295.94
609.459	279.94
609.667	281.94
609.875	266.94
610.083	250.94
610.291	253.94
610.499	278.94
610.707	277.94
610.916	304.94
611.124	302.94
611.332	270.94
611.54	269.94
611.748	278.94
611.955	256.94
612.163	280.94
612.371	265.94
612.579	281.94
612.787	289.94
612.995	292.94
613.203	279.94
613.411	261.94
613.618	279.94
613.826	269.94
614.034	260.94
614.242	259.94
614.449	246.94
614.657	257.94
614.865	273.94
615.072	261.94
615.28	249.94
615.488	272.94
615.695	267.94
615.903	266.94
616.111	278.94
616.318	272.94
616.526	265.94
616.733	289.94
616.941	271.94
617.148	262.94
617.356	256.94
617.563	267.94
617.771	284.94
617.978	269.94
618.185	278.94
618.393	272.94
618.6	273.94
618.807	266.94
619.015	251.94
619.222	266.94
619.429	257.94
619.637	248.94
619.844	245.94
620.051	273.94
620.258	249.94
620.466	264.94
620.673	259.94
620.88	247.94
621.087	252.94
621.294	253.94
621.501	246.94
621.708	262.94
621.915	235.94
622.122	243.94
622.329	249.94
622.536	257.94
622.743	246.94
622.95	262.94
623.157	257.94
623.364	247.94
623.571	237.94
623.778	251.94
623.985	254.94
624.192	244.94
624.399	248.94
624.606	252.94
624.812	254.94
625.019	241.94
625.226	228.94
625.433	234.94
625.639	237.94
625.846	236.94
626.053	231.94
626.259	221.94
626.466	224.94
626.673	242.94
626.879	221.94
627.086	226.94
627.293	237.94
627.499	235.94
627.706	227.94
627.912	223.94
628.119	220.94
628.325	228.94
628.532	202.94
628.738	226.94
628.945	223.94
629.151	225.94
629.357	197.94
629.564	207.94
629.77	218.94
629.976	212.94
630.183	213.94
630.389	230.94
630.595	219.94
630.802	214.94
631.008	203.94
631.214	210.94
631.42	206.94
631.627	202.94
631.833	213.94
632.039	208.94
632.245	213.94
632.451	209.94
632.657	195.94
632.863	199.94
633.069	223.94
633.275	204.94
633.481	199.94
633.688	209.94
633.893	197.94
634.099	200.94
634.305	202.94
634.511	206.94
634.717	189.94
634.923	195.94
635.129	195.94
635.335	189.94
635.541	196.94
635.747	194.94
635.952	203.94
636.158	194.94
636.364	201.94
636.57	199.94
636.775	195.94
636.981	189.94
637.187	182.94
637.392	201.94
637.598	190.94
637.804	217.94
638.009	197.94
638.215	200.94
638.421	200.94
638.626	189.94
638.832	197.94
639.037	194.94
639.243	175.94
639.448	198.94
639.654	187.94
639.859	184.94
640.065	183.94
640.27	183.94
640.475	174.94
640.681	191.94
640.886	163.94
641.091	176.94
641.297	167.94
641.502	187.94
641.707	201.94
641.913	197.94
642.118	189.94
642.323	183.94
642.528	179.94
642.733	181.94
642.939	195.94
643.144	190.94
643.349	185.94
643.554	184.94
643.759	181.94
643.964	194.94
644.169	169.94
644.374	185.94
644.579	175.94
644.784	177.94
644.989	179.94
645.194	176.94
645.399	174.94
645.604	180.94
645.809	193.94
646.014	175.94
646.219	189.94
646.423	175.94
646.628	180.94
646.833	189.94
647.038	180.94
647.243	189.94
647.447	195.94
647.652	189.94
647.857	195.94
648.062	190.94
648.266	198.94
648.471	202.94
648.676	170.94
648.88	209.94
649.085	191.94
649.289	182.94
649.494	196.94
649.698	185.94
649.903	172.94
650.107	170.94
650.312	182.94
650.516	179.94
650.721	157.94
650.925	176.94
651.13	167.94
651.334	175.94
651.539	164.94
651.743	157.94
651.947	158.94
652.152	151.94
652.356	179.94
652.56	156.94
652.764	165.94
652.969	174.94
653.173	165.94
653.377	158.94
653.581	149.94
653.785	164.94
653.99	157.94
654.194	158.94
654.398	152.94
654.602	144.94
654.806	162.94
655.01	134.94
655.214	136.94
655.418	139.94
655.622	146.94
655.826	157.94
656.03	156.94
656.234	160.94
656.438	130.94
656.642	148.94
656.846	145.94
657.049	146.94
657.253	135.94
657.457	133.94
657.661	124.94
657.865	117.94
658.068	132.94
658.272	123.94
658.476	102.94
658.68	125.94
658.883	116.94
659.087	99.94
659.291	110.94
659.494	112.94
659.698	101.94
659.901	95.94
660.105	98.94
660.309	107.94
660.512	74.94
660.716	92.94
660.919	103.94
661.123	105.94
661.326	96.94
661.53	90.94
661.733	91.94
661.936	90.94
662.14	87.94
662.343	88.94
662.546	85.94
662.75	81.94
662.953	90.94
663.156	83.94
663.36	75.94
663.563	76.94
663.766	72.94
663.969	77.94
664.173	90.94
664.376	82.94
664.579	73.94
664.782	83.94
664.985	77.94
665.188	71.94
665.391	75.94
665.594	86.94
665.797	89.94
666	78.94
666.203	81.94
666.406	76.94
666.609	73.94
666.812	74.94
667.015	75.94
667.218	95.94
667.421	76.94
667.624	88.94
667.827	74.94
668.03	78.94
668.232	81.94
668.435	70.94
668.638	70.94
668.841	80.94
669.043	71.94
669.246	81.94
669.449	83.94
669.651	74.94
669.854	96.94
670.057	86.94
670.259	79.94
670.462	89.94
670.665	78.94
670.867	86.94
671.07	78.94
671.272	87.94
671.475	88.94
671.677	69.94
671.88	96.94
672.082	84.94
672.284	80.94
672.487	70.94
672.689	83.94
672.892	69.94
