Data from NiCl2@0.0625M.TitratingCurve.Agarose3%dH2O.NegLispCup.LampEnergy10.LIBS07252019_HRD10591_18-33-13-576.txt Node
Date: Thu Jul 25 18:33:13 EDT 2019
User: cochatt
Spectrometer: HR+D1059
Trigger mode: 1
Integration Time (sec): 1.000000E-1
Scans to average: 1
Electric dark correction enabled: true
Nonlinearity correction enabled: false
Boxcar width: 0
XAxis mode: Wavelengths
Number of Pixels in Spectrum: 2048
>>>>>Begin Spectral Data<<<<<
223.165	-9.12
223.4	-9.12
223.635	-9.12
223.869	-12.12
224.104	-25.12
224.338	-7.12
224.573	-28.12
224.808	-16.12
225.042	-13.12
225.277	-0.12
225.511	6.88
225.746	11.88
225.98	8.88
226.215	11.88
226.449	20.88
226.683	8.88
226.918	19.88
227.152	21.88
227.387	50.88
227.621	39.88
227.856	40.88
228.09	54.88
228.324	48.88
228.559	67.88
228.793	70.88
229.027	144.88
229.262	172.88
229.496	167.88
229.73	163.88
229.964	182.88
230.199	196.88
230.433	166.88
230.667	196.88
230.901	194.88
231.136	186.88
231.37	206.88
231.604	195.88
231.838	218.88
232.072	233.88
232.306	226.88
232.541	220.88
232.775	209.88
233.009	217.88
233.243	217.88
233.477	220.88
233.711	209.88
233.945	210.88
234.179	218.88
234.413	229.88
234.647	216.88
234.881	234.88
235.115	233.88
235.349	220.88
235.583	238.88
235.817	231.88
236.051	224.88
236.285	239.88
236.519	252.88
236.753	247.88
236.987	239.88
237.221	229.88
237.455	254.88
237.689	260.88
237.922	268.88
238.156	261.88
238.39	272.88
238.624	276.88
238.858	272.88
239.091	262.88
239.325	281.88
239.559	286.88
239.793	286.88
240.027	300.88
240.26	292.88
240.494	270.88
240.728	295.88
240.961	282.88
241.195	298.88
241.429	312.88
241.662	306.88
241.896	292.88
242.13	345.88
242.363	335.88
242.597	330.88
242.83	326.88
243.064	330.88
243.298	340.88
243.531	342.88
243.765	339.88
243.998	347.88
244.232	336.88
244.465	363.88
244.699	342.88
244.932	366.88
245.166	349.88
245.399	364.88
245.633	357.88
245.866	367.88
246.099	371.88
246.333	364.88
246.566	373.88
246.8	362.88
247.033	359.88
247.266	390.88
247.5	354.88
247.733	380.88
247.966	382.88
248.2	409.88
248.433	421.88
248.666	407.88
248.899	400.88
249.133	412.88
249.366	411.88
249.599	408.88
249.832	401.88
250.066	449.88
250.299	423.88
250.532	431.88
250.765	435.88
250.998	442.88
251.231	462.88
251.465	470.88
251.698	460.88
251.931	455.88
252.164	460.88
252.397	471.88
252.63	458.88
252.863	471.88
253.096	474.88
253.329	466.88
253.562	487.88
253.795	468.88
254.028	471.88
254.261	484.88
254.494	486.88
254.727	499.88
254.96	474.88
255.193	487.88
255.426	470.88
255.659	485.88
255.892	490.88
256.124	490.88
256.357	497.88
256.59	509.88
256.823	518.88
257.056	517.88
257.289	497.88
257.521	519.88
257.754	529.88
257.987	529.88
258.22	523.88
258.452	527.88
258.685	532.88
258.918	537.88
259.151	519.88
259.383	560.88
259.616	514.88
259.849	528.88
260.081	561.88
260.314	541.88
260.547	594.88
260.779	556.88
261.012	555.88
261.244	585.88
261.477	597.88
261.71	583.88
261.942	576.88
262.175	581.88
262.407	600.88
262.64	605.88
262.872	585.88
263.105	611.88
263.337	607.88
263.57	592.88
263.802	595.88
264.035	612.88
264.267	631.88
264.499	618.88
264.732	605.88
264.964	599.88
265.197	627.88
265.429	609.88
265.661	622.88
265.894	617.88
266.126	629.88
266.358	611.88
266.591	638.88
266.823	642.88
267.055	660.88
267.287	663.88
267.52	647.88
267.752	648.88
267.984	639.88
268.216	674.88
268.448	678.88
268.681	655.88
268.913	650.88
269.145	649.88
269.377	673.88
269.609	667.88
269.841	677.88
270.073	663.88
270.306	647.88
270.538	676.88
270.77	671.88
271.002	696.88
271.234	661.88
271.466	697.88
271.698	700.88
271.93	671.88
272.162	697.88
272.394	719.88
272.626	736.88
272.858	723.88
273.09	704.88
273.322	736.88
273.553	714.88
273.785	729.88
274.017	770.88
274.249	751.88
274.481	732.88
274.713	752.88
274.945	731.88
275.176	775.88
275.408	748.88
275.64	768.88
275.872	742.88
276.104	748.88
276.335	758.88
276.567	743.88
276.799	747.88
277.031	783.88
277.262	738.88
277.494	745.88
277.726	795.88
277.957	778.88
278.189	783.88
278.421	790.88
278.652	811.88
278.884	807.88
279.115	799.88
279.347	808.88
279.579	818.88
279.81	809.88
280.042	831.88
280.273	824.88
280.505	840.88
280.736	829.88
280.968	841.88
281.199	816.88
281.431	836.88
281.662	835.88
281.894	844.88
282.125	850.88
282.356	870.88
282.588	853.88
282.819	862.88
283.051	895.88
283.282	860.88
283.513	870.88
283.745	897.88
283.976	898.88
284.207	891.88
284.439	890.88
284.67	869.88
284.901	854.88
285.132	892.88
285.364	870.88
285.595	900.88
285.826	882.88
286.057	923.88
286.288	903.88
286.52	922.88
286.751	896.88
286.982	942.88
287.213	899.88
287.444	924.88
287.675	932.88
287.906	923.88
288.138	927.88
288.369	946.88
288.6	947.88
288.831	932.88
289.062	902.88
289.293	950.88
289.524	940.88
289.755	957.88
289.986	945.88
290.217	949.88
290.448	936.88
290.679	944.88
290.91	960.88
291.141	944.88
291.371	975.88
291.602	975.88
291.833	946.88
292.064	958.88
292.295	934.88
292.526	965.88
292.757	972.88
292.987	987.88
293.218	960.88
293.449	980.88
293.68	950.88
293.91	967.88
294.141	961.88
294.372	940.88
294.603	954.88
294.833	973.88
295.064	971.88
295.295	963.88
295.525	965.88
295.756	1000.88
295.987	985.88
296.217	981.88
296.448	994.88
296.679	984.88
296.909	980.88
297.14	1034.88
297.37	1002.88
297.601	1024.88
297.831	1022.88
298.062	1029.88
298.292	1017.88
298.523	1068.88
298.753	1059.88
298.984	1043.88
299.214	1026.88
299.445	1034.88
299.675	1056.88
299.905	1026.88
300.136	1036.88
300.366	1049.88
300.597	1057.88
300.827	1081.88
301.057	1110.88
301.288	1078.88
301.518	1083.88
301.748	1104.88
301.979	1106.88
302.209	1109.88
302.439	1120.88
302.669	1100.88
302.9	1104.88
303.13	1089.88
303.36	1113.88
303.59	1082.88
303.82	1086.88
304.051	1111.88
304.281	1124.88
304.511	1096.88
304.741	1104.88
304.971	1095.88
305.201	1103.88
305.431	1129.88
305.661	1099.88
305.891	1060.88
306.121	1078.88
306.352	1064.88
306.582	1097.88
306.812	1051.88
307.042	1060.88
307.272	1092.88
307.502	1053.88
307.731	1082.88
307.961	1084.88
308.191	1089.88
308.421	1088.88
308.651	1107.88
308.881	1062.88
309.111	1106.88
309.341	1085.88
309.571	1078.88
309.8	1093.88
310.03	1085.88
310.26	1080.88
310.49	1056.88
310.72	1108.88
310.949	1066.88
311.179	1138.88
311.409	1116.88
311.639	1120.88
311.868	1135.88
312.098	1132.88
312.328	1126.88
312.557	1152.88
312.787	1136.88
313.017	1167.88
313.246	1176.88
313.476	1155.88
313.706	1160.88
313.935	1190.88
314.165	1172.88
314.394	1196.88
314.624	1199.88
314.853	1166.88
315.083	1168.88
315.312	1164.88
315.542	1163.88
315.771	1157.88
316.001	1178.88
316.23	1168.88
316.46	1153.88
316.689	1188.88
316.919	1170.88
317.148	1136.88
317.377	1154.88
317.607	1160.88
317.836	1173.88
318.065	1156.88
318.295	1146.88
318.524	1135.88
318.753	1160.88
318.983	1151.88
319.212	1139.88
319.441	1178.88
319.67	1162.88
319.9	1166.88
320.129	1132.88
320.358	1152.88
320.587	1177.88
320.816	1160.88
321.046	1147.88
321.275	1138.88
321.504	1166.88
321.733	1178.88
321.962	1150.88
322.191	1186.88
322.42	1154.88
322.649	1183.88
322.878	1172.88
323.108	1182.88
323.337	1200.88
323.566	1232.88
323.795	1211.88
324.024	1189.88
324.253	1190.88
324.482	1206.88
324.71	1177.88
324.939	1252.88
325.168	1229.88
325.397	1225.88
325.626	1225.88
325.855	1252.88
326.084	1266.88
326.313	1237.88
326.542	1246.88
326.77	1264.88
326.999	1242.88
327.228	1246.88
327.457	1262.88
327.686	1250.88
327.914	1259.88
328.143	1261.88
328.372	1304.88
328.6	1284.88
328.829	1251.88
329.058	1254.88
329.287	1254.88
329.515	1258.88
329.744	1296.88
329.972	1322.88
330.201	1314.88
330.43	1305.88
330.658	1300.88
330.887	1332.88
331.115	1260.88
331.344	1341.88
331.572	1353.88
331.801	1358.88
332.03	1368.88
332.258	1362.88
332.486	1409.88
332.715	1420.88
332.943	1518.88
333.172	1518.88
333.4	1570.88
333.629	1631.88
333.857	1638.88
334.085	1585.88
334.314	1647.88
334.542	1596.88
334.771	1605.88
334.999	1589.88
335.227	1567.88
335.455	1547.88
335.684	1558.88
335.912	1548.88
336.14	1551.88
336.369	1529.88
336.597	1529.88
336.825	1472.88
337.053	1499.88
337.281	1478.88
337.51	1478.88
337.738	1499.88
337.966	1460.88
338.194	1403.88
338.422	1385.88
338.65	1422.88
338.878	1428.88
339.106	1402.88
339.334	1396.88
339.562	1392.88
339.79	1385.88
340.018	1343.88
340.246	1334.88
340.474	1330.88
340.702	1326.88
340.93	1339.88
341.158	1330.88
341.386	1363.88
341.614	1304.88
341.842	1368.88
342.07	1302.88
342.298	1338.88
342.526	1327.88
342.754	1326.88
342.981	1313.88
343.209	1330.88
343.437	1385.88
343.665	1526.88
343.893	1507.88
344.12	1572.88
344.348	1522.88
344.576	1468.88
344.804	1446.88
345.031	1390.88
345.259	1374.88
345.487	1376.88
345.714	1330.88
345.942	1313.88
346.17	1302.88
346.397	1348.88
346.625	1305.88
346.853	1288.88
347.08	1288.88
347.308	1255.88
347.535	1266.88
347.763	1247.88
347.99	1238.88
348.218	1254.88
348.445	1271.88
348.673	1308.88
348.9	1282.88
349.128	1270.88
349.355	1280.88
349.583	1306.88
349.81	1240.88
350.037	1241.88
350.265	1263.88
350.492	1272.88
350.72	1266.88
350.947	1223.88
351.174	1242.88
351.402	1240.88
351.629	1238.88
351.856	1268.88
352.083	1244.88
352.311	1230.88
352.538	1234.88
352.765	1222.88
352.992	1200.88
353.22	1229.88
353.447	1247.88
353.674	1205.88
353.901	1238.88
354.128	1231.88
354.355	1212.88
354.583	1212.88
354.81	1225.88
355.037	1248.88
355.264	1242.88
355.491	1243.88
355.718	1230.88
355.945	1222.88
356.172	1246.88
356.399	1261.88
356.626	1245.88
356.853	1230.88
357.08	1246.88
357.307	1246.88
357.534	1246.88
357.761	1262.88
357.988	1243.88
358.215	1243.88
358.441	1232.88
358.668	1250.88
358.895	1225.88
359.122	1241.88
359.349	1242.88
359.576	1245.88
359.802	1231.88
360.029	1247.88
360.256	1261.88
360.483	1256.88
360.709	1243.88
360.936	1242.88
361.163	1253.88
361.39	1256.88
361.616	1238.88
361.843	1242.88
362.07	1254.88
362.296	1236.88
362.523	1213.88
362.749	1232.88
362.976	1240.88
363.203	1230.88
363.429	1217.88
363.656	1233.88
363.882	1242.88
364.109	1230.88
364.335	1231.88
364.562	1225.88
364.788	1226.88
365.015	1240.88
365.241	1247.88
365.468	1237.88
365.694	1225.88
365.92	1225.88
366.147	1235.88
366.373	1258.88
366.599	1243.88
366.826	1216.88
367.052	1229.88
367.278	1226.88
367.505	1259.88
367.731	1268.88
367.957	1258.88
368.184	1273.88
368.41	1237.88
368.636	1288.88
368.862	1282.88
369.089	1279.88
369.315	1280.88
369.541	1275.88
369.767	1292.88
369.993	1286.88
370.219	1273.88
370.445	1274.88
370.672	1309.88
370.898	1329.88
371.124	1307.88
371.35	1359.88
371.576	1305.88
371.802	1335.88
372.028	1339.88
372.254	1343.88
372.48	1370.88
372.706	1354.88
372.932	1383.88
373.158	1388.88
373.384	1378.88
373.61	1341.88
373.835	1379.88
374.061	1375.88
374.287	1386.88
374.513	1374.88
374.739	1474.88
374.965	1493.88
375.191	1485.88
375.416	1454.88
375.642	1396.88
375.868	1441.88
376.094	1400.88
376.319	1354.88
376.545	1378.88
376.771	1362.88
376.997	1368.88
377.222	1335.88
377.448	1330.88
377.674	1347.88
377.899	1356.88
378.125	1340.88
378.35	1303.88
378.576	1312.88
378.802	1310.88
379.027	1341.88
379.253	1351.88
379.478	1343.88
379.704	1315.88
379.929	1320.88
380.155	1334.88
380.38	1328.88
380.606	1353.88
380.831	1303.88
381.057	1338.88
381.282	1335.88
381.507	1356.88
381.733	1359.88
381.958	1354.88
382.184	1384.88
382.409	1382.88
382.634	1409.88
382.86	1400.88
383.085	1402.88
383.31	1427.88
383.535	1422.88
383.761	1464.88
383.986	1467.88
384.211	1454.88
384.436	1506.88
384.662	1512.88
384.887	1586.88
385.112	1559.88
385.337	1549.88
385.562	1550.88
385.787	1624.88
386.013	1599.88
386.238	1595.88
386.463	1614.88
386.688	1655.88
386.913	1597.88
387.138	1579.88
387.363	1572.88
387.588	1599.88
387.813	1603.88
388.038	1608.88
388.263	1602.88
388.488	1569.88
388.713	1614.88
388.938	1635.88
389.163	1567.88
389.387	1587.88
389.612	1573.88
389.837	1563.88
390.062	1569.88
390.287	1605.88
390.512	1586.88
390.736	1595.88
390.961	1613.88
391.186	1619.88
391.411	1684.88
391.636	1705.88
391.86	1750.88
392.085	1770.88
392.31	1769.88
392.534	1731.88
392.759	1753.88
392.984	1723.88
393.208	1700.88
393.433	1711.88
393.658	1750.88
393.882	1676.88
394.107	1704.88
394.331	1724.88
394.556	1697.88
394.78	1718.88
395.005	1710.88
395.229	1710.88
395.454	1773.88
395.678	1775.88
395.903	1764.88
396.127	1751.88
396.352	1736.88
396.576	1693.88
396.801	1718.88
397.025	1735.88
397.249	1754.88
397.474	1778.88
397.698	1788.88
397.922	1812.88
398.147	1823.88
398.371	1883.88
398.595	1896.88
398.82	1946.88
399.044	2082.88
399.268	2236.88
399.492	2410.88
399.717	2648.88
399.941	2744.88
400.165	2549.88
400.389	2339.88
400.613	2197.88
400.837	2108.88
401.062	2070.88
401.286	1963.88
401.51	1987.88
401.734	1972.88
401.958	2009.88
402.182	2016.88
402.406	1986.88
402.63	2037.88
402.854	2027.88
403.078	2076.88
403.302	2081.88
403.526	2053.88
403.75	2171.88
403.974	2134.88
404.198	2146.88
404.422	2135.88
404.645	2137.88
404.869	2114.88
405.093	2157.88
405.317	2090.88
405.541	2136.88
405.765	2116.88
405.988	2103.88
406.212	2134.88
406.436	2135.88
406.66	2181.88
406.883	2230.88
407.107	2294.88
407.331	2401.88
407.555	2468.88
407.778	2500.88
408.002	2402.88
408.226	2420.88
408.449	2367.88
408.673	2236.88
408.896	2248.88
409.12	2175.88
409.344	2173.88
409.567	2209.88
409.791	2182.88
410.014	2196.88
410.238	2142.88
410.461	2168.88
410.685	2186.88
410.908	2163.88
411.132	2076.88
411.355	2061.88
411.578	2038.88
411.802	2043.88
412.025	2024.88
412.249	2073.88
412.472	2082.88
412.695	2062.88
412.919	2037.88
413.142	1971.88
413.365	1962.88
413.589	2023.88
413.812	1951.88
414.035	1935.88
414.258	1982.88
414.482	1966.88
414.705	1972.88
414.928	1982.88
415.151	1973.88
415.374	2009.88
415.597	1922.88
415.821	1887.88
416.044	1920.88
416.267	1933.88
416.49	1893.88
416.713	1880.88
416.936	1901.88
417.159	1894.88
417.382	1891.88
417.605	1870.88
417.828	1906.88
418.051	1877.88
418.274	1895.88
418.497	1896.88
418.72	1922.88
418.943	1921.88
419.166	2041.88
419.389	2141.88
419.611	2135.88
419.834	2049.88
420.057	2014.88
420.28	1922.88
420.503	1901.88
420.726	1880.88
420.948	1869.88
421.171	1895.88
421.394	1865.88
421.617	1872.88
421.839	1923.88
422.062	1961.88
422.285	1860.88
422.507	1928.88
422.73	1942.88
422.953	1928.88
423.175	1944.88
423.398	1911.88
423.621	1930.88
423.843	1922.88
424.066	1926.88
424.288	1918.88
424.511	1915.88
424.733	1931.88
424.956	1908.88
425.178	1898.88
425.401	1918.88
425.623	1882.88
425.846	1829.88
426.068	1893.88
426.291	1856.88
426.513	1823.88
426.735	1774.88
426.958	1798.88
427.18	1746.88
427.402	1800.88
427.625	1768.88
427.847	1713.88
428.069	1726.88
428.292	1753.88
428.514	1727.88
428.736	1737.88
428.958	1754.88
429.181	1737.88
429.403	1769.88
429.625	1710.88
429.847	1708.88
430.069	1692.88
430.292	1676.88
430.514	1710.88
430.736	1684.88
430.958	1733.88
431.18	1691.88
431.402	1740.88
431.624	1694.88
431.846	1734.88
432.068	1760.88
432.29	1745.88
432.512	1752.88
432.734	1733.88
432.956	1749.88
433.178	1746.88
433.4	1781.88
433.622	1782.88
433.844	1809.88
434.066	1796.88
434.287	1800.88
434.509	1838.88
434.731	1911.88
434.953	1932.88
435.175	1871.88
435.397	1908.88
435.618	1836.88
435.84	1834.88
436.062	1788.88
436.284	1750.88
436.505	1751.88
436.727	1738.88
436.949	1766.88
437.17	1752.88
437.392	1666.88
437.614	1691.88
437.835	1624.88
438.057	1685.88
438.278	1654.88
438.5	1627.88
438.721	1672.88
438.943	1643.88
439.165	1656.88
439.386	1666.88
439.608	1681.88
439.829	1701.88
440.05	1680.88
440.272	1700.88
440.493	1670.88
440.715	1754.88
440.936	1756.88
441.158	1753.88
441.379	1826.88
441.6	1864.88
441.822	1840.88
442.043	1875.88
442.264	1856.88
442.486	1818.88
442.707	1828.88
442.928	1795.88
443.149	1842.88
443.371	1806.88
443.592	1861.88
443.813	1870.88
444.034	1844.88
444.255	1924.88
444.476	1999.88
444.698	2058.88
444.919	2125.88
445.14	2184.88
445.361	2039.88
445.582	1964.88
445.803	1808.88
446.024	1815.88
446.245	1775.88
446.466	1766.88
446.687	1705.88
446.908	1730.88
447.129	1662.88
447.35	1648.88
447.571	1670.88
447.792	1623.88
448.013	1625.88
448.234	1578.88
448.455	1587.88
448.675	1560.88
448.896	1556.88
449.117	1518.88
449.338	1545.88
449.559	1552.88
449.779	1501.88
450	1522.88
450.221	1515.88
450.442	1548.88
450.662	1526.88
450.883	1518.88
451.104	1562.88
451.324	1554.88
451.545	1560.88
451.766	1539.88
451.986	1525.88
452.207	1511.88
452.428	1548.88
452.648	1510.88
452.869	1457.88
453.089	1472.88
453.31	1466.88
453.53	1472.88
453.751	1485.88
453.971	1498.88
454.192	1468.88
454.412	1452.88
454.633	1418.88
454.853	1453.88
455.073	1445.88
455.294	1453.88
455.514	1441.88
455.734	1429.88
455.955	1391.88
456.175	1430.88
456.395	1410.88
456.616	1436.88
456.836	1456.88
457.056	1461.88
457.276	1429.88
457.497	1510.88
457.717	1447.88
457.937	1480.88
458.157	1500.88
458.377	1501.88
458.598	1522.88
458.818	1570.88
459.038	1596.88
459.258	1636.88
459.478	1723.88
459.698	1758.88
459.918	1813.88
460.138	1833.88
460.358	1915.88
460.578	1912.88
460.798	1950.88
461.018	1945.88
461.238	1915.88
461.458	1936.88
461.678	1919.88
461.898	1944.88
462.118	1965.88
462.338	2029.88
462.558	2103.88
462.777	2167.88
462.997	2333.88
463.217	2415.88
463.437	2452.88
463.657	2312.88
463.876	2219.88
464.096	2208.88
464.316	2210.88
464.536	2193.88
464.755	2135.88
464.975	2070.88
465.195	1964.88
465.414	1926.88
465.634	1811.88
465.854	1793.88
466.073	1726.88
466.293	1690.88
466.512	1678.88
466.732	1634.88
466.951	1660.88
467.171	1614.88
467.391	1674.88
467.61	1606.88
467.829	1592.88
468.049	1594.88
468.268	1592.88
468.488	1546.88
468.707	1528.88
468.927	1570.88
469.146	1595.88
469.365	1571.88
469.585	1579.88
469.804	1617.88
470.023	1653.88
470.243	1630.88
470.462	1646.88
470.681	1665.88
470.901	1669.88
471.12	1629.88
471.339	1622.88
471.558	1599.88
471.777	1635.88
471.997	1577.88
472.216	1581.88
472.435	1576.88
472.654	1527.88
472.873	1578.88
473.092	1591.88
473.311	1554.88
473.53	1558.88
473.749	1578.88
473.968	1563.88
474.187	1554.88
474.406	1536.88
474.625	1552.88
474.844	1539.88
475.063	1559.88
475.282	1526.88
475.501	1579.88
475.72	1608.88
475.939	1586.88
476.158	1631.88
476.377	1630.88
476.596	1643.88
476.814	1634.88
477.033	1654.88
477.252	1717.88
477.471	1734.88
477.69	1748.88
477.908	1814.88
478.127	1839.88
478.346	1830.88
478.564	1877.88
478.783	1932.88
479.002	1940.88
479.22	1935.88
479.439	1910.88
479.658	1949.88
479.876	1975.88
480.095	1983.88
480.313	2011.88
480.532	2079.88
480.751	2099.88
480.969	2027.88
481.188	1976.88
481.406	1974.88
481.624	1918.88
481.843	1967.88
482.061	1909.88
482.28	1908.88
482.498	1933.88
482.717	1901.88
482.935	1895.88
483.153	1908.88
483.372	1953.88
483.59	1934.88
483.808	1936.88
484.027	1951.88
484.245	1967.88
484.463	1990.88
484.681	2044.88
484.9	2013.88
485.118	2084.88
485.336	2060.88
485.554	2100.88
485.772	2080.88
485.99	2081.88
486.209	2099.88
486.427	2057.88
486.645	2086.88
486.863	2099.88
487.081	2051.88
487.299	2044.88
487.517	2065.88
487.735	2076.88
487.953	2035.88
488.171	2086.88
488.389	2012.88
488.607	1999.88
488.825	1983.88
489.043	1960.88
489.261	1960.88
489.479	1936.88
489.696	2010.88
489.914	1985.88
490.132	1961.88
490.35	1979.88
490.568	1967.88
490.786	2003.88
491.003	1987.88
491.221	1990.88
491.439	2022.88
491.657	1982.88
491.874	1972.88
492.092	1986.88
492.31	1981.88
492.527	1935.88
492.745	1973.88
492.963	1948.88
493.18	1981.88
493.398	1942.88
493.615	1993.88
493.833	2030.88
494.05	1988.88
494.268	2034.88
494.485	2010.88
494.703	1995.88
494.92	2028.88
495.138	1973.88
495.355	1991.88
495.573	2028.88
495.79	2007.88
496.008	2078.88
496.225	2026.88
496.442	2105.88
496.66	2099.88
496.877	2108.88
497.094	2126.88
497.312	2145.88
497.529	2188.88
497.746	2259.88
497.963	2314.88
498.181	2413.88
498.398	2492.88
498.615	2628.88
498.832	2762.88
499.049	2941.88
499.267	3175.88
499.484	3415.88
499.701	3667.88
499.918	3971.88
500.135	4305.88
500.352	4738.88
500.569	4858.88
500.786	4892.88
501.003	4710.88
501.22	4295.88
501.437	3890.88
501.654	3549.88
501.871	3270.88
502.088	3084.88
502.305	2915.88
502.522	2756.88
502.739	2651.88
502.956	2532.88
503.172	2441.88
503.389	2342.88
503.606	2294.88
503.823	2240.88
504.04	2231.88
504.256	2223.88
504.473	2252.88
504.69	2246.88
504.907	2202.88
505.123	2115.88
505.34	2018.88
505.557	1959.88
505.773	1936.88
505.99	1890.88
506.207	1807.88
506.423	1807.88
506.64	1770.88
506.856	1794.88
507.073	1751.88
507.289	1728.88
507.506	1731.88
507.722	1726.88
507.939	1693.88
508.155	1645.88
508.372	1647.88
508.588	1627.88
508.805	1597.88
509.021	1642.88
509.238	1629.88
509.454	1596.88
509.67	1578.88
509.887	1574.88
510.103	1597.88
510.319	1575.88
510.536	1562.88
510.752	1566.88
510.968	1556.88
511.184	1554.88
511.401	1604.88
511.617	1568.88
511.833	1544.88
512.049	1531.88
512.265	1574.88
512.481	1557.88
512.698	1556.88
512.914	1567.88
513.13	1526.88
513.346	1558.88
513.562	1547.88
513.778	1544.88
513.994	1572.88
514.21	1600.88
514.426	1599.88
514.642	1567.88
514.858	1566.88
515.074	1588.88
515.29	1578.88
515.506	1586.88
515.721	1654.88
515.937	1698.88
516.153	1677.88
516.369	1715.88
516.585	1771.88
516.801	1805.88
517.016	1868.88
517.232	1915.88
517.448	1980.88
517.664	2001.88
517.879	2022.88
518.095	1988.88
518.311	1968.88
518.527	1914.88
518.742	1871.88
518.958	1831.88
519.173	1794.88
519.389	1732.88
519.605	1657.88
519.82	1620.88
520.036	1655.88
520.251	1627.88
520.467	1564.88
520.682	1530.88
520.898	1546.88
521.113	1530.88
521.329	1521.88
521.544	1525.88
521.76	1486.88
521.975	1472.88
522.19	1473.88
522.406	1453.88
522.621	1454.88
522.836	1465.88
523.052	1444.88
523.267	1433.88
523.482	1411.88
523.698	1413.88
523.913	1396.88
524.128	1383.88
524.343	1396.88
524.559	1405.88
524.774	1389.88
524.989	1397.88
525.204	1391.88
525.419	1419.88
525.634	1375.88
525.849	1418.88
526.064	1395.88
526.28	1338.88
526.495	1362.88
526.71	1343.88
526.925	1358.88
527.14	1371.88
527.355	1355.88
527.57	1348.88
527.785	1381.88
527.999	1381.88
528.214	1366.88
528.429	1397.88
528.644	1386.88
528.859	1389.88
529.074	1378.88
529.289	1369.88
529.503	1359.88
529.718	1363.88
529.933	1360.88
530.148	1366.88
530.363	1334.88
530.577	1334.88
530.792	1327.88
531.007	1326.88
531.221	1364.88
531.436	1342.88
531.651	1375.88
531.865	1307.88
532.08	1366.88
532.295	1375.88
532.509	1385.88
532.724	1369.88
532.938	1366.88
533.153	1342.88
533.367	1342.88
533.582	1355.88
533.796	1344.88
534.011	1320.88
534.225	1347.88
534.44	1307.88
534.654	1334.88
534.868	1342.88
535.083	1292.88
535.297	1316.88
535.511	1318.88
535.726	1305.88
535.94	1340.88
536.154	1250.88
536.369	1238.88
536.583	1318.88
536.797	1306.88
537.011	1270.88
537.225	1243.88
537.44	1257.88
537.654	1260.88
537.868	1224.88
538.082	1249.88
538.296	1232.88
538.51	1196.88
538.724	1261.88
538.938	1269.88
539.153	1257.88
539.367	1197.88
539.581	1207.88
539.795	1215.88
540.009	1196.88
540.222	1212.88
540.436	1237.88
540.65	1198.88
540.864	1195.88
541.078	1218.88
541.292	1207.88
541.506	1218.88
541.72	1192.88
541.934	1185.88
542.147	1220.88
542.361	1192.88
542.575	1173.88
542.789	1191.88
543.002	1201.88
543.216	1184.88
543.43	1208.88
543.644	1190.88
543.857	1222.88
544.071	1194.88
544.285	1200.88
544.498	1165.88
544.712	1179.88
544.925	1186.88
545.139	1220.88
545.352	1218.88
545.566	1182.88
545.779	1184.88
545.993	1240.88
546.206	1227.88
546.42	1209.88
546.633	1218.88
546.847	1181.88
547.06	1190.88
547.274	1199.88
547.487	1199.88
547.7	1207.88
547.914	1218.88
548.127	1226.88
548.34	1194.88
548.554	1209.88
548.767	1233.88
548.98	1238.88
549.193	1231.88
549.407	1236.88
549.62	1274.88
549.833	1250.88
550.046	1222.88
550.259	1216.88
550.473	1198.88
550.686	1203.88
550.899	1198.88
551.112	1172.88
551.325	1164.88
551.538	1182.88
551.751	1182.88
551.964	1217.88
552.177	1219.88
552.39	1230.88
552.603	1231.88
552.816	1259.88
553.029	1286.88
553.242	1302.88
553.455	1306.88
553.667	1280.88
553.88	1286.88
554.093	1248.88
554.306	1238.88
554.519	1204.88
554.732	1162.88
554.944	1154.88
555.157	1163.88
555.37	1155.88
555.583	1152.88
555.795	1107.88
556.008	1101.88
556.221	1080.88
556.433	1087.88
556.646	1089.88
556.859	1082.88
557.071	1075.88
557.284	1060.88
557.496	1043.88
557.709	1036.88
557.921	1041.88
558.134	1018.88
558.346	1008.88
558.559	1022.88
558.771	1025.88
558.984	1016.88
559.196	1013.88
559.409	983.88
559.621	984.88
559.833	992.88
560.046	992.88
560.258	1005.88
560.47	1018.88
560.683	1000.88
560.895	981.88
561.107	999.88
561.32	991.88
561.532	980.88
561.744	997.88
561.956	1006.88
562.168	1020.88
562.381	1010.88
562.593	988.88
562.805	1010.88
563.017	987.88
563.229	1007.88
563.441	1012.88
563.653	1028.88
563.865	1038.88
564.077	1013.88
564.289	1021.88
564.501	1068.88
564.713	1061.88
564.925	1058.88
565.137	1114.88
565.349	1107.88
565.561	1138.88
565.773	1168.88
565.985	1236.88
566.197	1255.88
566.408	1350.88
566.62	1463.88
566.832	1484.88
567.044	1525.88
567.255	1536.88
567.467	1565.88
567.679	1625.88
567.891	1699.88
568.102	1721.88
568.314	1620.88
568.526	1517.88
568.737	1418.88
568.949	1334.88
569.161	1263.88
569.372	1162.88
569.584	1119.88
569.795	1094.88
570.007	1020.88
570.218	1048.88
570.43	1013.88
570.641	1025.88
570.853	1042.88
571.064	1001.88
571.276	994.88
571.487	969.88
571.698	941.88
571.91	917.88
572.121	920.88
572.333	910.88
572.544	904.88
572.755	887.88
572.966	840.88
573.178	873.88
573.389	838.88
573.6	807.88
573.811	816.88
574.023	822.88
574.234	802.88
574.445	813.88
574.656	826.88
574.867	816.88
575.078	821.88
575.289	806.88
575.501	789.88
575.712	785.88
575.923	777.88
576.134	767.88
576.345	780.88
576.556	757.88
576.767	754.88
576.978	749.88
577.188	741.88
577.399	737.88
577.61	752.88
577.821	751.88
578.032	719.88
578.243	727.88
578.454	727.88
578.665	744.88
578.875	715.88
579.086	732.88
579.297	702.88
579.508	723.88
579.718	739.88
579.929	716.88
580.14	705.88
580.35	731.88
580.561	714.88
580.772	703.88
580.982	704.88
581.193	716.88
581.403	679.88
581.614	686.88
581.825	681.88
582.035	712.88
582.246	702.88
582.456	688.88
582.667	680.88
582.877	674.88
583.087	662.88
583.298	681.88
583.508	664.88
583.719	667.88
583.929	680.88
584.139	667.88
584.35	647.88
584.56	654.88
584.77	655.88
584.981	670.88
585.191	636.88
585.401	646.88
585.611	666.88
585.821	649.88
586.032	654.88
586.242	674.88
586.452	644.88
586.662	670.88
586.872	677.88
587.082	652.88
587.292	648.88
587.502	650.88
587.713	643.88
587.923	638.88
588.133	646.88
588.343	648.88
588.553	650.88
588.762	639.88
588.972	606.88
589.182	648.88
589.392	658.88
589.602	668.88
589.812	659.88
590.022	655.88
590.232	666.88
590.441	647.88
590.651	655.88
590.861	660.88
591.071	665.88
591.281	659.88
591.49	672.88
591.7	688.88
591.91	694.88
592.119	679.88
592.329	699.88
592.539	735.88
592.748	735.88
592.958	742.88
593.167	758.88
593.377	726.88
593.587	782.88
593.796	799.88
594.006	762.88
594.215	774.88
594.424	778.88
594.634	744.88
594.843	751.88
595.053	698.88
595.262	727.88
595.472	702.88
595.681	662.88
595.89	648.88
596.1	630.88
596.309	633.88
596.518	615.88
596.727	613.88
596.937	603.88
597.146	591.88
597.355	596.88
597.564	580.88
597.774	578.88
597.983	562.88
598.192	566.88
598.401	577.88
598.61	583.88
598.819	550.88
599.028	553.88
599.237	557.88
599.446	551.88
599.655	555.88
599.864	552.88
600.073	548.88
600.282	545.88
600.491	524.88
600.7	524.88
600.909	529.88
601.118	554.88
601.327	498.88
601.536	498.88
601.745	522.88
601.953	521.88
602.162	517.88
602.371	532.88
602.58	489.88
602.789	501.88
602.997	515.88
603.206	510.88
603.415	518.88
603.623	505.88
603.832	507.88
604.041	519.88
604.249	487.88
604.458	498.88
604.666	501.88
604.875	477.88
605.084	465.88
605.292	459.88
605.501	482.88
605.709	516.88
605.918	466.88
606.126	491.88
606.334	482.88
606.543	478.88
606.751	486.88
606.96	471.88
607.168	454.88
607.376	488.88
607.585	463.88
607.793	491.88
608.001	484.88
608.21	469.88
608.418	464.88
608.626	462.88
608.834	473.88
609.043	486.88
609.251	462.88
609.459	465.88
609.667	458.88
609.875	477.88
610.083	461.88
610.291	474.88
610.499	457.88
610.707	472.88
610.916	451.88
611.124	476.88
611.332	460.88
611.54	469.88
611.748	448.88
611.955	442.88
612.163	460.88
612.371	478.88
612.579	445.88
612.787	464.88
612.995	456.88
613.203	442.88
613.411	451.88
613.618	455.88
613.826	443.88
614.034	475.88
614.242	456.88
614.449	433.88
614.657	453.88
614.865	450.88
615.072	469.88
615.28	470.88
615.488	463.88
615.695	444.88
615.903	442.88
616.111	452.88
616.318	481.88
616.526	442.88
616.733	462.88
616.941	440.88
617.148	446.88
617.356	478.88
617.563	461.88
617.771	430.88
617.978	448.88
618.185	444.88
618.393	439.88
618.6	427.88
618.807	453.88
619.015	428.88
619.222	436.88
619.429	433.88
619.637	418.88
619.844	437.88
620.051	428.88
620.258	418.88
620.466	431.88
620.673	386.88
620.88	417.88
621.087	420.88
621.294	413.88
621.501	420.88
621.708	412.88
621.915	416.88
622.122	380.88
622.329	410.88
622.536	399.88
622.743	419.88
622.95	416.88
623.157	392.88
623.364	389.88
623.571	392.88
623.778	404.88
623.985	413.88
624.192	366.88
624.399	394.88
624.606	400.88
624.812	388.88
625.019	391.88
625.226	393.88
625.433	384.88
625.639	354.88
625.846	396.88
626.053	381.88
626.259	385.88
626.466	392.88
626.673	374.88
626.879	372.88
627.086	364.88
627.293	374.88
627.499	384.88
627.706	374.88
627.912	350.88
628.119	374.88
628.325	370.88
628.532	348.88
628.738	352.88
628.945	376.88
629.151	375.88
629.357	341.88
629.564	378.88
629.77	364.88
629.976	368.88
630.183	350.88
630.389	365.88
630.595	349.88
630.802	349.88
631.008	343.88
631.214	339.88
631.42	344.88
631.627	341.88
631.833	340.88
632.039	313.88
632.245	340.88
632.451	346.88
632.657	337.88
632.863	342.88
633.069	341.88
633.275	330.88
633.481	328.88
633.688	328.88
633.893	329.88
634.099	334.88
634.305	332.88
634.511	325.88
634.717	318.88
634.923	326.88
635.129	333.88
635.335	348.88
635.541	330.88
635.747	310.88
635.952	331.88
636.158	319.88
636.364	315.88
636.57	324.88
636.775	310.88
636.981	320.88
637.187	313.88
637.392	322.88
637.598	323.88
637.804	322.88
638.009	307.88
638.215	330.88
638.421	326.88
638.626	299.88
638.832	320.88
639.037	323.88
639.243	300.88
639.448	310.88
639.654	320.88
639.859	313.88
640.065	298.88
640.27	318.88
640.475	300.88
640.681	283.88
640.886	311.88
641.091	311.88
641.297	306.88
641.502	298.88
641.707	304.88
641.913	286.88
642.118	303.88
642.323	298.88
642.528	307.88
642.733	294.88
642.939	292.88
643.144	275.88
643.349	293.88
643.554	309.88
643.759	303.88
643.964	298.88
644.169	306.88
644.374	284.88
644.579	306.88
644.784	297.88
644.989	295.88
645.194	301.88
645.399	302.88
645.604	276.88
645.809	294.88
646.014	282.88
646.219	296.88
646.423	292.88
646.628	300.88
646.833	300.88
647.038	309.88
647.243	310.88
647.447	314.88
647.652	324.88
647.857	334.88
648.062	318.88
648.266	320.88
648.471	330.88
648.676	314.88
648.88	324.88
649.085	327.88
649.289	309.88
649.494	318.88
649.698	316.88
649.903	306.88
650.107	293.88
650.312	311.88
650.516	322.88
650.721	297.88
650.925	320.88
651.13	295.88
651.334	286.88
651.539	300.88
651.743	295.88
651.947	299.88
652.152	291.88
652.356	272.88
652.56	294.88
652.764	289.88
652.969	289.88
653.173	295.88
653.377	295.88
653.581	287.88
653.785	298.88
653.99	317.88
654.194	288.88
654.398	293.88
654.602	312.88
654.806	303.88
655.01	315.88
655.214	308.88
655.418	325.88
655.622	352.88
655.826	366.88
656.03	367.88
656.234	371.88
656.438	397.88
656.642	410.88
656.846	400.88
657.049	349.88
657.253	330.88
657.457	294.88
657.661	275.88
657.865	261.88
658.068	219.88
658.272	222.88
658.476	212.88
658.68	204.88
658.883	186.88
659.087	178.88
659.291	163.88
659.494	149.88
659.698	140.88
659.901	135.88
660.105	132.88
660.309	127.88
660.512	124.88
660.716	125.88
660.919	128.88
661.123	120.88
661.326	110.88
661.53	102.88
661.733	107.88
661.936	109.88
662.14	97.88
662.343	92.88
662.546	108.88
662.75	92.88
662.953	89.88
663.156	100.88
663.36	91.88
663.563	100.88
663.766	94.88
663.969	90.88
664.173	69.88
664.376	99.88
664.579	90.88
664.782	95.88
664.985	93.88
665.188	89.88
665.391	102.88
665.594	86.88
665.797	75.88
666	84.88
666.203	89.88
666.406	78.88
666.609	86.88
666.812	94.88
667.015	81.88
667.218	95.88
667.421	78.88
667.624	81.88
667.827	80.88
668.03	86.88
668.232	86.88
668.435	96.88
668.638	75.88
668.841	83.88
669.043	75.88
669.246	86.88
669.449	92.88
669.651	85.88
669.854	88.88
670.057	80.88
670.259	95.88
670.462	87.88
670.665	96.88
670.867	79.88
671.07	74.88
671.272	90.88
671.475	95.88
671.677	87.88
671.88	92.88
672.082	70.88
672.284	92.88
672.487	92.88
672.689	92.88
672.892	94.88
