Data from NiCl2@0.25M.TitratingCurve.Agarose3%dH2O.NegLispCup.LampEnergy10.LIBS07252019_HRD10591_18-25-01-573.txt Node
Date: Thu Jul 25 18:25:01 EDT 2019
User: cochatt
Spectrometer: HR+D1059
Trigger mode: 1
Integration Time (sec): 1.000000E-1
Scans to average: 1
Electric dark correction enabled: true
Nonlinearity correction enabled: false
Boxcar width: 0
XAxis mode: Wavelengths
Number of Pixels in Spectrum: 2048
>>>>>Begin Spectral Data<<<<<
223.165	-8.25
223.4	-8.25
223.635	-8.25
223.869	-14.25
224.104	-19.25
224.338	-15.25
224.573	-19.25
224.808	-20.25
225.042	8.75
225.277	-10.25
225.511	-3.25
225.746	-12.25
225.98	3.75
226.215	1.75
226.449	27.75
226.683	21.75
226.918	29.75
227.152	28.75
227.387	33.75
227.621	33.75
227.856	43.75
228.09	46.75
228.324	60.75
228.559	61.75
228.793	97.75
229.027	121.75
229.262	133.75
229.496	120.75
229.73	133.75
229.964	138.75
230.199	150.75
230.433	155.75
230.667	141.75
230.901	154.75
231.136	137.75
231.37	137.75
231.604	148.75
231.838	153.75
232.072	143.75
232.306	172.75
232.541	181.75
232.775	170.75
233.009	175.75
233.243	171.75
233.477	155.75
233.711	157.75
233.945	158.75
234.179	150.75
234.413	169.75
234.647	170.75
234.881	181.75
235.115	181.75
235.349	171.75
235.583	179.75
235.817	179.75
236.051	176.75
236.285	170.75
236.519	184.75
236.753	171.75
236.987	182.75
237.221	197.75
237.455	182.75
237.689	187.75
237.922	176.75
238.156	181.75
238.39	183.75
238.624	193.75
238.858	208.75
239.091	194.75
239.325	193.75
239.559	204.75
239.793	200.75
240.027	213.75
240.26	204.75
240.494	196.75
240.728	212.75
240.961	218.75
241.195	191.75
241.429	209.75
241.662	212.75
241.896	200.75
242.13	213.75
242.363	207.75
242.597	203.75
242.83	218.75
243.064	229.75
243.298	218.75
243.531	216.75
243.765	238.75
243.998	227.75
244.232	237.75
244.465	236.75
244.699	244.75
244.932	240.75
245.166	250.75
245.399	232.75
245.633	252.75
245.866	237.75
246.099	250.75
246.333	252.75
246.566	246.75
246.8	240.75
247.033	268.75
247.266	256.75
247.5	249.75
247.733	257.75
247.966	265.75
248.2	284.75
248.433	271.75
248.666	274.75
248.899	270.75
249.133	281.75
249.366	274.75
249.599	265.75
249.832	276.75
250.066	282.75
250.299	286.75
250.532	291.75
250.765	281.75
250.998	288.75
251.231	280.75
251.465	303.75
251.698	293.75
251.931	302.75
252.164	304.75
252.397	297.75
252.63	311.75
252.863	305.75
253.096	311.75
253.329	308.75
253.562	312.75
253.795	308.75
254.028	293.75
254.261	309.75
254.494	325.75
254.727	331.75
254.96	314.75
255.193	332.75
255.426	308.75
255.659	325.75
255.892	324.75
256.124	332.75
256.357	340.75
256.59	334.75
256.823	334.75
257.056	341.75
257.289	333.75
257.521	345.75
257.754	334.75
257.987	347.75
258.22	340.75
258.452	323.75
258.685	360.75
258.918	344.75
259.151	371.75
259.383	357.75
259.616	350.75
259.849	353.75
260.081	359.75
260.314	355.75
260.547	374.75
260.779	381.75
261.012	364.75
261.244	379.75
261.477	371.75
261.71	373.75
261.942	371.75
262.175	359.75
262.407	384.75
262.64	363.75
262.872	366.75
263.105	387.75
263.337	375.75
263.57	376.75
263.802	390.75
264.035	367.75
264.267	373.75
264.499	413.75
264.732	383.75
264.964	402.75
265.197	393.75
265.429	395.75
265.661	407.75
265.894	412.75
266.126	419.75
266.358	389.75
266.591	402.75
266.823	412.75
267.055	410.75
267.287	397.75
267.52	405.75
267.752	412.75
267.984	419.75
268.216	419.75
268.448	425.75
268.681	414.75
268.913	440.75
269.145	445.75
269.377	423.75
269.609	438.75
269.841	423.75
270.073	421.75
270.306	436.75
270.538	423.75
270.77	427.75
271.002	459.75
271.234	423.75
271.466	439.75
271.698	425.75
271.93	444.75
272.162	452.75
272.394	467.75
272.626	438.75
272.858	476.75
273.09	477.75
273.322	456.75
273.553	457.75
273.785	455.75
274.017	455.75
274.249	479.75
274.481	459.75
274.713	485.75
274.945	463.75
275.176	469.75
275.408	469.75
275.64	460.75
275.872	472.75
276.104	477.75
276.335	467.75
276.567	473.75
276.799	478.75
277.031	469.75
277.262	471.75
277.494	480.75
277.726	515.75
277.957	486.75
278.189	466.75
278.421	459.75
278.652	521.75
278.884	521.75
279.115	502.75
279.347	508.75
279.579	523.75
279.81	517.75
280.042	520.75
280.273	515.75
280.505	529.75
280.736	492.75
280.968	520.75
281.199	505.75
281.431	530.75
281.662	532.75
281.894	538.75
282.125	528.75
282.356	542.75
282.588	529.75
282.819	540.75
283.051	524.75
283.282	553.75
283.513	555.75
283.745	568.75
283.976	575.75
284.207	564.75
284.439	549.75
284.67	585.75
284.901	566.75
285.132	573.75
285.364	575.75
285.595	557.75
285.826	576.75
286.057	568.75
286.288	577.75
286.52	579.75
286.751	574.75
286.982	573.75
287.213	555.75
287.444	569.75
287.675	583.75
287.906	611.75
288.138	594.75
288.369	571.75
288.6	605.75
288.831	574.75
289.062	599.75
289.293	593.75
289.524	573.75
289.755	598.75
289.986	606.75
290.217	599.75
290.448	588.75
290.679	592.75
290.91	614.75
291.141	576.75
291.371	599.75
291.602	604.75
291.833	606.75
292.064	604.75
292.295	598.75
292.526	603.75
292.757	604.75
292.987	608.75
293.218	594.75
293.449	601.75
293.68	602.75
293.91	618.75
294.141	609.75
294.372	606.75
294.603	626.75
294.833	630.75
295.064	611.75
295.295	620.75
295.525	618.75
295.756	602.75
295.987	616.75
296.217	618.75
296.448	614.75
296.679	635.75
296.909	619.75
297.14	625.75
297.37	631.75
297.601	651.75
297.831	667.75
298.062	637.75
298.292	663.75
298.523	663.75
298.753	657.75
298.984	664.75
299.214	637.75
299.445	641.75
299.675	657.75
299.905	653.75
300.136	654.75
300.366	663.75
300.597	653.75
300.827	688.75
301.057	687.75
301.288	679.75
301.518	684.75
301.748	704.75
301.979	716.75
302.209	718.75
302.439	714.75
302.669	693.75
302.9	667.75
303.13	675.75
303.36	692.75
303.59	679.75
303.82	691.75
304.051	698.75
304.281	683.75
304.511	683.75
304.741	684.75
304.971	702.75
305.201	680.75
305.431	679.75
305.661	683.75
305.891	660.75
306.121	676.75
306.352	661.75
306.582	695.75
306.812	666.75
307.042	657.75
307.272	651.75
307.502	654.75
307.731	677.75
307.961	645.75
308.191	664.75
308.421	665.75
308.651	684.75
308.881	693.75
309.111	687.75
309.341	687.75
309.571	680.75
309.8	687.75
310.03	665.75
310.26	660.75
310.49	696.75
310.72	681.75
310.949	680.75
311.179	677.75
311.409	676.75
311.639	663.75
311.868	701.75
312.098	703.75
312.328	672.75
312.557	726.75
312.787	709.75
313.017	712.75
313.246	695.75
313.476	694.75
313.706	737.75
313.935	725.75
314.165	743.75
314.394	707.75
314.624	742.75
314.853	718.75
315.083	715.75
315.312	713.75
315.542	704.75
315.771	708.75
316.001	716.75
316.23	721.75
316.46	704.75
316.689	702.75
316.919	716.75
317.148	732.75
317.377	729.75
317.607	733.75
317.836	705.75
318.065	729.75
318.295	716.75
318.524	699.75
318.753	709.75
318.983	716.75
319.212	716.75
319.441	714.75
319.67	683.75
319.9	711.75
320.129	708.75
320.358	692.75
320.587	726.75
320.816	693.75
321.046	693.75
321.275	708.75
321.504	728.75
321.733	712.75
321.962	725.75
322.191	720.75
322.42	707.75
322.649	720.75
322.878	712.75
323.108	698.75
323.337	736.75
323.566	742.75
323.795	744.75
324.024	730.75
324.253	715.75
324.482	735.75
324.71	739.75
324.939	761.75
325.168	748.75
325.397	755.75
325.626	749.75
325.855	769.75
326.084	762.75
326.313	764.75
326.542	760.75
326.77	814.75
326.999	771.75
327.228	777.75
327.457	756.75
327.686	760.75
327.914	757.75
328.143	803.75
328.372	774.75
328.6	776.75
328.829	788.75
329.058	799.75
329.287	774.75
329.515	797.75
329.744	793.75
329.972	816.75
330.201	790.75
330.43	798.75
330.658	801.75
330.887	808.75
331.115	809.75
331.344	822.75
331.572	833.75
331.801	821.75
332.03	855.75
332.258	869.75
332.486	886.75
332.715	911.75
332.943	992.75
333.172	980.75
333.4	1046.75
333.629	1081.75
333.857	1075.75
334.085	1057.75
334.314	1000.75
334.542	1007.75
334.771	973.75
334.999	997.75
335.227	976.75
335.455	977.75
335.684	979.75
335.912	967.75
336.14	940.75
336.369	925.75
336.597	943.75
336.825	939.75
337.053	944.75
337.281	930.75
337.51	910.75
337.738	896.75
337.966	867.75
338.194	831.75
338.422	858.75
338.65	855.75
338.878	859.75
339.106	833.75
339.334	841.75
339.562	843.75
339.79	828.75
340.018	827.75
340.246	816.75
340.474	808.75
340.702	795.75
340.93	831.75
341.158	824.75
341.386	824.75
341.614	786.75
341.842	813.75
342.07	806.75
342.298	803.75
342.526	800.75
342.754	810.75
342.981	803.75
343.209	831.75
343.437	845.75
343.665	919.75
343.893	1011.75
344.12	1018.75
344.348	964.75
344.576	923.75
344.804	907.75
345.031	835.75
345.259	831.75
345.487	825.75
345.714	823.75
345.942	805.75
346.17	827.75
346.397	819.75
346.625	797.75
346.853	810.75
347.08	762.75
347.308	797.75
347.535	794.75
347.763	780.75
347.99	782.75
348.218	789.75
348.445	807.75
348.673	799.75
348.9	793.75
349.128	804.75
349.355	745.75
349.583	769.75
349.81	759.75
350.037	764.75
350.265	781.75
350.492	774.75
350.72	775.75
350.947	739.75
351.174	759.75
351.402	744.75
351.629	771.75
351.856	777.75
352.083	761.75
352.311	755.75
352.538	753.75
352.765	750.75
352.992	754.75
353.22	771.75
353.447	735.75
353.674	750.75
353.901	731.75
354.128	743.75
354.355	743.75
354.583	737.75
354.81	763.75
355.037	774.75
355.264	756.75
355.491	735.75
355.718	748.75
355.945	721.75
356.172	759.75
356.399	757.75
356.626	752.75
356.853	797.75
357.08	770.75
357.307	746.75
357.534	771.75
357.761	738.75
357.988	754.75
358.215	727.75
358.441	742.75
358.668	742.75
358.895	758.75
359.122	772.75
359.349	766.75
359.576	739.75
359.802	760.75
360.029	757.75
360.256	762.75
360.483	763.75
360.709	747.75
360.936	749.75
361.163	775.75
361.39	761.75
361.616	747.75
361.843	751.75
362.07	741.75
362.296	784.75
362.523	750.75
362.749	777.75
362.976	757.75
363.203	737.75
363.429	751.75
363.656	759.75
363.882	746.75
364.109	738.75
364.335	725.75
364.562	763.75
364.788	732.75
365.015	725.75
365.241	768.75
365.468	745.75
365.694	741.75
365.92	736.75
366.147	738.75
366.373	759.75
366.599	743.75
366.826	746.75
367.052	750.75
367.278	729.75
367.505	745.75
367.731	747.75
367.957	760.75
368.184	760.75
368.41	741.75
368.636	757.75
368.862	757.75
369.089	756.75
369.315	784.75
369.541	779.75
369.767	783.75
369.993	778.75
370.219	797.75
370.445	793.75
370.672	823.75
370.898	823.75
371.124	821.75
371.35	844.75
371.576	828.75
371.802	798.75
372.028	800.75
372.254	836.75
372.48	840.75
372.706	836.75
372.932	865.75
373.158	835.75
373.384	825.75
373.61	829.75
373.835	829.75
374.061	841.75
374.287	850.75
374.513	865.75
374.739	895.75
374.965	876.75
375.191	919.75
375.416	923.75
375.642	877.75
375.868	882.75
376.094	883.75
376.319	851.75
376.545	839.75
376.771	835.75
376.997	829.75
377.222	830.75
377.448	833.75
377.674	852.75
377.899	803.75
378.125	804.75
378.35	824.75
378.576	820.75
378.802	813.75
379.027	819.75
379.253	855.75
379.478	808.75
379.704	810.75
379.929	791.75
380.155	821.75
380.38	841.75
380.606	802.75
380.831	810.75
381.057	814.75
381.282	817.75
381.507	820.75
381.733	827.75
381.958	854.75
382.184	854.75
382.409	856.75
382.634	843.75
382.86	845.75
383.085	873.75
383.31	887.75
383.535	905.75
383.761	895.75
383.986	936.75
384.211	911.75
384.436	964.75
384.662	964.75
384.887	985.75
385.112	977.75
385.337	1007.75
385.562	1024.75
385.787	1010.75
386.013	990.75
386.238	1011.75
386.463	1004.75
386.688	1012.75
386.913	954.75
387.138	976.75
387.363	971.75
387.588	980.75
387.813	979.75
388.038	949.75
388.263	977.75
388.488	951.75
388.713	951.75
388.938	973.75
389.163	935.75
389.387	955.75
389.612	946.75
389.837	971.75
390.062	956.75
390.287	951.75
390.512	961.75
390.736	966.75
390.961	968.75
391.186	993.75
391.411	1021.75
391.636	1054.75
391.86	1114.75
392.085	1116.75
392.31	1122.75
392.534	1102.75
392.759	1071.75
392.984	1053.75
393.208	1072.75
393.433	1033.75
393.658	1041.75
393.882	1039.75
394.107	1030.75
394.331	1060.75
394.556	1058.75
394.78	1044.75
395.005	1062.75
395.229	1073.75
395.454	1092.75
395.678	1094.75
395.903	1121.75
396.127	1120.75
396.352	1059.75
396.576	1049.75
396.801	1063.75
397.025	1045.75
397.249	1072.75
397.474	1101.75
397.698	1131.75
397.922	1106.75
398.147	1095.75
398.371	1128.75
398.595	1182.75
398.82	1209.75
399.044	1319.75
399.268	1452.75
399.492	1633.75
399.717	1899.75
399.941	1899.75
400.165	1673.75
400.389	1503.75
400.613	1411.75
400.837	1307.75
401.062	1300.75
401.286	1258.75
401.51	1242.75
401.734	1210.75
401.958	1262.75
402.182	1251.75
402.406	1273.75
402.63	1319.75
402.854	1286.75
403.078	1344.75
403.302	1389.75
403.526	1396.75
403.75	1457.75
403.974	1410.75
404.198	1450.75
404.422	1465.75
404.645	1448.75
404.869	1395.75
405.093	1391.75
405.317	1407.75
405.541	1369.75
405.765	1351.75
405.988	1359.75
406.212	1363.75
406.436	1364.75
406.66	1368.75
406.883	1409.75
407.107	1440.75
407.331	1594.75
407.555	1618.75
407.778	1551.75
408.002	1565.75
408.226	1530.75
408.449	1471.75
408.673	1424.75
408.896	1432.75
409.12	1391.75
409.344	1427.75
409.567	1395.75
409.791	1397.75
410.014	1383.75
410.238	1396.75
410.461	1362.75
410.685	1353.75
410.908	1341.75
411.132	1327.75
411.355	1302.75
411.578	1270.75
411.802	1283.75
412.025	1324.75
412.249	1324.75
412.472	1309.75
412.695	1269.75
412.919	1234.75
413.142	1248.75
413.365	1241.75
413.589	1253.75
413.812	1240.75
414.035	1194.75
414.258	1197.75
414.482	1190.75
414.705	1274.75
414.928	1260.75
415.151	1274.75
415.374	1239.75
415.597	1235.75
415.821	1214.75
416.044	1197.75
416.267	1197.75
416.49	1220.75
416.713	1216.75
416.936	1223.75
417.159	1229.75
417.382	1211.75
417.605	1206.75
417.828	1187.75
418.051	1206.75
418.274	1229.75
418.497	1224.75
418.72	1270.75
418.943	1240.75
419.166	1331.75
419.389	1438.75
419.611	1372.75
419.834	1315.75
420.057	1291.75
420.28	1260.75
420.503	1237.75
420.726	1189.75
420.948	1203.75
421.171	1212.75
421.394	1247.75
421.617	1215.75
421.839	1211.75
422.062	1208.75
422.285	1183.75
422.507	1236.75
422.73	1232.75
422.953	1237.75
423.175	1303.75
423.398	1305.75
423.621	1287.75
423.843	1279.75
424.066	1308.75
424.288	1293.75
424.511	1274.75
424.733	1278.75
424.956	1264.75
425.178	1241.75
425.401	1215.75
425.623	1201.75
425.846	1172.75
426.068	1184.75
426.291	1171.75
426.513	1150.75
426.735	1143.75
426.958	1139.75
427.18	1100.75
427.402	1123.75
427.625	1143.75
427.847	1078.75
428.069	1127.75
428.292	1087.75
428.514	1047.75
428.736	1068.75
428.958	1064.75
429.181	1074.75
429.403	1080.75
429.625	1044.75
429.847	1052.75
430.069	1038.75
430.292	1064.75
430.514	1040.75
430.736	1073.75
430.958	1068.75
431.18	1048.75
431.402	1062.75
431.624	1057.75
431.846	1078.75
432.068	1092.75
432.29	1105.75
432.512	1047.75
432.734	1078.75
432.956	1066.75
433.178	1082.75
433.4	1069.75
433.622	1088.75
433.844	1105.75
434.066	1111.75
434.287	1094.75
434.509	1115.75
434.731	1169.75
434.953	1229.75
435.175	1211.75
435.397	1207.75
435.618	1151.75
435.84	1136.75
436.062	1078.75
436.284	1079.75
436.505	1042.75
436.727	1062.75
436.949	1079.75
437.17	1071.75
437.392	1071.75
437.614	1045.75
437.835	1035.75
438.057	1026.75
438.278	1052.75
438.5	1022.75
438.721	1049.75
438.943	1061.75
439.165	1019.75
439.386	1037.75
439.608	1075.75
439.829	1087.75
440.05	1053.75
440.272	1093.75
440.493	1079.75
440.715	1065.75
440.936	1109.75
441.158	1080.75
441.379	1115.75
441.6	1217.75
441.822	1229.75
442.043	1211.75
442.264	1211.75
442.486	1177.75
442.707	1190.75
442.928	1185.75
443.149	1187.75
443.371	1195.75
443.592	1195.75
443.813	1208.75
444.034	1197.75
444.255	1259.75
444.476	1313.75
444.698	1401.75
444.919	1435.75
445.14	1477.75
445.361	1356.75
445.582	1236.75
445.803	1173.75
446.024	1136.75
446.245	1111.75
446.466	1109.75
446.687	1099.75
446.908	1069.75
447.129	1044.75
447.35	1063.75
447.571	1033.75
447.792	1004.75
448.013	1009.75
448.234	1003.75
448.455	993.75
448.675	957.75
448.896	990.75
449.117	958.75
449.338	964.75
449.559	932.75
449.779	924.75
450	947.75
450.221	934.75
450.442	1015.75
450.662	1008.75
450.883	975.75
451.104	1014.75
451.324	987.75
451.545	1008.75
451.766	990.75
451.986	980.75
452.207	992.75
452.428	983.75
452.648	979.75
452.869	944.75
453.089	953.75
453.31	944.75
453.53	959.75
453.751	945.75
453.971	942.75
454.192	966.75
454.412	929.75
454.633	916.75
454.853	952.75
455.073	900.75
455.294	939.75
455.514	906.75
455.734	903.75
455.955	913.75
456.175	908.75
456.395	918.75
456.616	910.75
456.836	923.75
457.056	919.75
457.276	903.75
457.497	914.75
457.717	900.75
457.937	898.75
458.157	924.75
458.377	910.75
458.598	964.75
458.818	992.75
459.038	1027.75
459.258	1047.75
459.478	1092.75
459.698	1101.75
459.918	1160.75
460.138	1195.75
460.358	1255.75
460.578	1254.75
460.798	1280.75
461.018	1305.75
461.238	1259.75
461.458	1279.75
461.678	1248.75
461.898	1264.75
462.118	1272.75
462.338	1341.75
462.558	1401.75
462.777	1459.75
462.997	1566.75
463.217	1689.75
463.437	1695.75
463.657	1568.75
463.876	1473.75
464.096	1479.75
464.316	1489.75
464.536	1497.75
464.755	1435.75
464.975	1382.75
465.195	1310.75
465.414	1232.75
465.634	1171.75
465.854	1115.75
466.073	1103.75
466.293	1057.75
466.512	1025.75
466.732	1051.75
466.951	1042.75
467.171	1011.75
467.391	1041.75
467.61	1002.75
467.829	1011.75
468.049	1023.75
468.268	991.75
468.488	976.75
468.707	975.75
468.927	968.75
469.146	996.75
469.365	1004.75
469.585	997.75
469.804	1027.75
470.023	1081.75
470.243	1059.75
470.462	1068.75
470.681	1070.75
470.901	1059.75
471.12	1045.75
471.339	1041.75
471.558	1030.75
471.777	1013.75
471.997	986.75
472.216	999.75
472.435	969.75
472.654	955.75
472.873	957.75
473.092	942.75
473.311	947.75
473.53	990.75
473.749	958.75
473.968	969.75
474.187	957.75
474.406	978.75
474.625	965.75
474.844	956.75
475.063	919.75
475.282	939.75
475.501	973.75
475.72	957.75
475.939	959.75
476.158	964.75
476.377	988.75
476.596	967.75
476.814	1013.75
477.033	1011.75
477.252	1037.75
477.471	1047.75
477.69	1081.75
477.908	1104.75
478.127	1126.75
478.346	1158.75
478.564	1164.75
478.783	1164.75
479.002	1229.75
479.22	1213.75
479.439	1191.75
479.658	1182.75
479.876	1194.75
480.095	1188.75
480.313	1296.75
480.532	1282.75
480.751	1293.75
480.969	1248.75
481.188	1171.75
481.406	1195.75
481.624	1155.75
481.843	1109.75
482.061	1113.75
482.28	1121.75
482.498	1095.75
482.717	1094.75
482.935	1081.75
483.153	1077.75
483.372	1067.75
483.59	1085.75
483.808	1093.75
484.027	1109.75
484.245	1104.75
484.463	1110.75
484.681	1120.75
484.9	1115.75
485.118	1152.75
485.336	1145.75
485.554	1145.75
485.772	1166.75
485.99	1179.75
486.209	1152.75
486.427	1191.75
486.645	1175.75
486.863	1164.75
487.081	1177.75
487.299	1145.75
487.517	1119.75
487.735	1122.75
487.953	1154.75
488.171	1137.75
488.389	1118.75
488.607	1116.75
488.825	1112.75
489.043	1154.75
489.261	1129.75
489.479	1143.75
489.696	1134.75
489.914	1139.75
490.132	1147.75
490.35	1150.75
490.568	1131.75
490.786	1161.75
491.003	1173.75
491.221	1154.75
491.439	1181.75
491.657	1164.75
491.874	1178.75
492.092	1195.75
492.31	1181.75
492.527	1192.75
492.745	1213.75
492.963	1217.75
493.18	1188.75
493.398	1191.75
493.615	1183.75
493.833	1210.75
494.05	1193.75
494.268	1221.75
494.485	1241.75
494.703	1229.75
494.92	1242.75
495.138	1237.75
495.355	1235.75
495.573	1230.75
495.79	1203.75
496.008	1248.75
496.225	1307.75
496.442	1294.75
496.66	1269.75
496.877	1283.75
497.094	1262.75
497.312	1353.75
497.529	1371.75
497.746	1433.75
497.963	1480.75
498.181	1473.75
498.398	1572.75
498.615	1619.75
498.832	1751.75
499.049	1914.75
499.267	2059.75
499.484	2279.75
499.701	2509.75
499.918	2784.75
500.135	3153.75
500.352	3611.75
500.569	3798.75
500.786	3800.75
501.003	3500.75
501.22	3165.75
501.437	2768.75
501.654	2441.75
501.871	2216.75
502.088	2021.75
502.305	1889.75
502.522	1785.75
502.739	1728.75
502.956	1688.75
503.172	1573.75
503.389	1479.75
503.606	1417.75
503.823	1416.75
504.04	1412.75
504.256	1424.75
504.473	1453.75
504.69	1468.75
504.907	1487.75
505.123	1351.75
505.34	1308.75
505.557	1221.75
505.773	1210.75
505.99	1191.75
506.207	1153.75
506.423	1136.75
506.64	1102.75
506.856	1153.75
507.073	1108.75
507.289	1120.75
507.506	1087.75
507.722	1105.75
507.939	1090.75
508.155	1038.75
508.372	1049.75
508.588	1048.75
508.805	1030.75
509.021	1031.75
509.238	1007.75
509.454	1032.75
509.67	1031.75
509.887	993.75
510.103	1009.75
510.319	978.75
510.536	974.75
510.752	981.75
510.968	1004.75
511.184	986.75
511.401	980.75
511.617	963.75
511.833	1006.75
512.049	961.75
512.265	982.75
512.481	1001.75
512.698	996.75
512.914	996.75
513.13	998.75
513.346	965.75
513.562	975.75
513.778	1024.75
513.994	1000.75
514.21	1009.75
514.426	1014.75
514.642	997.75
514.858	1017.75
515.074	985.75
515.29	1027.75
515.506	1065.75
515.721	1084.75
515.937	1073.75
516.153	1075.75
516.369	1128.75
516.585	1151.75
516.801	1159.75
517.016	1232.75
517.232	1275.75
517.448	1331.75
517.664	1382.75
517.879	1398.75
518.095	1434.75
518.311	1369.75
518.527	1276.75
518.742	1241.75
518.958	1201.75
519.173	1187.75
519.389	1126.75
519.605	1055.75
519.82	1079.75
520.036	1061.75
520.251	1029.75
520.467	1013.75
520.682	995.75
520.898	1001.75
521.113	975.75
521.329	989.75
521.544	981.75
521.76	982.75
521.975	984.75
522.19	943.75
522.406	934.75
522.621	928.75
522.836	949.75
523.052	924.75
523.267	922.75
523.482	919.75
523.698	939.75
523.913	901.75
524.128	906.75
524.343	901.75
524.559	900.75
524.774	906.75
524.989	908.75
525.204	944.75
525.419	919.75
525.634	907.75
525.849	907.75
526.064	917.75
526.28	931.75
526.495	894.75
526.71	874.75
526.925	861.75
527.14	880.75
527.355	900.75
527.57	893.75
527.785	914.75
527.999	883.75
528.214	900.75
528.429	906.75
528.644	896.75
528.859	891.75
529.074	891.75
529.289	897.75
529.503	873.75
529.718	880.75
529.933	893.75
530.148	872.75
530.363	905.75
530.577	899.75
530.792	877.75
531.007	881.75
531.221	867.75
531.436	895.75
531.651	889.75
531.865	893.75
532.08	921.75
532.295	909.75
532.509	880.75
532.724	907.75
532.938	891.75
533.153	894.75
533.367	892.75
533.582	872.75
533.796	885.75
534.011	878.75
534.225	899.75
534.44	865.75
534.654	853.75
534.868	874.75
535.083	862.75
535.297	879.75
535.511	835.75
535.726	865.75
535.94	837.75
536.154	830.75
536.369	847.75
536.583	835.75
536.797	838.75
537.011	821.75
537.225	796.75
537.44	799.75
537.654	835.75
537.868	815.75
538.082	808.75
538.296	823.75
538.51	812.75
538.724	826.75
538.938	824.75
539.153	817.75
539.367	837.75
539.581	792.75
539.795	791.75
540.009	798.75
540.222	803.75
540.436	803.75
540.65	791.75
540.864	784.75
541.078	767.75
541.292	769.75
541.506	786.75
541.72	791.75
541.934	774.75
542.147	794.75
542.361	799.75
542.575	789.75
542.789	793.75
543.002	796.75
543.216	789.75
543.43	795.75
543.644	785.75
543.857	784.75
544.071	795.75
544.285	805.75
544.498	775.75
544.712	797.75
544.925	777.75
545.139	812.75
545.352	823.75
545.566	819.75
545.779	807.75
545.993	811.75
546.206	821.75
546.42	837.75
546.633	824.75
546.847	797.75
547.06	822.75
547.274	818.75
547.487	792.75
547.7	817.75
547.914	821.75
548.127	830.75
548.34	834.75
548.554	824.75
548.767	848.75
548.98	819.75
549.193	819.75
549.407	822.75
549.62	831.75
549.833	841.75
550.046	819.75
550.259	827.75
550.473	793.75
550.686	827.75
550.899	779.75
551.112	808.75
551.325	790.75
551.538	792.75
551.751	786.75
551.964	830.75
552.177	801.75
552.39	823.75
552.603	821.75
552.816	838.75
553.029	869.75
553.242	889.75
553.455	889.75
553.667	891.75
553.88	904.75
554.093	859.75
554.306	848.75
554.519	819.75
554.732	806.75
554.944	769.75
555.157	765.75
555.37	743.75
555.583	774.75
555.795	736.75
556.008	737.75
556.221	716.75
556.433	709.75
556.646	712.75
556.859	692.75
557.071	710.75
557.284	698.75
557.496	686.75
557.709	663.75
557.921	699.75
558.134	705.75
558.346	692.75
558.559	669.75
558.771	709.75
558.984	665.75
559.196	683.75
559.409	677.75
559.621	653.75
559.833	667.75
560.046	676.75
560.258	660.75
560.47	674.75
560.683	672.75
560.895	661.75
561.107	669.75
561.32	639.75
561.532	662.75
561.744	680.75
561.956	693.75
562.168	638.75
562.381	663.75
562.593	671.75
562.805	657.75
563.017	662.75
563.229	673.75
563.441	667.75
563.653	687.75
563.865	688.75
564.077	700.75
564.289	686.75
564.501	701.75
564.713	712.75
564.925	733.75
565.137	710.75
565.349	748.75
565.561	785.75
565.773	813.75
565.985	822.75
566.197	874.75
566.408	952.75
566.62	997.75
566.832	1109.75
567.044	1103.75
567.255	1099.75
567.467	1164.75
567.679	1208.75
567.891	1289.75
568.102	1311.75
568.314	1224.75
568.526	1131.75
568.737	1039.75
568.949	928.75
569.161	870.75
569.372	773.75
569.584	773.75
569.795	748.75
570.007	703.75
570.218	688.75
570.43	703.75
570.641	665.75
570.853	701.75
571.064	705.75
571.276	706.75
571.487	695.75
571.698	647.75
571.91	640.75
572.121	629.75
572.333	601.75
572.544	592.75
572.755	604.75
572.966	600.75
573.178	586.75
573.389	568.75
573.6	574.75
573.811	553.75
574.023	525.75
574.234	598.75
574.445	584.75
574.656	543.75
574.867	545.75
575.078	560.75
575.289	541.75
575.501	551.75
575.712	531.75
575.923	541.75
576.134	512.75
576.345	537.75
576.556	548.75
576.767	506.75
576.978	490.75
577.188	517.75
577.399	515.75
577.61	512.75
577.821	490.75
578.032	488.75
578.243	491.75
578.454	496.75
578.665	461.75
578.875	475.75
579.086	486.75
579.297	490.75
579.508	466.75
579.718	468.75
579.929	485.75
580.14	464.75
580.35	474.75
580.561	470.75
580.772	476.75
580.982	481.75
581.193	465.75
581.403	457.75
581.614	456.75
581.825	453.75
582.035	472.75
582.246	449.75
582.456	459.75
582.667	482.75
582.877	453.75
583.087	459.75
583.298	452.75
583.508	449.75
583.719	445.75
583.929	456.75
584.139	470.75
584.35	455.75
584.56	441.75
584.77	430.75
584.981	437.75
585.191	441.75
585.401	439.75
585.611	445.75
585.821	442.75
586.032	452.75
586.242	455.75
586.452	438.75
586.662	440.75
586.872	448.75
587.082	432.75
587.292	448.75
587.502	428.75
587.713	442.75
587.923	430.75
588.133	439.75
588.343	439.75
588.553	419.75
588.762	442.75
588.972	439.75
589.182	449.75
589.392	464.75
589.602	443.75
589.812	451.75
590.022	437.75
590.232	439.75
590.441	455.75
590.651	401.75
590.861	430.75
591.071	462.75
591.281	471.75
591.49	456.75
591.7	454.75
591.91	476.75
592.119	469.75
592.329	463.75
592.539	504.75
592.748	514.75
592.958	523.75
593.167	527.75
593.377	551.75
593.587	552.75
593.796	540.75
594.006	579.75
594.215	591.75
594.424	583.75
594.634	557.75
594.843	523.75
595.053	508.75
595.262	511.75
595.472	488.75
595.681	453.75
595.89	463.75
596.1	454.75
596.309	445.75
596.518	424.75
596.727	424.75
596.937	396.75
597.146	413.75
597.355	431.75
597.564	414.75
597.774	391.75
597.983	396.75
598.192	391.75
598.401	373.75
598.61	380.75
598.819	392.75
599.028	387.75
599.237	373.75
599.446	386.75
599.655	379.75
599.864	383.75
600.073	365.75
600.282	372.75
600.491	360.75
600.7	368.75
600.909	346.75
601.118	368.75
601.327	347.75
601.536	361.75
601.745	373.75
601.953	340.75
602.162	347.75
602.371	366.75
602.58	345.75
602.789	362.75
602.997	367.75
603.206	352.75
603.415	363.75
603.623	354.75
603.832	362.75
604.041	341.75
604.249	331.75
604.458	328.75
604.666	348.75
604.875	333.75
605.084	331.75
605.292	348.75
605.501	355.75
605.709	332.75
605.918	333.75
606.126	337.75
606.334	322.75
606.543	326.75
606.751	346.75
606.96	335.75
607.168	331.75
607.376	314.75
607.585	325.75
607.793	325.75
608.001	358.75
608.21	337.75
608.418	358.75
608.626	357.75
608.834	325.75
609.043	323.75
609.251	333.75
609.459	300.75
609.667	331.75
609.875	312.75
610.083	320.75
610.291	315.75
610.499	321.75
610.707	308.75
610.916	295.75
611.124	296.75
611.332	324.75
611.54	332.75
611.748	317.75
611.955	315.75
612.163	332.75
612.371	321.75
612.579	326.75
612.787	321.75
612.995	332.75
613.203	313.75
613.411	317.75
613.618	320.75
613.826	308.75
614.034	310.75
614.242	339.75
614.449	308.75
614.657	320.75
614.865	309.75
615.072	322.75
615.28	319.75
615.488	324.75
615.695	340.75
615.903	323.75
616.111	315.75
616.318	312.75
616.526	322.75
616.733	321.75
616.941	315.75
617.148	301.75
617.356	332.75
617.563	321.75
617.771	328.75
617.978	288.75
618.185	307.75
618.393	298.75
618.6	322.75
618.807	290.75
619.015	314.75
619.222	316.75
619.429	318.75
619.637	309.75
619.844	302.75
620.051	291.75
620.258	299.75
620.466	282.75
620.673	292.75
620.88	287.75
621.087	279.75
621.294	286.75
621.501	287.75
621.708	280.75
621.915	301.75
622.122	287.75
622.329	287.75
622.536	280.75
622.743	279.75
622.95	282.75
623.157	286.75
623.364	278.75
623.571	284.75
623.778	282.75
623.985	277.75
624.192	283.75
624.399	266.75
624.606	265.75
624.812	269.75
625.019	279.75
625.226	276.75
625.433	282.75
625.639	257.75
625.846	261.75
626.053	266.75
626.259	263.75
626.466	273.75
626.673	264.75
626.879	283.75
627.086	255.75
627.293	262.75
627.499	261.75
627.706	254.75
627.912	265.75
628.119	252.75
628.325	266.75
628.532	248.75
628.738	258.75
628.945	252.75
629.151	256.75
629.357	269.75
629.564	258.75
629.77	251.75
629.976	251.75
630.183	235.75
630.389	256.75
630.595	257.75
630.802	232.75
631.008	238.75
631.214	255.75
631.42	229.75
631.627	249.75
631.833	234.75
632.039	240.75
632.245	244.75
632.451	245.75
632.657	251.75
632.863	243.75
633.069	235.75
633.275	235.75
633.481	245.75
633.688	214.75
633.893	236.75
634.099	227.75
634.305	228.75
634.511	221.75
634.717	236.75
634.923	214.75
635.129	227.75
635.335	229.75
635.541	228.75
635.747	213.75
635.952	213.75
636.158	247.75
636.364	234.75
636.57	221.75
636.775	222.75
636.981	220.75
637.187	231.75
637.392	197.75
637.598	192.75
637.804	223.75
638.009	210.75
638.215	219.75
638.421	214.75
638.626	205.75
638.832	229.75
639.037	219.75
639.243	207.75
639.448	227.75
639.654	223.75
639.859	204.75
640.065	215.75
640.27	208.75
640.475	217.75
640.681	185.75
640.886	207.75
641.091	204.75
641.297	204.75
641.502	209.75
641.707	203.75
641.913	211.75
642.118	205.75
642.323	200.75
642.528	208.75
642.733	194.75
642.939	217.75
643.144	222.75
643.349	219.75
643.554	197.75
643.759	200.75
643.964	208.75
644.169	197.75
644.374	199.75
644.579	218.75
644.784	203.75
644.989	199.75
645.194	199.75
645.399	199.75
645.604	204.75
645.809	211.75
646.014	197.75
646.219	210.75
646.423	193.75
646.628	200.75
646.833	185.75
647.038	200.75
647.243	219.75
647.447	208.75
647.652	221.75
647.857	217.75
648.062	209.75
648.266	211.75
648.471	225.75
648.676	222.75
648.88	218.75
649.085	221.75
649.289	209.75
649.494	183.75
649.698	211.75
649.903	194.75
650.107	182.75
650.312	193.75
650.516	187.75
650.721	191.75
650.925	188.75
651.13	190.75
651.334	174.75
651.539	175.75
651.743	184.75
651.947	186.75
652.152	165.75
652.356	186.75
652.56	172.75
652.764	164.75
652.969	168.75
653.173	159.75
653.377	176.75
653.581	156.75
653.785	168.75
653.99	166.75
654.194	161.75
654.398	155.75
654.602	153.75
654.806	144.75
655.01	141.75
655.214	143.75
655.418	147.75
655.622	150.75
655.826	130.75
656.03	134.75
656.234	136.75
656.438	139.75
656.642	139.75
656.846	141.75
657.049	138.75
657.253	151.75
657.457	129.75
657.661	141.75
657.865	134.75
658.068	129.75
658.272	121.75
658.476	116.75
658.68	105.75
658.883	125.75
659.087	84.75
659.291	96.75
659.494	111.75
659.698	104.75
659.901	112.75
660.105	109.75
660.309	97.75
660.512	101.75
660.716	93.75
660.919	97.75
661.123	98.75
661.326	105.75
661.53	109.75
661.733	81.75
661.936	102.75
662.14	106.75
662.343	85.75
662.546	94.75
662.75	85.75
662.953	108.75
663.156	84.75
663.36	90.75
663.563	95.75
663.766	95.75
663.969	87.75
664.173	85.75
664.376	79.75
664.579	69.75
664.782	75.75
664.985	97.75
665.188	83.75
665.391	74.75
665.594	76.75
665.797	85.75
666	81.75
666.203	93.75
666.406	87.75
666.609	83.75
666.812	97.75
667.015	92.75
667.218	77.75
667.421	83.75
667.624	86.75
667.827	80.75
668.03	78.75
668.232	78.75
668.435	85.75
668.638	81.75
668.841	90.75
669.043	85.75
669.246	93.75
669.449	92.75
669.651	73.75
669.854	93.75
670.057	79.75
670.259	85.75
670.462	102.75
670.665	92.75
670.867	76.75
671.07	70.75
671.272	110.75
671.475	91.75
671.677	84.75
671.88	74.75
672.082	85.75
672.284	81.75
672.487	77.75
672.689	88.75
672.892	82.75
