Data from NiCl2@0.25M.TitratingCurve.Agarose3%dH2O.NegLispCup.LampEnergy10.LIBS07252019_HRD10591_18-24-31-573.txt Node
Date: Thu Jul 25 18:24:31 EDT 2019
User: cochatt
Spectrometer: HR+D1059
Trigger mode: 1
Integration Time (sec): 1.000000E-1
Scans to average: 1
Electric dark correction enabled: true
Nonlinearity correction enabled: false
Boxcar width: 0
XAxis mode: Wavelengths
Number of Pixels in Spectrum: 2048
>>>>>Begin Spectral Data<<<<<
223.165	-13.31
223.4	-13.31
223.635	-13.31
223.869	-17.31
224.104	-15.31
224.338	-8.31
224.573	-21.31
224.808	-12.31
225.042	-4.31
225.277	14.69
225.511	-9.31
225.746	-6.31
225.98	3.69
226.215	10.69
226.449	12.69
226.683	16.69
226.918	20.69
227.152	28.69
227.387	37.69
227.621	42.69
227.856	37.69
228.09	38.69
228.324	47.69
228.559	67.69
228.793	66.69
229.027	105.69
229.262	124.69
229.496	115.69
229.73	105.69
229.964	135.69
230.199	151.69
230.433	142.69
230.667	149.69
230.901	136.69
231.136	134.69
231.37	162.69
231.604	135.69
231.838	147.69
232.072	132.69
232.306	138.69
232.541	156.69
232.775	154.69
233.009	156.69
233.243	146.69
233.477	148.69
233.711	156.69
233.945	166.69
234.179	142.69
234.413	169.69
234.647	146.69
234.881	161.69
235.115	149.69
235.349	151.69
235.583	154.69
235.817	157.69
236.051	161.69
236.285	156.69
236.519	141.69
236.753	144.69
236.987	161.69
237.221	168.69
237.455	159.69
237.689	196.69
237.922	168.69
238.156	167.69
238.39	169.69
238.624	171.69
238.858	162.69
239.091	200.69
239.325	173.69
239.559	174.69
239.793	179.69
240.027	166.69
240.26	178.69
240.494	167.69
240.728	180.69
240.961	180.69
241.195	180.69
241.429	189.69
241.662	186.69
241.896	193.69
242.13	195.69
242.363	182.69
242.597	169.69
242.83	189.69
243.064	190.69
243.298	208.69
243.531	204.69
243.765	216.69
243.998	208.69
244.232	223.69
244.465	207.69
244.699	211.69
244.932	218.69
245.166	225.69
245.399	228.69
245.633	218.69
245.866	222.69
246.099	239.69
246.333	227.69
246.566	218.69
246.8	242.69
247.033	235.69
247.266	221.69
247.5	220.69
247.733	235.69
247.966	227.69
248.2	230.69
248.433	236.69
248.666	239.69
248.899	235.69
249.133	242.69
249.366	257.69
249.599	234.69
249.832	253.69
250.066	259.69
250.299	254.69
250.532	250.69
250.765	251.69
250.998	247.69
251.231	249.69
251.465	257.69
251.698	276.69
251.931	261.69
252.164	269.69
252.397	250.69
252.63	280.69
252.863	263.69
253.096	259.69
253.329	261.69
253.562	259.69
253.795	284.69
254.028	290.69
254.261	291.69
254.494	276.69
254.727	272.69
254.96	262.69
255.193	278.69
255.426	298.69
255.659	285.69
255.892	293.69
256.124	291.69
256.357	305.69
256.59	283.69
256.823	302.69
257.056	307.69
257.289	301.69
257.521	313.69
257.754	307.69
257.987	311.69
258.22	300.69
258.452	321.69
258.685	305.69
258.918	322.69
259.151	313.69
259.383	314.69
259.616	319.69
259.849	316.69
260.081	309.69
260.314	340.69
260.547	309.69
260.779	317.69
261.012	340.69
261.244	321.69
261.477	324.69
261.71	330.69
261.942	339.69
262.175	322.69
262.407	346.69
262.64	340.69
262.872	323.69
263.105	340.69
263.337	357.69
263.57	344.69
263.802	361.69
264.035	361.69
264.267	344.69
264.499	352.69
264.732	331.69
264.964	334.69
265.197	344.69
265.429	335.69
265.661	342.69
265.894	360.69
266.126	352.69
266.358	354.69
266.591	372.69
266.823	365.69
267.055	351.69
267.287	358.69
267.52	371.69
267.752	355.69
267.984	352.69
268.216	373.69
268.448	373.69
268.681	374.69
268.913	372.69
269.145	366.69
269.377	349.69
269.609	385.69
269.841	390.69
270.073	373.69
270.306	380.69
270.538	385.69
270.77	384.69
271.002	377.69
271.234	406.69
271.466	399.69
271.698	380.69
271.93	408.69
272.162	407.69
272.394	414.69
272.626	391.69
272.858	406.69
273.09	394.69
273.322	415.69
273.553	408.69
273.785	403.69
274.017	418.69
274.249	426.69
274.481	406.69
274.713	425.69
274.945	405.69
275.176	411.69
275.408	434.69
275.64	402.69
275.872	431.69
276.104	426.69
276.335	420.69
276.567	414.69
276.799	429.69
277.031	436.69
277.262	414.69
277.494	437.69
277.726	420.69
277.957	426.69
278.189	451.69
278.421	452.69
278.652	451.69
278.884	464.69
279.115	422.69
279.347	449.69
279.579	445.69
279.81	445.69
280.042	430.69
280.273	438.69
280.505	461.69
280.736	453.69
280.968	476.69
281.199	479.69
281.431	462.69
281.662	457.69
281.894	461.69
282.125	463.69
282.356	479.69
282.588	492.69
282.819	461.69
283.051	491.69
283.282	475.69
283.513	457.69
283.745	480.69
283.976	480.69
284.207	492.69
284.439	483.69
284.67	490.69
284.901	501.69
285.132	513.69
285.364	483.69
285.595	497.69
285.826	509.69
286.057	488.69
286.288	519.69
286.52	509.69
286.751	493.69
286.982	511.69
287.213	524.69
287.444	524.69
287.675	514.69
287.906	527.69
288.138	530.69
288.369	505.69
288.6	510.69
288.831	515.69
289.062	522.69
289.293	501.69
289.524	517.69
289.755	531.69
289.986	522.69
290.217	518.69
290.448	515.69
290.679	522.69
290.91	531.69
291.141	516.69
291.371	527.69
291.602	537.69
291.833	526.69
292.064	533.69
292.295	542.69
292.526	545.69
292.757	532.69
292.987	547.69
293.218	529.69
293.449	551.69
293.68	540.69
293.91	531.69
294.141	564.69
294.372	527.69
294.603	541.69
294.833	538.69
295.064	549.69
295.295	552.69
295.525	543.69
295.756	552.69
295.987	547.69
296.217	556.69
296.448	534.69
296.679	562.69
296.909	547.69
297.14	555.69
297.37	582.69
297.601	577.69
297.831	562.69
298.062	548.69
298.292	581.69
298.523	595.69
298.753	581.69
298.984	583.69
299.214	587.69
299.445	581.69
299.675	582.69
299.905	592.69
300.136	568.69
300.366	597.69
300.597	606.69
300.827	591.69
301.057	612.69
301.288	606.69
301.518	610.69
301.748	600.69
301.979	640.69
302.209	622.69
302.439	617.69
302.669	599.69
302.9	616.69
303.13	593.69
303.36	609.69
303.59	608.69
303.82	609.69
304.051	590.69
304.281	605.69
304.511	598.69
304.741	603.69
304.971	625.69
305.201	616.69
305.431	587.69
305.661	602.69
305.891	587.69
306.121	612.69
306.352	593.69
306.582	603.69
306.812	572.69
307.042	581.69
307.272	607.69
307.502	616.69
307.731	588.69
307.961	602.69
308.191	602.69
308.421	584.69
308.651	585.69
308.881	589.69
309.111	606.69
309.341	575.69
309.571	574.69
309.8	571.69
310.03	611.69
310.26	591.69
310.49	594.69
310.72	617.69
310.949	602.69
311.179	619.69
311.409	622.69
311.639	603.69
311.868	592.69
312.098	631.69
312.328	613.69
312.557	598.69
312.787	618.69
313.017	623.69
313.246	621.69
313.476	637.69
313.706	635.69
313.935	638.69
314.165	620.69
314.394	645.69
314.624	644.69
314.853	648.69
315.083	641.69
315.312	634.69
315.542	635.69
315.771	620.69
316.001	629.69
316.23	619.69
316.46	631.69
316.689	662.69
316.919	622.69
317.148	626.69
317.377	637.69
317.607	642.69
317.836	615.69
318.065	609.69
318.295	634.69
318.524	639.69
318.753	618.69
318.983	621.69
319.212	634.69
319.441	619.69
319.67	627.69
319.9	614.69
320.129	631.69
320.358	652.69
320.587	632.69
320.816	611.69
321.046	616.69
321.275	624.69
321.504	633.69
321.733	617.69
321.962	631.69
322.191	634.69
322.42	648.69
322.649	629.69
322.878	650.69
323.108	639.69
323.337	645.69
323.566	656.69
323.795	673.69
324.024	638.69
324.253	630.69
324.482	648.69
324.71	660.69
324.939	641.69
325.168	651.69
325.397	638.69
325.626	659.69
325.855	681.69
326.084	687.69
326.313	698.69
326.542	660.69
326.77	693.69
326.999	650.69
327.228	670.69
327.457	673.69
327.686	690.69
327.914	672.69
328.143	690.69
328.372	676.69
328.6	683.69
328.829	703.69
329.058	707.69
329.287	689.69
329.515	690.69
329.744	710.69
329.972	698.69
330.201	689.69
330.43	717.69
330.658	714.69
330.887	712.69
331.115	691.69
331.344	715.69
331.572	731.69
331.801	763.69
332.03	760.69
332.258	775.69
332.486	793.69
332.715	833.69
332.943	831.69
333.172	883.69
333.4	894.69
333.629	920.69
333.857	958.69
334.085	926.69
334.314	936.69
334.542	890.69
334.771	902.69
334.999	884.69
335.227	878.69
335.455	856.69
335.684	841.69
335.912	865.69
336.14	808.69
336.369	823.69
336.597	867.69
336.825	848.69
337.053	843.69
337.281	805.69
337.51	814.69
337.738	806.69
337.966	784.69
338.194	745.69
338.422	779.69
338.65	748.69
338.878	760.69
339.106	743.69
339.334	753.69
339.562	751.69
339.79	746.69
340.018	726.69
340.246	723.69
340.474	725.69
340.702	726.69
340.93	713.69
341.158	740.69
341.386	746.69
341.614	738.69
341.842	723.69
342.07	706.69
342.298	682.69
342.526	713.69
342.754	726.69
342.981	742.69
343.209	736.69
343.437	787.69
343.665	813.69
343.893	850.69
344.12	909.69
344.348	856.69
344.576	824.69
344.804	807.69
345.031	773.69
345.259	730.69
345.487	705.69
345.714	705.69
345.942	733.69
346.17	715.69
346.397	712.69
346.625	722.69
346.853	671.69
347.08	666.69
347.308	685.69
347.535	716.69
347.763	721.69
347.99	699.69
348.218	691.69
348.445	664.69
348.673	683.69
348.9	693.69
349.128	713.69
349.355	710.69
349.583	713.69
349.81	709.69
350.037	669.69
350.265	692.69
350.492	675.69
350.72	686.69
350.947	687.69
351.174	665.69
351.402	700.69
351.629	686.69
351.856	660.69
352.083	667.69
352.311	625.69
352.538	649.69
352.765	676.69
352.992	656.69
353.22	659.69
353.447	654.69
353.674	640.69
353.901	644.69
354.128	644.69
354.355	671.69
354.583	661.69
354.81	666.69
355.037	658.69
355.264	655.69
355.491	683.69
355.718	675.69
355.945	685.69
356.172	666.69
356.399	690.69
356.626	683.69
356.853	704.69
357.08	676.69
357.307	684.69
357.534	700.69
357.761	683.69
357.988	677.69
358.215	682.69
358.441	661.69
358.668	685.69
358.895	661.69
359.122	693.69
359.349	698.69
359.576	686.69
359.802	674.69
360.029	691.69
360.256	669.69
360.483	701.69
360.709	681.69
360.936	692.69
361.163	659.69
361.39	667.69
361.616	679.69
361.843	653.69
362.07	701.69
362.296	683.69
362.523	653.69
362.749	662.69
362.976	648.69
363.203	678.69
363.429	676.69
363.656	661.69
363.882	692.69
364.109	663.69
364.335	661.69
364.562	673.69
364.788	651.69
365.015	676.69
365.241	651.69
365.468	680.69
365.694	666.69
365.92	643.69
366.147	664.69
366.373	667.69
366.599	679.69
366.826	658.69
367.052	673.69
367.278	682.69
367.505	680.69
367.731	678.69
367.957	694.69
368.184	676.69
368.41	683.69
368.636	681.69
368.862	683.69
369.089	690.69
369.315	700.69
369.541	713.69
369.767	692.69
369.993	718.69
370.219	698.69
370.445	685.69
370.672	723.69
370.898	718.69
371.124	731.69
371.35	715.69
371.576	735.69
371.802	702.69
372.028	678.69
372.254	730.69
372.48	745.69
372.706	742.69
372.932	747.69
373.158	765.69
373.384	762.69
373.61	706.69
373.835	737.69
374.061	749.69
374.287	749.69
374.513	770.69
374.739	789.69
374.965	789.69
375.191	856.69
375.416	802.69
375.642	786.69
375.868	761.69
376.094	784.69
376.319	771.69
376.545	757.69
376.771	745.69
376.997	728.69
377.222	734.69
377.448	745.69
377.674	702.69
377.899	753.69
378.125	723.69
378.35	747.69
378.576	713.69
378.802	713.69
379.027	742.69
379.253	748.69
379.478	733.69
379.704	723.69
379.929	713.69
380.155	727.69
380.38	740.69
380.606	757.69
380.831	729.69
381.057	744.69
381.282	742.69
381.507	716.69
381.733	738.69
381.958	734.69
382.184	754.69
382.409	791.69
382.634	774.69
382.86	775.69
383.085	772.69
383.31	782.69
383.535	810.69
383.761	814.69
383.986	806.69
384.211	830.69
384.436	846.69
384.662	889.69
384.887	875.69
385.112	886.69
385.337	891.69
385.562	907.69
385.787	871.69
386.013	911.69
386.238	904.69
386.463	903.69
386.688	906.69
386.913	917.69
387.138	865.69
387.363	886.69
387.588	901.69
387.813	886.69
388.038	846.69
388.263	894.69
388.488	888.69
388.713	897.69
388.938	895.69
389.163	875.69
389.387	883.69
389.612	873.69
389.837	852.69
390.062	826.69
390.287	862.69
390.512	871.69
390.736	904.69
390.961	897.69
391.186	895.69
391.411	915.69
391.636	975.69
391.86	987.69
392.085	996.69
392.31	1010.69
392.534	984.69
392.759	970.69
392.984	950.69
393.208	941.69
393.433	911.69
393.658	936.69
393.882	956.69
394.107	946.69
394.331	955.69
394.556	958.69
394.78	942.69
395.005	971.69
395.229	958.69
395.454	969.69
395.678	1035.69
395.903	978.69
396.127	992.69
396.352	959.69
396.576	961.69
396.801	949.69
397.025	963.69
397.249	995.69
397.474	988.69
397.698	1023.69
397.922	1005.69
398.147	998.69
398.371	1000.69
398.595	1045.69
398.82	1112.69
399.044	1193.69
399.268	1305.69
399.492	1474.69
399.717	1659.69
399.941	1682.69
400.165	1519.69
400.389	1370.69
400.613	1256.69
400.837	1208.69
401.062	1188.69
401.286	1133.69
401.51	1133.69
401.734	1158.69
401.958	1119.69
402.182	1139.69
402.406	1191.69
402.63	1150.69
402.854	1177.69
403.078	1205.69
403.302	1220.69
403.526	1229.69
403.75	1252.69
403.974	1289.69
404.198	1286.69
404.422	1284.69
404.645	1263.69
404.869	1276.69
405.093	1270.69
405.317	1271.69
405.541	1217.69
405.765	1249.69
405.988	1217.69
406.212	1254.69
406.436	1223.69
406.66	1284.69
406.883	1287.69
407.107	1371.69
407.331	1391.69
407.555	1453.69
407.778	1457.69
408.002	1388.69
408.226	1396.69
408.449	1329.69
408.673	1327.69
408.896	1311.69
409.12	1287.69
409.344	1291.69
409.567	1281.69
409.791	1248.69
410.014	1244.69
410.238	1231.69
410.461	1242.69
410.685	1229.69
410.908	1194.69
411.132	1206.69
411.355	1132.69
411.578	1183.69
411.802	1164.69
412.025	1193.69
412.249	1169.69
412.472	1191.69
412.695	1149.69
412.919	1141.69
413.142	1123.69
413.365	1123.69
413.589	1113.69
413.812	1102.69
414.035	1111.69
414.258	1090.69
414.482	1105.69
414.705	1165.69
414.928	1139.69
415.151	1142.69
415.374	1109.69
415.597	1103.69
415.821	1111.69
416.044	1095.69
416.267	1076.69
416.49	1103.69
416.713	1087.69
416.936	1083.69
417.159	1097.69
417.382	1091.69
417.605	1085.69
417.828	1065.69
418.051	1103.69
418.274	1109.69
418.497	1115.69
418.72	1156.69
418.943	1148.69
419.166	1183.69
419.389	1299.69
419.611	1220.69
419.834	1215.69
420.057	1159.69
420.28	1141.69
420.503	1121.69
420.726	1098.69
420.948	1080.69
421.171	1105.69
421.394	1109.69
421.617	1089.69
421.839	1108.69
422.062	1142.69
422.285	1124.69
422.507	1142.69
422.73	1089.69
422.953	1122.69
423.175	1164.69
423.398	1145.69
423.621	1132.69
423.843	1155.69
424.066	1173.69
424.288	1149.69
424.511	1127.69
424.733	1153.69
424.956	1122.69
425.178	1139.69
425.401	1110.69
425.623	1102.69
425.846	1078.69
426.068	1089.69
426.291	1055.69
426.513	1058.69
426.735	1036.69
426.958	1060.69
427.18	1014.69
427.402	1012.69
427.625	1011.69
427.847	990.69
428.069	995.69
428.292	995.69
428.514	959.69
428.736	978.69
428.958	979.69
429.181	953.69
429.403	951.69
429.625	995.69
429.847	954.69
430.069	935.69
430.292	971.69
430.514	973.69
430.736	952.69
430.958	974.69
431.18	964.69
431.402	938.69
431.624	971.69
431.846	997.69
432.068	987.69
432.29	984.69
432.512	965.69
432.734	1019.69
432.956	952.69
433.178	984.69
433.4	988.69
433.622	994.69
433.844	1013.69
434.066	1016.69
434.287	1006.69
434.509	1045.69
434.731	1068.69
434.953	1090.69
435.175	1119.69
435.397	1106.69
435.618	1025.69
435.84	1010.69
436.062	965.69
436.284	976.69
436.505	997.69
436.727	976.69
436.949	999.69
437.17	980.69
437.392	971.69
437.614	967.69
437.835	954.69
438.057	957.69
438.278	926.69
438.5	894.69
438.721	916.69
438.943	977.69
439.165	949.69
439.386	943.69
439.608	973.69
439.829	956.69
440.05	973.69
440.272	964.69
440.493	979.69
440.715	1006.69
440.936	1010.69
441.158	1041.69
441.379	1053.69
441.6	1097.69
441.822	1107.69
442.043	1084.69
442.264	1059.69
442.486	1027.69
442.707	1037.69
442.928	1058.69
443.149	1087.69
443.371	1067.69
443.592	1121.69
443.813	1105.69
444.034	1109.69
444.255	1148.69
444.476	1198.69
444.698	1255.69
444.919	1305.69
445.14	1397.69
445.361	1219.69
445.582	1131.69
445.803	1075.69
446.024	1055.69
446.245	1018.69
446.466	1031.69
446.687	989.69
446.908	983.69
447.129	941.69
447.35	932.69
447.571	939.69
447.792	923.69
448.013	928.69
448.234	898.69
448.455	892.69
448.675	898.69
448.896	881.69
449.117	893.69
449.338	884.69
449.559	871.69
449.779	891.69
450	862.69
450.221	897.69
450.442	890.69
450.662	904.69
450.883	919.69
451.104	901.69
451.324	927.69
451.545	876.69
451.766	919.69
451.986	903.69
452.207	895.69
452.428	929.69
452.648	884.69
452.869	885.69
453.089	852.69
453.31	889.69
453.53	878.69
453.751	893.69
453.971	857.69
454.192	871.69
454.412	861.69
454.633	861.69
454.853	841.69
455.073	830.69
455.294	837.69
455.514	832.69
455.734	838.69
455.955	815.69
456.175	808.69
456.395	830.69
456.616	819.69
456.836	831.69
457.056	852.69
457.276	828.69
457.497	841.69
457.717	857.69
457.937	844.69
458.157	851.69
458.377	859.69
458.598	897.69
458.818	945.69
459.038	927.69
459.258	981.69
459.478	1013.69
459.698	1028.69
459.918	1037.69
460.138	1083.69
460.358	1157.69
460.578	1191.69
460.798	1176.69
461.018	1188.69
461.238	1165.69
461.458	1151.69
461.678	1153.69
461.898	1190.69
462.118	1183.69
462.338	1238.69
462.558	1310.69
462.777	1355.69
462.997	1450.69
463.217	1549.69
463.437	1561.69
463.657	1455.69
463.876	1375.69
464.096	1360.69
464.316	1382.69
464.536	1401.69
464.755	1321.69
464.975	1281.69
465.195	1231.69
465.414	1168.69
465.634	1073.69
465.854	1039.69
466.073	1040.69
466.293	1001.69
466.512	940.69
466.732	915.69
466.951	960.69
467.171	935.69
467.391	955.69
467.61	949.69
467.829	931.69
468.049	931.69
468.268	890.69
468.488	893.69
468.707	914.69
468.927	905.69
469.146	895.69
469.365	927.69
469.585	922.69
469.804	957.69
470.023	942.69
470.243	970.69
470.462	941.69
470.681	975.69
470.901	971.69
471.12	948.69
471.339	939.69
471.558	927.69
471.777	957.69
471.997	919.69
472.216	912.69
472.435	899.69
472.654	892.69
472.873	887.69
473.092	878.69
473.311	894.69
473.53	886.69
473.749	876.69
473.968	889.69
474.187	871.69
474.406	881.69
474.625	880.69
474.844	891.69
475.063	908.69
475.282	886.69
475.501	870.69
475.72	875.69
475.939	873.69
476.158	925.69
476.377	935.69
476.596	937.69
476.814	959.69
477.033	939.69
477.252	950.69
477.471	989.69
477.69	990.69
477.908	1025.69
478.127	1027.69
478.346	1042.69
478.564	1071.69
478.783	1059.69
479.002	1108.69
479.22	1118.69
479.439	1110.69
479.658	1121.69
479.876	1131.69
480.095	1107.69
480.313	1170.69
480.532	1197.69
480.751	1177.69
480.969	1139.69
481.188	1097.69
481.406	1053.69
481.624	1034.69
481.843	1017.69
482.061	1020.69
482.28	1025.69
482.498	1018.69
482.717	979.69
482.935	1009.69
483.153	994.69
483.372	1023.69
483.59	1020.69
483.808	994.69
484.027	998.69
484.245	1012.69
484.463	1028.69
484.681	1018.69
484.9	1037.69
485.118	1026.69
485.336	1038.69
485.554	1012.69
485.772	1033.69
485.99	1053.69
486.209	1079.69
486.427	1081.69
486.645	1050.69
486.863	1062.69
487.081	1048.69
487.299	1037.69
487.517	1036.69
487.735	1051.69
487.953	1057.69
488.171	1080.69
488.389	1039.69
488.607	1038.69
488.825	1042.69
489.043	1058.69
489.261	1028.69
489.479	1054.69
489.696	1033.69
489.914	1030.69
490.132	1045.69
490.35	1075.69
490.568	1047.69
490.786	1063.69
491.003	1054.69
491.221	1070.69
491.439	1053.69
491.657	1089.69
491.874	1087.69
492.092	1091.69
492.31	1074.69
492.527	1078.69
492.745	1086.69
492.963	1133.69
493.18	1103.69
493.398	1114.69
493.615	1124.69
493.833	1111.69
494.05	1103.69
494.268	1103.69
494.485	1141.69
494.703	1156.69
494.92	1146.69
495.138	1116.69
495.355	1126.69
495.573	1162.69
495.79	1171.69
496.008	1151.69
496.225	1132.69
496.442	1180.69
496.66	1186.69
496.877	1233.69
497.094	1208.69
497.312	1253.69
497.529	1295.69
497.746	1364.69
497.963	1364.69
498.181	1436.69
498.398	1469.69
498.615	1590.69
498.832	1665.69
499.049	1799.69
499.267	1944.69
499.484	2155.69
499.701	2351.69
499.918	2567.69
500.135	2894.69
500.352	3284.69
500.569	3416.69
500.786	3397.69
501.003	3159.69
501.22	2955.69
501.437	2574.69
501.654	2257.69
501.871	2046.69
502.088	1896.69
502.305	1829.69
502.522	1713.69
502.739	1619.69
502.956	1540.69
503.172	1485.69
503.389	1435.69
503.606	1370.69
503.823	1333.69
504.04	1332.69
504.256	1363.69
504.473	1349.69
504.69	1388.69
504.907	1344.69
505.123	1260.69
505.34	1176.69
505.557	1165.69
505.773	1133.69
505.99	1091.69
506.207	1086.69
506.423	1057.69
506.64	1058.69
506.856	1044.69
507.073	1037.69
507.289	1035.69
507.506	968.69
507.722	979.69
507.939	1000.69
508.155	987.69
508.372	960.69
508.588	962.69
508.805	954.69
509.021	971.69
509.238	953.69
509.454	943.69
509.67	939.69
509.887	950.69
510.103	953.69
510.319	919.69
510.536	916.69
510.752	923.69
510.968	923.69
511.184	905.69
511.401	917.69
511.617	898.69
511.833	909.69
512.049	919.69
512.265	892.69
512.481	921.69
512.698	920.69
512.914	898.69
513.13	911.69
513.346	903.69
513.562	933.69
513.778	915.69
513.994	935.69
514.21	923.69
514.426	916.69
514.642	927.69
514.858	957.69
515.074	966.69
515.29	954.69
515.506	986.69
515.721	987.69
515.937	986.69
516.153	985.69
516.369	1025.69
516.585	1056.69
516.801	1109.69
517.016	1128.69
517.232	1187.69
517.448	1249.69
517.664	1269.69
517.879	1301.69
518.095	1302.69
518.311	1266.69
518.527	1193.69
518.742	1188.69
518.958	1103.69
519.173	1097.69
519.389	1044.69
519.605	1033.69
519.82	955.69
520.036	949.69
520.251	951.69
520.467	953.69
520.682	936.69
520.898	926.69
521.113	932.69
521.329	925.69
521.544	891.69
521.76	911.69
521.975	916.69
522.19	868.69
522.406	901.69
522.621	892.69
522.836	867.69
523.052	837.69
523.267	865.69
523.482	860.69
523.698	846.69
523.913	833.69
524.128	855.69
524.343	851.69
524.559	838.69
524.774	847.69
524.989	858.69
525.204	823.69
525.419	846.69
525.634	838.69
525.849	837.69
526.064	817.69
526.28	852.69
526.495	831.69
526.71	827.69
526.925	796.69
527.14	814.69
527.355	796.69
527.57	831.69
527.785	846.69
527.999	847.69
528.214	836.69
528.429	828.69
528.644	863.69
528.859	830.69
529.074	853.69
529.289	829.69
529.503	819.69
529.718	831.69
529.933	833.69
530.148	794.69
530.363	847.69
530.577	809.69
530.792	810.69
531.007	819.69
531.221	827.69
531.436	819.69
531.651	823.69
531.865	818.69
532.08	809.69
532.295	817.69
532.509	843.69
532.724	827.69
532.938	800.69
533.153	831.69
533.367	811.69
533.582	811.69
533.796	848.69
534.011	807.69
534.225	836.69
534.44	827.69
534.654	810.69
534.868	827.69
535.083	810.69
535.297	841.69
535.511	787.69
535.726	779.69
535.94	789.69
536.154	782.69
536.369	777.69
536.583	774.69
536.797	787.69
537.011	767.69
537.225	774.69
537.44	757.69
537.654	780.69
537.868	775.69
538.082	724.69
538.296	740.69
538.51	736.69
538.724	769.69
538.938	756.69
539.153	761.69
539.367	744.69
539.581	757.69
539.795	738.69
540.009	741.69
540.222	746.69
540.436	735.69
540.65	749.69
540.864	727.69
541.078	746.69
541.292	726.69
541.506	733.69
541.72	727.69
541.934	745.69
542.147	771.69
542.361	766.69
542.575	740.69
542.789	746.69
543.002	731.69
543.216	696.69
543.43	719.69
543.644	736.69
543.857	714.69
544.071	715.69
544.285	754.69
544.498	729.69
544.712	731.69
544.925	740.69
545.139	755.69
545.352	761.69
545.566	754.69
545.779	786.69
545.993	768.69
546.206	767.69
546.42	734.69
546.633	739.69
546.847	750.69
547.06	738.69
547.274	727.69
547.487	755.69
547.7	781.69
547.914	753.69
548.127	751.69
548.34	765.69
548.554	745.69
548.767	753.69
548.98	774.69
549.193	793.69
549.407	782.69
549.62	801.69
549.833	769.69
550.046	767.69
550.259	763.69
550.473	753.69
550.686	765.69
550.899	732.69
551.112	767.69
551.325	739.69
551.538	766.69
551.751	739.69
551.964	744.69
552.177	743.69
552.39	756.69
552.603	765.69
552.816	795.69
553.029	827.69
553.242	824.69
553.455	841.69
553.667	830.69
553.88	813.69
554.093	805.69
554.306	770.69
554.519	771.69
554.732	730.69
554.944	753.69
555.157	733.69
555.37	717.69
555.583	709.69
555.795	687.69
556.008	691.69
556.221	670.69
556.433	659.69
556.646	675.69
556.859	632.69
557.071	693.69
557.284	663.69
557.496	663.69
557.709	628.69
557.921	639.69
558.134	649.69
558.346	641.69
558.559	638.69
558.771	634.69
558.984	641.69
559.196	635.69
559.409	627.69
559.621	626.69
559.833	632.69
560.046	618.69
560.258	616.69
560.47	611.69
560.683	618.69
560.895	644.69
561.107	614.69
561.32	607.69
561.532	633.69
561.744	630.69
561.956	606.69
562.168	634.69
562.381	632.69
562.593	643.69
562.805	647.69
563.017	621.69
563.229	629.69
563.441	624.69
563.653	652.69
563.865	662.69
564.077	641.69
564.289	644.69
564.501	669.69
564.713	661.69
564.925	656.69
565.137	693.69
565.349	707.69
565.561	722.69
565.773	735.69
565.985	789.69
566.197	845.69
566.408	888.69
566.62	971.69
566.832	1041.69
567.044	1045.69
567.255	1055.69
567.467	1069.69
567.679	1106.69
567.891	1174.69
568.102	1193.69
568.314	1113.69
568.526	1040.69
568.737	968.69
568.949	882.69
569.161	807.69
569.372	762.69
569.584	691.69
569.795	694.69
570.007	687.69
570.218	667.69
570.43	674.69
570.641	666.69
570.853	662.69
571.064	665.69
571.276	648.69
571.487	623.69
571.698	577.69
571.91	577.69
572.121	598.69
572.333	569.69
572.544	551.69
572.755	545.69
572.966	539.69
573.178	543.69
573.389	514.69
573.6	528.69
573.811	518.69
574.023	519.69
574.234	513.69
574.445	535.69
574.656	517.69
574.867	518.69
575.078	542.69
575.289	518.69
575.501	524.69
575.712	499.69
575.923	502.69
576.134	493.69
576.345	501.69
576.556	510.69
576.767	491.69
576.978	497.69
577.188	478.69
577.399	490.69
577.61	474.69
577.821	472.69
578.032	462.69
578.243	466.69
578.454	466.69
578.665	464.69
578.875	443.69
579.086	475.69
579.297	443.69
579.508	452.69
579.718	451.69
579.929	455.69
580.14	463.69
580.35	448.69
580.561	457.69
580.772	455.69
580.982	455.69
581.193	431.69
581.403	445.69
581.614	447.69
581.825	425.69
582.035	441.69
582.246	456.69
582.456	445.69
582.667	448.69
582.877	423.69
583.087	437.69
583.298	405.69
583.508	438.69
583.719	424.69
583.929	430.69
584.139	442.69
584.35	433.69
584.56	417.69
584.77	424.69
584.981	421.69
585.191	440.69
585.401	433.69
585.611	400.69
585.821	429.69
586.032	415.69
586.242	418.69
586.452	428.69
586.662	408.69
586.872	399.69
587.082	426.69
587.292	412.69
587.502	396.69
587.713	408.69
587.923	412.69
588.133	425.69
588.343	423.69
588.553	422.69
588.762	409.69
588.972	420.69
589.182	425.69
589.392	410.69
589.602	423.69
589.812	428.69
590.022	413.69
590.232	405.69
590.441	422.69
590.651	434.69
590.861	457.69
591.071	438.69
591.281	429.69
591.49	445.69
591.7	443.69
591.91	447.69
592.119	457.69
592.329	467.69
592.539	457.69
592.748	483.69
592.958	492.69
593.167	504.69
593.377	503.69
593.587	531.69
593.796	515.69
594.006	541.69
594.215	543.69
594.424	512.69
594.634	515.69
594.843	514.69
595.053	489.69
595.262	471.69
595.472	462.69
595.681	442.69
595.89	443.69
596.1	428.69
596.309	426.69
596.518	401.69
596.727	405.69
596.937	406.69
597.146	405.69
597.355	376.69
597.564	380.69
597.774	397.69
597.983	357.69
598.192	378.69
598.401	376.69
598.61	377.69
598.819	348.69
599.028	341.69
599.237	365.69
599.446	345.69
599.655	350.69
599.864	351.69
600.073	351.69
600.282	346.69
600.491	357.69
600.7	348.69
600.909	366.69
601.118	334.69
601.327	345.69
601.536	363.69
601.745	347.69
601.953	337.69
602.162	339.69
602.371	363.69
602.58	351.69
602.789	343.69
602.997	334.69
603.206	355.69
603.415	313.69
603.623	337.69
603.832	331.69
604.041	338.69
604.249	338.69
604.458	358.69
604.666	319.69
604.875	333.69
605.084	318.69
605.292	325.69
605.501	330.69
605.709	318.69
605.918	316.69
606.126	325.69
606.334	322.69
606.543	328.69
606.751	326.69
606.96	315.69
607.168	313.69
607.376	313.69
607.585	321.69
607.793	298.69
608.001	326.69
608.21	313.69
608.418	310.69
608.626	321.69
608.834	300.69
609.043	316.69
609.251	309.69
609.459	314.69
609.667	327.69
609.875	309.69
610.083	301.69
610.291	299.69
610.499	300.69
610.707	305.69
610.916	289.69
611.124	289.69
611.332	321.69
611.54	327.69
611.748	314.69
611.955	295.69
612.163	286.69
612.371	308.69
612.579	312.69
612.787	289.69
612.995	292.69
613.203	284.69
613.411	331.69
613.618	302.69
613.826	299.69
614.034	301.69
614.242	303.69
614.449	291.69
614.657	284.69
614.865	284.69
615.072	305.69
615.28	305.69
615.488	291.69
615.695	281.69
615.903	288.69
616.111	283.69
616.318	324.69
616.526	283.69
616.733	302.69
616.941	299.69
617.148	296.69
617.356	283.69
617.563	285.69
617.771	292.69
617.978	287.69
618.185	285.69
618.393	298.69
618.6	302.69
618.807	291.69
619.015	277.69
619.222	302.69
619.429	286.69
619.637	293.69
619.844	282.69
620.051	280.69
620.258	279.69
620.466	275.69
620.673	274.69
620.88	259.69
621.087	261.69
621.294	280.69
621.501	269.69
621.708	289.69
621.915	277.69
622.122	293.69
622.329	279.69
622.536	290.69
622.743	283.69
622.95	299.69
623.157	287.69
623.364	280.69
623.571	287.69
623.778	261.69
623.985	264.69
624.192	279.69
624.399	290.69
624.606	259.69
624.812	265.69
625.019	275.69
625.226	277.69
625.433	263.69
625.639	260.69
625.846	262.69
626.053	241.69
626.259	261.69
626.466	258.69
626.673	264.69
626.879	242.69
627.086	246.69
627.293	245.69
627.499	239.69
627.706	274.69
627.912	247.69
628.119	241.69
628.325	255.69
628.532	247.69
628.738	243.69
628.945	245.69
629.151	246.69
629.357	247.69
629.564	243.69
629.77	236.69
629.976	240.69
630.183	229.69
630.389	230.69
630.595	250.69
630.802	245.69
631.008	225.69
631.214	241.69
631.42	242.69
631.627	225.69
631.833	229.69
632.039	229.69
632.245	237.69
632.451	249.69
632.657	231.69
632.863	234.69
633.069	241.69
633.275	234.69
633.481	221.69
633.688	231.69
633.893	245.69
634.099	222.69
634.305	229.69
634.511	219.69
634.717	222.69
634.923	218.69
635.129	216.69
635.335	232.69
635.541	218.69
635.747	203.69
635.952	212.69
636.158	238.69
636.364	233.69
636.57	223.69
636.775	212.69
636.981	216.69
637.187	228.69
637.392	230.69
637.598	208.69
637.804	217.69
638.009	212.69
638.215	215.69
638.421	218.69
638.626	217.69
638.832	207.69
639.037	212.69
639.243	219.69
639.448	202.69
639.654	204.69
639.859	205.69
640.065	211.69
640.27	207.69
640.475	215.69
640.681	202.69
640.886	215.69
641.091	214.69
641.297	201.69
641.502	201.69
641.707	217.69
641.913	190.69
642.118	195.69
642.323	180.69
642.528	210.69
642.733	206.69
642.939	216.69
643.144	189.69
643.349	195.69
643.554	205.69
643.759	188.69
643.964	191.69
644.169	207.69
644.374	188.69
644.579	202.69
644.784	213.69
644.989	201.69
645.194	195.69
645.399	191.69
645.604	205.69
645.809	201.69
646.014	199.69
646.219	191.69
646.423	195.69
646.628	195.69
646.833	212.69
647.038	211.69
647.243	194.69
647.447	194.69
647.652	189.69
647.857	190.69
648.062	185.69
648.266	204.69
648.471	208.69
648.676	202.69
648.88	208.69
649.085	190.69
649.289	206.69
649.494	204.69
649.698	199.69
649.903	175.69
650.107	186.69
650.312	184.69
650.516	187.69
650.721	184.69
650.925	170.69
651.13	183.69
651.334	169.69
651.539	179.69
651.743	174.69
651.947	174.69
652.152	182.69
652.356	153.69
652.56	165.69
652.764	156.69
652.969	170.69
653.173	163.69
653.377	158.69
653.581	152.69
653.785	147.69
653.99	159.69
654.194	150.69
654.398	133.69
654.602	141.69
654.806	135.69
655.01	146.69
655.214	151.69
655.418	149.69
655.622	130.69
655.826	145.69
656.03	134.69
656.234	138.69
656.438	137.69
656.642	126.69
656.846	129.69
657.049	139.69
657.253	131.69
657.457	120.69
657.661	126.69
657.865	107.69
658.068	124.69
658.272	117.69
658.476	120.69
658.68	95.69
658.883	117.69
659.087	114.69
659.291	108.69
659.494	119.69
659.698	99.69
659.901	89.69
660.105	103.69
660.309	102.69
660.512	103.69
660.716	100.69
660.919	89.69
661.123	95.69
661.326	95.69
661.53	100.69
661.733	93.69
661.936	82.69
662.14	91.69
662.343	80.69
662.546	77.69
662.75	99.69
662.953	85.69
663.156	83.69
663.36	81.69
663.563	93.69
663.766	94.69
663.969	82.69
664.173	81.69
664.376	87.69
664.579	75.69
664.782	85.69
664.985	88.69
665.188	93.69
665.391	74.69
665.594	80.69
665.797	84.69
666	90.69
666.203	77.69
666.406	89.69
666.609	76.69
666.812	74.69
667.015	61.69
667.218	90.69
667.421	84.69
667.624	91.69
667.827	81.69
668.03	81.69
668.232	78.69
668.435	87.69
668.638	77.69
668.841	82.69
669.043	85.69
669.246	94.69
669.449	81.69
669.651	77.69
669.854	86.69
670.057	83.69
670.259	72.69
670.462	67.69
670.665	79.69
670.867	84.69
671.07	75.69
671.272	84.69
671.475	77.69
671.677	79.69
671.88	92.69
672.082	85.69
672.284	79.69
672.487	79.69
672.689	76.69
672.892	77.69
