Data from NiCl2@0.5M.TitratingCurve.Agarose3%dH2O.NegLispCup.LampEnergy10.LIBS07252019_HRD10591_18-21-42-571.txt Node
Date: Thu Jul 25 18:21:42 EDT 2019
User: cochatt
Spectrometer: HR+D1059
Trigger mode: 1
Integration Time (sec): 1.000000E-1
Scans to average: 1
Electric dark correction enabled: true
Nonlinearity correction enabled: false
Boxcar width: 0
XAxis mode: Wavelengths
Number of Pixels in Spectrum: 2048
>>>>>Begin Spectral Data<<<<<
223.165	0.75
223.4	0.75
223.635	0.75
223.869	-12.25
224.104	-16.25
224.338	-5.25
224.573	-17.25
224.808	-14.25
225.042	-3.25
225.277	-20.25
225.511	6.75
225.746	-7.25
225.98	6.75
226.215	11.75
226.449	9.75
226.683	9.75
226.918	31.75
227.152	18.75
227.387	35.75
227.621	26.75
227.856	52.75
228.09	47.75
228.324	60.75
228.559	61.75
228.793	57.75
229.027	105.75
229.262	102.75
229.496	103.75
229.73	110.75
229.964	125.75
230.199	120.75
230.433	121.75
230.667	119.75
230.901	124.75
231.136	129.75
231.37	131.75
231.604	132.75
231.838	154.75
232.072	132.75
232.306	138.75
232.541	151.75
232.775	142.75
233.009	137.75
233.243	139.75
233.477	145.75
233.711	130.75
233.945	148.75
234.179	146.75
234.413	137.75
234.647	149.75
234.881	150.75
235.115	139.75
235.349	138.75
235.583	143.75
235.817	137.75
236.051	147.75
236.285	152.75
236.519	155.75
236.753	131.75
236.987	159.75
237.221	149.75
237.455	165.75
237.689	159.75
237.922	170.75
238.156	154.75
238.39	163.75
238.624	166.75
238.858	141.75
239.091	152.75
239.325	161.75
239.559	162.75
239.793	164.75
240.027	163.75
240.26	172.75
240.494	181.75
240.728	165.75
240.961	170.75
241.195	183.75
241.429	167.75
241.662	168.75
241.896	198.75
242.13	194.75
242.363	185.75
242.597	181.75
242.83	179.75
243.064	175.75
243.298	198.75
243.531	197.75
243.765	191.75
243.998	215.75
244.232	209.75
244.465	197.75
244.699	196.75
244.932	214.75
245.166	196.75
245.399	214.75
245.633	219.75
245.866	197.75
246.099	212.75
246.333	233.75
246.566	211.75
246.8	206.75
247.033	205.75
247.266	208.75
247.5	220.75
247.733	215.75
247.966	227.75
248.2	218.75
248.433	214.75
248.666	216.75
248.899	224.75
249.133	225.75
249.366	210.75
249.599	225.75
249.832	228.75
250.066	230.75
250.299	245.75
250.532	238.75
250.765	228.75
250.998	247.75
251.231	250.75
251.465	230.75
251.698	248.75
251.931	254.75
252.164	234.75
252.397	248.75
252.63	242.75
252.863	241.75
253.096	257.75
253.329	258.75
253.562	260.75
253.795	266.75
254.028	262.75
254.261	259.75
254.494	247.75
254.727	276.75
254.96	257.75
255.193	274.75
255.426	252.75
255.659	264.75
255.892	268.75
256.124	271.75
256.357	273.75
256.59	282.75
256.823	292.75
257.056	254.75
257.289	268.75
257.521	294.75
257.754	302.75
257.987	281.75
258.22	290.75
258.452	293.75
258.685	300.75
258.918	275.75
259.151	276.75
259.383	299.75
259.616	299.75
259.849	267.75
260.081	297.75
260.314	294.75
260.547	287.75
260.779	288.75
261.012	296.75
261.244	310.75
261.477	310.75
261.71	311.75
261.942	312.75
262.175	308.75
262.407	320.75
262.64	324.75
262.872	311.75
263.105	318.75
263.337	321.75
263.57	329.75
263.802	327.75
264.035	314.75
264.267	316.75
264.499	324.75
264.732	342.75
264.964	323.75
265.197	328.75
265.429	323.75
265.661	347.75
265.894	323.75
266.126	338.75
266.358	331.75
266.591	319.75
266.823	332.75
267.055	318.75
267.287	350.75
267.52	323.75
267.752	347.75
267.984	342.75
268.216	353.75
268.448	342.75
268.681	363.75
268.913	339.75
269.145	345.75
269.377	356.75
269.609	340.75
269.841	350.75
270.073	354.75
270.306	348.75
270.538	338.75
270.77	359.75
271.002	356.75
271.234	345.75
271.466	342.75
271.698	377.75
271.93	378.75
272.162	385.75
272.394	377.75
272.626	375.75
272.858	359.75
273.09	388.75
273.322	386.75
273.553	385.75
273.785	398.75
274.017	386.75
274.249	382.75
274.481	405.75
274.713	392.75
274.945	395.75
275.176	379.75
275.408	371.75
275.64	407.75
275.872	390.75
276.104	412.75
276.335	399.75
276.567	389.75
276.799	403.75
277.031	414.75
277.262	414.75
277.494	416.75
277.726	402.75
277.957	394.75
278.189	407.75
278.421	415.75
278.652	431.75
278.884	415.75
279.115	420.75
279.347	428.75
279.579	420.75
279.81	417.75
280.042	406.75
280.273	431.75
280.505	432.75
280.736	420.75
280.968	436.75
281.199	436.75
281.431	432.75
281.662	431.75
281.894	420.75
282.125	436.75
282.356	459.75
282.588	448.75
282.819	443.75
283.051	442.75
283.282	446.75
283.513	450.75
283.745	446.75
283.976	426.75
284.207	435.75
284.439	455.75
284.67	461.75
284.901	471.75
285.132	440.75
285.364	451.75
285.595	471.75
285.826	466.75
286.057	481.75
286.288	461.75
286.52	475.75
286.751	465.75
286.982	480.75
287.213	496.75
287.444	489.75
287.675	488.75
287.906	459.75
288.138	458.75
288.369	481.75
288.6	505.75
288.831	498.75
289.062	508.75
289.293	486.75
289.524	497.75
289.755	474.75
289.986	487.75
290.217	487.75
290.448	498.75
290.679	478.75
290.91	477.75
291.141	501.75
291.371	511.75
291.602	508.75
291.833	482.75
292.064	510.75
292.295	522.75
292.526	507.75
292.757	492.75
292.987	501.75
293.218	500.75
293.449	505.75
293.68	519.75
293.91	494.75
294.141	510.75
294.372	513.75
294.603	506.75
294.833	502.75
295.064	519.75
295.295	529.75
295.525	528.75
295.756	528.75
295.987	528.75
296.217	504.75
296.448	527.75
296.679	521.75
296.909	528.75
297.14	534.75
297.37	529.75
297.601	529.75
297.831	552.75
298.062	523.75
298.292	546.75
298.523	562.75
298.753	533.75
298.984	552.75
299.214	524.75
299.445	559.75
299.675	550.75
299.905	565.75
300.136	583.75
300.366	561.75
300.597	554.75
300.827	560.75
301.057	565.75
301.288	590.75
301.518	589.75
301.748	578.75
301.979	565.75
302.209	594.75
302.439	581.75
302.669	583.75
302.9	585.75
303.13	573.75
303.36	559.75
303.59	584.75
303.82	584.75
304.051	579.75
304.281	570.75
304.511	566.75
304.741	568.75
304.971	585.75
305.201	594.75
305.431	586.75
305.661	603.75
305.891	582.75
306.121	559.75
306.352	561.75
306.582	580.75
306.812	566.75
307.042	578.75
307.272	582.75
307.502	556.75
307.731	559.75
307.961	568.75
308.191	568.75
308.421	588.75
308.651	576.75
308.881	554.75
309.111	582.75
309.341	566.75
309.571	584.75
309.8	575.75
310.03	574.75
310.26	586.75
310.49	568.75
310.72	583.75
310.949	558.75
311.179	590.75
311.409	568.75
311.639	594.75
311.868	564.75
312.098	571.75
312.328	606.75
312.557	578.75
312.787	614.75
313.017	612.75
313.246	594.75
313.476	611.75
313.706	616.75
313.935	609.75
314.165	624.75
314.394	598.75
314.624	619.75
314.853	623.75
315.083	599.75
315.312	609.75
315.542	613.75
315.771	617.75
316.001	595.75
316.23	595.75
316.46	597.75
316.689	596.75
316.919	596.75
317.148	599.75
317.377	588.75
317.607	599.75
317.836	612.75
318.065	611.75
318.295	620.75
318.524	629.75
318.753	611.75
318.983	614.75
319.212	628.75
319.441	619.75
319.67	584.75
319.9	609.75
320.129	604.75
320.358	606.75
320.587	609.75
320.816	608.75
321.046	616.75
321.275	632.75
321.504	604.75
321.733	607.75
321.962	621.75
322.191	626.75
322.42	609.75
322.649	615.75
322.878	635.75
323.108	624.75
323.337	632.75
323.566	623.75
323.795	627.75
324.024	643.75
324.253	635.75
324.482	622.75
324.71	642.75
324.939	660.75
325.168	673.75
325.397	658.75
325.626	642.75
325.855	655.75
326.084	644.75
326.313	639.75
326.542	650.75
326.77	675.75
326.999	669.75
327.228	651.75
327.457	664.75
327.686	702.75
327.914	661.75
328.143	631.75
328.372	681.75
328.6	700.75
328.829	670.75
329.058	702.75
329.287	672.75
329.515	654.75
329.744	673.75
329.972	679.75
330.201	694.75
330.43	693.75
330.658	697.75
330.887	673.75
331.115	667.75
331.344	707.75
331.572	704.75
331.801	754.75
332.03	743.75
332.258	739.75
332.486	769.75
332.715	807.75
332.943	802.75
333.172	834.75
333.4	879.75
333.629	890.75
333.857	863.75
334.085	902.75
334.314	870.75
334.542	863.75
334.771	857.75
334.999	849.75
335.227	837.75
335.455	836.75
335.684	854.75
335.912	788.75
336.14	814.75
336.369	821.75
336.597	818.75
336.825	791.75
337.053	791.75
337.281	798.75
337.51	778.75
337.738	753.75
337.966	769.75
338.194	751.75
338.422	729.75
338.65	731.75
338.878	748.75
339.106	716.75
339.334	760.75
339.562	730.75
339.79	712.75
340.018	698.75
340.246	696.75
340.474	672.75
340.702	695.75
340.93	725.75
341.158	731.75
341.386	686.75
341.614	697.75
341.842	712.75
342.07	686.75
342.298	705.75
342.526	674.75
342.754	696.75
342.981	718.75
343.209	739.75
343.437	759.75
343.665	781.75
343.893	843.75
344.12	845.75
344.348	828.75
344.576	791.75
344.804	771.75
345.031	727.75
345.259	709.75
345.487	709.75
345.714	689.75
345.942	677.75
346.17	686.75
346.397	684.75
346.625	701.75
346.853	671.75
347.08	677.75
347.308	679.75
347.535	659.75
347.763	683.75
347.99	673.75
348.218	683.75
348.445	674.75
348.673	676.75
348.9	664.75
349.128	666.75
349.355	663.75
349.583	696.75
349.81	645.75
350.037	648.75
350.265	663.75
350.492	649.75
350.72	646.75
350.947	672.75
351.174	657.75
351.402	684.75
351.629	644.75
351.856	646.75
352.083	646.75
352.311	671.75
352.538	641.75
352.765	643.75
352.992	633.75
353.22	634.75
353.447	652.75
353.674	651.75
353.901	639.75
354.128	634.75
354.355	622.75
354.583	664.75
354.81	651.75
355.037	680.75
355.264	665.75
355.491	658.75
355.718	631.75
355.945	650.75
356.172	646.75
356.399	643.75
356.626	681.75
356.853	662.75
357.08	659.75
357.307	644.75
357.534	642.75
357.761	658.75
357.988	652.75
358.215	666.75
358.441	652.75
358.668	652.75
358.895	647.75
359.122	627.75
359.349	634.75
359.576	648.75
359.802	646.75
360.029	652.75
360.256	659.75
360.483	666.75
360.709	638.75
360.936	647.75
361.163	653.75
361.39	653.75
361.616	655.75
361.843	645.75
362.07	677.75
362.296	670.75
362.523	641.75
362.749	652.75
362.976	643.75
363.203	648.75
363.429	634.75
363.656	635.75
363.882	641.75
364.109	656.75
364.335	629.75
364.562	616.75
364.788	640.75
365.015	646.75
365.241	642.75
365.468	655.75
365.694	651.75
365.92	662.75
366.147	681.75
366.373	648.75
366.599	635.75
366.826	636.75
367.052	660.75
367.278	650.75
367.505	653.75
367.731	662.75
367.957	657.75
368.184	648.75
368.41	664.75
368.636	647.75
368.862	661.75
369.089	659.75
369.315	664.75
369.541	662.75
369.767	665.75
369.993	644.75
370.219	698.75
370.445	671.75
370.672	681.75
370.898	691.75
371.124	710.75
371.35	700.75
371.576	719.75
371.802	692.75
372.028	704.75
372.254	715.75
372.48	712.75
372.706	710.75
372.932	710.75
373.158	713.75
373.384	725.75
373.61	694.75
373.835	721.75
374.061	694.75
374.287	727.75
374.513	720.75
374.739	749.75
374.965	755.75
375.191	744.75
375.416	781.75
375.642	736.75
375.868	718.75
376.094	693.75
376.319	669.75
376.545	704.75
376.771	710.75
376.997	700.75
377.222	680.75
377.448	721.75
377.674	696.75
377.899	708.75
378.125	682.75
378.35	686.75
378.576	692.75
378.802	696.75
379.027	689.75
379.253	664.75
379.478	708.75
379.704	710.75
379.929	686.75
380.155	656.75
380.38	683.75
380.606	691.75
380.831	686.75
381.057	700.75
381.282	715.75
381.507	696.75
381.733	696.75
381.958	719.75
382.184	713.75
382.409	707.75
382.634	732.75
382.86	735.75
383.085	713.75
383.31	724.75
383.535	745.75
383.761	759.75
383.986	760.75
384.211	778.75
384.436	799.75
384.662	830.75
384.887	815.75
385.112	815.75
385.337	819.75
385.562	804.75
385.787	806.75
386.013	850.75
386.238	850.75
386.463	847.75
386.688	852.75
386.913	826.75
387.138	790.75
387.363	830.75
387.588	816.75
387.813	832.75
388.038	811.75
388.263	830.75
388.488	825.75
388.713	803.75
388.938	832.75
389.163	807.75
389.387	799.75
389.612	803.75
389.837	782.75
390.062	804.75
390.287	821.75
390.512	804.75
390.736	791.75
390.961	853.75
391.186	856.75
391.411	866.75
391.636	899.75
391.86	912.75
392.085	939.75
392.31	944.75
392.534	929.75
392.759	891.75
392.984	884.75
393.208	880.75
393.433	891.75
393.658	876.75
393.882	887.75
394.107	891.75
394.331	868.75
394.556	854.75
394.78	875.75
395.005	881.75
395.229	888.75
395.454	914.75
395.678	916.75
395.903	942.75
396.127	905.75
396.352	880.75
396.576	862.75
396.801	886.75
397.025	889.75
397.249	912.75
397.474	905.75
397.698	912.75
397.922	920.75
398.147	919.75
398.371	943.75
398.595	1004.75
398.82	1013.75
399.044	1118.75
399.268	1162.75
399.492	1387.75
399.717	1528.75
399.941	1502.75
400.165	1342.75
400.389	1232.75
400.613	1139.75
400.837	1099.75
401.062	1080.75
401.286	1039.75
401.51	1037.75
401.734	1019.75
401.958	1039.75
402.182	1055.75
402.406	1051.75
402.63	1067.75
402.854	1092.75
403.078	1077.75
403.302	1106.75
403.526	1145.75
403.75	1152.75
403.974	1195.75
404.198	1188.75
404.422	1177.75
404.645	1169.75
404.869	1157.75
405.093	1143.75
405.317	1131.75
405.541	1150.75
405.765	1134.75
405.988	1162.75
406.212	1157.75
406.436	1130.75
406.66	1149.75
406.883	1184.75
407.107	1249.75
407.331	1257.75
407.555	1321.75
407.778	1279.75
408.002	1273.75
408.226	1234.75
408.449	1214.75
408.673	1169.75
408.896	1182.75
409.12	1171.75
409.344	1154.75
409.567	1144.75
409.791	1138.75
410.014	1119.75
410.238	1144.75
410.461	1147.75
410.685	1140.75
410.908	1081.75
411.132	1092.75
411.355	1092.75
411.578	1097.75
411.802	1094.75
412.025	1072.75
412.249	1096.75
412.472	1098.75
412.695	1041.75
412.919	1010.75
413.142	1038.75
413.365	1047.75
413.589	1034.75
413.812	1006.75
414.035	1017.75
414.258	1049.75
414.482	1066.75
414.705	1062.75
414.928	1060.75
415.151	1047.75
415.374	1045.75
415.597	1034.75
415.821	1021.75
416.044	1007.75
416.267	1012.75
416.49	980.75
416.713	1006.75
416.936	1009.75
417.159	1027.75
417.382	977.75
417.605	1003.75
417.828	1010.75
418.051	1009.75
418.274	1041.75
418.497	1011.75
418.72	1026.75
418.943	1034.75
419.166	1103.75
419.389	1171.75
419.611	1156.75
419.834	1077.75
420.057	1073.75
420.28	1050.75
420.503	986.75
420.726	997.75
420.948	1022.75
421.171	1008.75
421.394	1007.75
421.617	1020.75
421.839	1028.75
422.062	1051.75
422.285	1015.75
422.507	1072.75
422.73	1047.75
422.953	1024.75
423.175	1059.75
423.398	1063.75
423.621	1049.75
423.843	1066.75
424.066	1063.75
424.288	1080.75
424.511	1075.75
424.733	1054.75
424.956	1058.75
425.178	1053.75
425.401	1042.75
425.623	1029.75
425.846	1026.75
426.068	988.75
426.291	990.75
426.513	978.75
426.735	966.75
426.958	948.75
427.18	938.75
427.402	943.75
427.625	962.75
427.847	923.75
428.069	931.75
428.292	927.75
428.514	909.75
428.736	939.75
428.958	954.75
429.181	928.75
429.403	888.75
429.625	904.75
429.847	895.75
430.069	905.75
430.292	926.75
430.514	900.75
430.736	902.75
430.958	926.75
431.18	911.75
431.402	898.75
431.624	914.75
431.846	949.75
432.068	933.75
432.29	944.75
432.512	914.75
432.734	935.75
432.956	946.75
433.178	943.75
433.4	923.75
433.622	946.75
433.844	943.75
434.066	959.75
434.287	930.75
434.509	990.75
434.731	1046.75
434.953	1022.75
435.175	1012.75
435.397	1041.75
435.618	946.75
435.84	957.75
436.062	944.75
436.284	950.75
436.505	956.75
436.727	914.75
436.949	938.75
437.17	903.75
437.392	913.75
437.614	886.75
437.835	868.75
438.057	897.75
438.278	902.75
438.5	909.75
438.721	896.75
438.943	918.75
439.165	878.75
439.386	916.75
439.608	928.75
439.829	933.75
440.05	899.75
440.272	947.75
440.493	936.75
440.715	957.75
440.936	928.75
441.158	971.75
441.379	1014.75
441.6	1038.75
441.822	1040.75
442.043	1071.75
442.264	1035.75
442.486	998.75
442.707	991.75
442.928	973.75
443.149	1016.75
443.371	1030.75
443.592	1003.75
443.813	1046.75
444.034	1046.75
444.255	1067.75
444.476	1138.75
444.698	1197.75
444.919	1244.75
445.14	1280.75
445.361	1144.75
445.582	1073.75
445.803	1034.75
446.024	981.75
446.245	976.75
446.466	979.75
446.687	954.75
446.908	958.75
447.129	921.75
447.35	896.75
447.571	885.75
447.792	900.75
448.013	901.75
448.234	903.75
448.455	843.75
448.675	872.75
448.896	846.75
449.117	857.75
449.338	857.75
449.559	852.75
449.779	840.75
450	859.75
450.221	875.75
450.442	869.75
450.662	882.75
450.883	877.75
451.104	898.75
451.324	898.75
451.545	884.75
451.766	866.75
451.986	872.75
452.207	864.75
452.428	851.75
452.648	857.75
452.869	840.75
453.089	853.75
453.31	865.75
453.53	806.75
453.751	826.75
453.971	834.75
454.192	834.75
454.412	809.75
454.633	837.75
454.853	801.75
455.073	803.75
455.294	818.75
455.514	781.75
455.734	784.75
455.955	799.75
456.175	813.75
456.395	792.75
456.616	784.75
456.836	812.75
457.056	814.75
457.276	774.75
457.497	800.75
457.717	804.75
457.937	814.75
458.157	835.75
458.377	821.75
458.598	843.75
458.818	849.75
459.038	905.75
459.258	900.75
459.478	927.75
459.698	934.75
459.918	984.75
460.138	1009.75
460.358	1072.75
460.578	1074.75
460.798	1119.75
461.018	1112.75
461.238	1083.75
461.458	1098.75
461.678	1086.75
461.898	1106.75
462.118	1107.75
462.338	1174.75
462.558	1201.75
462.777	1274.75
462.997	1343.75
463.217	1432.75
463.437	1460.75
463.657	1334.75
463.876	1274.75
464.096	1279.75
464.316	1294.75
464.536	1291.75
464.755	1200.75
464.975	1194.75
465.195	1114.75
465.414	1076.75
465.634	989.75
465.854	986.75
466.073	971.75
466.293	943.75
466.512	910.75
466.732	939.75
466.951	931.75
467.171	892.75
467.391	913.75
467.61	898.75
467.829	897.75
468.049	895.75
468.268	840.75
468.488	875.75
468.707	858.75
468.927	866.75
469.146	848.75
469.365	867.75
469.585	909.75
469.804	914.75
470.023	903.75
470.243	929.75
470.462	926.75
470.681	932.75
470.901	969.75
471.12	905.75
471.339	888.75
471.558	891.75
471.777	889.75
471.997	879.75
472.216	883.75
472.435	844.75
472.654	859.75
472.873	834.75
473.092	836.75
473.311	860.75
473.53	833.75
473.749	846.75
473.968	872.75
474.187	881.75
474.406	861.75
474.625	901.75
474.844	875.75
475.063	863.75
475.282	883.75
475.501	868.75
475.72	883.75
475.939	880.75
476.158	856.75
476.377	916.75
476.596	903.75
476.814	926.75
477.033	895.75
477.252	920.75
477.471	952.75
477.69	970.75
477.908	971.75
478.127	969.75
478.346	1039.75
478.564	1011.75
478.783	1032.75
479.002	1104.75
479.22	1085.75
479.439	1054.75
479.658	1041.75
479.876	1059.75
480.095	1092.75
480.313	1112.75
480.532	1172.75
480.751	1146.75
480.969	1106.75
481.188	1048.75
481.406	1033.75
481.624	1009.75
481.843	975.75
482.061	997.75
482.28	978.75
482.498	1008.75
482.717	990.75
482.935	983.75
483.153	985.75
483.372	996.75
483.59	998.75
483.808	1028.75
484.027	990.75
484.245	994.75
484.463	1003.75
484.681	1031.75
484.9	1001.75
485.118	1027.75
485.336	1019.75
485.554	1068.75
485.772	1024.75
485.99	1044.75
486.209	1009.75
486.427	1048.75
486.645	1045.75
486.863	1027.75
487.081	1009.75
487.299	1004.75
487.517	1013.75
487.735	1035.75
487.953	1053.75
488.171	1035.75
488.389	1050.75
488.607	1030.75
488.825	1003.75
489.043	997.75
489.261	994.75
489.479	994.75
489.696	1041.75
489.914	1047.75
490.132	1020.75
490.35	1030.75
490.568	1026.75
490.786	1040.75
491.003	1031.75
491.221	1085.75
491.439	1060.75
491.657	1044.75
491.874	1065.75
492.092	1085.75
492.31	1080.75
492.527	1065.75
492.745	1074.75
492.963	1075.75
493.18	1075.75
493.398	1086.75
493.615	1096.75
493.833	1090.75
494.05	1101.75
494.268	1101.75
494.485	1117.75
494.703	1123.75
494.92	1101.75
495.138	1099.75
495.355	1109.75
495.573	1073.75
495.79	1111.75
496.008	1119.75
496.225	1131.75
496.442	1119.75
496.66	1147.75
496.877	1131.75
497.094	1198.75
497.312	1180.75
497.529	1228.75
497.746	1257.75
497.963	1291.75
498.181	1328.75
498.398	1390.75
498.615	1454.75
498.832	1585.75
499.049	1679.75
499.267	1766.75
499.484	1931.75
499.701	2162.75
499.918	2370.75
500.135	2659.75
500.352	2977.75
500.569	3098.75
500.786	3075.75
501.003	2868.75
501.22	2600.75
501.437	2324.75
501.654	2070.75
501.871	1911.75
502.088	1750.75
502.305	1620.75
502.522	1554.75
502.739	1498.75
502.956	1425.75
503.172	1399.75
503.389	1295.75
503.606	1252.75
503.823	1225.75
504.04	1231.75
504.256	1268.75
504.473	1258.75
504.69	1291.75
504.907	1246.75
505.123	1210.75
505.34	1146.75
505.557	1098.75
505.773	1079.75
505.99	1030.75
506.207	991.75
506.423	1008.75
506.64	1006.75
506.856	980.75
507.073	969.75
507.289	989.75
507.506	958.75
507.722	956.75
507.939	984.75
508.155	946.75
508.372	967.75
508.588	932.75
508.805	897.75
509.021	970.75
509.238	875.75
509.454	896.75
509.67	900.75
509.887	875.75
510.103	890.75
510.319	837.75
510.536	882.75
510.752	868.75
510.968	921.75
511.184	870.75
511.401	859.75
511.617	862.75
511.833	882.75
512.049	880.75
512.265	873.75
512.481	874.75
512.698	887.75
512.914	870.75
513.13	874.75
513.346	892.75
513.562	870.75
513.778	855.75
513.994	896.75
514.21	904.75
514.426	895.75
514.642	866.75
514.858	903.75
515.074	900.75
515.29	902.75
515.506	895.75
515.721	926.75
515.937	938.75
516.153	930.75
516.369	957.75
516.585	978.75
516.801	1054.75
517.016	1069.75
517.232	1123.75
517.448	1172.75
517.664	1194.75
517.879	1189.75
518.095	1193.75
518.311	1144.75
518.527	1122.75
518.742	1067.75
518.958	1039.75
519.173	966.75
519.389	1003.75
519.605	971.75
519.82	935.75
520.036	915.75
520.251	896.75
520.467	875.75
520.682	880.75
520.898	869.75
521.113	894.75
521.329	886.75
521.544	857.75
521.76	850.75
521.975	840.75
522.19	812.75
522.406	816.75
522.621	839.75
522.836	809.75
523.052	809.75
523.267	840.75
523.482	808.75
523.698	822.75
523.913	811.75
524.128	816.75
524.343	806.75
524.559	791.75
524.774	806.75
524.989	782.75
525.204	798.75
525.419	808.75
525.634	810.75
525.849	799.75
526.064	780.75
526.28	797.75
526.495	786.75
526.71	770.75
526.925	752.75
527.14	779.75
527.355	772.75
527.57	788.75
527.785	822.75
527.999	772.75
528.214	772.75
528.429	777.75
528.644	810.75
528.859	777.75
529.074	790.75
529.289	801.75
529.503	768.75
529.718	787.75
529.933	762.75
530.148	767.75
530.363	774.75
530.577	771.75
530.792	767.75
531.007	783.75
531.221	801.75
531.436	781.75
531.651	790.75
531.865	765.75
532.08	773.75
532.295	779.75
532.509	777.75
532.724	771.75
532.938	784.75
533.153	774.75
533.367	766.75
533.582	754.75
533.796	799.75
534.011	765.75
534.225	772.75
534.44	768.75
534.654	786.75
534.868	759.75
535.083	753.75
535.297	762.75
535.511	763.75
535.726	759.75
535.94	747.75
536.154	750.75
536.369	752.75
536.583	728.75
536.797	728.75
537.011	737.75
537.225	736.75
537.44	752.75
537.654	743.75
537.868	720.75
538.082	726.75
538.296	728.75
538.51	715.75
538.724	706.75
538.938	709.75
539.153	725.75
539.367	718.75
539.581	695.75
539.795	686.75
540.009	686.75
540.222	675.75
540.436	688.75
540.65	695.75
540.864	704.75
541.078	720.75
541.292	721.75
541.506	710.75
541.72	699.75
541.934	684.75
542.147	716.75
542.361	706.75
542.575	713.75
542.789	693.75
543.002	689.75
543.216	683.75
543.43	674.75
543.644	660.75
543.857	696.75
544.071	715.75
544.285	709.75
544.498	709.75
544.712	687.75
544.925	721.75
545.139	723.75
545.352	730.75
545.566	726.75
545.779	711.75
545.993	723.75
546.206	699.75
546.42	734.75
546.633	718.75
546.847	726.75
547.06	710.75
547.274	733.75
547.487	713.75
547.7	732.75
547.914	711.75
548.127	694.75
548.34	722.75
548.554	728.75
548.767	707.75
548.98	735.75
549.193	737.75
549.407	747.75
549.62	751.75
549.833	740.75
550.046	736.75
550.259	732.75
550.473	719.75
550.686	741.75
550.899	710.75
551.112	695.75
551.325	678.75
551.538	678.75
551.751	699.75
551.964	700.75
552.177	736.75
552.39	715.75
552.603	726.75
552.816	744.75
553.029	753.75
553.242	756.75
553.455	785.75
553.667	785.75
553.88	761.75
554.093	757.75
554.306	743.75
554.519	705.75
554.732	700.75
554.944	710.75
555.157	698.75
555.37	659.75
555.583	660.75
555.795	670.75
556.008	647.75
556.221	662.75
556.433	640.75
556.646	617.75
556.859	638.75
557.071	633.75
557.284	614.75
557.496	629.75
557.709	612.75
557.921	624.75
558.134	604.75
558.346	600.75
558.559	617.75
558.771	609.75
558.984	608.75
559.196	576.75
559.409	589.75
559.621	609.75
559.833	613.75
560.046	589.75
560.258	595.75
560.47	574.75
560.683	607.75
560.895	585.75
561.107	603.75
561.32	600.75
561.532	586.75
561.744	594.75
561.956	590.75
562.168	581.75
562.381	582.75
562.593	592.75
562.805	608.75
563.017	599.75
563.229	595.75
563.441	616.75
563.653	636.75
563.865	614.75
564.077	602.75
564.289	615.75
564.501	632.75
564.713	606.75
564.925	640.75
565.137	647.75
565.349	651.75
565.561	699.75
565.773	707.75
565.985	736.75
566.197	769.75
566.408	842.75
566.62	856.75
566.832	925.75
567.044	920.75
567.255	931.75
567.467	947.75
567.679	997.75
567.891	1051.75
568.102	1096.75
568.314	1035.75
568.526	936.75
568.737	863.75
568.949	799.75
569.161	737.75
569.372	690.75
569.584	689.75
569.795	644.75
570.007	650.75
570.218	622.75
570.43	606.75
570.641	607.75
570.853	587.75
571.064	606.75
571.276	608.75
571.487	574.75
571.698	552.75
571.91	537.75
572.121	548.75
572.333	542.75
572.544	537.75
572.755	514.75
572.966	487.75
573.178	524.75
573.389	522.75
573.6	496.75
573.811	501.75
574.023	500.75
574.234	465.75
574.445	468.75
574.656	491.75
574.867	476.75
575.078	498.75
575.289	482.75
575.501	470.75
575.712	479.75
575.923	469.75
576.134	448.75
576.345	434.75
576.556	458.75
576.767	452.75
576.978	449.75
577.188	463.75
577.399	455.75
577.61	425.75
577.821	442.75
578.032	439.75
578.243	438.75
578.454	433.75
578.665	434.75
578.875	404.75
579.086	419.75
579.297	427.75
579.508	415.75
579.718	419.75
579.929	444.75
580.14	406.75
580.35	410.75
580.561	426.75
580.772	426.75
580.982	423.75
581.193	413.75
581.403	421.75
581.614	422.75
581.825	419.75
582.035	393.75
582.246	439.75
582.456	408.75
582.667	407.75
582.877	412.75
583.087	414.75
583.298	417.75
583.508	402.75
583.719	405.75
583.929	403.75
584.139	402.75
584.35	403.75
584.56	399.75
584.77	390.75
584.981	399.75
585.191	391.75
585.401	420.75
585.611	376.75
585.821	378.75
586.032	397.75
586.242	396.75
586.452	399.75
586.662	390.75
586.872	408.75
587.082	393.75
587.292	388.75
587.502	369.75
587.713	382.75
587.923	385.75
588.133	397.75
588.343	370.75
588.553	402.75
588.762	386.75
588.972	405.75
589.182	437.75
589.392	431.75
589.602	387.75
589.812	409.75
590.022	414.75
590.232	394.75
590.441	394.75
590.651	392.75
590.861	392.75
591.071	388.75
591.281	421.75
591.49	407.75
591.7	406.75
591.91	417.75
592.119	418.75
592.329	438.75
592.539	444.75
592.748	436.75
592.958	458.75
593.167	474.75
593.377	482.75
593.587	500.75
593.796	504.75
594.006	485.75
594.215	502.75
594.424	500.75
594.634	473.75
594.843	476.75
595.053	447.75
595.262	433.75
595.472	421.75
595.681	395.75
595.89	400.75
596.1	394.75
596.309	381.75
596.518	372.75
596.727	368.75
596.937	379.75
597.146	380.75
597.355	377.75
597.564	352.75
597.774	342.75
597.983	358.75
598.192	344.75
598.401	327.75
598.61	350.75
598.819	350.75
599.028	342.75
599.237	318.75
599.446	331.75
599.655	338.75
599.864	326.75
600.073	343.75
600.282	334.75
600.491	342.75
600.7	336.75
600.909	323.75
601.118	324.75
601.327	319.75
601.536	329.75
601.745	331.75
601.953	335.75
602.162	320.75
602.371	325.75
602.58	310.75
602.789	323.75
602.997	323.75
603.206	334.75
603.415	323.75
603.623	311.75
603.832	296.75
604.041	292.75
604.249	321.75
604.458	310.75
604.666	307.75
604.875	299.75
605.084	306.75
605.292	302.75
605.501	319.75
605.709	321.75
605.918	303.75
606.126	295.75
606.334	295.75
606.543	322.75
606.751	299.75
606.96	288.75
607.168	292.75
607.376	295.75
607.585	300.75
607.793	296.75
608.001	287.75
608.21	291.75
608.418	290.75
608.626	296.75
608.834	289.75
609.043	299.75
609.251	309.75
609.459	289.75
609.667	306.75
609.875	277.75
610.083	304.75
610.291	291.75
610.499	299.75
610.707	296.75
610.916	297.75
611.124	304.75
611.332	302.75
611.54	278.75
611.748	296.75
611.955	287.75
612.163	280.75
612.371	282.75
612.579	307.75
612.787	282.75
612.995	293.75
613.203	306.75
613.411	274.75
613.618	283.75
613.826	274.75
614.034	289.75
614.242	318.75
614.449	277.75
614.657	263.75
614.865	270.75
615.072	268.75
615.28	256.75
615.488	279.75
615.695	258.75
615.903	279.75
616.111	286.75
616.318	310.75
616.526	286.75
616.733	269.75
616.941	293.75
617.148	283.75
617.356	268.75
617.563	288.75
617.771	287.75
617.978	267.75
618.185	291.75
618.393	288.75
618.6	271.75
618.807	268.75
619.015	278.75
619.222	264.75
619.429	288.75
619.637	258.75
619.844	253.75
620.051	261.75
620.258	266.75
620.466	261.75
620.673	268.75
620.88	252.75
621.087	243.75
621.294	274.75
621.501	271.75
621.708	269.75
621.915	254.75
622.122	254.75
622.329	249.75
622.536	256.75
622.743	248.75
622.95	255.75
623.157	229.75
623.364	253.75
623.571	256.75
623.778	254.75
623.985	253.75
624.192	254.75
624.399	243.75
624.606	247.75
624.812	236.75
625.019	250.75
625.226	240.75
625.433	242.75
625.639	233.75
625.846	243.75
626.053	234.75
626.259	236.75
626.466	232.75
626.673	251.75
626.879	238.75
627.086	246.75
627.293	240.75
627.499	223.75
627.706	233.75
627.912	235.75
628.119	241.75
628.325	248.75
628.532	234.75
628.738	238.75
628.945	243.75
629.151	228.75
629.357	230.75
629.564	223.75
629.77	215.75
629.976	235.75
630.183	226.75
630.389	211.75
630.595	205.75
630.802	220.75
631.008	212.75
631.214	202.75
631.42	230.75
631.627	226.75
631.833	218.75
632.039	219.75
632.245	202.75
632.451	204.75
632.657	223.75
632.863	204.75
633.069	226.75
633.275	208.75
633.481	215.75
633.688	226.75
633.893	225.75
634.099	230.75
634.305	200.75
634.511	201.75
634.717	208.75
634.923	201.75
635.129	206.75
635.335	204.75
635.541	212.75
635.747	205.75
635.952	223.75
636.158	214.75
636.364	208.75
636.57	209.75
636.775	196.75
636.981	199.75
637.187	195.75
637.392	204.75
637.598	204.75
637.804	202.75
638.009	199.75
638.215	203.75
638.421	187.75
638.626	207.75
638.832	215.75
639.037	199.75
639.243	188.75
639.448	203.75
639.654	211.75
639.859	210.75
640.065	195.75
640.27	201.75
640.475	195.75
640.681	190.75
640.886	189.75
641.091	171.75
641.297	197.75
641.502	213.75
641.707	191.75
641.913	192.75
642.118	205.75
642.323	196.75
642.528	179.75
642.733	188.75
642.939	183.75
643.144	172.75
643.349	198.75
643.554	191.75
643.759	171.75
643.964	190.75
644.169	177.75
644.374	178.75
644.579	186.75
644.784	175.75
644.989	194.75
645.194	192.75
645.399	193.75
645.604	189.75
645.809	183.75
646.014	181.75
646.219	169.75
646.423	180.75
646.628	170.75
646.833	191.75
647.038	176.75
647.243	189.75
647.447	203.75
647.652	211.75
647.857	178.75
648.062	200.75
648.266	194.75
648.471	199.75
648.676	209.75
648.88	193.75
649.085	182.75
649.289	192.75
649.494	193.75
649.698	194.75
649.903	183.75
650.107	193.75
650.312	175.75
650.516	171.75
650.721	183.75
650.925	186.75
651.13	169.75
651.334	179.75
651.539	157.75
651.743	175.75
651.947	164.75
652.152	162.75
652.356	181.75
652.56	148.75
652.764	162.75
652.969	169.75
653.173	164.75
653.377	151.75
653.581	155.75
653.785	135.75
653.99	162.75
654.194	157.75
654.398	147.75
654.602	153.75
654.806	139.75
655.01	141.75
655.214	161.75
655.418	145.75
655.622	155.75
655.826	158.75
656.03	149.75
656.234	163.75
656.438	160.75
656.642	164.75
656.846	159.75
657.049	146.75
657.253	146.75
657.457	137.75
657.661	138.75
657.865	130.75
658.068	116.75
658.272	128.75
658.476	114.75
658.68	117.75
658.883	106.75
659.087	126.75
659.291	116.75
659.494	106.75
659.698	103.75
659.901	96.75
660.105	93.75
660.309	97.75
660.512	87.75
660.716	101.75
660.919	92.75
661.123	94.75
661.326	92.75
661.53	102.75
661.733	87.75
661.936	86.75
662.14	80.75
662.343	82.75
662.546	81.75
662.75	104.75
662.953	87.75
663.156	94.75
663.36	75.75
663.563	74.75
663.766	83.75
663.969	87.75
664.173	76.75
664.376	64.75
664.579	65.75
664.782	89.75
664.985	80.75
665.188	84.75
665.391	74.75
665.594	82.75
665.797	90.75
666	75.75
666.203	80.75
666.406	94.75
666.609	82.75
666.812	85.75
667.015	87.75
667.218	82.75
667.421	91.75
667.624	86.75
667.827	71.75
668.03	66.75
668.232	81.75
668.435	84.75
668.638	73.75
668.841	65.75
669.043	76.75
669.246	87.75
669.449	72.75
669.651	89.75
669.854	78.75
670.057	81.75
670.259	80.75
670.462	89.75
670.665	86.75
670.867	87.75
671.07	84.75
671.272	83.75
671.475	91.75
671.677	88.75
671.88	95.75
672.082	80.75
672.284	75.75
672.487	93.75
672.689	74.75
672.892	95.75
