Data from NiCl2@0.125M.TitratingCurve.Agarose3%dH2O.NegLispCup.LampEnergy10.LIBS07252019_HRD10591_18-28-15-574.txt Node
Date: Thu Jul 25 18:28:15 EDT 2019
User: cochatt
Spectrometer: HR+D1059
Trigger mode: 1
Integration Time (sec): 1.000000E-1
Scans to average: 1
Electric dark correction enabled: true
Nonlinearity correction enabled: false
Boxcar width: 0
XAxis mode: Wavelengths
Number of Pixels in Spectrum: 2048
>>>>>Begin Spectral Data<<<<<
223.165	-9.12
223.4	-9.12
223.635	-9.12
223.869	-27.12
224.104	-12.12
224.338	-15.12
224.573	-13.12
224.808	-24.12
225.042	-5.12
225.277	-0.12
225.511	8.88
225.746	2.88
225.98	8.88
226.215	11.88
226.449	6.88
226.683	9.88
226.918	20.88
227.152	35.88
227.387	44.88
227.621	32.88
227.856	54.88
228.09	58.88
228.324	50.88
228.559	48.88
228.793	76.88
229.027	106.88
229.262	116.88
229.496	138.88
229.73	130.88
229.964	136.88
230.199	148.88
230.433	153.88
230.667	145.88
230.901	138.88
231.136	142.88
231.37	155.88
231.604	157.88
231.838	165.88
232.072	157.88
232.306	150.88
232.541	148.88
232.775	152.88
233.009	157.88
233.243	142.88
233.477	153.88
233.711	159.88
233.945	162.88
234.179	161.88
234.413	154.88
234.647	167.88
234.881	162.88
235.115	164.88
235.349	152.88
235.583	178.88
235.817	168.88
236.051	172.88
236.285	173.88
236.519	161.88
236.753	160.88
236.987	184.88
237.221	186.88
237.455	176.88
237.689	173.88
237.922	167.88
238.156	166.88
238.39	185.88
238.624	187.88
238.858	178.88
239.091	193.88
239.325	186.88
239.559	183.88
239.793	195.88
240.027	200.88
240.26	187.88
240.494	198.88
240.728	202.88
240.961	197.88
241.195	211.88
241.429	207.88
241.662	199.88
241.896	200.88
242.13	224.88
242.363	202.88
242.597	212.88
242.83	217.88
243.064	222.88
243.298	215.88
243.531	223.88
243.765	234.88
243.998	214.88
244.232	234.88
244.465	238.88
244.699	231.88
244.932	257.88
245.166	246.88
245.399	228.88
245.633	236.88
245.866	249.88
246.099	239.88
246.333	240.88
246.566	247.88
246.8	243.88
247.033	258.88
247.266	244.88
247.5	250.88
247.733	262.88
247.966	273.88
248.2	259.88
248.433	262.88
248.666	252.88
248.899	265.88
249.133	265.88
249.366	268.88
249.599	266.88
249.832	265.88
250.066	278.88
250.299	252.88
250.532	271.88
250.765	282.88
250.998	268.88
251.231	280.88
251.465	285.88
251.698	292.88
251.931	306.88
252.164	299.88
252.397	306.88
252.63	310.88
252.863	294.88
253.096	294.88
253.329	310.88
253.562	298.88
253.795	313.88
254.028	321.88
254.261	311.88
254.494	298.88
254.727	304.88
254.96	308.88
255.193	324.88
255.426	307.88
255.659	318.88
255.892	314.88
256.124	327.88
256.357	318.88
256.59	320.88
256.823	333.88
257.056	332.88
257.289	356.88
257.521	341.88
257.754	344.88
257.987	340.88
258.22	337.88
258.452	348.88
258.685	326.88
258.918	334.88
259.151	350.88
259.383	328.88
259.616	349.88
259.849	344.88
260.081	330.88
260.314	341.88
260.547	336.88
260.779	350.88
261.012	351.88
261.244	348.88
261.477	361.88
261.71	346.88
261.942	353.88
262.175	366.88
262.407	367.88
262.64	360.88
262.872	352.88
263.105	356.88
263.337	386.88
263.57	367.88
263.802	364.88
264.035	370.88
264.267	390.88
264.499	373.88
264.732	381.88
264.964	370.88
265.197	384.88
265.429	391.88
265.661	373.88
265.894	394.88
266.126	380.88
266.358	382.88
266.591	379.88
266.823	387.88
267.055	377.88
267.287	400.88
267.52	419.88
267.752	402.88
267.984	412.88
268.216	420.88
268.448	417.88
268.681	422.88
268.913	398.88
269.145	416.88
269.377	415.88
269.609	403.88
269.841	420.88
270.073	429.88
270.306	422.88
270.538	410.88
270.77	419.88
271.002	423.88
271.234	415.88
271.466	430.88
271.698	419.88
271.93	430.88
272.162	427.88
272.394	444.88
272.626	442.88
272.858	399.88
273.09	439.88
273.322	450.88
273.553	446.88
273.785	437.88
274.017	427.88
274.249	450.88
274.481	453.88
274.713	440.88
274.945	477.88
275.176	471.88
275.408	455.88
275.64	440.88
275.872	453.88
276.104	464.88
276.335	445.88
276.567	464.88
276.799	455.88
277.031	483.88
277.262	473.88
277.494	474.88
277.726	498.88
277.957	471.88
278.189	474.88
278.421	484.88
278.652	480.88
278.884	467.88
279.115	468.88
279.347	477.88
279.579	488.88
279.81	486.88
280.042	506.88
280.273	496.88
280.505	488.88
280.736	477.88
280.968	514.88
281.199	504.88
281.431	517.88
281.662	508.88
281.894	512.88
282.125	526.88
282.356	522.88
282.588	520.88
282.819	503.88
283.051	524.88
283.282	518.88
283.513	532.88
283.745	522.88
283.976	518.88
284.207	557.88
284.439	522.88
284.67	534.88
284.901	536.88
285.132	541.88
285.364	518.88
285.595	541.88
285.826	537.88
286.057	560.88
286.288	549.88
286.52	559.88
286.751	543.88
286.982	550.88
287.213	532.88
287.444	558.88
287.675	574.88
287.906	573.88
288.138	552.88
288.369	568.88
288.6	564.88
288.831	573.88
289.062	586.88
289.293	563.88
289.524	567.88
289.755	558.88
289.986	567.88
290.217	577.88
290.448	563.88
290.679	589.88
290.91	581.88
291.141	586.88
291.371	578.88
291.602	567.88
291.833	554.88
292.064	598.88
292.295	580.88
292.526	578.88
292.757	586.88
292.987	560.88
293.218	575.88
293.449	584.88
293.68	585.88
293.91	590.88
294.141	575.88
294.372	552.88
294.603	590.88
294.833	590.88
295.064	585.88
295.295	612.88
295.525	598.88
295.756	587.88
295.987	600.88
296.217	608.88
296.448	614.88
296.679	601.88
296.909	594.88
297.14	594.88
297.37	613.88
297.601	615.88
297.831	608.88
298.062	623.88
298.292	627.88
298.523	646.88
298.753	647.88
298.984	642.88
299.214	592.88
299.445	613.88
299.675	624.88
299.905	656.88
300.136	646.88
300.366	614.88
300.597	629.88
300.827	647.88
301.057	690.88
301.288	676.88
301.518	666.88
301.748	684.88
301.979	675.88
302.209	679.88
302.439	668.88
302.669	664.88
302.9	663.88
303.13	661.88
303.36	657.88
303.59	650.88
303.82	646.88
304.051	658.88
304.281	650.88
304.511	643.88
304.741	637.88
304.971	654.88
305.201	664.88
305.431	652.88
305.661	660.88
305.891	655.88
306.121	664.88
306.352	639.88
306.582	657.88
306.812	662.88
307.042	652.88
307.272	654.88
307.502	650.88
307.731	641.88
307.961	647.88
308.191	617.88
308.421	628.88
308.651	630.88
308.881	615.88
309.111	636.88
309.341	641.88
309.571	644.88
309.8	645.88
310.03	634.88
310.26	641.88
310.49	631.88
310.72	607.88
310.949	640.88
311.179	656.88
311.409	664.88
311.639	653.88
311.868	641.88
312.098	672.88
312.328	694.88
312.557	680.88
312.787	668.88
313.017	682.88
313.246	694.88
313.476	683.88
313.706	671.88
313.935	701.88
314.165	684.88
314.394	703.88
314.624	680.88
314.853	684.88
315.083	673.88
315.312	688.88
315.542	703.88
315.771	662.88
316.001	674.88
316.23	679.88
316.46	664.88
316.689	692.88
316.919	658.88
317.148	660.88
317.377	665.88
317.607	666.88
317.836	651.88
318.065	642.88
318.295	658.88
318.524	683.88
318.753	653.88
318.983	671.88
319.212	669.88
319.441	671.88
319.67	683.88
319.9	684.88
320.129	698.88
320.358	706.88
320.587	678.88
320.816	671.88
321.046	696.88
321.275	698.88
321.504	669.88
321.733	655.88
321.962	681.88
322.191	679.88
322.42	664.88
322.649	678.88
322.878	702.88
323.108	687.88
323.337	702.88
323.566	687.88
323.795	704.88
324.024	692.88
324.253	698.88
324.482	691.88
324.71	716.88
324.939	706.88
325.168	708.88
325.397	715.88
325.626	710.88
325.855	708.88
326.084	717.88
326.313	727.88
326.542	734.88
326.77	749.88
326.999	763.88
327.228	726.88
327.457	700.88
327.686	731.88
327.914	720.88
328.143	738.88
328.372	738.88
328.6	724.88
328.829	770.88
329.058	730.88
329.287	719.88
329.515	746.88
329.744	766.88
329.972	756.88
330.201	747.88
330.43	750.88
330.658	748.88
330.887	743.88
331.115	753.88
331.344	786.88
331.572	783.88
331.801	793.88
332.03	781.88
332.258	799.88
332.486	872.88
332.715	864.88
332.943	878.88
333.172	951.88
333.4	994.88
333.629	998.88
333.857	997.88
334.085	963.88
334.314	985.88
334.542	968.88
334.771	935.88
334.999	923.88
335.227	926.88
335.455	939.88
335.684	916.88
335.912	889.88
336.14	886.88
336.369	851.88
336.597	895.88
336.825	888.88
337.053	878.88
337.281	879.88
337.51	855.88
337.738	854.88
337.966	848.88
338.194	836.88
338.422	838.88
338.65	815.88
338.878	812.88
339.106	774.88
339.334	816.88
339.562	792.88
339.79	781.88
340.018	780.88
340.246	761.88
340.474	755.88
340.702	758.88
340.93	770.88
341.158	774.88
341.386	784.88
341.614	767.88
341.842	790.88
342.07	758.88
342.298	752.88
342.526	770.88
342.754	779.88
342.981	779.88
343.209	775.88
343.437	806.88
343.665	863.88
343.893	941.88
344.12	975.88
344.348	920.88
344.576	882.88
344.804	866.88
345.031	800.88
345.259	804.88
345.487	773.88
345.714	746.88
345.942	770.88
346.17	776.88
346.397	762.88
346.625	754.88
346.853	756.88
347.08	744.88
347.308	744.88
347.535	757.88
347.763	767.88
347.99	754.88
348.218	758.88
348.445	754.88
348.673	777.88
348.9	750.88
349.128	754.88
349.355	736.88
349.583	733.88
349.81	744.88
350.037	746.88
350.265	727.88
350.492	720.88
350.72	714.88
350.947	717.88
351.174	698.88
351.402	696.88
351.629	730.88
351.856	701.88
352.083	729.88
352.311	739.88
352.538	699.88
352.765	716.88
352.992	694.88
353.22	697.88
353.447	696.88
353.674	694.88
353.901	698.88
354.128	692.88
354.355	682.88
354.583	714.88
354.81	720.88
355.037	702.88
355.264	720.88
355.491	718.88
355.718	709.88
355.945	682.88
356.172	732.88
356.399	719.88
356.626	713.88
356.853	723.88
357.08	724.88
357.307	705.88
357.534	704.88
357.761	727.88
357.988	713.88
358.215	708.88
358.441	731.88
358.668	716.88
358.895	715.88
359.122	743.88
359.349	740.88
359.576	747.88
359.802	731.88
360.029	720.88
360.256	716.88
360.483	710.88
360.709	717.88
360.936	715.88
361.163	713.88
361.39	717.88
361.616	708.88
361.843	743.88
362.07	706.88
362.296	710.88
362.523	714.88
362.749	715.88
362.976	702.88
363.203	731.88
363.429	715.88
363.656	698.88
363.882	716.88
364.109	685.88
364.335	714.88
364.562	719.88
364.788	724.88
365.015	712.88
365.241	709.88
365.468	712.88
365.694	722.88
365.92	710.88
366.147	710.88
366.373	724.88
366.599	746.88
366.826	744.88
367.052	715.88
367.278	698.88
367.505	708.88
367.731	712.88
367.957	727.88
368.184	751.88
368.41	708.88
368.636	727.88
368.862	735.88
369.089	746.88
369.315	719.88
369.541	740.88
369.767	757.88
369.993	746.88
370.219	741.88
370.445	770.88
370.672	794.88
370.898	750.88
371.124	773.88
371.35	756.88
371.576	811.88
371.802	787.88
372.028	797.88
372.254	786.88
372.48	796.88
372.706	829.88
372.932	842.88
373.158	827.88
373.384	799.88
373.61	809.88
373.835	794.88
374.061	792.88
374.287	816.88
374.513	819.88
374.739	848.88
374.965	876.88
375.191	892.88
375.416	858.88
375.642	845.88
375.868	830.88
376.094	788.88
376.319	799.88
376.545	834.88
376.771	798.88
376.997	781.88
377.222	794.88
377.448	798.88
377.674	789.88
377.899	771.88
378.125	771.88
378.35	784.88
378.576	768.88
378.802	782.88
379.027	774.88
379.253	775.88
379.478	769.88
379.704	792.88
379.929	760.88
380.155	793.88
380.38	782.88
380.606	786.88
380.831	798.88
381.057	804.88
381.282	794.88
381.507	786.88
381.733	794.88
381.958	766.88
382.184	812.88
382.409	797.88
382.634	797.88
382.86	807.88
383.085	845.88
383.31	810.88
383.535	830.88
383.761	851.88
383.986	864.88
384.211	906.88
384.436	888.88
384.662	914.88
384.887	940.88
385.112	912.88
385.337	937.88
385.562	950.88
385.787	924.88
386.013	958.88
386.238	922.88
386.463	957.88
386.688	972.88
386.913	934.88
387.138	907.88
387.363	931.88
387.588	911.88
387.813	916.88
388.038	912.88
388.263	940.88
388.488	923.88
388.713	966.88
388.938	908.88
389.163	910.88
389.387	895.88
389.612	893.88
389.837	907.88
390.062	891.88
390.287	922.88
390.512	931.88
390.736	946.88
390.961	974.88
391.186	940.88
391.411	981.88
391.636	1022.88
391.86	1017.88
392.085	1053.88
392.31	1084.88
392.534	1044.88
392.759	999.88
392.984	992.88
393.208	1006.88
393.433	1040.88
393.658	983.88
393.882	972.88
394.107	991.88
394.331	1002.88
394.556	995.88
394.78	1012.88
395.005	1020.88
395.229	1018.88
395.454	1043.88
395.678	1054.88
395.903	1083.88
396.127	1058.88
396.352	992.88
396.576	998.88
396.801	993.88
397.025	1006.88
397.249	1026.88
397.474	1053.88
397.698	1057.88
397.922	1049.88
398.147	1035.88
398.371	1058.88
398.595	1122.88
398.82	1149.88
399.044	1253.88
399.268	1367.88
399.492	1551.88
399.717	1802.88
399.941	1812.88
400.165	1611.88
400.389	1428.88
400.613	1308.88
400.837	1222.88
401.062	1220.88
401.286	1228.88
401.51	1168.88
401.734	1191.88
401.958	1166.88
402.182	1203.88
402.406	1221.88
402.63	1259.88
402.854	1242.88
403.078	1255.88
403.302	1302.88
403.526	1304.88
403.75	1340.88
403.974	1343.88
404.198	1359.88
404.422	1360.88
404.645	1365.88
404.869	1370.88
405.093	1342.88
405.317	1282.88
405.541	1282.88
405.765	1292.88
405.988	1297.88
406.212	1286.88
406.436	1285.88
406.66	1307.88
406.883	1338.88
407.107	1430.88
407.331	1462.88
407.555	1580.88
407.778	1529.88
408.002	1478.88
408.226	1456.88
408.449	1461.88
408.673	1360.88
408.896	1339.88
409.12	1334.88
409.344	1388.88
409.567	1363.88
409.791	1370.88
410.014	1346.88
410.238	1338.88
410.461	1337.88
410.685	1309.88
410.908	1300.88
411.132	1261.88
411.355	1224.88
411.578	1262.88
411.802	1226.88
412.025	1231.88
412.249	1254.88
412.472	1262.88
412.695	1229.88
412.919	1168.88
413.142	1190.88
413.365	1165.88
413.589	1184.88
413.812	1191.88
414.035	1146.88
414.258	1166.88
414.482	1191.88
414.705	1210.88
414.928	1194.88
415.151	1176.88
415.374	1168.88
415.597	1177.88
415.821	1150.88
416.044	1149.88
416.267	1169.88
416.49	1132.88
416.713	1134.88
416.936	1143.88
417.159	1150.88
417.382	1178.88
417.605	1162.88
417.828	1172.88
418.051	1160.88
418.274	1185.88
418.497	1166.88
418.72	1194.88
418.943	1204.88
419.166	1261.88
419.389	1376.88
419.611	1358.88
419.834	1277.88
420.057	1229.88
420.28	1210.88
420.503	1159.88
420.726	1172.88
420.948	1163.88
421.171	1143.88
421.394	1160.88
421.617	1181.88
421.839	1162.88
422.062	1202.88
422.285	1182.88
422.507	1184.88
422.73	1197.88
422.953	1195.88
423.175	1219.88
423.398	1208.88
423.621	1243.88
423.843	1235.88
424.066	1258.88
424.288	1282.88
424.511	1240.88
424.733	1247.88
424.956	1223.88
425.178	1196.88
425.401	1153.88
425.623	1156.88
425.846	1147.88
426.068	1141.88
426.291	1124.88
426.513	1130.88
426.735	1099.88
426.958	1109.88
427.18	1051.88
427.402	1109.88
427.625	1066.88
427.847	1030.88
428.069	1041.88
428.292	1044.88
428.514	1061.88
428.736	1051.88
428.958	1059.88
429.181	1030.88
429.403	1015.88
429.625	1004.88
429.847	1007.88
430.069	1038.88
430.292	1050.88
430.514	1040.88
430.736	1048.88
430.958	1022.88
431.18	999.88
431.402	1018.88
431.624	1003.88
431.846	1068.88
432.068	1062.88
432.29	1050.88
432.512	1069.88
432.734	1070.88
432.956	1043.88
433.178	1060.88
433.4	1018.88
433.622	1066.88
433.844	1077.88
434.066	1056.88
434.287	1064.88
434.509	1099.88
434.731	1126.88
434.953	1190.88
435.175	1191.88
435.397	1179.88
435.618	1136.88
435.84	1071.88
436.062	1043.88
436.284	1051.88
436.505	1098.88
436.727	1056.88
436.949	1061.88
437.17	1051.88
437.392	1033.88
437.614	1007.88
437.835	1006.88
438.057	1009.88
438.278	996.88
438.5	998.88
438.721	979.88
438.943	1050.88
439.165	1004.88
439.386	1036.88
439.608	1043.88
439.829	1048.88
440.05	1071.88
440.272	1052.88
440.493	1057.88
440.715	1096.88
440.936	1099.88
441.158	1122.88
441.379	1147.88
441.6	1210.88
441.822	1195.88
442.043	1198.88
442.264	1194.88
442.486	1158.88
442.707	1139.88
442.928	1145.88
443.149	1172.88
443.371	1144.88
443.592	1118.88
443.813	1162.88
444.034	1176.88
444.255	1266.88
444.476	1284.88
444.698	1358.88
444.919	1379.88
445.14	1515.88
445.361	1325.88
445.582	1234.88
445.803	1156.88
446.024	1141.88
446.245	1129.88
446.466	1096.88
446.687	1074.88
446.908	1089.88
447.129	1030.88
447.35	1030.88
447.571	1033.88
447.792	987.88
448.013	984.88
448.234	992.88
448.455	988.88
448.675	983.88
448.896	983.88
449.117	978.88
449.338	956.88
449.559	978.88
449.779	938.88
450	987.88
450.221	968.88
450.442	971.88
450.662	960.88
450.883	1005.88
451.104	1003.88
451.324	982.88
451.545	1035.88
451.766	989.88
451.986	971.88
452.207	956.88
452.428	943.88
452.648	982.88
452.869	939.88
453.089	967.88
453.31	942.88
453.53	948.88
453.751	963.88
453.971	907.88
454.192	912.88
454.412	922.88
454.633	919.88
454.853	902.88
455.073	912.88
455.294	913.88
455.514	898.88
455.734	916.88
455.955	908.88
456.175	890.88
456.395	898.88
456.616	898.88
456.836	915.88
457.056	902.88
457.276	882.88
457.497	924.88
457.717	883.88
457.937	910.88
458.157	927.88
458.377	918.88
458.598	938.88
458.818	973.88
459.038	1001.88
459.258	1007.88
459.478	1057.88
459.698	1092.88
459.918	1109.88
460.138	1146.88
460.358	1215.88
460.578	1207.88
460.798	1253.88
461.018	1240.88
461.238	1246.88
461.458	1213.88
461.678	1203.88
461.898	1256.88
462.118	1252.88
462.338	1375.88
462.558	1338.88
462.777	1390.88
462.997	1523.88
463.217	1682.88
463.437	1690.88
463.657	1525.88
463.876	1453.88
464.096	1456.88
464.316	1429.88
464.536	1482.88
464.755	1408.88
464.975	1366.88
465.195	1286.88
465.414	1202.88
465.634	1123.88
465.854	1094.88
466.073	1057.88
466.293	1055.88
466.512	1032.88
466.732	1008.88
466.951	998.88
467.171	985.88
467.391	1048.88
467.61	1032.88
467.829	984.88
468.049	999.88
468.268	982.88
468.488	954.88
468.707	972.88
468.927	934.88
469.146	962.88
469.365	973.88
469.585	972.88
469.804	1005.88
470.023	1040.88
470.243	1023.88
470.462	1027.88
470.681	1051.88
470.901	1036.88
471.12	1036.88
471.339	996.88
471.558	1022.88
471.777	974.88
471.997	950.88
472.216	949.88
472.435	954.88
472.654	922.88
472.873	927.88
473.092	938.88
473.311	950.88
473.53	931.88
473.749	958.88
473.968	922.88
474.187	928.88
474.406	922.88
474.625	955.88
474.844	921.88
475.063	916.88
475.282	969.88
475.501	952.88
475.72	959.88
475.939	955.88
476.158	980.88
476.377	963.88
476.596	995.88
476.814	997.88
477.033	983.88
477.252	999.88
477.471	1022.88
477.69	1050.88
477.908	1071.88
478.127	1095.88
478.346	1123.88
478.564	1146.88
478.783	1160.88
479.002	1153.88
479.22	1164.88
479.439	1170.88
479.658	1160.88
479.876	1174.88
480.095	1160.88
480.313	1238.88
480.532	1252.88
480.751	1245.88
480.969	1228.88
481.188	1154.88
481.406	1106.88
481.624	1110.88
481.843	1097.88
482.061	1102.88
482.28	1088.88
482.498	1070.88
482.717	1061.88
482.935	1054.88
483.153	1055.88
483.372	1076.88
483.59	1054.88
483.808	1068.88
484.027	1091.88
484.245	1077.88
484.463	1100.88
484.681	1080.88
484.9	1107.88
485.118	1107.88
485.336	1118.88
485.554	1117.88
485.772	1146.88
485.99	1110.88
486.209	1141.88
486.427	1158.88
486.645	1143.88
486.863	1144.88
487.081	1154.88
487.299	1102.88
487.517	1109.88
487.735	1097.88
487.953	1135.88
488.171	1126.88
488.389	1127.88
488.607	1124.88
488.825	1094.88
489.043	1101.88
489.261	1128.88
489.479	1131.88
489.696	1108.88
489.914	1110.88
490.132	1135.88
490.35	1124.88
490.568	1143.88
490.786	1131.88
491.003	1110.88
491.221	1136.88
491.439	1138.88
491.657	1119.88
491.874	1134.88
492.092	1153.88
492.31	1160.88
492.527	1133.88
492.745	1165.88
492.963	1142.88
493.18	1179.88
493.398	1184.88
493.615	1169.88
493.833	1186.88
494.05	1182.88
494.268	1183.88
494.485	1199.88
494.703	1214.88
494.92	1190.88
495.138	1165.88
495.355	1195.88
495.573	1215.88
495.79	1223.88
496.008	1221.88
496.225	1222.88
496.442	1202.88
496.66	1257.88
496.877	1246.88
497.094	1252.88
497.312	1276.88
497.529	1286.88
497.746	1330.88
497.963	1382.88
498.181	1442.88
498.398	1464.88
498.615	1602.88
498.832	1656.88
499.049	1825.88
499.267	1977.88
499.484	2187.88
499.701	2328.88
499.918	2577.88
500.135	3000.88
500.352	3418.88
500.569	3561.88
500.786	3610.88
501.003	3325.88
501.22	3019.88
501.437	2630.88
501.654	2315.88
501.871	2089.88
502.088	1936.88
502.305	1764.88
502.522	1680.88
502.739	1637.88
502.956	1539.88
503.172	1483.88
503.389	1430.88
503.606	1379.88
503.823	1367.88
504.04	1355.88
504.256	1375.88
504.473	1402.88
504.69	1435.88
504.907	1421.88
505.123	1316.88
505.34	1239.88
505.557	1200.88
505.773	1167.88
505.99	1135.88
506.207	1119.88
506.423	1091.88
506.64	1084.88
506.856	1082.88
507.073	1091.88
507.289	1068.88
507.506	1062.88
507.722	1080.88
507.939	1024.88
508.155	1036.88
508.372	1021.88
508.588	993.88
508.805	997.88
509.021	994.88
509.238	1010.88
509.454	988.88
509.67	956.88
509.887	960.88
510.103	967.88
510.319	983.88
510.536	985.88
510.752	963.88
510.968	965.88
511.184	958.88
511.401	984.88
511.617	963.88
511.833	954.88
512.049	939.88
512.265	958.88
512.481	938.88
512.698	968.88
512.914	964.88
513.13	954.88
513.346	964.88
513.562	951.88
513.778	975.88
513.994	965.88
514.21	968.88
514.426	973.88
514.642	991.88
514.858	972.88
515.074	986.88
515.29	982.88
515.506	960.88
515.721	1025.88
515.937	1029.88
516.153	1062.88
516.369	1056.88
516.585	1102.88
516.801	1116.88
517.016	1168.88
517.232	1225.88
517.448	1303.88
517.664	1340.88
517.879	1351.88
518.095	1364.88
518.311	1331.88
518.527	1261.88
518.742	1218.88
518.958	1158.88
519.173	1113.88
519.389	1091.88
519.605	1062.88
519.82	1034.88
520.036	1037.88
520.251	983.88
520.467	998.88
520.682	965.88
520.898	968.88
521.113	958.88
521.329	975.88
521.544	967.88
521.76	926.88
521.975	948.88
522.19	908.88
522.406	904.88
522.621	918.88
522.836	888.88
523.052	910.88
523.267	907.88
523.482	893.88
523.698	892.88
523.913	916.88
524.128	895.88
524.343	916.88
524.559	911.88
524.774	888.88
524.989	895.88
525.204	892.88
525.419	887.88
525.634	866.88
525.849	884.88
526.064	902.88
526.28	843.88
526.495	867.88
526.71	871.88
526.925	855.88
527.14	855.88
527.355	839.88
527.57	858.88
527.785	844.88
527.999	843.88
528.214	874.88
528.429	867.88
528.644	863.88
528.859	872.88
529.074	873.88
529.289	874.88
529.503	884.88
529.718	849.88
529.933	858.88
530.148	857.88
530.363	868.88
530.577	887.88
530.792	860.88
531.007	877.88
531.221	887.88
531.436	880.88
531.651	863.88
531.865	874.88
532.08	888.88
532.295	875.88
532.509	867.88
532.724	849.88
532.938	870.88
533.153	853.88
533.367	869.88
533.582	866.88
533.796	885.88
534.011	859.88
534.225	877.88
534.44	852.88
534.654	851.88
534.868	827.88
535.083	829.88
535.297	812.88
535.511	843.88
535.726	844.88
535.94	815.88
536.154	814.88
536.369	826.88
536.583	832.88
536.797	790.88
537.011	802.88
537.225	816.88
537.44	798.88
537.654	758.88
537.868	814.88
538.082	793.88
538.296	816.88
538.51	810.88
538.724	800.88
538.938	812.88
539.153	773.88
539.367	790.88
539.581	786.88
539.795	762.88
540.009	800.88
540.222	779.88
540.436	771.88
540.65	758.88
540.864	779.88
541.078	746.88
541.292	776.88
541.506	792.88
541.72	779.88
541.934	782.88
542.147	780.88
542.361	803.88
542.575	736.88
542.789	772.88
543.002	743.88
543.216	750.88
543.43	767.88
543.644	783.88
543.857	774.88
544.071	773.88
544.285	786.88
544.498	736.88
544.712	796.88
544.925	784.88
545.139	775.88
545.352	778.88
545.566	797.88
545.779	787.88
545.993	810.88
546.206	809.88
546.42	813.88
546.633	796.88
546.847	782.88
547.06	756.88
547.274	789.88
547.487	804.88
547.7	774.88
547.914	779.88
548.127	809.88
548.34	837.88
548.554	758.88
548.767	784.88
548.98	804.88
549.193	778.88
549.407	808.88
549.62	821.88
549.833	844.88
550.046	825.88
550.259	810.88
550.473	773.88
550.686	759.88
550.899	791.88
551.112	754.88
551.325	758.88
551.538	759.88
551.751	748.88
551.964	758.88
552.177	793.88
552.39	796.88
552.603	827.88
552.816	794.88
553.029	830.88
553.242	856.88
553.455	859.88
553.667	890.88
553.88	864.88
554.093	814.88
554.306	825.88
554.519	788.88
554.732	768.88
554.944	751.88
555.157	755.88
555.37	738.88
555.583	735.88
555.795	728.88
556.008	734.88
556.221	688.88
556.433	713.88
556.646	696.88
556.859	687.88
557.071	678.88
557.284	686.88
557.496	683.88
557.709	685.88
557.921	678.88
558.134	664.88
558.346	663.88
558.559	680.88
558.771	677.88
558.984	654.88
559.196	659.88
559.409	669.88
559.621	665.88
559.833	656.88
560.046	668.88
560.258	658.88
560.47	632.88
560.683	647.88
560.895	650.88
561.107	659.88
561.32	654.88
561.532	656.88
561.744	669.88
561.956	645.88
562.168	654.88
562.381	650.88
562.593	653.88
562.805	668.88
563.017	666.88
563.229	659.88
563.441	657.88
563.653	668.88
563.865	667.88
564.077	701.88
564.289	702.88
564.501	686.88
564.713	705.88
564.925	699.88
565.137	714.88
565.349	746.88
565.561	756.88
565.773	756.88
565.985	794.88
566.197	835.88
566.408	930.88
566.62	1002.88
566.832	1054.88
567.044	1081.88
567.255	1062.88
567.467	1110.88
567.679	1170.88
567.891	1273.88
568.102	1273.88
568.314	1218.88
568.526	1112.88
568.737	993.88
568.949	935.88
569.161	845.88
569.372	774.88
569.584	742.88
569.795	704.88
570.007	700.88
570.218	687.88
570.43	681.88
570.641	683.88
570.853	641.88
571.064	681.88
571.276	667.88
571.487	655.88
571.698	640.88
571.91	612.88
572.121	626.88
572.333	598.88
572.544	567.88
572.755	598.88
572.966	559.88
573.178	553.88
573.389	558.88
573.6	551.88
573.811	551.88
574.023	555.88
574.234	570.88
574.445	546.88
574.656	538.88
574.867	538.88
575.078	528.88
575.289	548.88
575.501	513.88
575.712	531.88
575.923	528.88
576.134	505.88
576.345	536.88
576.556	527.88
576.767	491.88
576.978	500.88
577.188	518.88
577.399	501.88
577.61	515.88
577.821	488.88
578.032	490.88
578.243	506.88
578.454	479.88
578.665	478.88
578.875	486.88
579.086	481.88
579.297	495.88
579.508	482.88
579.718	468.88
579.929	472.88
580.14	480.88
580.35	455.88
580.561	441.88
580.772	463.88
580.982	462.88
581.193	494.88
581.403	451.88
581.614	472.88
581.825	441.88
582.035	460.88
582.246	450.88
582.456	460.88
582.667	461.88
582.877	461.88
583.087	454.88
583.298	430.88
583.508	465.88
583.719	471.88
583.929	449.88
584.139	455.88
584.35	451.88
584.56	458.88
584.77	441.88
584.981	435.88
585.191	431.88
585.401	432.88
585.611	446.88
585.821	459.88
586.032	446.88
586.242	434.88
586.452	423.88
586.662	446.88
586.872	454.88
587.082	422.88
587.292	416.88
587.502	440.88
587.713	427.88
587.923	433.88
588.133	428.88
588.343	440.88
588.553	438.88
588.762	422.88
588.972	457.88
589.182	432.88
589.392	425.88
589.602	431.88
589.812	447.88
590.022	434.88
590.232	421.88
590.441	438.88
590.651	425.88
590.861	434.88
591.071	446.88
591.281	455.88
591.49	422.88
591.7	456.88
591.91	452.88
592.119	466.88
592.329	473.88
592.539	479.88
592.748	521.88
592.958	504.88
593.167	536.88
593.377	549.88
593.587	549.88
593.796	541.88
594.006	550.88
594.215	572.88
594.424	556.88
594.634	548.88
594.843	531.88
595.053	520.88
595.262	481.88
595.472	460.88
595.681	453.88
595.89	439.88
596.1	445.88
596.309	434.88
596.518	430.88
596.727	426.88
596.937	426.88
597.146	401.88
597.355	386.88
597.564	388.88
597.774	403.88
597.983	401.88
598.192	366.88
598.401	369.88
598.61	379.88
598.819	371.88
599.028	368.88
599.237	382.88
599.446	374.88
599.655	359.88
599.864	363.88
600.073	363.88
600.282	361.88
600.491	357.88
600.7	346.88
600.909	394.88
601.118	367.88
601.327	376.88
601.536	352.88
601.745	359.88
601.953	356.88
602.162	357.88
602.371	363.88
602.58	351.88
602.789	365.88
602.997	362.88
603.206	347.88
603.415	344.88
603.623	368.88
603.832	344.88
604.041	344.88
604.249	327.88
604.458	352.88
604.666	339.88
604.875	324.88
605.084	347.88
605.292	355.88
605.501	354.88
605.709	370.88
605.918	348.88
606.126	343.88
606.334	348.88
606.543	354.88
606.751	336.88
606.96	343.88
607.168	337.88
607.376	340.88
607.585	342.88
607.793	325.88
608.001	350.88
608.21	318.88
608.418	332.88
608.626	329.88
608.834	340.88
609.043	332.88
609.251	337.88
609.459	346.88
609.667	319.88
609.875	346.88
610.083	348.88
610.291	309.88
610.499	332.88
610.707	332.88
610.916	318.88
611.124	332.88
611.332	320.88
611.54	322.88
611.748	314.88
611.955	307.88
612.163	306.88
612.371	324.88
612.579	319.88
612.787	331.88
612.995	320.88
613.203	323.88
613.411	310.88
613.618	316.88
613.826	328.88
614.034	320.88
614.242	312.88
614.449	316.88
614.657	298.88
614.865	303.88
615.072	319.88
615.28	311.88
615.488	314.88
615.695	318.88
615.903	303.88
616.111	319.88
616.318	329.88
616.526	326.88
616.733	329.88
616.941	302.88
617.148	322.88
617.356	329.88
617.563	312.88
617.771	324.88
617.978	315.88
618.185	338.88
618.393	312.88
618.6	329.88
618.807	312.88
619.015	329.88
619.222	304.88
619.429	312.88
619.637	300.88
619.844	308.88
620.051	282.88
620.258	318.88
620.466	304.88
620.673	303.88
620.88	309.88
621.087	283.88
621.294	301.88
621.501	298.88
621.708	282.88
621.915	294.88
622.122	287.88
622.329	287.88
622.536	283.88
622.743	270.88
622.95	294.88
623.157	291.88
623.364	290.88
623.571	289.88
623.778	280.88
623.985	300.88
624.192	285.88
624.399	271.88
624.606	276.88
624.812	278.88
625.019	277.88
625.226	287.88
625.433	279.88
625.639	266.88
625.846	264.88
626.053	273.88
626.259	279.88
626.466	286.88
626.673	269.88
626.879	257.88
627.086	270.88
627.293	255.88
627.499	280.88
627.706	273.88
627.912	278.88
628.119	262.88
628.325	268.88
628.532	261.88
628.738	250.88
628.945	276.88
629.151	262.88
629.357	244.88
629.564	266.88
629.77	259.88
629.976	246.88
630.183	249.88
630.389	246.88
630.595	258.88
630.802	242.88
631.008	249.88
631.214	249.88
631.42	262.88
631.627	256.88
631.833	255.88
632.039	237.88
632.245	235.88
632.451	235.88
632.657	245.88
632.863	224.88
633.069	227.88
633.275	238.88
633.481	231.88
633.688	228.88
633.893	216.88
634.099	233.88
634.305	243.88
634.511	241.88
634.717	234.88
634.923	225.88
635.129	235.88
635.335	251.88
635.541	222.88
635.747	223.88
635.952	218.88
636.158	220.88
636.364	225.88
636.57	235.88
636.775	232.88
636.981	234.88
637.187	239.88
637.392	223.88
637.598	211.88
637.804	236.88
638.009	218.88
638.215	241.88
638.421	219.88
638.626	220.88
638.832	194.88
639.037	221.88
639.243	234.88
639.448	214.88
639.654	215.88
639.859	199.88
640.065	220.88
640.27	207.88
640.475	235.88
640.681	215.88
640.886	229.88
641.091	211.88
641.297	204.88
641.502	198.88
641.707	208.88
641.913	211.88
642.118	204.88
642.323	197.88
642.528	219.88
642.733	198.88
642.939	204.88
643.144	223.88
643.349	182.88
643.554	203.88
643.759	205.88
643.964	222.88
644.169	212.88
644.374	207.88
644.579	213.88
644.784	212.88
644.989	222.88
645.194	206.88
645.399	196.88
645.604	217.88
645.809	196.88
646.014	205.88
646.219	194.88
646.423	212.88
646.628	204.88
646.833	212.88
647.038	188.88
647.243	214.88
647.447	206.88
647.652	200.88
647.857	210.88
648.062	223.88
648.266	218.88
648.471	220.88
648.676	222.88
648.88	209.88
649.085	215.88
649.289	203.88
649.494	198.88
649.698	204.88
649.903	193.88
650.107	207.88
650.312	204.88
650.516	188.88
650.721	198.88
650.925	189.88
651.13	187.88
651.334	204.88
651.539	186.88
651.743	190.88
651.947	174.88
652.152	171.88
652.356	173.88
652.56	162.88
652.764	172.88
652.969	173.88
653.173	173.88
653.377	156.88
653.581	158.88
653.785	165.88
653.99	154.88
654.194	165.88
654.398	150.88
654.602	149.88
654.806	170.88
655.01	174.88
655.214	152.88
655.418	147.88
655.622	143.88
655.826	150.88
656.03	138.88
656.234	154.88
656.438	150.88
656.642	142.88
656.846	139.88
657.049	124.88
657.253	140.88
657.457	137.88
657.661	138.88
657.865	122.88
658.068	123.88
658.272	122.88
658.476	123.88
658.68	102.88
658.883	101.88
659.087	105.88
659.291	100.88
659.494	101.88
659.698	124.88
659.901	104.88
660.105	108.88
660.309	91.88
660.512	102.88
660.716	85.88
660.919	98.88
661.123	79.88
661.326	78.88
661.53	93.88
661.733	88.88
661.936	88.88
662.14	90.88
662.343	103.88
662.546	92.88
662.75	99.88
662.953	87.88
663.156	83.88
663.36	94.88
663.563	98.88
663.766	85.88
663.969	87.88
664.173	88.88
664.376	98.88
664.579	93.88
664.782	102.88
664.985	84.88
665.188	83.88
665.391	77.88
665.594	84.88
665.797	76.88
666	95.88
666.203	80.88
666.406	86.88
666.609	92.88
666.812	86.88
667.015	79.88
667.218	79.88
667.421	84.88
667.624	79.88
667.827	88.88
668.03	80.88
668.232	88.88
668.435	92.88
668.638	95.88
668.841	90.88
669.043	85.88
669.246	79.88
669.449	83.88
669.651	85.88
669.854	85.88
670.057	82.88
670.259	88.88
670.462	82.88
670.665	87.88
670.867	89.88
671.07	88.88
671.272	87.88
671.475	93.88
671.677	81.88
671.88	74.88
672.082	77.88
672.284	84.88
672.487	80.88
672.689	73.88
672.892	79.88
