Data from NiCl2@0.25M.TitratingCurve.Agarose3%dH2O.NegLispCup.LampEnergy10.LIBS07252019_HRD10591_18-24-25-573.txt Node
Date: Thu Jul 25 18:24:25 EDT 2019
User: cochatt
Spectrometer: HR+D1059
Trigger mode: 1
Integration Time (sec): 1.000000E-1
Scans to average: 1
Electric dark correction enabled: true
Nonlinearity correction enabled: false
Boxcar width: 0
XAxis mode: Wavelengths
Number of Pixels in Spectrum: 2048
>>>>>Begin Spectral Data<<<<<
223.165	-21.75
223.4	-21.75
223.635	-21.75
223.869	-10.75
224.104	-7.75
224.338	-20.75
224.573	-12.75
224.808	-5.75
225.042	-7.75
225.277	8.25
225.511	-0.75
225.746	-16.75
225.98	-2.75
226.215	2.25
226.449	23.25
226.683	21.25
226.918	30.25
227.152	22.25
227.387	25.25
227.621	43.25
227.856	58.25
228.09	54.25
228.324	65.25
228.559	58.25
228.793	67.25
229.027	91.25
229.262	110.25
229.496	115.25
229.73	120.25
229.964	123.25
230.199	120.25
230.433	131.25
230.667	127.25
230.901	135.25
231.136	139.25
231.37	130.25
231.604	139.25
231.838	151.25
232.072	143.25
232.306	127.25
232.541	150.25
232.775	156.25
233.009	137.25
233.243	152.25
233.477	146.25
233.711	146.25
233.945	147.25
234.179	154.25
234.413	153.25
234.647	148.25
234.881	133.25
235.115	157.25
235.349	155.25
235.583	170.25
235.817	146.25
236.051	157.25
236.285	148.25
236.519	140.25
236.753	138.25
236.987	146.25
237.221	158.25
237.455	157.25
237.689	157.25
237.922	153.25
238.156	158.25
238.39	162.25
238.624	164.25
238.858	161.25
239.091	155.25
239.325	169.25
239.559	176.25
239.793	186.25
240.027	173.25
240.26	169.25
240.494	186.25
240.728	177.25
240.961	187.25
241.195	203.25
241.429	185.25
241.662	178.25
241.896	178.25
242.13	178.25
242.363	182.25
242.597	187.25
242.83	203.25
243.064	190.25
243.298	192.25
243.531	202.25
243.765	196.25
243.998	199.25
244.232	198.25
244.465	201.25
244.699	218.25
244.932	179.25
245.166	209.25
245.399	203.25
245.633	214.25
245.866	203.25
246.099	222.25
246.333	221.25
246.566	221.25
246.8	203.25
247.033	212.25
247.266	214.25
247.5	210.25
247.733	238.25
247.966	246.25
248.2	238.25
248.433	230.25
248.666	217.25
248.899	208.25
249.133	231.25
249.366	250.25
249.599	245.25
249.832	248.25
250.066	233.25
250.299	242.25
250.532	246.25
250.765	251.25
250.998	263.25
251.231	256.25
251.465	249.25
251.698	262.25
251.931	260.25
252.164	245.25
252.397	258.25
252.63	266.25
252.863	242.25
253.096	266.25
253.329	264.25
253.562	267.25
253.795	261.25
254.028	284.25
254.261	277.25
254.494	268.25
254.727	266.25
254.96	278.25
255.193	264.25
255.426	272.25
255.659	260.25
255.892	294.25
256.124	278.25
256.357	300.25
256.59	283.25
256.823	299.25
257.056	284.25
257.289	275.25
257.521	294.25
257.754	280.25
257.987	297.25
258.22	316.25
258.452	290.25
258.685	304.25
258.918	303.25
259.151	297.25
259.383	289.25
259.616	304.25
259.849	300.25
260.081	294.25
260.314	313.25
260.547	312.25
260.779	319.25
261.012	322.25
261.244	308.25
261.477	320.25
261.71	308.25
261.942	312.25
262.175	346.25
262.407	337.25
262.64	336.25
262.872	344.25
263.105	332.25
263.337	336.25
263.57	327.25
263.802	323.25
264.035	321.25
264.267	336.25
264.499	329.25
264.732	338.25
264.964	349.25
265.197	335.25
265.429	341.25
265.661	348.25
265.894	352.25
266.126	353.25
266.358	349.25
266.591	356.25
266.823	339.25
267.055	348.25
267.287	346.25
267.52	340.25
267.752	366.25
267.984	364.25
268.216	355.25
268.448	354.25
268.681	363.25
268.913	342.25
269.145	351.25
269.377	375.25
269.609	362.25
269.841	352.25
270.073	361.25
270.306	369.25
270.538	376.25
270.77	374.25
271.002	371.25
271.234	364.25
271.466	380.25
271.698	386.25
271.93	394.25
272.162	375.25
272.394	386.25
272.626	380.25
272.858	380.25
273.09	380.25
273.322	386.25
273.553	390.25
273.785	387.25
274.017	380.25
274.249	396.25
274.481	403.25
274.713	383.25
274.945	406.25
275.176	393.25
275.408	408.25
275.64	414.25
275.872	383.25
276.104	411.25
276.335	402.25
276.567	423.25
276.799	407.25
277.031	414.25
277.262	408.25
277.494	423.25
277.726	407.25
277.957	437.25
278.189	426.25
278.421	418.25
278.652	434.25
278.884	421.25
279.115	423.25
279.347	414.25
279.579	434.25
279.81	430.25
280.042	406.25
280.273	437.25
280.505	437.25
280.736	444.25
280.968	430.25
281.199	470.25
281.431	450.25
281.662	429.25
281.894	464.25
282.125	451.25
282.356	434.25
282.588	453.25
282.819	442.25
283.051	452.25
283.282	456.25
283.513	446.25
283.745	446.25
283.976	454.25
284.207	478.25
284.439	459.25
284.67	466.25
284.901	475.25
285.132	472.25
285.364	487.25
285.595	455.25
285.826	462.25
286.057	466.25
286.288	481.25
286.52	478.25
286.751	489.25
286.982	474.25
287.213	469.25
287.444	492.25
287.675	512.25
287.906	509.25
288.138	500.25
288.369	479.25
288.6	519.25
288.831	485.25
289.062	494.25
289.293	508.25
289.524	512.25
289.755	500.25
289.986	522.25
290.217	482.25
290.448	497.25
290.679	538.25
290.91	496.25
291.141	516.25
291.371	498.25
291.602	499.25
291.833	513.25
292.064	487.25
292.295	517.25
292.526	512.25
292.757	522.25
292.987	515.25
293.218	513.25
293.449	506.25
293.68	515.25
293.91	511.25
294.141	515.25
294.372	495.25
294.603	523.25
294.833	487.25
295.064	516.25
295.295	523.25
295.525	542.25
295.756	524.25
295.987	498.25
296.217	545.25
296.448	524.25
296.679	522.25
296.909	531.25
297.14	538.25
297.37	544.25
297.601	545.25
297.831	551.25
298.062	562.25
298.292	548.25
298.523	582.25
298.753	575.25
298.984	550.25
299.214	551.25
299.445	543.25
299.675	562.25
299.905	560.25
300.136	565.25
300.366	577.25
300.597	567.25
300.827	573.25
301.057	607.25
301.288	594.25
301.518	603.25
301.748	587.25
301.979	596.25
302.209	562.25
302.439	586.25
302.669	568.25
302.9	573.25
303.13	574.25
303.36	559.25
303.59	567.25
303.82	582.25
304.051	592.25
304.281	582.25
304.511	572.25
304.741	570.25
304.971	581.25
305.201	594.25
305.431	587.25
305.661	575.25
305.891	562.25
306.121	561.25
306.352	561.25
306.582	563.25
306.812	566.25
307.042	580.25
307.272	576.25
307.502	550.25
307.731	577.25
307.961	598.25
308.191	581.25
308.421	577.25
308.651	560.25
308.881	555.25
309.111	577.25
309.341	554.25
309.571	567.25
309.8	554.25
310.03	548.25
310.26	558.25
310.49	570.25
310.72	570.25
310.949	573.25
311.179	587.25
311.409	587.25
311.639	566.25
311.868	580.25
312.098	581.25
312.328	597.25
312.557	584.25
312.787	605.25
313.017	596.25
313.246	634.25
313.476	632.25
313.706	603.25
313.935	636.25
314.165	633.25
314.394	611.25
314.624	645.25
314.853	622.25
315.083	617.25
315.312	619.25
315.542	628.25
315.771	602.25
316.001	613.25
316.23	611.25
316.46	607.25
316.689	610.25
316.919	618.25
317.148	604.25
317.377	596.25
317.607	588.25
317.836	623.25
318.065	600.25
318.295	604.25
318.524	602.25
318.753	590.25
318.983	601.25
319.212	569.25
319.441	576.25
319.67	631.25
319.9	603.25
320.129	595.25
320.358	600.25
320.587	595.25
320.816	584.25
321.046	597.25
321.275	585.25
321.504	609.25
321.733	593.25
321.962	585.25
322.191	593.25
322.42	591.25
322.649	603.25
322.878	631.25
323.108	615.25
323.337	613.25
323.566	616.25
323.795	616.25
324.024	639.25
324.253	617.25
324.482	619.25
324.71	636.25
324.939	645.25
325.168	626.25
325.397	647.25
325.626	628.25
325.855	636.25
326.084	637.25
326.313	658.25
326.542	660.25
326.77	653.25
326.999	668.25
327.228	676.25
327.457	647.25
327.686	651.25
327.914	655.25
328.143	652.25
328.372	671.25
328.6	658.25
328.829	643.25
329.058	638.25
329.287	668.25
329.515	665.25
329.744	661.25
329.972	683.25
330.201	678.25
330.43	668.25
330.658	673.25
330.887	694.25
331.115	688.25
331.344	708.25
331.572	708.25
331.801	746.25
332.03	754.25
332.258	734.25
332.486	768.25
332.715	794.25
332.943	818.25
333.172	848.25
333.4	847.25
333.629	881.25
333.857	883.25
334.085	866.25
334.314	862.25
334.542	861.25
334.771	858.25
334.999	848.25
335.227	825.25
335.455	831.25
335.684	839.25
335.912	817.25
336.14	793.25
336.369	784.25
336.597	800.25
336.825	775.25
337.053	793.25
337.281	790.25
337.51	774.25
337.738	759.25
337.966	755.25
338.194	752.25
338.422	699.25
338.65	731.25
338.878	742.25
339.106	747.25
339.334	736.25
339.562	735.25
339.79	691.25
340.018	686.25
340.246	690.25
340.474	684.25
340.702	695.25
340.93	672.25
341.158	702.25
341.386	706.25
341.614	707.25
341.842	709.25
342.07	683.25
342.298	691.25
342.526	668.25
342.754	702.25
342.981	699.25
343.209	681.25
343.437	748.25
343.665	784.25
343.893	825.25
344.12	870.25
344.348	814.25
344.576	779.25
344.804	724.25
345.031	718.25
345.259	721.25
345.487	687.25
345.714	693.25
345.942	675.25
346.17	696.25
346.397	694.25
346.625	682.25
346.853	671.25
347.08	656.25
347.308	663.25
347.535	685.25
347.763	700.25
347.99	642.25
348.218	676.25
348.445	674.25
348.673	673.25
348.9	641.25
349.128	670.25
349.355	666.25
349.583	693.25
349.81	634.25
350.037	666.25
350.265	657.25
350.492	662.25
350.72	630.25
350.947	650.25
351.174	644.25
351.402	639.25
351.629	639.25
351.856	635.25
352.083	642.25
352.311	638.25
352.538	635.25
352.765	630.25
352.992	642.25
353.22	626.25
353.447	623.25
353.674	625.25
353.901	631.25
354.128	644.25
354.355	635.25
354.583	629.25
354.81	629.25
355.037	658.25
355.264	653.25
355.491	632.25
355.718	628.25
355.945	618.25
356.172	644.25
356.399	646.25
356.626	659.25
356.853	648.25
357.08	644.25
357.307	646.25
357.534	634.25
357.761	634.25
357.988	626.25
358.215	628.25
358.441	636.25
358.668	624.25
358.895	637.25
359.122	651.25
359.349	609.25
359.576	634.25
359.802	626.25
360.029	625.25
360.256	649.25
360.483	633.25
360.709	648.25
360.936	638.25
361.163	658.25
361.39	649.25
361.616	670.25
361.843	644.25
362.07	657.25
362.296	649.25
362.523	652.25
362.749	630.25
362.976	640.25
363.203	640.25
363.429	617.25
363.656	654.25
363.882	656.25
364.109	653.25
364.335	660.25
364.562	647.25
364.788	629.25
365.015	635.25
365.241	643.25
365.468	640.25
365.694	647.25
365.92	644.25
366.147	641.25
366.373	628.25
366.599	653.25
366.826	651.25
367.052	643.25
367.278	670.25
367.505	634.25
367.731	656.25
367.957	630.25
368.184	644.25
368.41	661.25
368.636	630.25
368.862	646.25
369.089	636.25
369.315	649.25
369.541	663.25
369.767	672.25
369.993	678.25
370.219	680.25
370.445	679.25
370.672	674.25
370.898	693.25
371.124	674.25
371.35	705.25
371.576	707.25
371.802	694.25
372.028	703.25
372.254	692.25
372.48	700.25
372.706	712.25
372.932	702.25
373.158	733.25
373.384	690.25
373.61	720.25
373.835	704.25
374.061	702.25
374.287	704.25
374.513	711.25
374.739	746.25
374.965	764.25
375.191	767.25
375.416	764.25
375.642	752.25
375.868	734.25
376.094	709.25
376.319	711.25
376.545	700.25
376.771	697.25
376.997	681.25
377.222	704.25
377.448	695.25
377.674	692.25
377.899	702.25
378.125	683.25
378.35	671.25
378.576	694.25
378.802	674.25
379.027	706.25
379.253	683.25
379.478	706.25
379.704	674.25
379.929	693.25
380.155	674.25
380.38	674.25
380.606	677.25
380.831	690.25
381.057	690.25
381.282	682.25
381.507	698.25
381.733	691.25
381.958	711.25
382.184	712.25
382.409	713.25
382.634	697.25
382.86	711.25
383.085	748.25
383.31	751.25
383.535	750.25
383.761	775.25
383.986	781.25
384.211	789.25
384.436	809.25
384.662	794.25
384.887	831.25
385.112	839.25
385.337	842.25
385.562	820.25
385.787	857.25
386.013	857.25
386.238	854.25
386.463	846.25
386.688	844.25
386.913	845.25
387.138	819.25
387.363	808.25
387.588	847.25
387.813	812.25
388.038	828.25
388.263	809.25
388.488	833.25
388.713	853.25
388.938	803.25
389.163	790.25
389.387	818.25
389.612	837.25
389.837	807.25
390.062	800.25
390.287	811.25
390.512	812.25
390.736	833.25
390.961	840.25
391.186	853.25
391.411	903.25
391.636	894.25
391.86	941.25
392.085	926.25
392.31	940.25
392.534	926.25
392.759	919.25
392.984	892.25
393.208	905.25
393.433	888.25
393.658	873.25
393.882	888.25
394.107	904.25
394.331	887.25
394.556	900.25
394.78	908.25
395.005	905.25
395.229	899.25
395.454	931.25
395.678	946.25
395.903	950.25
396.127	930.25
396.352	896.25
396.576	882.25
396.801	891.25
397.025	907.25
397.249	944.25
397.474	950.25
397.698	928.25
397.922	933.25
398.147	970.25
398.371	948.25
398.595	1010.25
398.82	1027.25
399.044	1112.25
399.268	1245.25
399.492	1407.25
399.717	1568.25
399.941	1539.25
400.165	1397.25
400.389	1256.25
400.613	1196.25
400.837	1096.25
401.062	1090.25
401.286	1091.25
401.51	1058.25
401.734	1050.25
401.958	1051.25
402.182	1061.25
402.406	1078.25
402.63	1110.25
402.854	1150.25
403.078	1122.25
403.302	1175.25
403.526	1174.25
403.75	1189.25
403.974	1202.25
404.198	1243.25
404.422	1219.25
404.645	1162.25
404.869	1204.25
405.093	1196.25
405.317	1176.25
405.541	1156.25
405.765	1152.25
405.988	1162.25
406.212	1161.25
406.436	1141.25
406.66	1159.25
406.883	1198.25
407.107	1273.25
407.331	1331.25
407.555	1366.25
407.778	1356.25
408.002	1315.25
408.226	1280.25
408.449	1271.25
408.673	1257.25
408.896	1193.25
409.12	1173.25
409.344	1196.25
409.567	1178.25
409.791	1199.25
410.014	1182.25
410.238	1156.25
410.461	1147.25
410.685	1144.25
410.908	1124.25
411.132	1125.25
411.355	1082.25
411.578	1123.25
411.802	1077.25
412.025	1072.25
412.249	1136.25
412.472	1095.25
412.695	1087.25
412.919	1070.25
413.142	1044.25
413.365	1048.25
413.589	1054.25
413.812	1033.25
414.035	1046.25
414.258	1028.25
414.482	1061.25
414.705	1088.25
414.928	1069.25
415.151	1050.25
415.374	1047.25
415.597	1028.25
415.821	998.25
416.044	1021.25
416.267	1016.25
416.49	1035.25
416.713	1022.25
416.936	1044.25
417.159	1038.25
417.382	1026.25
417.605	991.25
417.828	995.25
418.051	1041.25
418.274	1003.25
418.497	1060.25
418.72	1046.25
418.943	1060.25
419.166	1102.25
419.389	1186.25
419.611	1204.25
419.834	1122.25
420.057	1064.25
420.28	1056.25
420.503	1014.25
420.726	1022.25
420.948	1036.25
421.171	1050.25
421.394	1021.25
421.617	1025.25
421.839	1028.25
422.062	1026.25
422.285	1005.25
422.507	1050.25
422.73	1039.25
422.953	1013.25
423.175	1051.25
423.398	1088.25
423.621	1072.25
423.843	1097.25
424.066	1064.25
424.288	1072.25
424.511	1071.25
424.733	1065.25
424.956	1063.25
425.178	1036.25
425.401	1027.25
425.623	1065.25
425.846	1013.25
426.068	1019.25
426.291	979.25
426.513	986.25
426.735	969.25
426.958	966.25
427.18	976.25
427.402	966.25
427.625	960.25
427.847	931.25
428.069	900.25
428.292	921.25
428.514	910.25
428.736	918.25
428.958	917.25
429.181	890.25
429.403	904.25
429.625	910.25
429.847	894.25
430.069	890.25
430.292	886.25
430.514	879.25
430.736	884.25
430.958	887.25
431.18	889.25
431.402	899.25
431.624	910.25
431.846	920.25
432.068	921.25
432.29	948.25
432.512	926.25
432.734	922.25
432.956	920.25
433.178	922.25
433.4	930.25
433.622	914.25
433.844	917.25
434.066	948.25
434.287	946.25
434.509	957.25
434.731	977.25
434.953	1022.25
435.175	1035.25
435.397	998.25
435.618	958.25
435.84	921.25
436.062	916.25
436.284	926.25
436.505	899.25
436.727	927.25
436.949	930.25
437.17	896.25
437.392	910.25
437.614	911.25
437.835	853.25
438.057	874.25
438.278	867.25
438.5	879.25
438.721	874.25
438.943	867.25
439.165	884.25
439.386	882.25
439.608	903.25
439.829	911.25
440.05	931.25
440.272	958.25
440.493	943.25
440.715	945.25
440.936	962.25
441.158	972.25
441.379	991.25
441.6	1038.25
441.822	1044.25
442.043	1040.25
442.264	1023.25
442.486	995.25
442.707	1008.25
442.928	1012.25
443.149	1002.25
443.371	974.25
443.592	1018.25
443.813	1037.25
444.034	1023.25
444.255	1103.25
444.476	1117.25
444.698	1205.25
444.919	1234.25
445.14	1288.25
445.361	1175.25
445.582	1060.25
445.803	997.25
446.024	988.25
446.245	964.25
446.466	963.25
446.687	910.25
446.908	912.25
447.129	898.25
447.35	878.25
447.571	859.25
447.792	851.25
448.013	868.25
448.234	843.25
448.455	844.25
448.675	811.25
448.896	865.25
449.117	831.25
449.338	826.25
449.559	831.25
449.779	826.25
450	859.25
450.221	851.25
450.442	838.25
450.662	838.25
450.883	863.25
451.104	855.25
451.324	854.25
451.545	855.25
451.766	824.25
451.986	849.25
452.207	832.25
452.428	836.25
452.648	836.25
452.869	825.25
453.089	825.25
453.31	820.25
453.53	797.25
453.751	779.25
453.971	800.25
454.192	802.25
454.412	796.25
454.633	808.25
454.853	783.25
455.073	790.25
455.294	819.25
455.514	778.25
455.734	791.25
455.955	774.25
456.175	791.25
456.395	758.25
456.616	797.25
456.836	779.25
457.056	788.25
457.276	784.25
457.497	755.25
457.717	757.25
457.937	790.25
458.157	784.25
458.377	790.25
458.598	809.25
458.818	840.25
459.038	848.25
459.258	913.25
459.478	936.25
459.698	965.25
459.918	968.25
460.138	1028.25
460.358	1083.25
460.578	1071.25
460.798	1098.25
461.018	1091.25
461.238	1097.25
461.458	1081.25
461.678	1063.25
461.898	1095.25
462.118	1108.25
462.338	1150.25
462.558	1182.25
462.777	1225.25
462.997	1344.25
463.217	1420.25
463.437	1450.25
463.657	1331.25
463.876	1283.25
464.096	1287.25
464.316	1256.25
464.536	1266.25
464.755	1224.25
464.975	1189.25
465.195	1127.25
465.414	1076.25
465.634	986.25
465.854	959.25
466.073	943.25
466.293	924.25
466.512	918.25
466.732	870.25
466.951	862.25
467.171	863.25
467.391	886.25
467.61	852.25
467.829	867.25
468.049	850.25
468.268	838.25
468.488	830.25
468.707	810.25
468.927	856.25
469.146	852.25
469.365	851.25
469.585	854.25
469.804	891.25
470.023	906.25
470.243	909.25
470.462	894.25
470.681	935.25
470.901	907.25
471.12	897.25
471.339	900.25
471.558	876.25
471.777	871.25
471.997	858.25
472.216	836.25
472.435	828.25
472.654	818.25
472.873	830.25
473.092	835.25
473.311	819.25
473.53	816.25
473.749	827.25
473.968	839.25
474.187	804.25
474.406	832.25
474.625	819.25
474.844	820.25
475.063	814.25
475.282	867.25
475.501	839.25
475.72	834.25
475.939	861.25
476.158	844.25
476.377	878.25
476.596	859.25
476.814	858.25
477.033	845.25
477.252	916.25
477.471	918.25
477.69	897.25
477.908	969.25
478.127	954.25
478.346	991.25
478.564	994.25
478.783	993.25
479.002	1031.25
479.22	1029.25
479.439	1023.25
479.658	1024.25
479.876	1026.25
480.095	1028.25
480.313	1084.25
480.532	1107.25
480.751	1096.25
480.969	1052.25
481.188	1041.25
481.406	995.25
481.624	976.25
481.843	956.25
482.061	944.25
482.28	932.25
482.498	942.25
482.717	942.25
482.935	945.25
483.153	927.25
483.372	937.25
483.59	943.25
483.808	950.25
484.027	944.25
484.245	964.25
484.463	931.25
484.681	960.25
484.9	985.25
485.118	1000.25
485.336	960.25
485.554	986.25
485.772	986.25
485.99	1018.25
486.209	978.25
486.427	989.25
486.645	1013.25
486.863	1010.25
487.081	983.25
487.299	986.25
487.517	968.25
487.735	984.25
487.953	975.25
488.171	985.25
488.389	953.25
488.607	976.25
488.825	986.25
489.043	971.25
489.261	965.25
489.479	983.25
489.696	959.25
489.914	970.25
490.132	989.25
490.35	978.25
490.568	991.25
490.786	1001.25
491.003	982.25
491.221	1022.25
491.439	991.25
491.657	1015.25
491.874	1011.25
492.092	979.25
492.31	1002.25
492.527	1011.25
492.745	1008.25
492.963	1016.25
493.18	1022.25
493.398	1030.25
493.615	1035.25
493.833	1014.25
494.05	1056.25
494.268	1054.25
494.485	1054.25
494.703	1077.25
494.92	1072.25
495.138	1085.25
495.355	1060.25
495.573	1074.25
495.79	1090.25
496.008	1091.25
496.225	1119.25
496.442	1119.25
496.66	1106.25
496.877	1126.25
497.094	1135.25
497.312	1136.25
497.529	1168.25
497.746	1208.25
497.963	1232.25
498.181	1298.25
498.398	1375.25
498.615	1459.25
498.832	1525.25
499.049	1634.25
499.267	1755.25
499.484	1946.25
499.701	2192.25
499.918	2386.25
500.135	2718.25
500.352	3111.25
500.569	3243.25
500.786	3188.25
501.003	2992.25
501.22	2674.25
501.437	2405.25
501.654	2092.25
501.871	1909.25
502.088	1742.25
502.305	1633.25
502.522	1532.25
502.739	1520.25
502.956	1450.25
503.172	1357.25
503.389	1292.25
503.606	1246.25
503.823	1234.25
504.04	1215.25
504.256	1186.25
504.473	1265.25
504.69	1273.25
504.907	1262.25
505.123	1174.25
505.34	1077.25
505.557	1051.25
505.773	1042.25
505.99	1004.25
506.207	1008.25
506.423	970.25
506.64	959.25
506.856	950.25
507.073	951.25
507.289	936.25
507.506	940.25
507.722	924.25
507.939	922.25
508.155	907.25
508.372	919.25
508.588	899.25
508.805	896.25
509.021	899.25
509.238	883.25
509.454	860.25
509.67	876.25
509.887	881.25
510.103	869.25
510.319	843.25
510.536	842.25
510.752	861.25
510.968	859.25
511.184	848.25
511.401	854.25
511.617	848.25
511.833	841.25
512.049	842.25
512.265	850.25
512.481	872.25
512.698	828.25
512.914	845.25
513.13	852.25
513.346	857.25
513.562	868.25
513.778	864.25
513.994	859.25
514.21	850.25
514.426	867.25
514.642	828.25
514.858	850.25
515.074	878.25
515.29	894.25
515.506	869.25
515.721	914.25
515.937	900.25
516.153	966.25
516.369	962.25
516.585	975.25
516.801	983.25
517.016	1045.25
517.232	1125.25
517.448	1148.25
517.664	1186.25
517.879	1186.25
518.095	1218.25
518.311	1157.25
518.527	1103.25
518.742	1079.25
518.958	1024.25
519.173	982.25
519.389	977.25
519.605	937.25
519.82	906.25
520.036	889.25
520.251	874.25
520.467	848.25
520.682	880.25
520.898	845.25
521.113	848.25
521.329	822.25
521.544	818.25
521.76	825.25
521.975	818.25
522.19	798.25
522.406	820.25
522.621	808.25
522.836	806.25
523.052	785.25
523.267	775.25
523.482	807.25
523.698	775.25
523.913	789.25
524.128	806.25
524.343	771.25
524.559	778.25
524.774	802.25
524.989	776.25
525.204	801.25
525.419	774.25
525.634	751.25
525.849	773.25
526.064	770.25
526.28	756.25
526.495	774.25
526.71	763.25
526.925	757.25
527.14	761.25
527.355	720.25
527.57	760.25
527.785	752.25
527.999	776.25
528.214	769.25
528.429	759.25
528.644	754.25
528.859	780.25
529.074	783.25
529.289	774.25
529.503	760.25
529.718	775.25
529.933	751.25
530.148	743.25
530.363	768.25
530.577	768.25
530.792	724.25
531.007	751.25
531.221	773.25
531.436	754.25
531.651	768.25
531.865	741.25
532.08	766.25
532.295	790.25
532.509	756.25
532.724	746.25
532.938	747.25
533.153	772.25
533.367	776.25
533.582	747.25
533.796	764.25
534.011	757.25
534.225	756.25
534.44	754.25
534.654	731.25
534.868	748.25
535.083	736.25
535.297	735.25
535.511	726.25
535.726	736.25
535.94	728.25
536.154	743.25
536.369	725.25
536.583	696.25
536.797	697.25
537.011	704.25
537.225	715.25
537.44	708.25
537.654	705.25
537.868	699.25
538.082	703.25
538.296	689.25
538.51	694.25
538.724	691.25
538.938	693.25
539.153	678.25
539.367	690.25
539.581	693.25
539.795	679.25
540.009	677.25
540.222	679.25
540.436	658.25
540.65	682.25
540.864	668.25
541.078	671.25
541.292	660.25
541.506	697.25
541.72	676.25
541.934	692.25
542.147	686.25
542.361	688.25
542.575	688.25
542.789	691.25
543.002	662.25
543.216	664.25
543.43	662.25
543.644	666.25
543.857	673.25
544.071	672.25
544.285	660.25
544.498	672.25
544.712	681.25
544.925	686.25
545.139	684.25
545.352	674.25
545.566	720.25
545.779	706.25
545.993	714.25
546.206	725.25
546.42	682.25
546.633	702.25
546.847	683.25
547.06	695.25
547.274	705.25
547.487	708.25
547.7	709.25
547.914	691.25
548.127	698.25
548.34	713.25
548.554	697.25
548.767	715.25
548.98	710.25
549.193	715.25
549.407	713.25
549.62	741.25
549.833	718.25
550.046	717.25
550.259	709.25
550.473	687.25
550.686	708.25
550.899	681.25
551.112	662.25
551.325	682.25
551.538	672.25
551.751	644.25
551.964	678.25
552.177	692.25
552.39	695.25
552.603	726.25
552.816	722.25
553.029	748.25
553.242	727.25
553.455	766.25
553.667	759.25
553.88	772.25
554.093	736.25
554.306	722.25
554.519	704.25
554.732	684.25
554.944	666.25
555.157	652.25
555.37	664.25
555.583	638.25
555.795	650.25
556.008	633.25
556.221	618.25
556.433	607.25
556.646	620.25
556.859	599.25
557.071	610.25
557.284	603.25
557.496	600.25
557.709	634.25
557.921	576.25
558.134	610.25
558.346	583.25
558.559	573.25
558.771	585.25
558.984	605.25
559.196	576.25
559.409	580.25
559.621	589.25
559.833	568.25
560.046	571.25
560.258	567.25
560.47	571.25
560.683	572.25
560.895	568.25
561.107	585.25
561.32	565.25
561.532	555.25
561.744	563.25
561.956	566.25
562.168	579.25
562.381	590.25
562.593	574.25
562.805	587.25
563.017	578.25
563.229	564.25
563.441	593.25
563.653	588.25
563.865	598.25
564.077	594.25
564.289	590.25
564.501	593.25
564.713	614.25
564.925	613.25
565.137	638.25
565.349	621.25
565.561	663.25
565.773	680.25
565.985	711.25
566.197	743.25
566.408	792.25
566.62	858.25
566.832	962.25
567.044	961.25
567.255	946.25
567.467	983.25
567.679	1005.25
567.891	1070.25
568.102	1103.25
568.314	1067.25
568.526	967.25
568.737	869.25
568.949	805.25
569.161	745.25
569.372	691.25
569.584	650.25
569.795	628.25
570.007	618.25
570.218	590.25
570.43	605.25
570.641	610.25
570.853	598.25
571.064	600.25
571.276	602.25
571.487	571.25
571.698	566.25
571.91	549.25
572.121	544.25
572.333	523.25
572.544	491.25
572.755	518.25
572.966	487.25
573.178	481.25
573.389	493.25
573.6	496.25
573.811	465.25
574.023	495.25
574.234	478.25
574.445	478.25
574.656	454.25
574.867	468.25
575.078	475.25
575.289	477.25
575.501	475.25
575.712	453.25
575.923	453.25
576.134	437.25
576.345	458.25
576.556	434.25
576.767	441.25
576.978	448.25
577.188	437.25
577.399	434.25
577.61	417.25
577.821	433.25
578.032	414.25
578.243	420.25
578.454	407.25
578.665	416.25
578.875	408.25
579.086	427.25
579.297	400.25
579.508	405.25
579.718	409.25
579.929	403.25
580.14	411.25
580.35	411.25
580.561	411.25
580.772	399.25
580.982	399.25
581.193	408.25
581.403	387.25
581.614	426.25
581.825	412.25
582.035	395.25
582.246	387.25
582.456	409.25
582.667	388.25
582.877	394.25
583.087	401.25
583.298	405.25
583.508	380.25
583.719	391.25
583.929	406.25
584.139	392.25
584.35	396.25
584.56	392.25
584.77	398.25
584.981	393.25
585.191	389.25
585.401	375.25
585.611	379.25
585.821	380.25
586.032	376.25
586.242	388.25
586.452	400.25
586.662	374.25
586.872	380.25
587.082	387.25
587.292	377.25
587.502	385.25
587.713	383.25
587.923	388.25
588.133	375.25
588.343	374.25
588.553	371.25
588.762	382.25
588.972	378.25
589.182	367.25
589.392	389.25
589.602	377.25
589.812	395.25
590.022	382.25
590.232	382.25
590.441	378.25
590.651	394.25
590.861	399.25
591.071	388.25
591.281	378.25
591.49	389.25
591.7	406.25
591.91	425.25
592.119	424.25
592.329	407.25
592.539	435.25
592.748	434.25
592.958	427.25
593.167	439.25
593.377	474.25
593.587	489.25
593.796	477.25
594.006	482.25
594.215	497.25
594.424	498.25
594.634	461.25
594.843	460.25
595.053	438.25
595.262	422.25
595.472	417.25
595.681	395.25
595.89	375.25
596.1	391.25
596.309	366.25
596.518	391.25
596.727	342.25
596.937	364.25
597.146	348.25
597.355	351.25
597.564	326.25
597.774	344.25
597.983	314.25
598.192	341.25
598.401	340.25
598.61	327.25
598.819	336.25
599.028	332.25
599.237	337.25
599.446	328.25
599.655	324.25
599.864	320.25
600.073	333.25
600.282	313.25
600.491	316.25
600.7	351.25
600.909	325.25
601.118	313.25
601.327	333.25
601.536	319.25
601.745	304.25
601.953	293.25
602.162	310.25
602.371	326.25
602.58	323.25
602.789	305.25
602.997	304.25
603.206	314.25
603.415	300.25
603.623	310.25
603.832	318.25
604.041	311.25
604.249	301.25
604.458	316.25
604.666	291.25
604.875	291.25
605.084	297.25
605.292	294.25
605.501	294.25
605.709	287.25
605.918	309.25
606.126	295.25
606.334	279.25
606.543	323.25
606.751	302.25
606.96	282.25
607.168	288.25
607.376	292.25
607.585	298.25
607.793	307.25
608.001	307.25
608.21	298.25
608.418	302.25
608.626	278.25
608.834	277.25
609.043	288.25
609.251	272.25
609.459	278.25
609.667	296.25
609.875	278.25
610.083	267.25
610.291	300.25
610.499	292.25
610.707	274.25
610.916	285.25
611.124	270.25
611.332	276.25
611.54	280.25
611.748	268.25
611.955	257.25
612.163	279.25
612.371	278.25
612.579	286.25
612.787	274.25
612.995	290.25
613.203	291.25
613.411	275.25
613.618	258.25
613.826	269.25
614.034	302.25
614.242	262.25
614.449	260.25
614.657	272.25
614.865	251.25
615.072	274.25
615.28	284.25
615.488	272.25
615.695	271.25
615.903	267.25
616.111	258.25
616.318	269.25
616.526	285.25
616.733	282.25
616.941	269.25
617.148	272.25
617.356	267.25
617.563	262.25
617.771	275.25
617.978	290.25
618.185	280.25
618.393	277.25
618.6	263.25
618.807	263.25
619.015	267.25
619.222	272.25
619.429	258.25
619.637	264.25
619.844	274.25
620.051	277.25
620.258	265.25
620.466	263.25
620.673	247.25
620.88	256.25
621.087	277.25
621.294	257.25
621.501	242.25
621.708	256.25
621.915	272.25
622.122	248.25
622.329	254.25
622.536	264.25
622.743	233.25
622.95	254.25
623.157	236.25
623.364	254.25
623.571	226.25
623.778	234.25
623.985	246.25
624.192	243.25
624.399	242.25
624.606	243.25
624.812	221.25
625.019	215.25
625.226	236.25
625.433	242.25
625.639	210.25
625.846	236.25
626.053	226.25
626.259	238.25
626.466	213.25
626.673	248.25
626.879	233.25
627.086	226.25
627.293	257.25
627.499	217.25
627.706	233.25
627.912	223.25
628.119	225.25
628.325	229.25
628.532	224.25
628.738	222.25
628.945	221.25
629.151	238.25
629.357	220.25
629.564	216.25
629.77	217.25
629.976	221.25
630.183	224.25
630.389	226.25
630.595	215.25
630.802	213.25
631.008	214.25
631.214	212.25
631.42	222.25
631.627	223.25
631.833	214.25
632.039	214.25
632.245	204.25
632.451	211.25
632.657	207.25
632.863	219.25
633.069	220.25
633.275	214.25
633.481	192.25
633.688	202.25
633.893	222.25
634.099	219.25
634.305	207.25
634.511	218.25
634.717	212.25
634.923	195.25
635.129	206.25
635.335	196.25
635.541	198.25
635.747	191.25
635.952	188.25
636.158	190.25
636.364	191.25
636.57	186.25
636.775	202.25
636.981	194.25
637.187	219.25
637.392	201.25
637.598	199.25
637.804	190.25
638.009	186.25
638.215	193.25
638.421	183.25
638.626	187.25
638.832	188.25
639.037	186.25
639.243	184.25
639.448	194.25
639.654	189.25
639.859	192.25
640.065	188.25
640.27	188.25
640.475	186.25
640.681	193.25
640.886	194.25
641.091	180.25
641.297	192.25
641.502	185.25
641.707	190.25
641.913	188.25
642.118	175.25
642.323	171.25
642.528	170.25
642.733	170.25
642.939	179.25
643.144	171.25
643.349	197.25
643.554	170.25
643.759	189.25
643.964	177.25
644.169	179.25
644.374	181.25
644.579	175.25
644.784	188.25
644.989	158.25
645.194	177.25
645.399	167.25
645.604	176.25
645.809	175.25
646.014	182.25
646.219	183.25
646.423	171.25
646.628	170.25
646.833	189.25
647.038	178.25
647.243	178.25
647.447	188.25
647.652	179.25
647.857	202.25
648.062	207.25
648.266	198.25
648.471	190.25
648.676	184.25
648.88	183.25
649.085	194.25
649.289	171.25
649.494	166.25
649.698	179.25
649.903	169.25
650.107	180.25
650.312	167.25
650.516	164.25
650.721	178.25
650.925	148.25
651.13	159.25
651.334	167.25
651.539	168.25
651.743	165.25
651.947	169.25
652.152	167.25
652.356	148.25
652.56	140.25
652.764	152.25
652.969	143.25
653.173	146.25
653.377	144.25
653.581	152.25
653.785	153.25
653.99	140.25
654.194	147.25
654.398	134.25
654.602	140.25
654.806	137.25
655.01	155.25
655.214	134.25
655.418	116.25
655.622	130.25
655.826	143.25
656.03	124.25
656.234	139.25
656.438	141.25
656.642	146.25
656.846	137.25
657.049	121.25
657.253	134.25
657.457	118.25
657.661	134.25
657.865	113.25
658.068	95.25
658.272	93.25
658.476	94.25
658.68	114.25
658.883	112.25
659.087	97.25
659.291	108.25
659.494	107.25
659.698	100.25
659.901	85.25
660.105	82.25
660.309	95.25
660.512	100.25
660.716	117.25
660.919	102.25
661.123	110.25
661.326	89.25
661.53	89.25
661.733	82.25
661.936	91.25
662.14	86.25
662.343	95.25
662.546	79.25
662.75	81.25
662.953	73.25
663.156	79.25
663.36	76.25
663.563	69.25
663.766	75.25
663.969	80.25
664.173	82.25
664.376	87.25
664.579	82.25
664.782	80.25
664.985	82.25
665.188	92.25
665.391	71.25
665.594	76.25
665.797	72.25
666	75.25
666.203	84.25
666.406	84.25
666.609	68.25
666.812	87.25
667.015	84.25
667.218	80.25
667.421	76.25
667.624	75.25
667.827	94.25
668.03	82.25
668.232	76.25
668.435	92.25
668.638	77.25
668.841	80.25
669.043	86.25
669.246	73.25
669.449	71.25
669.651	82.25
669.854	79.25
670.057	84.25
670.259	90.25
670.462	88.25
670.665	79.25
670.867	84.25
671.07	90.25
671.272	83.25
671.475	84.25
671.677	94.25
671.88	72.25
672.082	79.25
672.284	56.25
672.487	77.25
672.689	67.25
672.892	84.25
