Data from NiCl2@0.25M.TitratingCurve.Agarose3%dH2O.NegLispCup.LampEnergy10.LIBS07252019_HRD10591_18-24-12-574.txt Node
Date: Thu Jul 25 18:24:12 EDT 2019
User: cochatt
Spectrometer: HR+D1059
Trigger mode: 1
Integration Time (sec): 1.000000E-1
Scans to average: 1
Electric dark correction enabled: true
Nonlinearity correction enabled: false
Boxcar width: 0
XAxis mode: Wavelengths
Number of Pixels in Spectrum: 2048
>>>>>Begin Spectral Data<<<<<
223.165	-9.25
223.4	-9.25
223.635	-9.25
223.869	-15.25
224.104	-20.25
224.338	-8.25
224.573	-17.25
224.808	-11.25
225.042	0.75
225.277	-5.25
225.511	-4.25
225.746	-1.25
225.98	13.75
226.215	5.75
226.449	12.75
226.683	14.75
226.918	12.75
227.152	31.75
227.387	26.75
227.621	35.75
227.856	37.75
228.09	42.75
228.324	54.75
228.559	62.75
228.793	71.75
229.027	94.75
229.262	106.75
229.496	105.75
229.73	110.75
229.964	111.75
230.199	125.75
230.433	138.75
230.667	132.75
230.901	142.75
231.136	128.75
231.37	130.75
231.604	120.75
231.838	137.75
232.072	146.75
232.306	138.75
232.541	171.75
232.775	140.75
233.009	155.75
233.243	118.75
233.477	131.75
233.711	138.75
233.945	130.75
234.179	145.75
234.413	152.75
234.647	138.75
234.881	132.75
235.115	152.75
235.349	148.75
235.583	155.75
235.817	144.75
236.051	145.75
236.285	163.75
236.519	152.75
236.753	169.75
236.987	171.75
237.221	146.75
237.455	149.75
237.689	157.75
237.922	142.75
238.156	153.75
238.39	163.75
238.624	161.75
238.858	169.75
239.091	159.75
239.325	157.75
239.559	160.75
239.793	168.75
240.027	176.75
240.26	180.75
240.494	185.75
240.728	178.75
240.961	176.75
241.195	179.75
241.429	174.75
241.662	186.75
241.896	174.75
242.13	183.75
242.363	184.75
242.597	193.75
242.83	185.75
243.064	189.75
243.298	201.75
243.531	198.75
243.765	175.75
243.998	196.75
244.232	196.75
244.465	191.75
244.699	194.75
244.932	207.75
245.166	208.75
245.399	207.75
245.633	216.75
245.866	189.75
246.099	205.75
246.333	206.75
246.566	200.75
246.8	195.75
247.033	221.75
247.266	208.75
247.5	230.75
247.733	216.75
247.966	207.75
248.2	219.75
248.433	225.75
248.666	206.75
248.899	227.75
249.133	215.75
249.366	226.75
249.599	244.75
249.832	224.75
250.066	240.75
250.299	255.75
250.532	244.75
250.765	238.75
250.998	247.75
251.231	241.75
251.465	256.75
251.698	242.75
251.931	255.75
252.164	249.75
252.397	241.75
252.63	258.75
252.863	251.75
253.096	252.75
253.329	256.75
253.562	255.75
253.795	244.75
254.028	259.75
254.261	266.75
254.494	241.75
254.727	266.75
254.96	266.75
255.193	271.75
255.426	268.75
255.659	268.75
255.892	275.75
256.124	268.75
256.357	290.75
256.59	262.75
256.823	261.75
257.056	262.75
257.289	251.75
257.521	272.75
257.754	286.75
257.987	277.75
258.22	280.75
258.452	290.75
258.685	270.75
258.918	280.75
259.151	289.75
259.383	281.75
259.616	299.75
259.849	289.75
260.081	292.75
260.314	298.75
260.547	316.75
260.779	285.75
261.012	276.75
261.244	290.75
261.477	317.75
261.71	305.75
261.942	314.75
262.175	301.75
262.407	294.75
262.64	317.75
262.872	304.75
263.105	320.75
263.337	321.75
263.57	310.75
263.802	307.75
264.035	314.75
264.267	321.75
264.499	307.75
264.732	327.75
264.964	306.75
265.197	315.75
265.429	321.75
265.661	327.75
265.894	326.75
266.126	330.75
266.358	323.75
266.591	325.75
266.823	354.75
267.055	349.75
267.287	351.75
267.52	328.75
267.752	324.75
267.984	350.75
268.216	345.75
268.448	321.75
268.681	349.75
268.913	347.75
269.145	317.75
269.377	341.75
269.609	329.75
269.841	339.75
270.073	357.75
270.306	371.75
270.538	344.75
270.77	328.75
271.002	339.75
271.234	345.75
271.466	366.75
271.698	357.75
271.93	351.75
272.162	339.75
272.394	387.75
272.626	369.75
272.858	348.75
273.09	372.75
273.322	371.75
273.553	365.75
273.785	352.75
274.017	373.75
274.249	399.75
274.481	393.75
274.713	387.75
274.945	376.75
275.176	375.75
275.408	374.75
275.64	386.75
275.872	400.75
276.104	395.75
276.335	385.75
276.567	378.75
276.799	389.75
277.031	377.75
277.262	379.75
277.494	410.75
277.726	400.75
277.957	379.75
278.189	401.75
278.421	402.75
278.652	425.75
278.884	393.75
279.115	422.75
279.347	403.75
279.579	391.75
279.81	393.75
280.042	420.75
280.273	446.75
280.505	404.75
280.736	413.75
280.968	406.75
281.199	421.75
281.431	426.75
281.662	427.75
281.894	445.75
282.125	434.75
282.356	419.75
282.588	436.75
282.819	433.75
283.051	426.75
283.282	424.75
283.513	439.75
283.745	417.75
283.976	451.75
284.207	429.75
284.439	449.75
284.67	445.75
284.901	436.75
285.132	443.75
285.364	448.75
285.595	450.75
285.826	476.75
286.057	469.75
286.288	452.75
286.52	468.75
286.751	447.75
286.982	474.75
287.213	458.75
287.444	463.75
287.675	471.75
287.906	490.75
288.138	456.75
288.369	459.75
288.6	471.75
288.831	479.75
289.062	477.75
289.293	477.75
289.524	481.75
289.755	475.75
289.986	466.75
290.217	453.75
290.448	495.75
290.679	477.75
290.91	482.75
291.141	478.75
291.371	475.75
291.602	467.75
291.833	470.75
292.064	475.75
292.295	477.75
292.526	486.75
292.757	490.75
292.987	462.75
293.218	495.75
293.449	498.75
293.68	500.75
293.91	485.75
294.141	504.75
294.372	477.75
294.603	493.75
294.833	494.75
295.064	496.75
295.295	524.75
295.525	507.75
295.756	486.75
295.987	490.75
296.217	511.75
296.448	501.75
296.679	486.75
296.909	513.75
297.14	513.75
297.37	532.75
297.601	542.75
297.831	524.75
298.062	529.75
298.292	530.75
298.523	527.75
298.753	531.75
298.984	525.75
299.214	536.75
299.445	520.75
299.675	520.75
299.905	530.75
300.136	544.75
300.366	547.75
300.597	562.75
300.827	558.75
301.057	543.75
301.288	568.75
301.518	548.75
301.748	563.75
301.979	559.75
302.209	580.75
302.439	561.75
302.669	554.75
302.9	543.75
303.13	554.75
303.36	551.75
303.59	542.75
303.82	519.75
304.051	550.75
304.281	560.75
304.511	538.75
304.741	522.75
304.971	554.75
305.201	565.75
305.431	569.75
305.661	555.75
305.891	549.75
306.121	548.75
306.352	558.75
306.582	553.75
306.812	537.75
307.042	545.75
307.272	559.75
307.502	537.75
307.731	536.75
307.961	541.75
308.191	527.75
308.421	524.75
308.651	517.75
308.881	547.75
309.111	528.75
309.341	552.75
309.571	582.75
309.8	530.75
310.03	549.75
310.26	537.75
310.49	563.75
310.72	558.75
310.949	563.75
311.179	550.75
311.409	550.75
311.639	582.75
311.868	564.75
312.098	565.75
312.328	575.75
312.557	574.75
312.787	569.75
313.017	566.75
313.246	583.75
313.476	585.75
313.706	569.75
313.935	593.75
314.165	582.75
314.394	584.75
314.624	571.75
314.853	598.75
315.083	588.75
315.312	565.75
315.542	583.75
315.771	582.75
316.001	586.75
316.23	582.75
316.46	560.75
316.689	553.75
316.919	603.75
317.148	591.75
317.377	581.75
317.607	584.75
317.836	562.75
318.065	568.75
318.295	570.75
318.524	560.75
318.753	582.75
318.983	567.75
319.212	529.75
319.441	570.75
319.67	590.75
319.9	562.75
320.129	571.75
320.358	576.75
320.587	562.75
320.816	581.75
321.046	569.75
321.275	594.75
321.504	578.75
321.733	591.75
321.962	603.75
322.191	590.75
322.42	580.75
322.649	585.75
322.878	571.75
323.108	590.75
323.337	593.75
323.566	580.75
323.795	594.75
324.024	564.75
324.253	605.75
324.482	615.75
324.71	620.75
324.939	591.75
325.168	617.75
325.397	612.75
325.626	600.75
325.855	619.75
326.084	644.75
326.313	618.75
326.542	630.75
326.77	655.75
326.999	610.75
327.228	598.75
327.457	632.75
327.686	629.75
327.914	625.75
328.143	629.75
328.372	654.75
328.6	638.75
328.829	654.75
329.058	632.75
329.287	658.75
329.515	643.75
329.744	636.75
329.972	629.75
330.201	662.75
330.43	673.75
330.658	648.75
330.887	644.75
331.115	635.75
331.344	641.75
331.572	671.75
331.801	681.75
332.03	705.75
332.258	693.75
332.486	726.75
332.715	769.75
332.943	777.75
333.172	797.75
333.4	813.75
333.629	855.75
333.857	844.75
334.085	864.75
334.314	853.75
334.542	832.75
334.771	823.75
334.999	776.75
335.227	789.75
335.455	807.75
335.684	801.75
335.912	786.75
336.14	762.75
336.369	774.75
336.597	784.75
336.825	776.75
337.053	772.75
337.281	721.75
337.51	717.75
337.738	730.75
337.966	709.75
338.194	687.75
338.422	678.75
338.65	661.75
338.878	688.75
339.106	673.75
339.334	706.75
339.562	673.75
339.79	666.75
340.018	662.75
340.246	652.75
340.474	627.75
340.702	651.75
340.93	638.75
341.158	675.75
341.386	641.75
341.614	672.75
341.842	667.75
342.07	647.75
342.298	661.75
342.526	661.75
342.754	651.75
342.981	674.75
343.209	682.75
343.437	706.75
343.665	742.75
343.893	791.75
344.12	829.75
344.348	802.75
344.576	774.75
344.804	721.75
345.031	693.75
345.259	677.75
345.487	693.75
345.714	677.75
345.942	681.75
346.17	683.75
346.397	667.75
346.625	643.75
346.853	638.75
347.08	633.75
347.308	649.75
347.535	652.75
347.763	657.75
347.99	680.75
348.218	640.75
348.445	623.75
348.673	629.75
348.9	632.75
349.128	650.75
349.355	622.75
349.583	635.75
349.81	634.75
350.037	616.75
350.265	636.75
350.492	641.75
350.72	644.75
350.947	619.75
351.174	611.75
351.402	612.75
351.629	642.75
351.856	596.75
352.083	602.75
352.311	604.75
352.538	603.75
352.765	605.75
352.992	606.75
353.22	608.75
353.447	575.75
353.674	595.75
353.901	618.75
354.128	616.75
354.355	597.75
354.583	603.75
354.81	611.75
355.037	613.75
355.264	630.75
355.491	611.75
355.718	628.75
355.945	618.75
356.172	617.75
356.399	620.75
356.626	607.75
356.853	629.75
357.08	621.75
357.307	600.75
357.534	627.75
357.761	629.75
357.988	614.75
358.215	621.75
358.441	629.75
358.668	607.75
358.895	629.75
359.122	620.75
359.349	613.75
359.576	616.75
359.802	593.75
360.029	616.75
360.256	628.75
360.483	623.75
360.709	625.75
360.936	630.75
361.163	615.75
361.39	641.75
361.616	633.75
361.843	606.75
362.07	606.75
362.296	634.75
362.523	633.75
362.749	639.75
362.976	628.75
363.203	604.75
363.429	616.75
363.656	600.75
363.882	598.75
364.109	622.75
364.335	616.75
364.562	618.75
364.788	580.75
365.015	618.75
365.241	618.75
365.468	618.75
365.694	602.75
365.92	597.75
366.147	613.75
366.373	613.75
366.599	633.75
366.826	623.75
367.052	612.75
367.278	619.75
367.505	615.75
367.731	630.75
367.957	603.75
368.184	626.75
368.41	635.75
368.636	604.75
368.862	639.75
369.089	633.75
369.315	634.75
369.541	633.75
369.767	637.75
369.993	636.75
370.219	628.75
370.445	648.75
370.672	669.75
370.898	659.75
371.124	655.75
371.35	702.75
371.576	662.75
371.802	670.75
372.028	664.75
372.254	666.75
372.48	660.75
372.706	682.75
372.932	679.75
373.158	681.75
373.384	675.75
373.61	666.75
373.835	689.75
374.061	663.75
374.287	661.75
374.513	688.75
374.739	698.75
374.965	738.75
375.191	749.75
375.416	724.75
375.642	710.75
375.868	721.75
376.094	705.75
376.319	682.75
376.545	692.75
376.771	685.75
376.997	701.75
377.222	675.75
377.448	664.75
377.674	673.75
377.899	680.75
378.125	654.75
378.35	680.75
378.576	671.75
378.802	661.75
379.027	659.75
379.253	656.75
379.478	665.75
379.704	669.75
379.929	678.75
380.155	647.75
380.38	646.75
380.606	672.75
380.831	672.75
381.057	689.75
381.282	673.75
381.507	687.75
381.733	681.75
381.958	697.75
382.184	659.75
382.409	718.75
382.634	702.75
382.86	706.75
383.085	724.75
383.31	714.75
383.535	722.75
383.761	734.75
383.986	761.75
384.211	759.75
384.436	782.75
384.662	782.75
384.887	786.75
385.112	791.75
385.337	809.75
385.562	825.75
385.787	816.75
386.013	811.75
386.238	836.75
386.463	807.75
386.688	834.75
386.913	823.75
387.138	806.75
387.363	793.75
387.588	800.75
387.813	816.75
388.038	806.75
388.263	810.75
388.488	811.75
388.713	819.75
388.938	804.75
389.163	772.75
389.387	800.75
389.612	813.75
389.837	768.75
390.062	765.75
390.287	782.75
390.512	776.75
390.736	830.75
390.961	800.75
391.186	834.75
391.411	851.75
391.636	858.75
391.86	897.75
392.085	927.75
392.31	911.75
392.534	922.75
392.759	877.75
392.984	867.75
393.208	868.75
393.433	850.75
393.658	863.75
393.882	869.75
394.107	865.75
394.331	874.75
394.556	882.75
394.78	885.75
395.005	881.75
395.229	911.75
395.454	909.75
395.678	912.75
395.903	899.75
396.127	887.75
396.352	885.75
396.576	833.75
396.801	856.75
397.025	857.75
397.249	911.75
397.474	901.75
397.698	903.75
397.922	922.75
398.147	938.75
398.371	930.75
398.595	978.75
398.82	1016.75
399.044	1080.75
399.268	1204.75
399.492	1346.75
399.717	1495.75
399.941	1505.75
400.165	1367.75
400.389	1219.75
400.613	1132.75
400.837	1096.75
401.062	1060.75
401.286	1043.75
401.51	1035.75
401.734	1015.75
401.958	1025.75
402.182	1039.75
402.406	1039.75
402.63	1054.75
402.854	1069.75
403.078	1097.75
403.302	1131.75
403.526	1156.75
403.75	1171.75
403.974	1160.75
404.198	1162.75
404.422	1169.75
404.645	1201.75
404.869	1164.75
405.093	1146.75
405.317	1128.75
405.541	1111.75
405.765	1117.75
405.988	1105.75
406.212	1133.75
406.436	1088.75
406.66	1159.75
406.883	1186.75
407.107	1231.75
407.331	1268.75
407.555	1353.75
407.778	1331.75
408.002	1274.75
408.226	1285.75
408.449	1222.75
408.673	1182.75
408.896	1156.75
409.12	1167.75
409.344	1162.75
409.567	1160.75
409.791	1171.75
410.014	1143.75
410.238	1121.75
410.461	1151.75
410.685	1116.75
410.908	1085.75
411.132	1081.75
411.355	1049.75
411.578	1069.75
411.802	1024.75
412.025	1061.75
412.249	1092.75
412.472	1102.75
412.695	1054.75
412.919	1019.75
413.142	1070.75
413.365	1041.75
413.589	1049.75
413.812	1041.75
414.035	1026.75
414.258	1005.75
414.482	1009.75
414.705	1038.75
414.928	1014.75
415.151	1041.75
415.374	1014.75
415.597	1005.75
415.821	981.75
416.044	978.75
416.267	980.75
416.49	994.75
416.713	973.75
416.936	980.75
417.159	1012.75
417.382	1009.75
417.605	1017.75
417.828	977.75
418.051	1008.75
418.274	1005.75
418.497	975.75
418.72	1053.75
418.943	1054.75
419.166	1092.75
419.389	1178.75
419.611	1137.75
419.834	1093.75
420.057	1049.75
420.28	1033.75
420.503	983.75
420.726	984.75
420.948	989.75
421.171	998.75
421.394	975.75
421.617	984.75
421.839	1000.75
422.062	1031.75
422.285	967.75
422.507	990.75
422.73	1007.75
422.953	1020.75
423.175	1003.75
423.398	1075.75
423.621	1054.75
423.843	1085.75
424.066	1045.75
424.288	1039.75
424.511	1040.75
424.733	1010.75
424.956	1002.75
425.178	1022.75
425.401	1000.75
425.623	998.75
425.846	971.75
426.068	977.75
426.291	954.75
426.513	938.75
426.735	930.75
426.958	945.75
427.18	933.75
427.402	917.75
427.625	901.75
427.847	894.75
428.069	911.75
428.292	902.75
428.514	906.75
428.736	885.75
428.958	909.75
429.181	893.75
429.403	870.75
429.625	887.75
429.847	847.75
430.069	862.75
430.292	883.75
430.514	863.75
430.736	885.75
430.958	868.75
431.18	859.75
431.402	886.75
431.624	883.75
431.846	910.75
432.068	891.75
432.29	901.75
432.512	877.75
432.734	911.75
432.956	878.75
433.178	879.75
433.4	903.75
433.622	919.75
433.844	918.75
434.066	887.75
434.287	912.75
434.509	940.75
434.731	987.75
434.953	985.75
435.175	1019.75
435.397	971.75
435.618	947.75
435.84	904.75
436.062	920.75
436.284	888.75
436.505	884.75
436.727	925.75
436.949	891.75
437.17	889.75
437.392	889.75
437.614	881.75
437.835	838.75
438.057	849.75
438.278	860.75
438.5	832.75
438.721	857.75
438.943	857.75
439.165	839.75
439.386	858.75
439.608	882.75
439.829	883.75
440.05	897.75
440.272	891.75
440.493	869.75
440.715	902.75
440.936	903.75
441.158	952.75
441.379	988.75
441.6	1009.75
441.822	981.75
442.043	1017.75
442.264	987.75
442.486	967.75
442.707	978.75
442.928	1019.75
443.149	1008.75
443.371	971.75
443.592	989.75
443.813	998.75
444.034	1005.75
444.255	1026.75
444.476	1094.75
444.698	1155.75
444.919	1173.75
445.14	1258.75
445.361	1164.75
445.582	1054.75
445.803	974.75
446.024	961.75
446.245	916.75
446.466	936.75
446.687	903.75
446.908	901.75
447.129	893.75
447.35	859.75
447.571	862.75
447.792	857.75
448.013	838.75
448.234	822.75
448.455	810.75
448.675	818.75
448.896	810.75
449.117	779.75
449.338	783.75
449.559	827.75
449.779	783.75
450	793.75
450.221	798.75
450.442	806.75
450.662	792.75
450.883	833.75
451.104	843.75
451.324	829.75
451.545	813.75
451.766	823.75
451.986	800.75
452.207	829.75
452.428	813.75
452.648	797.75
452.869	815.75
453.089	810.75
453.31	801.75
453.53	793.75
453.751	786.75
453.971	801.75
454.192	779.75
454.412	748.75
454.633	767.75
454.853	771.75
455.073	780.75
455.294	777.75
455.514	766.75
455.734	778.75
455.955	762.75
456.175	751.75
456.395	794.75
456.616	744.75
456.836	761.75
457.056	736.75
457.276	746.75
457.497	785.75
457.717	769.75
457.937	773.75
458.157	760.75
458.377	779.75
458.598	790.75
458.818	861.75
459.038	843.75
459.258	874.75
459.478	895.75
459.698	921.75
459.918	932.75
460.138	991.75
460.358	1026.75
460.578	1053.75
460.798	1042.75
461.018	1077.75
461.238	1034.75
461.458	1074.75
461.678	1042.75
461.898	1063.75
462.118	1066.75
462.338	1141.75
462.558	1166.75
462.777	1216.75
462.997	1321.75
463.217	1388.75
463.437	1384.75
463.657	1329.75
463.876	1237.75
464.096	1245.75
464.316	1215.75
464.536	1231.75
464.755	1189.75
464.975	1122.75
465.195	1066.75
465.414	1027.75
465.634	979.75
465.854	950.75
466.073	910.75
466.293	906.75
466.512	882.75
466.732	842.75
466.951	866.75
467.171	870.75
467.391	870.75
467.61	864.75
467.829	868.75
468.049	857.75
468.268	830.75
468.488	825.75
468.707	831.75
468.927	802.75
469.146	823.75
469.365	828.75
469.585	850.75
469.804	861.75
470.023	858.75
470.243	877.75
470.462	887.75
470.681	862.75
470.901	854.75
471.12	883.75
471.339	863.75
471.558	856.75
471.777	843.75
471.997	822.75
472.216	833.75
472.435	813.75
472.654	804.75
472.873	803.75
473.092	787.75
473.311	787.75
473.53	826.75
473.749	813.75
473.968	809.75
474.187	823.75
474.406	796.75
474.625	794.75
474.844	789.75
475.063	830.75
475.282	804.75
475.501	815.75
475.72	829.75
475.939	801.75
476.158	801.75
476.377	853.75
476.596	844.75
476.814	859.75
477.033	827.75
477.252	855.75
477.471	908.75
477.69	887.75
477.908	937.75
478.127	950.75
478.346	958.75
478.564	1010.75
478.783	977.75
479.002	990.75
479.22	1005.75
479.439	1016.75
479.658	1019.75
479.876	1018.75
480.095	1051.75
480.313	1048.75
480.532	1074.75
480.751	1069.75
480.969	1034.75
481.188	1003.75
481.406	961.75
481.624	980.75
481.843	950.75
482.061	945.75
482.28	936.75
482.498	950.75
482.717	895.75
482.935	915.75
483.153	916.75
483.372	891.75
483.59	913.75
483.808	932.75
484.027	905.75
484.245	925.75
484.463	916.75
484.681	915.75
484.9	952.75
485.118	938.75
485.336	901.75
485.554	965.75
485.772	945.75
485.99	951.75
486.209	954.75
486.427	957.75
486.645	940.75
486.863	951.75
487.081	977.75
487.299	941.75
487.517	960.75
487.735	972.75
487.953	985.75
488.171	961.75
488.389	938.75
488.607	948.75
488.825	962.75
489.043	957.75
489.261	946.75
489.479	960.75
489.696	949.75
489.914	968.75
490.132	959.75
490.35	965.75
490.568	984.75
490.786	949.75
491.003	960.75
491.221	968.75
491.439	986.75
491.657	985.75
491.874	978.75
492.092	994.75
492.31	1007.75
492.527	1038.75
492.745	974.75
492.963	996.75
493.18	992.75
493.398	1003.75
493.615	983.75
493.833	999.75
494.05	997.75
494.268	993.75
494.485	1034.75
494.703	1042.75
494.92	1025.75
495.138	1019.75
495.355	1045.75
495.573	1044.75
495.79	1031.75
496.008	1038.75
496.225	1034.75
496.442	1062.75
496.66	1087.75
496.877	1089.75
497.094	1112.75
497.312	1137.75
497.529	1154.75
497.746	1203.75
497.963	1225.75
498.181	1275.75
498.398	1323.75
498.615	1403.75
498.832	1491.75
499.049	1610.75
499.267	1736.75
499.484	1913.75
499.701	2100.75
499.918	2325.75
500.135	2632.75
500.352	3002.75
500.569	3120.75
500.786	3055.75
501.003	2901.75
501.22	2622.75
501.437	2321.75
501.654	2056.75
501.871	1881.75
502.088	1745.75
502.305	1609.75
502.522	1526.75
502.739	1461.75
502.956	1378.75
503.172	1340.75
503.389	1263.75
503.606	1221.75
503.823	1199.75
504.04	1178.75
504.256	1202.75
504.473	1241.75
504.69	1232.75
504.907	1221.75
505.123	1145.75
505.34	1088.75
505.557	1047.75
505.773	995.75
505.99	1018.75
506.207	978.75
506.423	946.75
506.64	926.75
506.856	927.75
507.073	910.75
507.289	887.75
507.506	928.75
507.722	924.75
507.939	875.75
508.155	899.75
508.372	886.75
508.588	878.75
508.805	862.75
509.021	857.75
509.238	885.75
509.454	837.75
509.67	856.75
509.887	863.75
510.103	858.75
510.319	848.75
510.536	842.75
510.752	832.75
510.968	829.75
511.184	818.75
511.401	837.75
511.617	852.75
511.833	829.75
512.049	839.75
512.265	797.75
512.481	809.75
512.698	825.75
512.914	824.75
513.13	846.75
513.346	840.75
513.562	822.75
513.778	822.75
513.994	842.75
514.21	855.75
514.426	837.75
514.642	856.75
514.858	830.75
515.074	849.75
515.29	875.75
515.506	886.75
515.721	853.75
515.937	897.75
516.153	935.75
516.369	929.75
516.585	960.75
516.801	1028.75
517.016	1027.75
517.232	1054.75
517.448	1138.75
517.664	1165.75
517.879	1162.75
518.095	1172.75
518.311	1176.75
518.527	1115.75
518.742	1065.75
518.958	1023.75
519.173	998.75
519.389	951.75
519.605	917.75
519.82	886.75
520.036	904.75
520.251	865.75
520.467	840.75
520.682	833.75
520.898	819.75
521.113	791.75
521.329	834.75
521.544	792.75
521.76	804.75
521.975	815.75
522.19	767.75
522.406	773.75
522.621	799.75
522.836	810.75
523.052	767.75
523.267	781.75
523.482	749.75
523.698	761.75
523.913	783.75
524.128	753.75
524.343	779.75
524.559	786.75
524.774	767.75
524.989	778.75
525.204	745.75
525.419	749.75
525.634	735.75
525.849	743.75
526.064	783.75
526.28	769.75
526.495	768.75
526.71	767.75
526.925	730.75
527.14	749.75
527.355	746.75
527.57	771.75
527.785	747.75
527.999	747.75
528.214	761.75
528.429	770.75
528.644	755.75
528.859	774.75
529.074	768.75
529.289	766.75
529.503	758.75
529.718	755.75
529.933	738.75
530.148	736.75
530.363	746.75
530.577	745.75
530.792	732.75
531.007	752.75
531.221	754.75
531.436	733.75
531.651	719.75
531.865	748.75
532.08	744.75
532.295	759.75
532.509	743.75
532.724	748.75
532.938	750.75
533.153	739.75
533.367	726.75
533.582	744.75
533.796	748.75
534.011	747.75
534.225	735.75
534.44	702.75
534.654	732.75
534.868	711.75
535.083	750.75
535.297	749.75
535.511	695.75
535.726	710.75
535.94	715.75
536.154	721.75
536.369	711.75
536.583	707.75
536.797	721.75
537.011	708.75
537.225	721.75
537.44	671.75
537.654	680.75
537.868	679.75
538.082	674.75
538.296	710.75
538.51	672.75
538.724	687.75
538.938	703.75
539.153	686.75
539.367	713.75
539.581	679.75
539.795	676.75
540.009	674.75
540.222	686.75
540.436	680.75
540.65	651.75
540.864	651.75
541.078	678.75
541.292	697.75
541.506	664.75
541.72	676.75
541.934	682.75
542.147	682.75
542.361	661.75
542.575	655.75
542.789	659.75
543.002	682.75
543.216	658.75
543.43	666.75
543.644	661.75
543.857	662.75
544.071	663.75
544.285	689.75
544.498	666.75
544.712	673.75
544.925	683.75
545.139	712.75
545.352	698.75
545.566	698.75
545.779	711.75
545.993	689.75
546.206	695.75
546.42	678.75
546.633	674.75
546.847	678.75
547.06	682.75
547.274	689.75
547.487	669.75
547.7	692.75
547.914	678.75
548.127	701.75
548.34	711.75
548.554	681.75
548.767	690.75
548.98	704.75
549.193	686.75
549.407	715.75
549.62	706.75
549.833	691.75
550.046	712.75
550.259	709.75
550.473	704.75
550.686	727.75
550.899	662.75
551.112	651.75
551.325	658.75
551.538	678.75
551.751	667.75
551.964	668.75
552.177	685.75
552.39	681.75
552.603	720.75
552.816	698.75
553.029	741.75
553.242	756.75
553.455	776.75
553.667	770.75
553.88	750.75
554.093	731.75
554.306	711.75
554.519	665.75
554.732	689.75
554.944	675.75
555.157	658.75
555.37	656.75
555.583	646.75
555.795	643.75
556.008	618.75
556.221	608.75
556.433	599.75
556.646	601.75
556.859	599.75
557.071	617.75
557.284	579.75
557.496	594.75
557.709	582.75
557.921	571.75
558.134	584.75
558.346	593.75
558.559	581.75
558.771	573.75
558.984	572.75
559.196	566.75
559.409	554.75
559.621	576.75
559.833	575.75
560.046	563.75
560.258	565.75
560.47	563.75
560.683	575.75
560.895	567.75
561.107	581.75
561.32	573.75
561.532	558.75
561.744	561.75
561.956	560.75
562.168	579.75
562.381	581.75
562.593	579.75
562.805	553.75
563.017	589.75
563.229	545.75
563.441	569.75
563.653	586.75
563.865	583.75
564.077	573.75
564.289	582.75
564.501	592.75
564.713	598.75
564.925	602.75
565.137	634.75
565.349	633.75
565.561	656.75
565.773	676.75
565.985	721.75
566.197	743.75
566.408	815.75
566.62	855.75
566.832	920.75
567.044	914.75
567.255	932.75
567.467	938.75
567.679	991.75
567.891	1069.75
568.102	1082.75
568.314	1046.75
568.526	922.75
568.737	852.75
568.949	801.75
569.161	734.75
569.372	671.75
569.584	641.75
569.795	608.75
570.007	628.75
570.218	584.75
570.43	596.75
570.641	579.75
570.853	570.75
571.064	589.75
571.276	584.75
571.487	579.75
571.698	544.75
571.91	542.75
572.121	524.75
572.333	537.75
572.544	513.75
572.755	510.75
572.966	489.75
573.178	484.75
573.389	481.75
573.6	469.75
573.811	470.75
574.023	475.75
574.234	464.75
574.445	472.75
574.656	459.75
574.867	459.75
575.078	465.75
575.289	485.75
575.501	442.75
575.712	459.75
575.923	441.75
576.134	459.75
576.345	472.75
576.556	434.75
576.767	437.75
576.978	443.75
577.188	455.75
577.399	449.75
577.61	449.75
577.821	446.75
578.032	431.75
578.243	430.75
578.454	422.75
578.665	418.75
578.875	410.75
579.086	420.75
579.297	388.75
579.508	410.75
579.718	427.75
579.929	426.75
580.14	410.75
580.35	407.75
580.561	399.75
580.772	414.75
580.982	399.75
581.193	401.75
581.403	421.75
581.614	394.75
581.825	413.75
582.035	391.75
582.246	395.75
582.456	391.75
582.667	378.75
582.877	392.75
583.087	399.75
583.298	389.75
583.508	388.75
583.719	410.75
583.929	392.75
584.139	387.75
584.35	370.75
584.56	396.75
584.77	390.75
584.981	392.75
585.191	374.75
585.401	370.75
585.611	390.75
585.821	375.75
586.032	383.75
586.242	368.75
586.452	368.75
586.662	366.75
586.872	376.75
587.082	370.75
587.292	384.75
587.502	360.75
587.713	377.75
587.923	376.75
588.133	359.75
588.343	363.75
588.553	382.75
588.762	375.75
588.972	375.75
589.182	379.75
589.392	383.75
589.602	383.75
589.812	374.75
590.022	388.75
590.232	387.75
590.441	369.75
590.651	367.75
590.861	378.75
591.071	395.75
591.281	397.75
591.49	399.75
591.7	392.75
591.91	420.75
592.119	417.75
592.329	398.75
592.539	430.75
592.748	443.75
592.958	452.75
593.167	463.75
593.377	488.75
593.587	490.75
593.796	480.75
594.006	485.75
594.215	488.75
594.424	484.75
594.634	489.75
594.843	456.75
595.053	446.75
595.262	426.75
595.472	409.75
595.681	399.75
595.89	387.75
596.1	369.75
596.309	395.75
596.518	361.75
596.727	359.75
596.937	361.75
597.146	365.75
597.355	346.75
597.564	343.75
597.774	355.75
597.983	350.75
598.192	335.75
598.401	335.75
598.61	326.75
598.819	314.75
599.028	321.75
599.237	309.75
599.446	327.75
599.655	336.75
599.864	337.75
600.073	326.75
600.282	321.75
600.491	318.75
600.7	324.75
600.909	308.75
601.118	303.75
601.327	313.75
601.536	332.75
601.745	307.75
601.953	322.75
602.162	310.75
602.371	302.75
602.58	287.75
602.789	326.75
602.997	315.75
603.206	326.75
603.415	323.75
603.623	306.75
603.832	306.75
604.041	292.75
604.249	306.75
604.458	307.75
604.666	292.75
604.875	281.75
605.084	298.75
605.292	297.75
605.501	299.75
605.709	296.75
605.918	299.75
606.126	289.75
606.334	290.75
606.543	315.75
606.751	303.75
606.96	310.75
607.168	312.75
607.376	295.75
607.585	294.75
607.793	277.75
608.001	276.75
608.21	290.75
608.418	282.75
608.626	276.75
608.834	287.75
609.043	286.75
609.251	275.75
609.459	276.75
609.667	279.75
609.875	266.75
610.083	282.75
610.291	287.75
610.499	277.75
610.707	284.75
610.916	291.75
611.124	287.75
611.332	275.75
611.54	268.75
611.748	269.75
611.955	261.75
612.163	279.75
612.371	277.75
612.579	275.75
612.787	277.75
612.995	277.75
613.203	275.75
613.411	258.75
613.618	265.75
613.826	259.75
614.034	266.75
614.242	271.75
614.449	260.75
614.657	257.75
614.865	287.75
615.072	268.75
615.28	265.75
615.488	275.75
615.695	292.75
615.903	277.75
616.111	287.75
616.318	278.75
616.526	273.75
616.733	277.75
616.941	267.75
617.148	273.75
617.356	264.75
617.563	283.75
617.771	267.75
617.978	274.75
618.185	285.75
618.393	273.75
618.6	273.75
618.807	275.75
619.015	266.75
619.222	259.75
619.429	269.75
619.637	261.75
619.844	275.75
620.051	262.75
620.258	255.75
620.466	273.75
620.673	232.75
620.88	247.75
621.087	253.75
621.294	249.75
621.501	271.75
621.708	241.75
621.915	255.75
622.122	242.75
622.329	263.75
622.536	239.75
622.743	254.75
622.95	250.75
623.157	267.75
623.364	237.75
623.571	246.75
623.778	250.75
623.985	256.75
624.192	247.75
624.399	229.75
624.606	241.75
624.812	232.75
625.019	253.75
625.226	237.75
625.433	238.75
625.639	230.75
625.846	217.75
626.053	233.75
626.259	218.75
626.466	223.75
626.673	230.75
626.879	229.75
627.086	228.75
627.293	218.75
627.499	224.75
627.706	238.75
627.912	238.75
628.119	224.75
628.325	246.75
628.532	225.75
628.738	247.75
628.945	223.75
629.151	223.75
629.357	221.75
629.564	222.75
629.77	221.75
629.976	216.75
630.183	217.75
630.389	222.75
630.595	232.75
630.802	224.75
631.008	208.75
631.214	235.75
631.42	238.75
631.627	219.75
631.833	222.75
632.039	225.75
632.245	224.75
632.451	209.75
632.657	210.75
632.863	217.75
633.069	217.75
633.275	214.75
633.481	196.75
633.688	212.75
633.893	199.75
634.099	210.75
634.305	207.75
634.511	208.75
634.717	196.75
634.923	200.75
635.129	193.75
635.335	209.75
635.541	189.75
635.747	193.75
635.952	195.75
636.158	216.75
636.364	197.75
636.57	221.75
636.775	211.75
636.981	203.75
637.187	207.75
637.392	203.75
637.598	194.75
637.804	203.75
638.009	204.75
638.215	197.75
638.421	183.75
638.626	205.75
638.832	199.75
639.037	195.75
639.243	194.75
639.448	207.75
639.654	192.75
639.859	181.75
640.065	197.75
640.27	204.75
640.475	195.75
640.681	191.75
640.886	170.75
641.091	179.75
641.297	181.75
641.502	197.75
641.707	190.75
641.913	173.75
642.118	195.75
642.323	187.75
642.528	187.75
642.733	194.75
642.939	189.75
643.144	180.75
643.349	182.75
643.554	199.75
643.759	184.75
643.964	169.75
644.169	186.75
644.374	179.75
644.579	166.75
644.784	191.75
644.989	181.75
645.194	170.75
645.399	176.75
645.604	182.75
645.809	184.75
646.014	177.75
646.219	185.75
646.423	169.75
646.628	180.75
646.833	176.75
647.038	185.75
647.243	182.75
647.447	164.75
647.652	179.75
647.857	174.75
648.062	183.75
648.266	190.75
648.471	190.75
648.676	202.75
648.88	197.75
649.085	175.75
649.289	180.75
649.494	177.75
649.698	175.75
649.903	168.75
650.107	171.75
650.312	171.75
650.516	157.75
650.721	169.75
650.925	176.75
651.13	178.75
651.334	174.75
651.539	153.75
651.743	157.75
651.947	153.75
652.152	152.75
652.356	140.75
652.56	139.75
652.764	161.75
652.969	152.75
653.173	150.75
653.377	147.75
653.581	137.75
653.785	138.75
653.99	139.75
654.194	141.75
654.398	137.75
654.602	140.75
654.806	137.75
655.01	145.75
655.214	140.75
655.418	148.75
655.622	136.75
655.826	126.75
656.03	138.75
656.234	130.75
656.438	132.75
656.642	140.75
656.846	121.75
657.049	132.75
657.253	119.75
657.457	125.75
657.661	119.75
657.865	120.75
658.068	121.75
658.272	114.75
658.476	122.75
658.68	120.75
658.883	97.75
659.087	94.75
659.291	83.75
659.494	112.75
659.698	91.75
659.901	97.75
660.105	107.75
660.309	88.75
660.512	89.75
660.716	93.75
660.919	101.75
661.123	91.75
661.326	90.75
661.53	100.75
661.733	85.75
661.936	86.75
662.14	96.75
662.343	94.75
662.546	93.75
662.75	79.75
662.953	87.75
663.156	83.75
663.36	90.75
663.563	87.75
663.766	80.75
663.969	81.75
664.173	94.75
664.376	86.75
664.579	77.75
664.782	75.75
664.985	87.75
665.188	74.75
665.391	89.75
665.594	77.75
665.797	89.75
666	65.75
666.203	80.75
666.406	85.75
666.609	80.75
666.812	86.75
667.015	91.75
667.218	93.75
667.421	79.75
667.624	91.75
667.827	72.75
668.03	81.75
668.232	78.75
668.435	83.75
668.638	75.75
668.841	88.75
669.043	73.75
669.246	89.75
669.449	84.75
669.651	83.75
669.854	95.75
670.057	84.75
670.259	81.75
670.462	86.75
670.665	83.75
670.867	74.75
671.07	87.75
671.272	95.75
671.475	87.75
671.677	78.75
671.88	72.75
672.082	91.75
672.284	87.75
672.487	86.75
672.689	82.75
672.892	79.75
