Data from NiCl2@0.5M.TitratingCurve.Agarose3%dH2O.NegLispCup.LampEnergy10.LIBS07252019_HRD10591_18-19-34-571.txt Node
Date: Thu Jul 25 18:19:34 EDT 2019
User: cochatt
Spectrometer: HR+D1059
Trigger mode: 1
Integration Time (sec): 1.000000E-1
Scans to average: 1
Electric dark correction enabled: true
Nonlinearity correction enabled: false
Boxcar width: 0
XAxis mode: Wavelengths
Number of Pixels in Spectrum: 2048
>>>>>Begin Spectral Data<<<<<
223.165	-19.44
223.4	-19.44
223.635	-19.44
223.869	-16.44
224.104	-19.44
224.338	-16.44
224.573	-1.44
224.808	-9.44
225.042	-14.44
225.277	-1.44
225.511	5.56
225.746	4.56
225.98	-10.44
226.215	8.56
226.449	1.56
226.683	34.56
226.918	19.56
227.152	34.56
227.387	39.56
227.621	42.56
227.856	39.56
228.09	55.56
228.324	58.56
228.559	56.56
228.793	68.56
229.027	106.56
229.262	119.56
229.496	99.56
229.73	115.56
229.964	125.56
230.199	135.56
230.433	123.56
230.667	131.56
230.901	126.56
231.136	133.56
231.37	127.56
231.604	140.56
231.838	139.56
232.072	128.56
232.306	147.56
232.541	151.56
232.775	143.56
233.009	140.56
233.243	134.56
233.477	132.56
233.711	136.56
233.945	145.56
234.179	133.56
234.413	133.56
234.647	145.56
234.881	148.56
235.115	139.56
235.349	143.56
235.583	130.56
235.817	147.56
236.051	139.56
236.285	133.56
236.519	138.56
236.753	157.56
236.987	143.56
237.221	128.56
237.455	129.56
237.689	151.56
237.922	147.56
238.156	141.56
238.39	153.56
238.624	145.56
238.858	141.56
239.091	153.56
239.325	154.56
239.559	158.56
239.793	173.56
240.027	163.56
240.26	160.56
240.494	156.56
240.728	142.56
240.961	181.56
241.195	155.56
241.429	171.56
241.662	167.56
241.896	160.56
242.13	167.56
242.363	182.56
242.597	173.56
242.83	167.56
243.064	168.56
243.298	176.56
243.531	185.56
243.765	181.56
243.998	201.56
244.232	177.56
244.465	209.56
244.699	203.56
244.932	197.56
245.166	180.56
245.399	204.56
245.633	197.56
245.866	186.56
246.099	195.56
246.333	194.56
246.566	213.56
246.8	205.56
247.033	204.56
247.266	191.56
247.5	204.56
247.733	201.56
247.966	211.56
248.2	201.56
248.433	191.56
248.666	202.56
248.899	220.56
249.133	215.56
249.366	212.56
249.599	221.56
249.832	219.56
250.066	228.56
250.299	227.56
250.532	216.56
250.765	218.56
250.998	223.56
251.231	230.56
251.465	218.56
251.698	237.56
251.931	237.56
252.164	249.56
252.397	242.56
252.63	250.56
252.863	231.56
253.096	228.56
253.329	232.56
253.562	234.56
253.795	249.56
254.028	239.56
254.261	259.56
254.494	248.56
254.727	235.56
254.96	251.56
255.193	229.56
255.426	251.56
255.659	247.56
255.892	276.56
256.124	251.56
256.357	271.56
256.59	256.56
256.823	245.56
257.056	248.56
257.289	275.56
257.521	255.56
257.754	264.56
257.987	268.56
258.22	267.56
258.452	278.56
258.685	255.56
258.918	276.56
259.151	263.56
259.383	258.56
259.616	271.56
259.849	263.56
260.081	277.56
260.314	279.56
260.547	268.56
260.779	275.56
261.012	253.56
261.244	286.56
261.477	280.56
261.71	286.56
261.942	281.56
262.175	265.56
262.407	282.56
262.64	298.56
262.872	287.56
263.105	283.56
263.337	291.56
263.57	307.56
263.802	291.56
264.035	311.56
264.267	304.56
264.499	299.56
264.732	300.56
264.964	304.56
265.197	287.56
265.429	291.56
265.661	305.56
265.894	329.56
266.126	321.56
266.358	320.56
266.591	306.56
266.823	323.56
267.055	309.56
267.287	307.56
267.52	319.56
267.752	305.56
267.984	333.56
268.216	311.56
268.448	327.56
268.681	324.56
268.913	334.56
269.145	339.56
269.377	337.56
269.609	320.56
269.841	332.56
270.073	330.56
270.306	339.56
270.538	343.56
270.77	328.56
271.002	337.56
271.234	337.56
271.466	320.56
271.698	340.56
271.93	337.56
272.162	357.56
272.394	365.56
272.626	355.56
272.858	330.56
273.09	350.56
273.322	361.56
273.553	346.56
273.785	350.56
274.017	359.56
274.249	360.56
274.481	358.56
274.713	358.56
274.945	353.56
275.176	360.56
275.408	362.56
275.64	362.56
275.872	364.56
276.104	389.56
276.335	367.56
276.567	367.56
276.799	354.56
277.031	375.56
277.262	369.56
277.494	376.56
277.726	381.56
277.957	365.56
278.189	367.56
278.421	395.56
278.652	378.56
278.884	380.56
279.115	379.56
279.347	387.56
279.579	386.56
279.81	407.56
280.042	380.56
280.273	387.56
280.505	386.56
280.736	385.56
280.968	389.56
281.199	424.56
281.431	391.56
281.662	420.56
281.894	407.56
282.125	417.56
282.356	395.56
282.588	389.56
282.819	407.56
283.051	408.56
283.282	431.56
283.513	404.56
283.745	420.56
283.976	431.56
284.207	431.56
284.439	438.56
284.67	428.56
284.901	427.56
285.132	423.56
285.364	423.56
285.595	425.56
285.826	427.56
286.057	453.56
286.288	435.56
286.52	436.56
286.751	416.56
286.982	465.56
287.213	432.56
287.444	450.56
287.675	457.56
287.906	461.56
288.138	477.56
288.369	448.56
288.6	460.56
288.831	448.56
289.062	453.56
289.293	479.56
289.524	449.56
289.755	451.56
289.986	455.56
290.217	455.56
290.448	468.56
290.679	469.56
290.91	471.56
291.141	473.56
291.371	442.56
291.602	461.56
291.833	447.56
292.064	469.56
292.295	437.56
292.526	451.56
292.757	440.56
292.987	472.56
293.218	457.56
293.449	460.56
293.68	477.56
293.91	465.56
294.141	479.56
294.372	480.56
294.603	474.56
294.833	476.56
295.064	491.56
295.295	462.56
295.525	444.56
295.756	469.56
295.987	455.56
296.217	472.56
296.448	484.56
296.679	476.56
296.909	487.56
297.14	481.56
297.37	485.56
297.601	481.56
297.831	494.56
298.062	483.56
298.292	506.56
298.523	545.56
298.753	519.56
298.984	504.56
299.214	502.56
299.445	501.56
299.675	517.56
299.905	515.56
300.136	515.56
300.366	511.56
300.597	513.56
300.827	523.56
301.057	545.56
301.288	545.56
301.518	550.56
301.748	537.56
301.979	549.56
302.209	553.56
302.439	525.56
302.669	526.56
302.9	523.56
303.13	524.56
303.36	548.56
303.59	549.56
303.82	524.56
304.051	532.56
304.281	544.56
304.511	524.56
304.741	524.56
304.971	505.56
305.201	543.56
305.431	554.56
305.661	556.56
305.891	550.56
306.121	535.56
306.352	543.56
306.582	524.56
306.812	534.56
307.042	525.56
307.272	514.56
307.502	535.56
307.731	527.56
307.961	515.56
308.191	504.56
308.421	519.56
308.651	524.56
308.881	549.56
309.111	539.56
309.341	525.56
309.571	525.56
309.8	523.56
310.03	535.56
310.26	566.56
310.49	553.56
310.72	545.56
310.949	551.56
311.179	540.56
311.409	542.56
311.639	556.56
311.868	533.56
312.098	532.56
312.328	547.56
312.557	524.56
312.787	535.56
313.017	554.56
313.246	578.56
313.476	559.56
313.706	565.56
313.935	586.56
314.165	576.56
314.394	566.56
314.624	582.56
314.853	572.56
315.083	585.56
315.312	567.56
315.542	569.56
315.771	563.56
316.001	556.56
316.23	559.56
316.46	560.56
316.689	572.56
316.919	562.56
317.148	552.56
317.377	572.56
317.607	580.56
317.836	556.56
318.065	554.56
318.295	550.56
318.524	564.56
318.753	559.56
318.983	557.56
319.212	557.56
319.441	561.56
319.67	555.56
319.9	575.56
320.129	558.56
320.358	576.56
320.587	573.56
320.816	546.56
321.046	563.56
321.275	590.56
321.504	572.56
321.733	569.56
321.962	574.56
322.191	572.56
322.42	592.56
322.649	592.56
322.878	574.56
323.108	589.56
323.337	578.56
323.566	574.56
323.795	583.56
324.024	593.56
324.253	599.56
324.482	578.56
324.71	585.56
324.939	589.56
325.168	581.56
325.397	615.56
325.626	607.56
325.855	600.56
326.084	607.56
326.313	608.56
326.542	607.56
326.77	622.56
326.999	624.56
327.228	617.56
327.457	620.56
327.686	619.56
327.914	616.56
328.143	630.56
328.372	627.56
328.6	618.56
328.829	615.56
329.058	627.56
329.287	613.56
329.515	624.56
329.744	604.56
329.972	614.56
330.201	631.56
330.43	649.56
330.658	619.56
330.887	643.56
331.115	649.56
331.344	643.56
331.572	660.56
331.801	669.56
332.03	699.56
332.258	682.56
332.486	682.56
332.715	687.56
332.943	716.56
333.172	729.56
333.4	769.56
333.629	725.56
333.857	806.56
334.085	792.56
334.314	789.56
334.542	768.56
334.771	767.56
334.999	743.56
335.227	737.56
335.455	785.56
335.684	756.56
335.912	730.56
336.14	775.56
336.369	761.56
336.597	756.56
336.825	748.56
337.053	768.56
337.281	739.56
337.51	721.56
337.738	707.56
337.966	707.56
338.194	720.56
338.422	692.56
338.65	690.56
338.878	682.56
339.106	720.56
339.334	707.56
339.562	728.56
339.79	657.56
340.018	637.56
340.246	651.56
340.474	652.56
340.702	658.56
340.93	648.56
341.158	649.56
341.386	671.56
341.614	713.56
341.842	679.56
342.07	646.56
342.298	653.56
342.526	671.56
342.754	646.56
342.981	656.56
343.209	629.56
343.437	664.56
343.665	704.56
343.893	745.56
344.12	762.56
344.348	735.56
344.576	697.56
344.804	731.56
345.031	681.56
345.259	678.56
345.487	671.56
345.714	660.56
345.942	650.56
346.17	649.56
346.397	660.56
346.625	660.56
346.853	635.56
347.08	642.56
347.308	623.56
347.535	658.56
347.763	649.56
347.99	643.56
348.218	624.56
348.445	603.56
348.673	619.56
348.9	611.56
349.128	640.56
349.355	643.56
349.583	651.56
349.81	642.56
350.037	585.56
350.265	590.56
350.492	600.56
350.72	587.56
350.947	587.56
351.174	611.56
351.402	624.56
351.629	651.56
351.856	644.56
352.083	607.56
352.311	631.56
352.538	651.56
352.765	642.56
352.992	613.56
353.22	587.56
353.447	588.56
353.674	583.56
353.901	603.56
354.128	593.56
354.355	581.56
354.583	584.56
354.81	569.56
355.037	595.56
355.264	578.56
355.491	585.56
355.718	595.56
355.945	596.56
356.172	577.56
356.399	612.56
356.626	629.56
356.853	631.56
357.08	625.56
357.307	616.56
357.534	603.56
357.761	604.56
357.988	603.56
358.215	588.56
358.441	611.56
358.668	584.56
358.895	572.56
359.122	596.56
359.349	593.56
359.576	584.56
359.802	594.56
360.029	608.56
360.256	613.56
360.483	596.56
360.709	586.56
360.936	619.56
361.163	590.56
361.39	595.56
361.616	609.56
361.843	637.56
362.07	633.56
362.296	608.56
362.523	605.56
362.749	612.56
362.976	575.56
363.203	604.56
363.429	603.56
363.656	624.56
363.882	610.56
364.109	594.56
364.335	594.56
364.562	571.56
364.788	564.56
365.015	589.56
365.241	575.56
365.468	577.56
365.694	580.56
365.92	595.56
366.147	583.56
366.373	604.56
366.599	580.56
366.826	621.56
367.052	579.56
367.278	587.56
367.505	584.56
367.731	605.56
367.957	576.56
368.184	591.56
368.41	581.56
368.636	589.56
368.862	584.56
369.089	571.56
369.315	604.56
369.541	583.56
369.767	615.56
369.993	602.56
370.219	606.56
370.445	604.56
370.672	611.56
370.898	624.56
371.124	613.56
371.35	633.56
371.576	640.56
371.802	655.56
372.028	636.56
372.254	634.56
372.48	642.56
372.706	649.56
372.932	649.56
373.158	647.56
373.384	627.56
373.61	633.56
373.835	635.56
374.061	633.56
374.287	632.56
374.513	666.56
374.739	679.56
374.965	678.56
375.191	694.56
375.416	661.56
375.642	680.56
375.868	681.56
376.094	648.56
376.319	645.56
376.545	634.56
376.771	643.56
376.997	635.56
377.222	632.56
377.448	627.56
377.674	609.56
377.899	641.56
378.125	624.56
378.35	639.56
378.576	637.56
378.802	607.56
379.027	627.56
379.253	612.56
379.478	611.56
379.704	618.56
379.929	641.56
380.155	604.56
380.38	614.56
380.606	599.56
380.831	644.56
381.057	641.56
381.282	620.56
381.507	635.56
381.733	642.56
381.958	642.56
382.184	653.56
382.409	663.56
382.634	653.56
382.86	663.56
383.085	663.56
383.31	650.56
383.535	669.56
383.761	653.56
383.986	705.56
384.211	685.56
384.436	707.56
384.662	707.56
384.887	713.56
385.112	714.56
385.337	712.56
385.562	735.56
385.787	749.56
386.013	737.56
386.238	752.56
386.463	751.56
386.688	751.56
386.913	725.56
387.138	724.56
387.363	718.56
387.588	712.56
387.813	739.56
388.038	732.56
388.263	732.56
388.488	734.56
388.713	732.56
388.938	740.56
389.163	748.56
389.387	719.56
389.612	707.56
389.837	736.56
390.062	695.56
390.287	699.56
390.512	733.56
390.736	770.56
390.961	734.56
391.186	765.56
391.411	783.56
391.636	796.56
391.86	809.56
392.085	813.56
392.31	829.56
392.534	797.56
392.759	789.56
392.984	777.56
393.208	787.56
393.433	801.56
393.658	768.56
393.882	791.56
394.107	801.56
394.331	786.56
394.556	778.56
394.78	795.56
395.005	790.56
395.229	789.56
395.454	800.56
395.678	825.56
395.903	831.56
396.127	805.56
396.352	807.56
396.576	772.56
396.801	791.56
397.025	804.56
397.249	793.56
397.474	829.56
397.698	844.56
397.922	856.56
398.147	844.56
398.371	845.56
398.595	872.56
398.82	940.56
399.044	973.56
399.268	1051.56
399.492	1140.56
399.717	1235.56
399.941	1229.56
400.165	1133.56
400.389	1082.56
400.613	1007.56
400.837	962.56
401.062	930.56
401.286	933.56
401.51	916.56
401.734	904.56
401.958	922.56
402.182	940.56
402.406	937.56
402.63	933.56
402.854	981.56
403.078	958.56
403.302	975.56
403.526	1019.56
403.75	979.56
403.974	993.56
404.198	1015.56
404.422	980.56
404.645	997.56
404.869	1010.56
405.093	1015.56
405.317	995.56
405.541	985.56
405.765	997.56
405.988	988.56
406.212	992.56
406.436	1007.56
406.66	1010.56
406.883	1049.56
407.107	1093.56
407.331	1100.56
407.555	1140.56
407.778	1144.56
408.002	1139.56
408.226	1098.56
408.449	1072.56
408.673	1068.56
408.896	1066.56
409.12	1035.56
409.344	1024.56
409.567	1034.56
409.791	1056.56
410.014	1034.56
410.238	1009.56
410.461	998.56
410.685	1023.56
410.908	985.56
411.132	970.56
411.355	971.56
411.578	986.56
411.802	972.56
412.025	952.56
412.249	978.56
412.472	1014.56
412.695	931.56
412.919	933.56
413.142	977.56
413.365	950.56
413.589	906.56
413.812	932.56
414.035	920.56
414.258	939.56
414.482	919.56
414.705	958.56
414.928	949.56
415.151	937.56
415.374	920.56
415.597	953.56
415.821	933.56
416.044	899.56
416.267	893.56
416.49	901.56
416.713	892.56
416.936	898.56
417.159	899.56
417.382	897.56
417.605	898.56
417.828	875.56
418.051	925.56
418.274	941.56
418.497	893.56
418.72	925.56
418.943	933.56
419.166	990.56
419.389	1039.56
419.611	1025.56
419.834	1005.56
420.057	977.56
420.28	931.56
420.503	944.56
420.726	919.56
420.948	913.56
421.171	906.56
421.394	906.56
421.617	914.56
421.839	927.56
422.062	897.56
422.285	903.56
422.507	929.56
422.73	940.56
422.953	903.56
423.175	956.56
423.398	903.56
423.621	919.56
423.843	951.56
424.066	941.56
424.288	940.56
424.511	922.56
424.733	950.56
424.956	941.56
425.178	927.56
425.401	947.56
425.623	912.56
425.846	891.56
426.068	907.56
426.291	870.56
426.513	865.56
426.735	899.56
426.958	887.56
427.18	864.56
427.402	865.56
427.625	848.56
427.847	857.56
428.069	837.56
428.292	835.56
428.514	853.56
428.736	835.56
428.958	865.56
429.181	827.56
429.403	825.56
429.625	844.56
429.847	834.56
430.069	850.56
430.292	830.56
430.514	824.56
430.736	828.56
430.958	835.56
431.18	839.56
431.402	856.56
431.624	844.56
431.846	846.56
432.068	849.56
432.29	845.56
432.512	815.56
432.734	852.56
432.956	863.56
433.178	855.56
433.4	890.56
433.622	880.56
433.844	880.56
434.066	857.56
434.287	882.56
434.509	927.56
434.731	894.56
434.953	876.56
435.175	941.56
435.397	957.56
435.618	906.56
435.84	886.56
436.062	887.56
436.284	869.56
436.505	857.56
436.727	857.56
436.949	883.56
437.17	880.56
437.392	868.56
437.614	844.56
437.835	794.56
438.057	792.56
438.278	836.56
438.5	808.56
438.721	813.56
438.943	838.56
439.165	851.56
439.386	825.56
439.608	867.56
439.829	850.56
440.05	866.56
440.272	839.56
440.493	856.56
440.715	854.56
440.936	904.56
441.158	885.56
441.379	899.56
441.6	962.56
441.822	950.56
442.043	963.56
442.264	945.56
442.486	917.56
442.707	917.56
442.928	912.56
443.149	941.56
443.371	922.56
443.592	959.56
443.813	945.56
444.034	971.56
444.255	960.56
444.476	1022.56
444.698	1047.56
444.919	1061.56
445.14	1202.56
445.361	1041.56
445.582	988.56
445.803	956.56
446.024	909.56
446.245	907.56
446.466	937.56
446.687	874.56
446.908	891.56
447.129	854.56
447.35	845.56
447.571	837.56
447.792	833.56
448.013	821.56
448.234	797.56
448.455	823.56
448.675	813.56
448.896	817.56
449.117	817.56
449.338	812.56
449.559	771.56
449.779	813.56
450	798.56
450.221	813.56
450.442	810.56
450.662	813.56
450.883	820.56
451.104	813.56
451.324	777.56
451.545	793.56
451.766	817.56
451.986	840.56
452.207	815.56
452.428	767.56
452.648	771.56
452.869	786.56
453.089	769.56
453.31	787.56
453.53	751.56
453.751	751.56
453.971	786.56
454.192	778.56
454.412	755.56
454.633	745.56
454.853	757.56
455.073	761.56
455.294	772.56
455.514	776.56
455.734	777.56
455.955	731.56
456.175	736.56
456.395	757.56
456.616	740.56
456.836	757.56
457.056	754.56
457.276	760.56
457.497	770.56
457.717	736.56
457.937	767.56
458.157	776.56
458.377	766.56
458.598	803.56
458.818	846.56
459.038	820.56
459.258	845.56
459.478	848.56
459.698	914.56
459.918	919.56
460.138	922.56
460.358	980.56
460.578	948.56
460.798	1029.56
461.018	1034.56
461.238	999.56
461.458	989.56
461.678	984.56
461.898	985.56
462.118	1015.56
462.338	1059.56
462.558	1084.56
462.777	1132.56
462.997	1178.56
463.217	1235.56
463.437	1259.56
463.657	1184.56
463.876	1161.56
464.096	1155.56
464.316	1151.56
464.536	1149.56
464.755	1128.56
464.975	1074.56
465.195	1013.56
465.414	979.56
465.634	939.56
465.854	892.56
466.073	890.56
466.293	868.56
466.512	875.56
466.732	859.56
466.951	856.56
467.171	837.56
467.391	827.56
467.61	830.56
467.829	822.56
468.049	845.56
468.268	847.56
468.488	803.56
468.707	825.56
468.927	825.56
469.146	816.56
469.365	843.56
469.585	845.56
469.804	872.56
470.023	858.56
470.243	876.56
470.462	855.56
470.681	852.56
470.901	859.56
471.12	874.56
471.339	861.56
471.558	868.56
471.777	821.56
471.997	814.56
472.216	804.56
472.435	813.56
472.654	809.56
472.873	832.56
473.092	821.56
473.311	793.56
473.53	819.56
473.749	801.56
473.968	808.56
474.187	823.56
474.406	803.56
474.625	802.56
474.844	829.56
475.063	821.56
475.282	817.56
475.501	797.56
475.72	825.56
475.939	820.56
476.158	830.56
476.377	840.56
476.596	841.56
476.814	852.56
477.033	880.56
477.252	872.56
477.471	875.56
477.69	901.56
477.908	915.56
478.127	912.56
478.346	920.56
478.564	937.56
478.783	950.56
479.002	991.56
479.22	970.56
479.439	966.56
479.658	951.56
479.876	976.56
480.095	991.56
480.313	1039.56
480.532	1043.56
480.751	1060.56
480.969	978.56
481.188	980.56
481.406	965.56
481.624	959.56
481.843	940.56
482.061	922.56
482.28	931.56
482.498	923.56
482.717	904.56
482.935	912.56
483.153	937.56
483.372	956.56
483.59	949.56
483.808	959.56
484.027	947.56
484.245	926.56
484.463	945.56
484.681	954.56
484.9	980.56
485.118	958.56
485.336	945.56
485.554	940.56
485.772	962.56
485.99	984.56
486.209	985.56
486.427	986.56
486.645	988.56
486.863	966.56
487.081	993.56
487.299	986.56
487.517	991.56
487.735	973.56
487.953	994.56
488.171	974.56
488.389	955.56
488.607	953.56
488.825	983.56
489.043	939.56
489.261	977.56
489.479	963.56
489.696	974.56
489.914	945.56
490.132	986.56
490.35	1011.56
490.568	990.56
490.786	977.56
491.003	977.56
491.221	1010.56
491.439	994.56
491.657	1000.56
491.874	1013.56
492.092	1021.56
492.31	1024.56
492.527	1020.56
492.745	1020.56
492.963	1018.56
493.18	975.56
493.398	1007.56
493.615	1057.56
493.833	1052.56
494.05	1036.56
494.268	1051.56
494.485	1021.56
494.703	1028.56
494.92	1029.56
495.138	1063.56
495.355	1036.56
495.573	1027.56
495.79	1061.56
496.008	1076.56
496.225	1065.56
496.442	1069.56
496.66	1104.56
496.877	1122.56
497.094	1125.56
497.312	1159.56
497.529	1179.56
497.746	1194.56
497.963	1209.56
498.181	1249.56
498.398	1286.56
498.615	1353.56
498.832	1414.56
499.049	1508.56
499.267	1606.56
499.484	1738.56
499.701	1924.56
499.918	2025.56
500.135	2255.56
500.352	2472.56
500.569	2587.56
500.786	2556.56
501.003	2392.56
501.22	2197.56
501.437	2017.56
501.654	1836.56
501.871	1701.56
502.088	1550.56
502.305	1506.56
502.522	1460.56
502.739	1390.56
502.956	1278.56
503.172	1310.56
503.389	1242.56
503.606	1215.56
503.823	1189.56
504.04	1181.56
504.256	1169.56
504.473	1182.56
504.69	1170.56
504.907	1169.56
505.123	1113.56
505.34	1065.56
505.557	1021.56
505.773	1010.56
505.99	968.56
506.207	970.56
506.423	939.56
506.64	947.56
506.856	923.56
507.073	925.56
507.289	903.56
507.506	909.56
507.722	930.56
507.939	892.56
508.155	895.56
508.372	886.56
508.588	857.56
508.805	850.56
509.021	873.56
509.238	860.56
509.454	850.56
509.67	813.56
509.887	850.56
510.103	844.56
510.319	824.56
510.536	837.56
510.752	828.56
510.968	802.56
511.184	808.56
511.401	844.56
511.617	813.56
511.833	809.56
512.049	820.56
512.265	806.56
512.481	817.56
512.698	806.56
512.914	811.56
513.13	811.56
513.346	837.56
513.562	822.56
513.778	829.56
513.994	829.56
514.21	842.56
514.426	832.56
514.642	818.56
514.858	827.56
515.074	854.56
515.29	881.56
515.506	863.56
515.721	852.56
515.937	892.56
516.153	895.56
516.369	930.56
516.585	936.56
516.801	973.56
517.016	954.56
517.232	1002.56
517.448	1046.56
517.664	1042.56
517.879	1047.56
518.095	1086.56
518.311	1043.56
518.527	991.56
518.742	980.56
518.958	953.56
519.173	948.56
519.389	924.56
519.605	916.56
519.82	891.56
520.036	889.56
520.251	824.56
520.467	831.56
520.682	823.56
520.898	796.56
521.113	802.56
521.329	801.56
521.544	811.56
521.76	767.56
521.975	797.56
522.19	775.56
522.406	769.56
522.621	778.56
522.836	769.56
523.052	743.56
523.267	770.56
523.482	767.56
523.698	759.56
523.913	745.56
524.128	738.56
524.343	773.56
524.559	761.56
524.774	746.56
524.989	779.56
525.204	761.56
525.419	760.56
525.634	736.56
525.849	697.56
526.064	757.56
526.28	725.56
526.495	724.56
526.71	727.56
526.925	736.56
527.14	710.56
527.355	717.56
527.57	716.56
527.785	702.56
527.999	735.56
528.214	739.56
528.429	740.56
528.644	743.56
528.859	746.56
529.074	738.56
529.289	744.56
529.503	735.56
529.718	727.56
529.933	740.56
530.148	743.56
530.363	737.56
530.577	755.56
530.792	723.56
531.007	730.56
531.221	716.56
531.436	695.56
531.651	713.56
531.865	735.56
532.08	724.56
532.295	727.56
532.509	705.56
532.724	713.56
532.938	705.56
533.153	732.56
533.367	720.56
533.582	710.56
533.796	711.56
534.011	741.56
534.225	709.56
534.44	729.56
534.654	689.56
534.868	717.56
535.083	730.56
535.297	720.56
535.511	702.56
535.726	692.56
535.94	681.56
536.154	687.56
536.369	695.56
536.583	695.56
536.797	708.56
537.011	669.56
537.225	674.56
537.44	682.56
537.654	669.56
537.868	662.56
538.082	654.56
538.296	657.56
538.51	665.56
538.724	677.56
538.938	672.56
539.153	677.56
539.367	676.56
539.581	660.56
539.795	649.56
540.009	659.56
540.222	653.56
540.436	643.56
540.65	643.56
540.864	650.56
541.078	655.56
541.292	692.56
541.506	682.56
541.72	689.56
541.934	680.56
542.147	693.56
542.361	666.56
542.575	656.56
542.789	643.56
543.002	653.56
543.216	659.56
543.43	659.56
543.644	651.56
543.857	650.56
544.071	662.56
544.285	657.56
544.498	657.56
544.712	642.56
544.925	677.56
545.139	684.56
545.352	664.56
545.566	657.56
545.779	701.56
545.993	676.56
546.206	644.56
546.42	677.56
546.633	680.56
546.847	676.56
547.06	653.56
547.274	693.56
547.487	682.56
547.7	662.56
547.914	673.56
548.127	682.56
548.34	694.56
548.554	664.56
548.767	695.56
548.98	678.56
549.193	697.56
549.407	687.56
549.62	696.56
549.833	705.56
550.046	681.56
550.259	657.56
550.473	671.56
550.686	667.56
550.899	688.56
551.112	664.56
551.325	648.56
551.538	676.56
551.751	670.56
551.964	658.56
552.177	656.56
552.39	648.56
552.603	696.56
552.816	712.56
553.029	704.56
553.242	702.56
553.455	721.56
553.667	728.56
553.88	687.56
554.093	675.56
554.306	681.56
554.519	678.56
554.732	650.56
554.944	636.56
555.157	651.56
555.37	649.56
555.583	649.56
555.795	623.56
556.008	601.56
556.221	580.56
556.433	627.56
556.646	602.56
556.859	579.56
557.071	581.56
557.284	596.56
557.496	576.56
557.709	589.56
557.921	571.56
558.134	566.56
558.346	553.56
558.559	574.56
558.771	560.56
558.984	581.56
559.196	553.56
559.409	567.56
559.621	568.56
559.833	567.56
560.046	553.56
560.258	552.56
560.47	538.56
560.683	559.56
560.895	548.56
561.107	554.56
561.32	560.56
561.532	543.56
561.744	551.56
561.956	561.56
562.168	553.56
562.381	557.56
562.593	555.56
562.805	566.56
563.017	598.56
563.229	601.56
563.441	568.56
563.653	570.56
563.865	552.56
564.077	561.56
564.289	551.56
564.501	572.56
564.713	588.56
564.925	581.56
565.137	628.56
565.349	620.56
565.561	643.56
565.773	639.56
565.985	672.56
566.197	691.56
566.408	721.56
566.62	767.56
566.832	825.56
567.044	828.56
567.255	821.56
567.467	824.56
567.679	866.56
567.891	905.56
568.102	907.56
568.314	877.56
568.526	835.56
568.737	778.56
568.949	734.56
569.161	665.56
569.372	629.56
569.584	620.56
569.795	636.56
570.007	586.56
570.218	573.56
570.43	564.56
570.641	563.56
570.853	563.56
571.064	562.56
571.276	548.56
571.487	529.56
571.698	512.56
571.91	524.56
572.121	516.56
572.333	491.56
572.544	475.56
572.755	481.56
572.966	505.56
573.178	469.56
573.389	455.56
573.6	470.56
573.811	467.56
574.023	453.56
574.234	464.56
574.445	455.56
574.656	433.56
574.867	449.56
575.078	449.56
575.289	451.56
575.501	447.56
575.712	451.56
575.923	446.56
576.134	428.56
576.345	446.56
576.556	417.56
576.767	426.56
576.978	429.56
577.188	429.56
577.399	418.56
577.61	425.56
577.821	403.56
578.032	417.56
578.243	406.56
578.454	412.56
578.665	408.56
578.875	394.56
579.086	386.56
579.297	392.56
579.508	401.56
579.718	394.56
579.929	391.56
580.14	406.56
580.35	411.56
580.561	397.56
580.772	402.56
580.982	379.56
581.193	392.56
581.403	378.56
581.614	381.56
581.825	400.56
582.035	390.56
582.246	366.56
582.456	393.56
582.667	392.56
582.877	380.56
583.087	383.56
583.298	368.56
583.508	387.56
583.719	372.56
583.929	370.56
584.139	369.56
584.35	374.56
584.56	356.56
584.77	367.56
584.981	359.56
585.191	360.56
585.401	358.56
585.611	347.56
585.821	373.56
586.032	387.56
586.242	360.56
586.452	355.56
586.662	381.56
586.872	357.56
587.082	378.56
587.292	360.56
587.502	354.56
587.713	351.56
587.923	372.56
588.133	354.56
588.343	347.56
588.553	352.56
588.762	360.56
588.972	370.56
589.182	430.56
589.392	416.56
589.602	388.56
589.812	404.56
590.022	372.56
590.232	362.56
590.441	369.56
590.651	367.56
590.861	358.56
591.071	377.56
591.281	364.56
591.49	374.56
591.7	374.56
591.91	396.56
592.119	384.56
592.329	397.56
592.539	411.56
592.748	409.56
592.958	407.56
593.167	418.56
593.377	417.56
593.587	420.56
593.796	428.56
594.006	419.56
594.215	419.56
594.424	399.56
594.634	425.56
594.843	419.56
595.053	392.56
595.262	415.56
595.472	380.56
595.681	373.56
595.89	375.56
596.1	345.56
596.309	348.56
596.518	352.56
596.727	336.56
596.937	356.56
597.146	333.56
597.355	331.56
597.564	325.56
597.774	335.56
597.983	335.56
598.192	321.56
598.401	320.56
598.61	336.56
598.819	320.56
599.028	323.56
599.237	294.56
599.446	310.56
599.655	290.56
599.864	303.56
600.073	311.56
600.282	298.56
600.491	321.56
600.7	314.56
600.909	296.56
601.118	311.56
601.327	334.56
601.536	319.56
601.745	293.56
601.953	295.56
602.162	301.56
602.371	298.56
602.58	297.56
602.789	305.56
602.997	306.56
603.206	298.56
603.415	300.56
603.623	290.56
603.832	280.56
604.041	283.56
604.249	284.56
604.458	287.56
604.666	272.56
604.875	273.56
605.084	268.56
605.292	289.56
605.501	290.56
605.709	271.56
605.918	280.56
606.126	296.56
606.334	282.56
606.543	277.56
606.751	278.56
606.96	277.56
607.168	280.56
607.376	275.56
607.585	274.56
607.793	283.56
608.001	282.56
608.21	277.56
608.418	265.56
608.626	299.56
608.834	283.56
609.043	279.56
609.251	271.56
609.459	269.56
609.667	278.56
609.875	278.56
610.083	269.56
610.291	293.56
610.499	268.56
610.707	281.56
610.916	278.56
611.124	275.56
611.332	273.56
611.54	265.56
611.748	286.56
611.955	279.56
612.163	260.56
612.371	272.56
612.579	259.56
612.787	265.56
612.995	261.56
613.203	248.56
613.411	265.56
613.618	282.56
613.826	277.56
614.034	264.56
614.242	265.56
614.449	269.56
614.657	255.56
614.865	254.56
615.072	255.56
615.28	248.56
615.488	273.56
615.695	264.56
615.903	242.56
616.111	252.56
616.318	268.56
616.526	268.56
616.733	255.56
616.941	262.56
617.148	263.56
617.356	271.56
617.563	247.56
617.771	280.56
617.978	263.56
618.185	253.56
618.393	254.56
618.6	255.56
618.807	250.56
619.015	241.56
619.222	243.56
619.429	260.56
619.637	267.56
619.844	259.56
620.051	231.56
620.258	239.56
620.466	245.56
620.673	250.56
620.88	238.56
621.087	244.56
621.294	227.56
621.501	241.56
621.708	251.56
621.915	248.56
622.122	229.56
622.329	234.56
622.536	227.56
622.743	240.56
622.95	248.56
623.157	218.56
623.364	252.56
623.571	217.56
623.778	243.56
623.985	242.56
624.192	243.56
624.399	243.56
624.606	232.56
624.812	222.56
625.019	232.56
625.226	222.56
625.433	240.56
625.639	237.56
625.846	228.56
626.053	205.56
626.259	232.56
626.466	241.56
626.673	228.56
626.879	216.56
627.086	223.56
627.293	197.56
627.499	224.56
627.706	201.56
627.912	217.56
628.119	209.56
628.325	211.56
628.532	215.56
628.738	204.56
628.945	216.56
629.151	240.56
629.357	219.56
629.564	220.56
629.77	218.56
629.976	205.56
630.183	193.56
630.389	200.56
630.595	208.56
630.802	218.56
631.008	210.56
631.214	215.56
631.42	217.56
631.627	205.56
631.833	191.56
632.039	212.56
632.245	202.56
632.451	194.56
632.657	195.56
632.863	193.56
633.069	215.56
633.275	184.56
633.481	203.56
633.688	192.56
633.893	191.56
634.099	185.56
634.305	186.56
634.511	200.56
634.717	202.56
634.923	178.56
635.129	193.56
635.335	192.56
635.541	194.56
635.747	196.56
635.952	189.56
636.158	190.56
636.364	198.56
636.57	181.56
636.775	184.56
636.981	195.56
637.187	206.56
637.392	198.56
637.598	207.56
637.804	179.56
638.009	191.56
638.215	192.56
638.421	177.56
638.626	195.56
638.832	193.56
639.037	186.56
639.243	189.56
639.448	187.56
639.654	186.56
639.859	188.56
640.065	194.56
640.27	190.56
640.475	187.56
640.681	180.56
640.886	177.56
641.091	184.56
641.297	189.56
641.502	184.56
641.707	184.56
641.913	180.56
642.118	178.56
642.323	193.56
642.528	191.56
642.733	192.56
642.939	183.56
643.144	179.56
643.349	156.56
643.554	180.56
643.759	181.56
643.964	175.56
644.169	175.56
644.374	185.56
644.579	182.56
644.784	192.56
644.989	181.56
645.194	191.56
645.399	178.56
645.604	167.56
645.809	179.56
646.014	187.56
646.219	181.56
646.423	162.56
646.628	178.56
646.833	181.56
647.038	185.56
647.243	178.56
647.447	178.56
647.652	194.56
647.857	195.56
648.062	181.56
648.266	193.56
648.471	187.56
648.676	180.56
648.88	186.56
649.085	191.56
649.289	176.56
649.494	183.56
649.698	179.56
649.903	171.56
650.107	165.56
650.312	170.56
650.516	164.56
650.721	162.56
650.925	179.56
651.13	163.56
651.334	166.56
651.539	165.56
651.743	169.56
651.947	163.56
652.152	161.56
652.356	159.56
652.56	167.56
652.764	154.56
652.969	167.56
653.173	170.56
653.377	135.56
653.581	153.56
653.785	163.56
653.99	154.56
654.194	143.56
654.398	158.56
654.602	148.56
654.806	151.56
655.01	151.56
655.214	116.56
655.418	140.56
655.622	137.56
655.826	145.56
656.03	137.56
656.234	135.56
656.438	138.56
656.642	135.56
656.846	142.56
657.049	131.56
657.253	122.56
657.457	130.56
657.661	119.56
657.865	111.56
658.068	124.56
658.272	119.56
658.476	114.56
658.68	123.56
658.883	106.56
659.087	111.56
659.291	103.56
659.494	104.56
659.698	108.56
659.901	104.56
660.105	89.56
660.309	97.56
660.512	93.56
660.716	95.56
660.919	104.56
661.123	97.56
661.326	102.56
661.53	99.56
661.733	100.56
661.936	85.56
662.14	77.56
662.343	87.56
662.546	93.56
662.75	87.56
662.953	80.56
663.156	84.56
663.36	72.56
663.563	75.56
663.766	81.56
663.969	82.56
664.173	86.56
664.376	77.56
664.579	76.56
664.782	71.56
664.985	71.56
665.188	84.56
665.391	82.56
665.594	79.56
665.797	79.56
666	89.56
666.203	87.56
666.406	74.56
666.609	73.56
666.812	71.56
667.015	80.56
667.218	75.56
667.421	68.56
667.624	80.56
667.827	101.56
668.03	81.56
668.232	70.56
668.435	72.56
668.638	78.56
668.841	84.56
669.043	85.56
669.246	84.56
669.449	77.56
669.651	77.56
669.854	77.56
670.057	79.56
670.259	84.56
670.462	68.56
670.665	70.56
670.867	91.56
671.07	84.56
671.272	84.56
671.475	70.56
671.677	74.56
671.88	90.56
672.082	80.56
672.284	76.56
672.487	74.56
672.689	78.56
672.892	77.56
