Data from NiCl2@0.25M.TitratingCurve.Agarose3%dH2O.NegLispCup.LampEnergy10.LIBS07252019_HRD10591_18-25-07-573.txt Node
Date: Thu Jul 25 18:25:07 EDT 2019
User: cochatt
Spectrometer: HR+D1059
Trigger mode: 1
Integration Time (sec): 1.000000E-1
Scans to average: 1
Electric dark correction enabled: true
Nonlinearity correction enabled: false
Boxcar width: 0
XAxis mode: Wavelengths
Number of Pixels in Spectrum: 2048
>>>>>Begin Spectral Data<<<<<
223.165	-14.62
223.4	-14.62
223.635	-14.62
223.869	-15.62
224.104	-19.62
224.338	-32.62
224.573	-20.62
224.808	-24.62
225.042	-7.62
225.277	3.38
225.511	-5.62
225.746	3.38
225.98	13.38
226.215	21.38
226.449	22.38
226.683	14.38
226.918	30.38
227.152	32.38
227.387	49.38
227.621	38.38
227.856	53.38
228.09	40.38
228.324	53.38
228.559	69.38
228.793	75.38
229.027	116.38
229.262	119.38
229.496	141.38
229.73	139.38
229.964	131.38
230.199	147.38
230.433	133.38
230.667	142.38
230.901	143.38
231.136	152.38
231.37	147.38
231.604	146.38
231.838	156.38
232.072	167.38
232.306	151.38
232.541	165.38
232.775	153.38
233.009	161.38
233.243	167.38
233.477	174.38
233.711	167.38
233.945	165.38
234.179	173.38
234.413	157.38
234.647	162.38
234.881	170.38
235.115	162.38
235.349	157.38
235.583	167.38
235.817	166.38
236.051	167.38
236.285	166.38
236.519	171.38
236.753	178.38
236.987	157.38
237.221	187.38
237.455	187.38
237.689	186.38
237.922	182.38
238.156	180.38
238.39	169.38
238.624	196.38
238.858	174.38
239.091	203.38
239.325	180.38
239.559	200.38
239.793	216.38
240.027	219.38
240.26	179.38
240.494	194.38
240.728	205.38
240.961	195.38
241.195	195.38
241.429	200.38
241.662	211.38
241.896	175.38
242.13	212.38
242.363	197.38
242.597	203.38
242.83	228.38
243.064	223.38
243.298	220.38
243.531	231.38
243.765	245.38
243.998	232.38
244.232	246.38
244.465	255.38
244.699	238.38
244.932	210.38
245.166	247.38
245.399	234.38
245.633	249.38
245.866	241.38
246.099	237.38
246.333	233.38
246.566	230.38
246.8	226.38
247.033	247.38
247.266	239.38
247.5	266.38
247.733	251.38
247.966	258.38
248.2	298.38
248.433	248.38
248.666	253.38
248.899	286.38
249.133	281.38
249.366	275.38
249.599	264.38
249.832	273.38
250.066	284.38
250.299	293.38
250.532	275.38
250.765	284.38
250.998	285.38
251.231	296.38
251.465	285.38
251.698	300.38
251.931	300.38
252.164	292.38
252.397	294.38
252.63	278.38
252.863	293.38
253.096	301.38
253.329	300.38
253.562	291.38
253.795	310.38
254.028	297.38
254.261	302.38
254.494	303.38
254.727	311.38
254.96	307.38
255.193	312.38
255.426	336.38
255.659	315.38
255.892	317.38
256.124	312.38
256.357	327.38
256.59	355.38
256.823	309.38
257.056	316.38
257.289	339.38
257.521	340.38
257.754	322.38
257.987	359.38
258.22	341.38
258.452	319.38
258.685	359.38
258.918	346.38
259.151	337.38
259.383	343.38
259.616	350.38
259.849	337.38
260.081	356.38
260.314	353.38
260.547	361.38
260.779	350.38
261.012	363.38
261.244	375.38
261.477	370.38
261.71	349.38
261.942	361.38
262.175	378.38
262.407	361.38
262.64	353.38
262.872	380.38
263.105	358.38
263.337	376.38
263.57	363.38
263.802	379.38
264.035	377.38
264.267	383.38
264.499	367.38
264.732	374.38
264.964	381.38
265.197	397.38
265.429	379.38
265.661	381.38
265.894	396.38
266.126	423.38
266.358	378.38
266.591	393.38
266.823	392.38
267.055	394.38
267.287	404.38
267.52	397.38
267.752	402.38
267.984	415.38
268.216	422.38
268.448	390.38
268.681	394.38
268.913	412.38
269.145	416.38
269.377	422.38
269.609	425.38
269.841	419.38
270.073	411.38
270.306	426.38
270.538	407.38
270.77	414.38
271.002	419.38
271.234	420.38
271.466	450.38
271.698	447.38
271.93	422.38
272.162	429.38
272.394	450.38
272.626	424.38
272.858	443.38
273.09	438.38
273.322	456.38
273.553	435.38
273.785	449.38
274.017	439.38
274.249	457.38
274.481	440.38
274.713	461.38
274.945	458.38
275.176	487.38
275.408	463.38
275.64	463.38
275.872	457.38
276.104	478.38
276.335	471.38
276.567	465.38
276.799	460.38
277.031	455.38
277.262	471.38
277.494	478.38
277.726	473.38
277.957	478.38
278.189	482.38
278.421	468.38
278.652	474.38
278.884	493.38
279.115	493.38
279.347	513.38
279.579	509.38
279.81	518.38
280.042	495.38
280.273	481.38
280.505	487.38
280.736	498.38
280.968	491.38
281.199	492.38
281.431	541.38
281.662	533.38
281.894	501.38
282.125	519.38
282.356	523.38
282.588	504.38
282.819	506.38
283.051	526.38
283.282	537.38
283.513	517.38
283.745	522.38
283.976	530.38
284.207	536.38
284.439	551.38
284.67	544.38
284.901	553.38
285.132	539.38
285.364	576.38
285.595	561.38
285.826	534.38
286.057	561.38
286.288	551.38
286.52	550.38
286.751	550.38
286.982	558.38
287.213	554.38
287.444	572.38
287.675	559.38
287.906	563.38
288.138	563.38
288.369	572.38
288.6	567.38
288.831	575.38
289.062	574.38
289.293	589.38
289.524	564.38
289.755	589.38
289.986	573.38
290.217	592.38
290.448	592.38
290.679	622.38
290.91	610.38
291.141	583.38
291.371	588.38
291.602	591.38
291.833	586.38
292.064	603.38
292.295	606.38
292.526	617.38
292.757	583.38
292.987	602.38
293.218	573.38
293.449	596.38
293.68	605.38
293.91	611.38
294.141	599.38
294.372	586.38
294.603	598.38
294.833	603.38
295.064	591.38
295.295	562.38
295.525	576.38
295.756	606.38
295.987	597.38
296.217	611.38
296.448	600.38
296.679	603.38
296.909	622.38
297.14	608.38
297.37	645.38
297.601	643.38
297.831	650.38
298.062	652.38
298.292	641.38
298.523	660.38
298.753	653.38
298.984	631.38
299.214	669.38
299.445	642.38
299.675	638.38
299.905	632.38
300.136	609.38
300.366	634.38
300.597	667.38
300.827	650.38
301.057	655.38
301.288	683.38
301.518	687.38
301.748	690.38
301.979	709.38
302.209	669.38
302.439	679.38
302.669	670.38
302.9	677.38
303.13	641.38
303.36	683.38
303.59	661.38
303.82	647.38
304.051	653.38
304.281	692.38
304.511	689.38
304.741	679.38
304.971	668.38
305.201	652.38
305.431	662.38
305.661	673.38
305.891	667.38
306.121	643.38
306.352	648.38
306.582	668.38
306.812	668.38
307.042	690.38
307.272	665.38
307.502	649.38
307.731	658.38
307.961	649.38
308.191	656.38
308.421	646.38
308.651	642.38
308.881	637.38
309.111	667.38
309.341	653.38
309.571	666.38
309.8	661.38
310.03	669.38
310.26	648.38
310.49	676.38
310.72	662.38
310.949	652.38
311.179	656.38
311.409	669.38
311.639	689.38
311.868	666.38
312.098	650.38
312.328	677.38
312.557	701.38
312.787	682.38
313.017	682.38
313.246	710.38
313.476	700.38
313.706	700.38
313.935	689.38
314.165	722.38
314.394	715.38
314.624	726.38
314.853	707.38
315.083	689.38
315.312	699.38
315.542	703.38
315.771	682.38
316.001	696.38
316.23	682.38
316.46	684.38
316.689	696.38
316.919	695.38
317.148	705.38
317.377	682.38
317.607	686.38
317.836	679.38
318.065	669.38
318.295	692.38
318.524	701.38
318.753	705.38
318.983	685.38
319.212	695.38
319.441	693.38
319.67	686.38
319.9	685.38
320.129	703.38
320.358	685.38
320.587	673.38
320.816	697.38
321.046	702.38
321.275	714.38
321.504	669.38
321.733	708.38
321.962	702.38
322.191	714.38
322.42	692.38
322.649	712.38
322.878	701.38
323.108	680.38
323.337	701.38
323.566	677.38
323.795	707.38
324.024	704.38
324.253	732.38
324.482	744.38
324.71	722.38
324.939	717.38
325.168	717.38
325.397	748.38
325.626	772.38
325.855	750.38
326.084	745.38
326.313	748.38
326.542	732.38
326.77	776.38
326.999	758.38
327.228	740.38
327.457	740.38
327.686	777.38
327.914	754.38
328.143	757.38
328.372	748.38
328.6	748.38
328.829	756.38
329.058	750.38
329.287	745.38
329.515	788.38
329.744	760.38
329.972	774.38
330.201	777.38
330.43	785.38
330.658	779.38
330.887	807.38
331.115	793.38
331.344	796.38
331.572	804.38
331.801	823.38
332.03	811.38
332.258	865.38
332.486	897.38
332.715	893.38
332.943	923.38
333.172	988.38
333.4	1033.38
333.629	1041.38
333.857	1044.38
334.085	1027.38
334.314	1043.38
334.542	984.38
334.771	998.38
334.999	957.38
335.227	980.38
335.455	962.38
335.684	961.38
335.912	945.38
336.14	936.38
336.369	916.38
336.597	934.38
336.825	924.38
337.053	906.38
337.281	888.38
337.51	891.38
337.738	881.38
337.966	858.38
338.194	855.38
338.422	861.38
338.65	843.38
338.878	837.38
339.106	822.38
339.334	823.38
339.562	830.38
339.79	789.38
340.018	796.38
340.246	778.38
340.474	764.38
340.702	773.38
340.93	806.38
341.158	806.38
341.386	819.38
341.614	812.38
341.842	799.38
342.07	791.38
342.298	776.38
342.526	794.38
342.754	774.38
342.981	821.38
343.209	834.38
343.437	844.38
343.665	883.38
343.893	953.38
344.12	983.38
344.348	973.38
344.576	868.38
344.804	875.38
345.031	844.38
345.259	812.38
345.487	823.38
345.714	787.38
345.942	799.38
346.17	813.38
346.397	807.38
346.625	759.38
346.853	758.38
347.08	784.38
347.308	762.38
347.535	794.38
347.763	779.38
347.99	793.38
348.218	748.38
348.445	766.38
348.673	757.38
348.9	767.38
349.128	794.38
349.355	764.38
349.583	761.38
349.81	747.38
350.037	753.38
350.265	742.38
350.492	775.38
350.72	719.38
350.947	743.38
351.174	772.38
351.402	756.38
351.629	740.38
351.856	742.38
352.083	737.38
352.311	740.38
352.538	729.38
352.765	745.38
352.992	734.38
353.22	739.38
353.447	720.38
353.674	737.38
353.901	720.38
354.128	718.38
354.355	747.38
354.583	738.38
354.81	743.38
355.037	715.38
355.264	746.38
355.491	739.38
355.718	771.38
355.945	760.38
356.172	755.38
356.399	742.38
356.626	734.38
356.853	764.38
357.08	775.38
357.307	741.38
357.534	737.38
357.761	751.38
357.988	759.38
358.215	724.38
358.441	733.38
358.668	731.38
358.895	729.38
359.122	737.38
359.349	745.38
359.576	725.38
359.802	748.38
360.029	747.38
360.256	737.38
360.483	733.38
360.709	729.38
360.936	743.38
361.163	747.38
361.39	737.38
361.616	737.38
361.843	736.38
362.07	754.38
362.296	794.38
362.523	735.38
362.749	742.38
362.976	740.38
363.203	747.38
363.429	735.38
363.656	730.38
363.882	753.38
364.109	742.38
364.335	717.38
364.562	739.38
364.788	723.38
365.015	708.38
365.241	744.38
365.468	743.38
365.694	731.38
365.92	725.38
366.147	767.38
366.373	733.38
366.599	730.38
366.826	743.38
367.052	736.38
367.278	761.38
367.505	741.38
367.731	723.38
367.957	745.38
368.184	778.38
368.41	777.38
368.636	759.38
368.862	763.38
369.089	759.38
369.315	762.38
369.541	751.38
369.767	748.38
369.993	753.38
370.219	760.38
370.445	825.38
370.672	809.38
370.898	766.38
371.124	799.38
371.35	826.38
371.576	827.38
371.802	806.38
372.028	811.38
372.254	828.38
372.48	798.38
372.706	847.38
372.932	840.38
373.158	815.38
373.384	812.38
373.61	821.38
373.835	806.38
374.061	799.38
374.287	823.38
374.513	853.38
374.739	872.38
374.965	910.38
375.191	901.38
375.416	898.38
375.642	884.38
375.868	858.38
376.094	858.38
376.319	842.38
376.545	827.38
376.771	822.38
376.997	796.38
377.222	832.38
377.448	816.38
377.674	826.38
377.899	791.38
378.125	810.38
378.35	803.38
378.576	827.38
378.802	822.38
379.027	805.38
379.253	831.38
379.478	818.38
379.704	805.38
379.929	800.38
380.155	796.38
380.38	811.38
380.606	808.38
380.831	796.38
381.057	811.38
381.282	801.38
381.507	794.38
381.733	815.38
381.958	802.38
382.184	822.38
382.409	819.38
382.634	829.38
382.86	861.38
383.085	876.38
383.31	881.38
383.535	857.38
383.761	893.38
383.986	910.38
384.211	927.38
384.436	946.38
384.662	953.38
384.887	963.38
385.112	955.38
385.337	985.38
385.562	986.38
385.787	1004.38
386.013	1001.38
386.238	979.38
386.463	985.38
386.688	969.38
386.913	1002.38
387.138	982.38
387.363	967.38
387.588	987.38
387.813	980.38
388.038	963.38
388.263	941.38
388.488	949.38
388.713	966.38
388.938	960.38
389.163	953.38
389.387	928.38
389.612	942.38
389.837	961.38
390.062	937.38
390.287	970.38
390.512	969.38
390.736	949.38
390.961	988.38
391.186	1022.38
391.411	1051.38
391.636	1029.38
391.86	1105.38
392.085	1100.38
392.31	1113.38
392.534	1068.38
392.759	1033.38
392.984	1055.38
393.208	1032.38
393.433	1018.38
393.658	1018.38
393.882	1042.38
394.107	1028.38
394.331	1051.38
394.556	1059.38
394.78	1035.38
395.005	1043.38
395.229	1059.38
395.454	1073.38
395.678	1113.38
395.903	1078.38
396.127	1087.38
396.352	1057.38
396.576	1091.38
396.801	1062.38
397.025	1060.38
397.249	1076.38
397.474	1078.38
397.698	1109.38
397.922	1117.38
398.147	1102.38
398.371	1139.38
398.595	1178.38
398.82	1213.38
399.044	1330.38
399.268	1457.38
399.492	1689.38
399.717	1903.38
399.941	1872.38
400.165	1691.38
400.389	1502.38
400.613	1367.38
400.837	1262.38
401.062	1284.38
401.286	1213.38
401.51	1230.38
401.734	1235.38
401.958	1288.38
402.182	1245.38
402.406	1269.38
402.63	1301.38
402.854	1321.38
403.078	1313.38
403.302	1350.38
403.526	1388.38
403.75	1384.38
403.974	1416.38
404.198	1413.38
404.422	1427.38
404.645	1437.38
404.869	1394.38
405.093	1410.38
405.317	1375.38
405.541	1385.38
405.765	1350.38
405.988	1349.38
406.212	1353.38
406.436	1351.38
406.66	1382.38
406.883	1408.38
407.107	1457.38
407.331	1560.38
407.555	1614.38
407.778	1600.38
408.002	1566.38
408.226	1528.38
408.449	1482.38
408.673	1437.38
408.896	1391.38
409.12	1396.38
409.344	1415.38
409.567	1407.38
409.791	1411.38
410.014	1388.38
410.238	1369.38
410.461	1376.38
410.685	1356.38
410.908	1333.38
411.132	1346.38
411.355	1266.38
411.578	1312.38
411.802	1272.38
412.025	1279.38
412.249	1311.38
412.472	1299.38
412.695	1253.38
412.919	1210.38
413.142	1199.38
413.365	1201.38
413.589	1253.38
413.812	1197.38
414.035	1218.38
414.258	1190.38
414.482	1221.38
414.705	1262.38
414.928	1241.38
415.151	1217.38
415.374	1216.38
415.597	1192.38
415.821	1171.38
416.044	1195.38
416.267	1153.38
416.49	1177.38
416.713	1220.38
416.936	1195.38
417.159	1210.38
417.382	1201.38
417.605	1174.38
417.828	1237.38
418.051	1215.38
418.274	1225.38
418.497	1252.38
418.72	1251.38
418.943	1225.38
419.166	1303.38
419.389	1380.38
419.611	1383.38
419.834	1316.38
420.057	1273.38
420.28	1237.38
420.503	1198.38
420.726	1175.38
420.948	1195.38
421.171	1219.38
421.394	1224.38
421.617	1203.38
421.839	1204.38
422.062	1187.38
422.285	1207.38
422.507	1224.38
422.73	1225.38
422.953	1209.38
423.175	1224.38
423.398	1267.38
423.621	1237.38
423.843	1283.38
424.066	1304.38
424.288	1272.38
424.511	1284.38
424.733	1262.38
424.956	1243.38
425.178	1229.38
425.401	1224.38
425.623	1225.38
425.846	1163.38
426.068	1176.38
426.291	1175.38
426.513	1143.38
426.735	1151.38
426.958	1109.38
427.18	1090.38
427.402	1101.38
427.625	1063.38
427.847	1097.38
428.069	1101.38
428.292	1086.38
428.514	1068.38
428.736	1056.38
428.958	1097.38
429.181	1067.38
429.403	1043.38
429.625	1052.38
429.847	1029.38
430.069	1070.38
430.292	1054.38
430.514	1039.38
430.736	1035.38
430.958	1058.38
431.18	1069.38
431.402	1065.38
431.624	1070.38
431.846	1082.38
432.068	1088.38
432.29	1097.38
432.512	1071.38
432.734	1066.38
432.956	1068.38
433.178	1068.38
433.4	1048.38
433.622	1094.38
433.844	1103.38
434.066	1097.38
434.287	1111.38
434.509	1140.38
434.731	1205.38
434.953	1212.38
435.175	1220.38
435.397	1194.38
435.618	1149.38
435.84	1118.38
436.062	1106.38
436.284	1093.38
436.505	1073.38
436.727	1084.38
436.949	1073.38
437.17	1047.38
437.392	1062.38
437.614	1025.38
437.835	1011.38
438.057	1031.38
438.278	990.38
438.5	994.38
438.721	1010.38
438.943	1025.38
439.165	1061.38
439.386	1042.38
439.608	1056.38
439.829	1043.38
440.05	1046.38
440.272	1085.38
440.493	1077.38
440.715	1103.38
440.936	1110.38
441.158	1121.38
441.379	1135.38
441.6	1225.38
441.822	1202.38
442.043	1198.38
442.264	1153.38
442.486	1178.38
442.707	1171.38
442.928	1172.38
443.149	1207.38
443.371	1167.38
443.592	1195.38
443.813	1183.38
444.034	1236.38
444.255	1241.38
444.476	1289.38
444.698	1385.38
444.919	1422.38
445.14	1471.38
445.361	1362.38
445.582	1231.38
445.803	1173.38
446.024	1151.38
446.245	1097.38
446.466	1115.38
446.687	1077.38
446.908	1094.38
447.129	1054.38
447.35	1016.38
447.571	1031.38
447.792	1006.38
448.013	994.38
448.234	1004.38
448.455	996.38
448.675	972.38
448.896	969.38
449.117	971.38
449.338	966.38
449.559	979.38
449.779	970.38
450	936.38
450.221	974.38
450.442	981.38
450.662	970.38
450.883	961.38
451.104	1025.38
451.324	975.38
451.545	990.38
451.766	984.38
451.986	982.38
452.207	967.38
452.428	954.38
452.648	979.38
452.869	910.38
453.089	942.38
453.31	947.38
453.53	941.38
453.751	956.38
453.971	933.38
454.192	945.38
454.412	925.38
454.633	927.38
454.853	942.38
455.073	934.38
455.294	916.38
455.514	893.38
455.734	934.38
455.955	910.38
456.175	883.38
456.395	905.38
456.616	914.38
456.836	926.38
457.056	909.38
457.276	885.38
457.497	916.38
457.717	914.38
457.937	954.38
458.157	946.38
458.377	909.38
458.598	973.38
458.818	999.38
459.038	1017.38
459.258	1036.38
459.478	1113.38
459.698	1117.38
459.918	1118.38
460.138	1177.38
460.358	1196.38
460.578	1251.38
460.798	1288.38
461.018	1282.38
461.238	1232.38
461.458	1261.38
461.678	1267.38
461.898	1301.38
462.118	1288.38
462.338	1377.38
462.558	1398.38
462.777	1446.38
462.997	1542.38
463.217	1706.38
463.437	1690.38
463.657	1551.38
463.876	1517.38
464.096	1509.38
464.316	1459.38
464.536	1481.38
464.755	1431.38
464.975	1374.38
465.195	1310.38
465.414	1203.38
465.634	1165.38
465.854	1120.38
466.073	1065.38
466.293	1092.38
466.512	1041.38
466.732	1050.38
466.951	1059.38
467.171	1025.38
467.391	1022.38
467.61	1025.38
467.829	1029.38
468.049	994.38
468.268	988.38
468.488	966.38
468.707	966.38
468.927	978.38
469.146	953.38
469.365	1022.38
469.585	999.38
469.804	999.38
470.023	1047.38
470.243	1052.38
470.462	1047.38
470.681	1083.38
470.901	1081.38
471.12	1033.38
471.339	1033.38
471.558	1012.38
471.777	1002.38
471.997	973.38
472.216	991.38
472.435	986.38
472.654	973.38
472.873	966.38
473.092	957.38
473.311	974.38
473.53	939.38
473.749	944.38
473.968	956.38
474.187	963.38
474.406	946.38
474.625	961.38
474.844	975.38
475.063	981.38
475.282	978.38
475.501	978.38
475.72	986.38
475.939	979.38
476.158	979.38
476.377	981.38
476.596	1012.38
476.814	989.38
477.033	997.38
477.252	1046.38
477.471	1083.38
477.69	1074.38
477.908	1100.38
478.127	1155.38
478.346	1165.38
478.564	1157.38
478.783	1180.38
479.002	1203.38
479.22	1224.38
479.439	1216.38
479.658	1177.38
479.876	1197.38
480.095	1223.38
480.313	1271.38
480.532	1323.38
480.751	1301.38
480.969	1237.38
481.188	1195.38
481.406	1187.38
481.624	1144.38
481.843	1116.38
482.061	1090.38
482.28	1113.38
482.498	1103.38
482.717	1099.38
482.935	1110.38
483.153	1087.38
483.372	1114.38
483.59	1090.38
483.808	1110.38
484.027	1097.38
484.245	1124.38
484.463	1085.38
484.681	1160.38
484.9	1121.38
485.118	1159.38
485.336	1134.38
485.554	1139.38
485.772	1136.38
485.99	1185.38
486.209	1166.38
486.427	1151.38
486.645	1154.38
486.863	1158.38
487.081	1158.38
487.299	1172.38
487.517	1181.38
487.735	1127.38
487.953	1153.38
488.171	1149.38
488.389	1149.38
488.607	1132.38
488.825	1131.38
489.043	1099.38
489.261	1134.38
489.479	1101.38
489.696	1110.38
489.914	1147.38
490.132	1188.38
490.35	1163.38
490.568	1133.38
490.786	1178.38
491.003	1153.38
491.221	1178.38
491.439	1169.38
491.657	1170.38
491.874	1189.38
492.092	1199.38
492.31	1187.38
492.527	1175.38
492.745	1211.38
492.963	1213.38
493.18	1194.38
493.398	1214.38
493.615	1189.38
493.833	1226.38
494.05	1207.38
494.268	1260.38
494.485	1245.38
494.703	1249.38
494.92	1243.38
495.138	1231.38
495.355	1265.38
495.573	1211.38
495.79	1239.38
496.008	1262.38
496.225	1258.38
496.442	1270.38
496.66	1289.38
496.877	1337.38
497.094	1369.38
497.312	1355.38
497.529	1339.38
497.746	1409.38
497.963	1466.38
498.181	1519.38
498.398	1595.38
498.615	1681.38
498.832	1801.38
499.049	1936.38
499.267	2067.38
499.484	2328.38
499.701	2549.38
499.918	2865.38
500.135	3212.38
500.352	3665.38
500.569	3865.38
500.786	3777.38
501.003	3549.38
501.22	3165.38
501.437	2841.38
501.654	2482.38
501.871	2251.38
502.088	2060.38
502.305	1908.38
502.522	1807.38
502.739	1770.38
502.956	1637.38
503.172	1576.38
503.389	1525.38
503.606	1475.38
503.823	1413.38
504.04	1411.38
504.256	1457.38
504.473	1483.38
504.69	1507.38
504.907	1479.38
505.123	1393.38
505.34	1315.38
505.557	1265.38
505.773	1239.38
505.99	1206.38
506.207	1150.38
506.423	1192.38
506.64	1141.38
506.856	1119.38
507.073	1113.38
507.289	1102.38
507.506	1107.38
507.722	1089.38
507.939	1100.38
508.155	1083.38
508.372	1077.38
508.588	1066.38
508.805	1061.38
509.021	1053.38
509.238	1022.38
509.454	1057.38
509.67	997.38
509.887	1003.38
510.103	1027.38
510.319	1029.38
510.536	1015.38
510.752	982.38
510.968	979.38
511.184	980.38
511.401	997.38
511.617	1016.38
511.833	995.38
512.049	1004.38
512.265	1003.38
512.481	992.38
512.698	1004.38
512.914	1033.38
513.13	989.38
513.346	986.38
513.562	995.38
513.778	985.38
513.994	1015.38
514.21	1005.38
514.426	1041.38
514.642	1025.38
514.858	1045.38
515.074	1029.38
515.29	1026.38
515.506	1031.38
515.721	1051.38
515.937	1059.38
516.153	1082.38
516.369	1144.38
516.585	1121.38
516.801	1175.38
517.016	1242.38
517.232	1294.38
517.448	1337.38
517.664	1391.38
517.879	1414.38
518.095	1379.38
518.311	1388.38
518.527	1305.38
518.742	1247.38
518.958	1219.38
519.173	1165.38
519.389	1135.38
519.605	1098.38
519.82	1064.38
520.036	1057.38
520.251	1039.38
520.467	1009.38
520.682	991.38
520.898	1010.38
521.113	994.38
521.329	976.38
521.544	983.38
521.76	953.38
521.975	981.38
522.19	957.38
522.406	922.38
522.621	948.38
522.836	957.38
523.052	935.38
523.267	947.38
523.482	937.38
523.698	923.38
523.913	905.38
524.128	937.38
524.343	933.38
524.559	949.38
524.774	907.38
524.989	908.38
525.204	910.38
525.419	904.38
525.634	895.38
525.849	897.38
526.064	894.38
526.28	891.38
526.495	916.38
526.71	896.38
526.925	911.38
527.14	865.38
527.355	908.38
527.57	886.38
527.785	924.38
527.999	893.38
528.214	883.38
528.429	917.38
528.644	907.38
528.859	896.38
529.074	884.38
529.289	912.38
529.503	897.38
529.718	895.38
529.933	890.38
530.148	873.38
530.363	884.38
530.577	893.38
530.792	876.38
531.007	882.38
531.221	901.38
531.436	882.38
531.651	893.38
531.865	909.38
532.08	911.38
532.295	912.38
532.509	895.38
532.724	908.38
532.938	858.38
533.153	906.38
533.367	890.38
533.582	906.38
533.796	886.38
534.011	886.38
534.225	902.38
534.44	905.38
534.654	866.38
534.868	863.38
535.083	878.38
535.297	860.38
535.511	840.38
535.726	861.38
535.94	855.38
536.154	835.38
536.369	843.38
536.583	816.38
536.797	838.38
537.011	817.38
537.225	821.38
537.44	823.38
537.654	813.38
537.868	818.38
538.082	781.38
538.296	802.38
538.51	798.38
538.724	830.38
538.938	814.38
539.153	800.38
539.367	829.38
539.581	789.38
539.795	803.38
540.009	846.38
540.222	810.38
540.436	834.38
540.65	818.38
540.864	813.38
541.078	807.38
541.292	796.38
541.506	832.38
541.72	829.38
541.934	781.38
542.147	798.38
542.361	806.38
542.575	808.38
542.789	793.38
543.002	773.38
543.216	771.38
543.43	773.38
543.644	778.38
543.857	775.38
544.071	791.38
544.285	789.38
544.498	797.38
544.712	781.38
544.925	794.38
545.139	807.38
545.352	824.38
545.566	817.38
545.779	804.38
545.993	823.38
546.206	830.38
546.42	798.38
546.633	821.38
546.847	834.38
547.06	823.38
547.274	828.38
547.487	796.38
547.7	820.38
547.914	819.38
548.127	826.38
548.34	833.38
548.554	809.38
548.767	829.38
548.98	823.38
549.193	838.38
549.407	813.38
549.62	843.38
549.833	860.38
550.046	848.38
550.259	831.38
550.473	810.38
550.686	793.38
550.899	805.38
551.112	818.38
551.325	801.38
551.538	786.38
551.751	789.38
551.964	827.38
552.177	813.38
552.39	820.38
552.603	851.38
552.816	862.38
553.029	866.38
553.242	899.38
553.455	891.38
553.667	894.38
553.88	872.38
554.093	847.38
554.306	835.38
554.519	825.38
554.732	805.38
554.944	810.38
555.157	783.38
555.37	784.38
555.583	762.38
555.795	749.38
556.008	745.38
556.221	735.38
556.433	711.38
556.646	721.38
556.859	707.38
557.071	729.38
557.284	705.38
557.496	678.38
557.709	680.38
557.921	673.38
558.134	689.38
558.346	675.38
558.559	680.38
558.771	689.38
558.984	688.38
559.196	662.38
559.409	669.38
559.621	687.38
559.833	678.38
560.046	666.38
560.258	666.38
560.47	679.38
560.683	661.38
560.895	662.38
561.107	681.38
561.32	653.38
561.532	648.38
561.744	665.38
561.956	678.38
562.168	678.38
562.381	682.38
562.593	675.38
562.805	658.38
563.017	663.38
563.229	682.38
563.441	659.38
563.653	673.38
563.865	669.38
564.077	697.38
564.289	693.38
564.501	709.38
564.713	725.38
564.925	728.38
565.137	734.38
565.349	737.38
565.561	784.38
565.773	823.38
565.985	850.38
566.197	904.38
566.408	967.38
566.62	1038.38
566.832	1099.38
567.044	1133.38
567.255	1133.38
567.467	1149.38
567.679	1209.38
567.891	1305.38
568.102	1329.38
568.314	1247.38
568.526	1121.38
568.737	1024.38
568.949	945.38
569.161	881.38
569.372	806.38
569.584	763.38
569.795	737.38
570.007	743.38
570.218	713.38
570.43	711.38
570.641	673.38
570.853	702.38
571.064	684.38
571.276	689.38
571.487	656.38
571.698	641.38
571.91	620.38
572.121	614.38
572.333	611.38
572.544	599.38
572.755	607.38
572.966	591.38
573.178	563.38
573.389	571.38
573.6	558.38
573.811	563.38
574.023	566.38
574.234	566.38
574.445	591.38
574.656	550.38
574.867	553.38
575.078	531.38
575.289	554.38
575.501	552.38
575.712	529.38
575.923	521.38
576.134	517.38
576.345	519.38
576.556	526.38
576.767	504.38
576.978	538.38
577.188	504.38
577.399	513.38
577.61	492.38
577.821	489.38
578.032	513.38
578.243	493.38
578.454	480.38
578.665	488.38
578.875	480.38
579.086	477.38
579.297	504.38
579.508	517.38
579.718	469.38
579.929	482.38
580.14	474.38
580.35	474.38
580.561	478.38
580.772	474.38
580.982	466.38
581.193	454.38
581.403	469.38
581.614	476.38
581.825	471.38
582.035	462.38
582.246	457.38
582.456	459.38
582.667	449.38
582.877	451.38
583.087	465.38
583.298	445.38
583.508	455.38
583.719	473.38
583.929	464.38
584.139	472.38
584.35	436.38
584.56	463.38
584.77	449.38
584.981	452.38
585.191	462.38
585.401	443.38
585.611	451.38
585.821	445.38
586.032	472.38
586.242	443.38
586.452	449.38
586.662	440.38
586.872	433.38
587.082	418.38
587.292	425.38
587.502	429.38
587.713	450.38
587.923	448.38
588.133	432.38
588.343	441.38
588.553	451.38
588.762	432.38
588.972	428.38
589.182	445.38
589.392	440.38
589.602	439.38
589.812	459.38
590.022	470.38
590.232	453.38
590.441	445.38
590.651	438.38
590.861	429.38
591.071	459.38
591.281	442.38
591.49	452.38
591.7	464.38
591.91	483.38
592.119	500.38
592.329	503.38
592.539	488.38
592.748	529.38
592.958	524.38
593.167	548.38
593.377	553.38
593.587	572.38
593.796	553.38
594.006	589.38
594.215	569.38
594.424	556.38
594.634	563.38
594.843	547.38
595.053	525.38
595.262	503.38
595.472	474.38
595.681	462.38
595.89	474.38
596.1	453.38
596.309	449.38
596.518	426.38
596.727	433.38
596.937	407.38
597.146	421.38
597.355	408.38
597.564	418.38
597.774	429.38
597.983	406.38
598.192	381.38
598.401	404.38
598.61	387.38
598.819	389.38
599.028	388.38
599.237	376.38
599.446	361.38
599.655	377.38
599.864	399.38
600.073	366.38
600.282	374.38
600.491	373.38
600.7	366.38
600.909	367.38
601.118	364.38
601.327	377.38
601.536	348.38
601.745	360.38
601.953	354.38
602.162	343.38
602.371	354.38
602.58	362.38
602.789	370.38
602.997	359.38
603.206	358.38
603.415	355.38
603.623	339.38
603.832	352.38
604.041	383.38
604.249	345.38
604.458	348.38
604.666	341.38
604.875	350.38
605.084	362.38
605.292	341.38
605.501	335.38
605.709	335.38
605.918	346.38
606.126	342.38
606.334	327.38
606.543	322.38
606.751	343.38
606.96	338.38
607.168	335.38
607.376	346.38
607.585	332.38
607.793	318.38
608.001	330.38
608.21	330.38
608.418	348.38
608.626	341.38
608.834	331.38
609.043	329.38
609.251	321.38
609.459	295.38
609.667	330.38
609.875	341.38
610.083	326.38
610.291	339.38
610.499	318.38
610.707	320.38
610.916	330.38
611.124	336.38
611.332	327.38
611.54	313.38
611.748	317.38
611.955	303.38
612.163	322.38
612.371	330.38
612.579	341.38
612.787	317.38
612.995	314.38
613.203	318.38
613.411	320.38
613.618	300.38
613.826	326.38
614.034	319.38
614.242	325.38
614.449	302.38
614.657	310.38
614.865	325.38
615.072	322.38
615.28	313.38
615.488	329.38
615.695	309.38
615.903	301.38
616.111	312.38
616.318	330.38
616.526	307.38
616.733	312.38
616.941	321.38
617.148	325.38
617.356	328.38
617.563	311.38
617.771	313.38
617.978	319.38
618.185	305.38
618.393	314.38
618.6	321.38
618.807	321.38
619.015	312.38
619.222	309.38
619.429	295.38
619.637	316.38
619.844	311.38
620.051	308.38
620.258	309.38
620.466	302.38
620.673	284.38
620.88	295.38
621.087	281.38
621.294	296.38
621.501	299.38
621.708	302.38
621.915	279.38
622.122	304.38
622.329	293.38
622.536	277.38
622.743	291.38
622.95	277.38
623.157	270.38
623.364	279.38
623.571	291.38
623.778	281.38
623.985	274.38
624.192	291.38
624.399	296.38
624.606	286.38
624.812	292.38
625.019	278.38
625.226	295.38
625.433	282.38
625.639	263.38
625.846	261.38
626.053	267.38
626.259	273.38
626.466	281.38
626.673	276.38
626.879	262.38
627.086	254.38
627.293	283.38
627.499	264.38
627.706	254.38
627.912	276.38
628.119	246.38
628.325	257.38
628.532	250.38
628.738	277.38
628.945	248.38
629.151	259.38
629.357	261.38
629.564	251.38
629.77	243.38
629.976	262.38
630.183	241.38
630.389	241.38
630.595	244.38
630.802	227.38
631.008	252.38
631.214	253.38
631.42	249.38
631.627	250.38
631.833	250.38
632.039	234.38
632.245	261.38
632.451	237.38
632.657	248.38
632.863	239.38
633.069	232.38
633.275	232.38
633.481	226.38
633.688	225.38
633.893	236.38
634.099	235.38
634.305	221.38
634.511	231.38
634.717	241.38
634.923	238.38
635.129	238.38
635.335	226.38
635.541	247.38
635.747	243.38
635.952	230.38
636.158	230.38
636.364	214.38
636.57	213.38
636.775	233.38
636.981	202.38
637.187	223.38
637.392	242.38
637.598	220.38
637.804	238.38
638.009	237.38
638.215	233.38
638.421	215.38
638.626	228.38
638.832	199.38
639.037	192.38
639.243	209.38
639.448	223.38
639.654	242.38
639.859	222.38
640.065	211.38
640.27	215.38
640.475	217.38
640.681	198.38
640.886	214.38
641.091	222.38
641.297	226.38
641.502	224.38
641.707	206.38
641.913	219.38
642.118	215.38
642.323	220.38
642.528	212.38
642.733	215.38
642.939	201.38
643.144	224.38
643.349	213.38
643.554	222.38
643.759	195.38
643.964	223.38
644.169	211.38
644.374	196.38
644.579	207.38
644.784	201.38
644.989	214.38
645.194	196.38
645.399	197.38
645.604	211.38
645.809	202.38
646.014	198.38
646.219	210.38
646.423	205.38
646.628	194.38
646.833	193.38
647.038	213.38
647.243	196.38
647.447	194.38
647.652	206.38
647.857	204.38
648.062	224.38
648.266	210.38
648.471	225.38
648.676	208.38
648.88	219.38
649.085	224.38
649.289	211.38
649.494	211.38
649.698	215.38
649.903	189.38
650.107	202.38
650.312	186.38
650.516	187.38
650.721	198.38
650.925	184.38
651.13	175.38
651.334	179.38
651.539	186.38
651.743	170.38
651.947	174.38
652.152	169.38
652.356	168.38
652.56	165.38
652.764	165.38
652.969	172.38
653.173	178.38
653.377	159.38
653.581	174.38
653.785	149.38
653.99	161.38
654.194	147.38
654.398	168.38
654.602	151.38
654.806	146.38
655.01	153.38
655.214	138.38
655.418	151.38
655.622	157.38
655.826	146.38
656.03	136.38
656.234	155.38
656.438	154.38
656.642	151.38
656.846	145.38
657.049	123.38
657.253	129.38
657.457	132.38
657.661	134.38
657.865	124.38
658.068	121.38
658.272	120.38
658.476	123.38
658.68	111.38
658.883	120.38
659.087	121.38
659.291	115.38
659.494	110.38
659.698	113.38
659.901	105.38
660.105	101.38
660.309	106.38
660.512	104.38
660.716	88.38
660.919	93.38
661.123	95.38
661.326	94.38
661.53	92.38
661.733	69.38
661.936	110.38
662.14	100.38
662.343	87.38
662.546	80.38
662.75	96.38
662.953	83.38
663.156	98.38
663.36	92.38
663.563	95.38
663.766	93.38
663.969	83.38
664.173	73.38
664.376	88.38
664.579	81.38
664.782	87.38
664.985	96.38
665.188	87.38
665.391	78.38
665.594	75.38
665.797	71.38
666	92.38
666.203	85.38
666.406	88.38
666.609	91.38
666.812	110.38
667.015	93.38
667.218	86.38
667.421	80.38
667.624	86.38
667.827	71.38
668.03	90.38
668.232	71.38
668.435	80.38
668.638	87.38
668.841	93.38
669.043	92.38
669.246	89.38
669.449	88.38
669.651	85.38
669.854	81.38
670.057	80.38
670.259	86.38
670.462	89.38
670.665	82.38
670.867	92.38
671.07	68.38
671.272	83.38
671.475	68.38
671.677	73.38
671.88	82.38
672.082	84.38
672.284	74.38
672.487	89.38
672.689	84.38
672.892	86.38
