Data from NiCl2@0.0625M.TitratingCurve.Agarose3%dH2O.NegLispCup.LampEnergy10.LIBS07252019_HRD10591_18-33-44-576.txt Node
Date: Thu Jul 25 18:33:44 EDT 2019
User: cochatt
Spectrometer: HR+D1059
Trigger mode: 1
Integration Time (sec): 1.000000E-1
Scans to average: 1
Electric dark correction enabled: true
Nonlinearity correction enabled: false
Boxcar width: 0
XAxis mode: Wavelengths
Number of Pixels in Spectrum: 2048
>>>>>Begin Spectral Data<<<<<
223.165	-9.12
223.4	-9.12
223.635	-9.12
223.869	-17.12
224.104	-12.12
224.338	-12.12
224.573	-20.12
224.808	-7.12
225.042	-16.12
225.277	-9.12
225.511	-11.12
225.746	-0.12
225.98	3.88
226.215	1.88
226.449	16.88
226.683	20.88
226.918	25.88
227.152	44.88
227.387	29.88
227.621	46.88
227.856	40.88
228.09	61.88
228.324	44.88
228.559	61.88
228.793	84.88
229.027	154.88
229.262	166.88
229.496	161.88
229.73	161.88
229.964	185.88
230.199	183.88
230.433	199.88
230.667	174.88
230.901	200.88
231.136	193.88
231.37	208.88
231.604	198.88
231.838	189.88
232.072	194.88
232.306	203.88
232.541	216.88
232.775	219.88
233.009	199.88
233.243	187.88
233.477	218.88
233.711	233.88
233.945	205.88
234.179	224.88
234.413	217.88
234.647	227.88
234.881	222.88
235.115	222.88
235.349	221.88
235.583	219.88
235.817	226.88
236.051	226.88
236.285	229.88
236.519	229.88
236.753	226.88
236.987	247.88
237.221	219.88
237.455	225.88
237.689	250.88
237.922	241.88
238.156	259.88
238.39	258.88
238.624	236.88
238.858	253.88
239.091	265.88
239.325	264.88
239.559	274.88
239.793	266.88
240.027	264.88
240.26	269.88
240.494	260.88
240.728	305.88
240.961	293.88
241.195	294.88
241.429	290.88
241.662	293.88
241.896	297.88
242.13	309.88
242.363	298.88
242.597	299.88
242.83	290.88
243.064	322.88
243.298	312.88
243.531	323.88
243.765	323.88
243.998	346.88
244.232	329.88
244.465	342.88
244.699	326.88
244.932	352.88
245.166	349.88
245.399	356.88
245.633	343.88
245.866	356.88
246.099	340.88
246.333	353.88
246.566	345.88
246.8	367.88
247.033	362.88
247.266	350.88
247.5	365.88
247.733	351.88
247.966	376.88
248.2	387.88
248.433	382.88
248.666	392.88
248.899	400.88
249.133	392.88
249.366	397.88
249.599	396.88
249.832	398.88
250.066	389.88
250.299	414.88
250.532	408.88
250.765	413.88
250.998	416.88
251.231	429.88
251.465	410.88
251.698	428.88
251.931	420.88
252.164	421.88
252.397	426.88
252.63	444.88
252.863	446.88
253.096	456.88
253.329	458.88
253.562	456.88
253.795	446.88
254.028	457.88
254.261	460.88
254.494	475.88
254.727	462.88
254.96	474.88
255.193	468.88
255.426	486.88
255.659	482.88
255.892	475.88
256.124	491.88
256.357	481.88
256.59	471.88
256.823	499.88
257.056	474.88
257.289	513.88
257.521	514.88
257.754	485.88
257.987	511.88
258.22	505.88
258.452	487.88
258.685	497.88
258.918	518.88
259.151	515.88
259.383	502.88
259.616	524.88
259.849	542.88
260.081	536.88
260.314	520.88
260.547	525.88
260.779	543.88
261.012	541.88
261.244	546.88
261.477	548.88
261.71	547.88
261.942	547.88
262.175	550.88
262.407	555.88
262.64	577.88
262.872	569.88
263.105	581.88
263.337	575.88
263.57	572.88
263.802	589.88
264.035	566.88
264.267	564.88
264.499	595.88
264.732	597.88
264.964	591.88
265.197	577.88
265.429	602.88
265.661	577.88
265.894	596.88
266.126	627.88
266.358	597.88
266.591	602.88
266.823	609.88
267.055	607.88
267.287	609.88
267.52	603.88
267.752	606.88
267.984	607.88
268.216	643.88
268.448	639.88
268.681	650.88
268.913	630.88
269.145	629.88
269.377	622.88
269.609	647.88
269.841	643.88
270.073	645.88
270.306	634.88
270.538	676.88
270.77	647.88
271.002	644.88
271.234	638.88
271.466	646.88
271.698	651.88
271.93	670.88
272.162	668.88
272.394	673.88
272.626	675.88
272.858	680.88
273.09	677.88
273.322	714.88
273.553	693.88
273.785	694.88
274.017	700.88
274.249	699.88
274.481	708.88
274.713	693.88
274.945	700.88
275.176	691.88
275.408	739.88
275.64	719.88
275.872	716.88
276.104	721.88
276.335	748.88
276.567	732.88
276.799	728.88
277.031	741.88
277.262	730.88
277.494	749.88
277.726	756.88
277.957	759.88
278.189	737.88
278.421	770.88
278.652	767.88
278.884	787.88
279.115	767.88
279.347	775.88
279.579	787.88
279.81	782.88
280.042	769.88
280.273	788.88
280.505	795.88
280.736	779.88
280.968	790.88
281.199	818.88
281.431	805.88
281.662	805.88
281.894	826.88
282.125	825.88
282.356	821.88
282.588	813.88
282.819	797.88
283.051	813.88
283.282	844.88
283.513	852.88
283.745	844.88
283.976	814.88
284.207	852.88
284.439	828.88
284.67	823.88
284.901	853.88
285.132	847.88
285.364	846.88
285.595	852.88
285.826	840.88
286.057	862.88
286.288	858.88
286.52	873.88
286.751	869.88
286.982	858.88
287.213	858.88
287.444	865.88
287.675	897.88
287.906	875.88
288.138	873.88
288.369	895.88
288.6	879.88
288.831	918.88
289.062	897.88
289.293	889.88
289.524	887.88
289.755	909.88
289.986	877.88
290.217	909.88
290.448	930.88
290.679	910.88
290.91	895.88
291.141	935.88
291.371	893.88
291.602	916.88
291.833	885.88
292.064	910.88
292.295	924.88
292.526	908.88
292.757	911.88
292.987	913.88
293.218	895.88
293.449	923.88
293.68	932.88
293.91	913.88
294.141	937.88
294.372	914.88
294.603	915.88
294.833	938.88
295.064	929.88
295.295	932.88
295.525	942.88
295.756	953.88
295.987	926.88
296.217	943.88
296.448	921.88
296.679	952.88
296.909	960.88
297.14	957.88
297.37	977.88
297.601	993.88
297.831	976.88
298.062	988.88
298.292	967.88
298.523	997.88
298.753	990.88
298.984	982.88
299.214	1011.88
299.445	989.88
299.675	1010.88
299.905	1003.88
300.136	988.88
300.366	1004.88
300.597	1012.88
300.827	1025.88
301.057	1037.88
301.288	1061.88
301.518	1059.88
301.748	1038.88
301.979	1044.88
302.209	1055.88
302.439	1015.88
302.669	1031.88
302.9	1049.88
303.13	1003.88
303.36	1037.88
303.59	1015.88
303.82	1050.88
304.051	1068.88
304.281	1047.88
304.511	1053.88
304.741	1013.88
304.971	1047.88
305.201	1035.88
305.431	1075.88
305.661	1017.88
305.891	1033.88
306.121	1045.88
306.352	1030.88
306.582	1037.88
306.812	1018.88
307.042	1046.88
307.272	1035.88
307.502	1043.88
307.731	1009.88
307.961	1022.88
308.191	1026.88
308.421	1028.88
308.651	1023.88
308.881	1035.88
309.111	1001.88
309.341	1018.88
309.571	1069.88
309.8	1062.88
310.03	1027.88
310.26	1046.88
310.49	1066.88
310.72	1029.88
310.949	1052.88
311.179	1064.88
311.409	1066.88
311.639	1063.88
311.868	1082.88
312.098	1071.88
312.328	1081.88
312.557	1101.88
312.787	1107.88
313.017	1087.88
313.246	1083.88
313.476	1115.88
313.706	1111.88
313.935	1133.88
314.165	1115.88
314.394	1120.88
314.624	1143.88
314.853	1109.88
315.083	1099.88
315.312	1111.88
315.542	1116.88
315.771	1122.88
316.001	1093.88
316.23	1097.88
316.46	1132.88
316.689	1095.88
316.919	1087.88
317.148	1108.88
317.377	1068.88
317.607	1123.88
317.836	1128.88
318.065	1094.88
318.295	1097.88
318.524	1100.88
318.753	1104.88
318.983	1095.88
319.212	1079.88
319.441	1099.88
319.67	1102.88
319.9	1109.88
320.129	1107.88
320.358	1076.88
320.587	1097.88
320.816	1133.88
321.046	1132.88
321.275	1126.88
321.504	1123.88
321.733	1130.88
321.962	1134.88
322.191	1122.88
322.42	1113.88
322.649	1109.88
322.878	1119.88
323.108	1120.88
323.337	1159.88
323.566	1161.88
323.795	1142.88
324.024	1155.88
324.253	1155.88
324.482	1158.88
324.71	1168.88
324.939	1132.88
325.168	1189.88
325.397	1158.88
325.626	1181.88
325.855	1178.88
326.084	1201.88
326.313	1215.88
326.542	1193.88
326.77	1210.88
326.999	1198.88
327.228	1182.88
327.457	1211.88
327.686	1173.88
327.914	1191.88
328.143	1212.88
328.372	1187.88
328.6	1241.88
328.829	1202.88
329.058	1206.88
329.287	1230.88
329.515	1227.88
329.744	1202.88
329.972	1241.88
330.201	1204.88
330.43	1240.88
330.658	1245.88
330.887	1258.88
331.115	1241.88
331.344	1267.88
331.572	1289.88
331.801	1300.88
332.03	1330.88
332.258	1325.88
332.486	1336.88
332.715	1368.88
332.943	1422.88
333.172	1469.88
333.4	1498.88
333.629	1515.88
333.857	1527.88
334.085	1531.88
334.314	1573.88
334.542	1542.88
334.771	1508.88
334.999	1505.88
335.227	1505.88
335.455	1522.88
335.684	1501.88
335.912	1481.88
336.14	1444.88
336.369	1470.88
336.597	1449.88
336.825	1457.88
337.053	1447.88
337.281	1409.88
337.51	1399.88
337.738	1374.88
337.966	1387.88
338.194	1358.88
338.422	1373.88
338.65	1329.88
338.878	1322.88
339.106	1293.88
339.334	1333.88
339.562	1326.88
339.79	1279.88
340.018	1282.88
340.246	1256.88
340.474	1262.88
340.702	1246.88
340.93	1277.88
341.158	1260.88
341.386	1243.88
341.614	1272.88
341.842	1305.88
342.07	1250.88
342.298	1232.88
342.526	1252.88
342.754	1273.88
342.981	1245.88
343.209	1287.88
343.437	1354.88
343.665	1390.88
343.893	1437.88
344.12	1489.88
344.348	1468.88
344.576	1420.88
344.804	1383.88
345.031	1347.88
345.259	1317.88
345.487	1249.88
345.714	1283.88
345.942	1265.88
346.17	1259.88
346.397	1271.88
346.625	1235.88
346.853	1220.88
347.08	1245.88
347.308	1229.88
347.535	1255.88
347.763	1240.88
347.99	1222.88
348.218	1213.88
348.445	1224.88
348.673	1223.88
348.9	1197.88
349.128	1223.88
349.355	1203.88
349.583	1196.88
349.81	1198.88
350.037	1178.88
350.265	1188.88
350.492	1188.88
350.72	1187.88
350.947	1198.88
351.174	1172.88
351.402	1197.88
351.629	1168.88
351.856	1178.88
352.083	1168.88
352.311	1158.88
352.538	1173.88
352.765	1161.88
352.992	1179.88
353.22	1178.88
353.447	1158.88
353.674	1167.88
353.901	1163.88
354.128	1147.88
354.355	1143.88
354.583	1135.88
354.81	1185.88
355.037	1195.88
355.264	1176.88
355.491	1209.88
355.718	1157.88
355.945	1188.88
356.172	1180.88
356.399	1172.88
356.626	1190.88
356.853	1210.88
357.08	1210.88
357.307	1157.88
357.534	1154.88
357.761	1187.88
357.988	1173.88
358.215	1165.88
358.441	1180.88
358.668	1166.88
358.895	1188.88
359.122	1203.88
359.349	1181.88
359.576	1210.88
359.802	1161.88
360.029	1143.88
360.256	1173.88
360.483	1188.88
360.709	1186.88
360.936	1187.88
361.163	1189.88
361.39	1175.88
361.616	1159.88
361.843	1167.88
362.07	1198.88
362.296	1186.88
362.523	1182.88
362.749	1191.88
362.976	1203.88
363.203	1181.88
363.429	1153.88
363.656	1187.88
363.882	1185.88
364.109	1145.88
364.335	1169.88
364.562	1161.88
364.788	1182.88
365.015	1183.88
365.241	1175.88
365.468	1175.88
365.694	1174.88
365.92	1173.88
366.147	1194.88
366.373	1182.88
366.599	1164.88
366.826	1164.88
367.052	1179.88
367.278	1171.88
367.505	1187.88
367.731	1206.88
367.957	1189.88
368.184	1155.88
368.41	1212.88
368.636	1209.88
368.862	1213.88
369.089	1225.88
369.315	1206.88
369.541	1200.88
369.767	1240.88
369.993	1246.88
370.219	1204.88
370.445	1219.88
370.672	1269.88
370.898	1256.88
371.124	1267.88
371.35	1252.88
371.576	1295.88
371.802	1286.88
372.028	1292.88
372.254	1266.88
372.48	1283.88
372.706	1339.88
372.932	1320.88
373.158	1293.88
373.384	1309.88
373.61	1289.88
373.835	1293.88
374.061	1286.88
374.287	1290.88
374.513	1333.88
374.739	1364.88
374.965	1390.88
375.191	1397.88
375.416	1386.88
375.642	1361.88
375.868	1341.88
376.094	1333.88
376.319	1306.88
376.545	1278.88
376.771	1301.88
376.997	1316.88
377.222	1270.88
377.448	1287.88
377.674	1302.88
377.899	1250.88
378.125	1299.88
378.35	1270.88
378.576	1272.88
378.802	1269.88
379.027	1263.88
379.253	1248.88
379.478	1270.88
379.704	1271.88
379.929	1254.88
380.155	1295.88
380.38	1267.88
380.606	1257.88
380.831	1276.88
381.057	1304.88
381.282	1285.88
381.507	1259.88
381.733	1315.88
381.958	1300.88
382.184	1282.88
382.409	1296.88
382.634	1339.88
382.86	1362.88
383.085	1346.88
383.31	1345.88
383.535	1384.88
383.761	1363.88
383.986	1397.88
384.211	1397.88
384.436	1437.88
384.662	1443.88
384.887	1473.88
385.112	1487.88
385.337	1496.88
385.562	1515.88
385.787	1526.88
386.013	1478.88
386.238	1516.88
386.463	1529.88
386.688	1528.88
386.913	1496.88
387.138	1515.88
387.363	1512.88
387.588	1528.88
387.813	1532.88
388.038	1496.88
388.263	1519.88
388.488	1543.88
388.713	1503.88
388.938	1534.88
389.163	1490.88
389.387	1499.88
389.612	1482.88
389.837	1550.88
390.062	1514.88
390.287	1515.88
390.512	1516.88
390.736	1508.88
390.961	1547.88
391.186	1581.88
391.411	1622.88
391.636	1634.88
391.86	1667.88
392.085	1720.88
392.31	1664.88
392.534	1659.88
392.759	1607.88
392.984	1607.88
393.208	1590.88
393.433	1629.88
393.658	1635.88
393.882	1608.88
394.107	1617.88
394.331	1593.88
394.556	1586.88
394.78	1595.88
395.005	1633.88
395.229	1636.88
395.454	1697.88
395.678	1681.88
395.903	1687.88
396.127	1697.88
396.352	1650.88
396.576	1602.88
396.801	1575.88
397.025	1637.88
397.249	1695.88
397.474	1700.88
397.698	1719.88
397.922	1746.88
398.147	1740.88
398.371	1756.88
398.595	1800.88
398.82	1865.88
399.044	1990.88
399.268	2135.88
399.492	2360.88
399.717	2567.88
399.941	2573.88
400.165	2396.88
400.389	2247.88
400.613	2091.88
400.837	2007.88
401.062	1983.88
401.286	1936.88
401.51	1905.88
401.734	1869.88
401.958	1875.88
402.182	1879.88
402.406	1886.88
402.63	1955.88
402.854	1939.88
403.078	1932.88
403.302	1956.88
403.526	2000.88
403.75	2018.88
403.974	2074.88
404.198	2022.88
404.422	2054.88
404.645	2058.88
404.869	2040.88
405.093	1993.88
405.317	1970.88
405.541	2046.88
405.765	2062.88
405.988	1990.88
406.212	2014.88
406.436	1996.88
406.66	2104.88
406.883	2085.88
407.107	2241.88
407.331	2263.88
407.555	2349.88
407.778	2319.88
408.002	2322.88
408.226	2262.88
408.449	2227.88
408.673	2119.88
408.896	2122.88
409.12	2097.88
409.344	2090.88
409.567	2089.88
409.791	2083.88
410.014	2075.88
410.238	2054.88
410.461	2075.88
410.685	2049.88
410.908	1998.88
411.132	1961.88
411.355	1955.88
411.578	1969.88
411.802	1954.88
412.025	1941.88
412.249	1953.88
412.472	1970.88
412.695	1905.88
412.919	1876.88
413.142	1912.88
413.365	1885.88
413.589	1910.88
413.812	1859.88
414.035	1830.88
414.258	1852.88
414.482	1890.88
414.705	1859.88
414.928	1878.88
415.151	1879.88
415.374	1895.88
415.597	1852.88
415.821	1833.88
416.044	1817.88
416.267	1825.88
416.49	1822.88
416.713	1798.88
416.936	1786.88
417.159	1794.88
417.382	1796.88
417.605	1763.88
417.828	1822.88
418.051	1815.88
418.274	1770.88
418.497	1774.88
418.72	1837.88
418.943	1821.88
419.166	1958.88
419.389	2130.88
419.611	2077.88
419.834	1961.88
420.057	1880.88
420.28	1823.88
420.503	1774.88
420.726	1771.88
420.948	1827.88
421.171	1825.88
421.394	1832.88
421.617	1820.88
421.839	1814.88
422.062	1793.88
422.285	1791.88
422.507	1838.88
422.73	1871.88
422.953	1874.88
423.175	1836.88
423.398	1882.88
423.621	1826.88
423.843	1850.88
424.066	1863.88
424.288	1910.88
424.511	1852.88
424.733	1822.88
424.956	1812.88
425.178	1832.88
425.401	1827.88
425.623	1795.88
425.846	1761.88
426.068	1751.88
426.291	1740.88
426.513	1729.88
426.735	1745.88
426.958	1729.88
427.18	1677.88
427.402	1683.88
427.625	1667.88
427.847	1626.88
428.069	1686.88
428.292	1694.88
428.514	1659.88
428.736	1638.88
428.958	1673.88
429.181	1605.88
429.403	1623.88
429.625	1614.88
429.847	1598.88
430.069	1627.88
430.292	1643.88
430.514	1601.88
430.736	1638.88
430.958	1614.88
431.18	1632.88
431.402	1676.88
431.624	1648.88
431.846	1679.88
432.068	1706.88
432.29	1680.88
432.512	1675.88
432.734	1659.88
432.956	1668.88
433.178	1652.88
433.4	1711.88
433.622	1689.88
433.844	1661.88
434.066	1674.88
434.287	1705.88
434.509	1757.88
434.731	1823.88
434.953	1842.88
435.175	1801.88
435.397	1806.88
435.618	1754.88
435.84	1719.88
436.062	1693.88
436.284	1678.88
436.505	1673.88
436.727	1661.88
436.949	1679.88
437.17	1659.88
437.392	1613.88
437.614	1624.88
437.835	1574.88
438.057	1562.88
438.278	1577.88
438.5	1585.88
438.721	1566.88
438.943	1617.88
439.165	1537.88
439.386	1524.88
439.608	1609.88
439.829	1623.88
440.05	1594.88
440.272	1637.88
440.493	1619.88
440.715	1619.88
440.936	1665.88
441.158	1672.88
441.379	1700.88
441.6	1800.88
441.822	1785.88
442.043	1807.88
442.264	1786.88
442.486	1719.88
442.707	1748.88
442.928	1758.88
443.149	1759.88
443.371	1740.88
443.592	1738.88
443.813	1742.88
444.034	1790.88
444.255	1823.88
444.476	1877.88
444.698	1985.88
444.919	2026.88
445.14	2087.88
445.361	1926.88
445.582	1830.88
445.803	1777.88
446.024	1712.88
446.245	1687.88
446.466	1658.88
446.687	1643.88
446.908	1606.88
447.129	1577.88
447.35	1596.88
447.571	1567.88
447.792	1558.88
448.013	1529.88
448.234	1509.88
448.455	1528.88
448.675	1468.88
448.896	1457.88
449.117	1450.88
449.338	1469.88
449.559	1469.88
449.779	1448.88
450	1433.88
450.221	1476.88
450.442	1466.88
450.662	1433.88
450.883	1438.88
451.104	1487.88
451.324	1470.88
451.545	1483.88
451.766	1464.88
451.986	1433.88
452.207	1438.88
452.428	1451.88
452.648	1442.88
452.869	1398.88
453.089	1416.88
453.31	1455.88
453.53	1403.88
453.751	1418.88
453.971	1402.88
454.192	1428.88
454.412	1345.88
454.633	1395.88
454.853	1378.88
455.073	1347.88
455.294	1394.88
455.514	1375.88
455.734	1386.88
455.955	1376.88
456.175	1358.88
456.395	1362.88
456.616	1359.88
456.836	1364.88
457.056	1414.88
457.276	1361.88
457.497	1391.88
457.717	1363.88
457.937	1380.88
458.157	1425.88
458.377	1425.88
458.598	1463.88
458.818	1478.88
459.038	1508.88
459.258	1571.88
459.478	1599.88
459.698	1639.88
459.918	1678.88
460.138	1731.88
460.358	1806.88
460.578	1807.88
460.798	1836.88
461.018	1838.88
461.238	1838.88
461.458	1811.88
461.678	1842.88
461.898	1876.88
462.118	1870.88
462.338	1990.88
462.558	2002.88
462.777	2063.88
462.997	2188.88
463.217	2301.88
463.437	2344.88
463.657	2201.88
463.876	2144.88
464.096	2124.88
464.316	2118.88
464.536	2060.88
464.755	2063.88
464.975	2010.88
465.195	1912.88
465.414	1818.88
465.634	1738.88
465.854	1670.88
466.073	1640.88
466.293	1623.88
466.512	1583.88
466.732	1524.88
466.951	1545.88
467.171	1562.88
467.391	1570.88
467.61	1567.88
467.829	1519.88
468.049	1514.88
468.268	1509.88
468.488	1470.88
468.707	1482.88
468.927	1456.88
469.146	1486.88
469.365	1493.88
469.585	1503.88
469.804	1566.88
470.023	1569.88
470.243	1541.88
470.462	1590.88
470.681	1569.88
470.901	1581.88
471.12	1599.88
471.339	1532.88
471.558	1528.88
471.777	1527.88
471.997	1528.88
472.216	1511.88
472.435	1489.88
472.654	1504.88
472.873	1438.88
473.092	1492.88
473.311	1458.88
473.53	1455.88
473.749	1473.88
473.968	1483.88
474.187	1462.88
474.406	1456.88
474.625	1523.88
474.844	1449.88
475.063	1492.88
475.282	1493.88
475.501	1506.88
475.72	1504.88
475.939	1511.88
476.158	1541.88
476.377	1566.88
476.596	1598.88
476.814	1616.88
477.033	1571.88
477.252	1594.88
477.471	1630.88
477.69	1695.88
477.908	1690.88
478.127	1713.88
478.346	1733.88
478.564	1798.88
478.783	1820.88
479.002	1858.88
479.22	1901.88
479.439	1867.88
479.658	1854.88
479.876	1863.88
480.095	1884.88
480.313	1932.88
480.532	1946.88
480.751	1973.88
480.969	1913.88
481.188	1876.88
481.406	1875.88
481.624	1843.88
481.843	1816.88
482.061	1811.88
482.28	1784.88
482.498	1803.88
482.717	1812.88
482.935	1815.88
483.153	1826.88
483.372	1823.88
483.59	1869.88
483.808	1819.88
484.027	1864.88
484.245	1891.88
484.463	1943.88
484.681	1919.88
484.9	1975.88
485.118	1963.88
485.336	1957.88
485.554	1990.88
485.772	2006.88
485.99	1985.88
486.209	1950.88
486.427	1979.88
486.645	1948.88
486.863	1985.88
487.081	1997.88
487.299	1979.88
487.517	1943.88
487.735	1976.88
487.953	1942.88
488.171	1955.88
488.389	1924.88
488.607	1942.88
488.825	1884.88
489.043	1894.88
489.261	1866.88
489.479	1859.88
489.696	1890.88
489.914	1874.88
490.132	1882.88
490.35	1879.88
490.568	1863.88
490.786	1863.88
491.003	1854.88
491.221	1882.88
491.439	1883.88
491.657	1881.88
491.874	1881.88
492.092	1848.88
492.31	1860.88
492.527	1847.88
492.745	1883.88
492.963	1869.88
493.18	1854.88
493.398	1873.88
493.615	1885.88
493.833	1883.88
494.05	1875.88
494.268	1895.88
494.485	1863.88
494.703	1898.88
494.92	1909.88
495.138	1909.88
495.355	1898.88
495.573	1909.88
495.79	1869.88
496.008	1929.88
496.225	1945.88
496.442	1929.88
496.66	2011.88
496.877	1977.88
497.094	2014.88
497.312	2049.88
497.529	2084.88
497.746	2149.88
497.963	2249.88
498.181	2332.88
498.398	2390.88
498.615	2478.88
498.832	2642.88
499.049	2802.88
499.267	2937.88
499.484	3180.88
499.701	3513.88
499.918	3747.88
500.135	4127.88
500.352	4550.88
500.569	4728.88
500.786	4648.88
501.003	4475.88
501.22	4098.88
501.437	3731.88
501.654	3404.88
501.871	3127.88
502.088	2902.88
502.305	2761.88
502.522	2647.88
502.739	2523.88
502.956	2379.88
503.172	2279.88
503.389	2218.88
503.606	2159.88
503.823	2153.88
504.04	2134.88
504.256	2121.88
504.473	2154.88
504.69	2108.88
504.907	2071.88
505.123	1979.88
505.34	1913.88
505.557	1844.88
505.773	1797.88
505.99	1795.88
506.207	1731.88
506.423	1721.88
506.64	1698.88
506.856	1669.88
507.073	1647.88
507.289	1657.88
507.506	1653.88
507.722	1646.88
507.939	1593.88
508.155	1561.88
508.372	1524.88
508.588	1522.88
508.805	1569.88
509.021	1525.88
509.238	1510.88
509.454	1512.88
509.67	1550.88
509.887	1527.88
510.103	1500.88
510.319	1462.88
510.536	1474.88
510.752	1468.88
510.968	1461.88
511.184	1459.88
511.401	1492.88
511.617	1468.88
511.833	1490.88
512.049	1467.88
512.265	1461.88
512.481	1454.88
512.698	1471.88
512.914	1457.88
513.13	1455.88
513.346	1437.88
513.562	1494.88
513.778	1445.88
513.994	1472.88
514.21	1485.88
514.426	1496.88
514.642	1505.88
514.858	1524.88
515.074	1543.88
515.29	1519.88
515.506	1523.88
515.721	1529.88
515.937	1578.88
516.153	1614.88
516.369	1640.88
516.585	1636.88
516.801	1681.88
517.016	1736.88
517.232	1836.88
517.448	1885.88
517.664	1950.88
517.879	1924.88
518.095	1922.88
518.311	1873.88
518.527	1828.88
518.742	1779.88
518.958	1751.88
519.173	1704.88
519.389	1661.88
519.605	1605.88
519.82	1546.88
520.036	1555.88
520.251	1526.88
520.467	1485.88
520.682	1483.88
520.898	1462.88
521.113	1469.88
521.329	1436.88
521.544	1447.88
521.76	1404.88
521.975	1413.88
522.19	1398.88
522.406	1419.88
522.621	1420.88
522.836	1386.88
523.052	1355.88
523.267	1341.88
523.482	1363.88
523.698	1354.88
523.913	1342.88
524.128	1333.88
524.343	1331.88
524.559	1333.88
524.774	1346.88
524.989	1335.88
525.204	1329.88
525.419	1311.88
525.634	1327.88
525.849	1330.88
526.064	1296.88
526.28	1358.88
526.495	1299.88
526.71	1287.88
526.925	1306.88
527.14	1265.88
527.355	1329.88
527.57	1301.88
527.785	1314.88
527.999	1292.88
528.214	1318.88
528.429	1321.88
528.644	1322.88
528.859	1308.88
529.074	1303.88
529.289	1293.88
529.503	1292.88
529.718	1290.88
529.933	1301.88
530.148	1324.88
530.363	1274.88
530.577	1271.88
530.792	1284.88
531.007	1245.88
531.221	1285.88
531.436	1289.88
531.651	1295.88
531.865	1285.88
532.08	1289.88
532.295	1286.88
532.509	1269.88
532.724	1289.88
532.938	1300.88
533.153	1279.88
533.367	1255.88
533.582	1274.88
533.796	1292.88
534.011	1271.88
534.225	1250.88
534.44	1255.88
534.654	1254.88
534.868	1243.88
535.083	1262.88
535.297	1236.88
535.511	1241.88
535.726	1206.88
535.94	1222.88
536.154	1210.88
536.369	1205.88
536.583	1180.88
536.797	1195.88
537.011	1177.88
537.225	1183.88
537.44	1222.88
537.654	1190.88
537.868	1191.88
538.082	1191.88
538.296	1156.88
538.51	1181.88
538.724	1184.88
538.938	1147.88
539.153	1177.88
539.367	1167.88
539.581	1160.88
539.795	1141.88
540.009	1148.88
540.222	1170.88
540.436	1159.88
540.65	1153.88
540.864	1100.88
541.078	1135.88
541.292	1149.88
541.506	1132.88
541.72	1118.88
541.934	1132.88
542.147	1151.88
542.361	1150.88
542.575	1119.88
542.789	1107.88
543.002	1128.88
543.216	1143.88
543.43	1157.88
543.644	1135.88
543.857	1114.88
544.071	1122.88
544.285	1122.88
544.498	1103.88
544.712	1126.88
544.925	1128.88
545.139	1161.88
545.352	1151.88
545.566	1158.88
545.779	1149.88
545.993	1149.88
546.206	1167.88
546.42	1146.88
546.633	1116.88
546.847	1179.88
547.06	1155.88
547.274	1158.88
547.487	1117.88
547.7	1143.88
547.914	1146.88
548.127	1118.88
548.34	1147.88
548.554	1149.88
548.767	1147.88
548.98	1163.88
549.193	1185.88
549.407	1139.88
549.62	1184.88
549.833	1149.88
550.046	1155.88
550.259	1153.88
550.473	1143.88
550.686	1147.88
550.899	1111.88
551.112	1122.88
551.325	1113.88
551.538	1162.88
551.751	1143.88
551.964	1138.88
552.177	1161.88
552.39	1188.88
552.603	1183.88
552.816	1213.88
553.029	1220.88
553.242	1255.88
553.455	1223.88
553.667	1234.88
553.88	1224.88
554.093	1198.88
554.306	1159.88
554.519	1155.88
554.732	1127.88
554.944	1116.88
555.157	1109.88
555.37	1114.88
555.583	1055.88
555.795	1058.88
556.008	1057.88
556.221	1049.88
556.433	1000.88
556.646	963.88
556.859	1003.88
557.071	977.88
557.284	971.88
557.496	989.88
557.709	966.88
557.921	981.88
558.134	982.88
558.346	967.88
558.559	951.88
558.771	973.88
558.984	964.88
559.196	962.88
559.409	969.88
559.621	961.88
559.833	948.88
560.046	930.88
560.258	918.88
560.47	941.88
560.683	921.88
560.895	922.88
561.107	957.88
561.32	952.88
561.532	947.88
561.744	941.88
561.956	926.88
562.168	919.88
562.381	933.88
562.593	958.88
562.805	961.88
563.017	941.88
563.229	971.88
563.441	941.88
563.653	974.88
563.865	979.88
564.077	992.88
564.289	979.88
564.501	1000.88
564.713	993.88
564.925	1059.88
565.137	1073.88
565.349	1075.88
565.561	1088.88
565.773	1122.88
565.985	1158.88
566.197	1195.88
566.408	1299.88
566.62	1357.88
566.832	1411.88
567.044	1469.88
567.255	1476.88
567.467	1476.88
567.679	1517.88
567.891	1628.88
568.102	1621.88
568.314	1558.88
568.526	1462.88
568.737	1358.88
568.949	1257.88
569.161	1181.88
569.372	1121.88
569.584	1076.88
569.795	1014.88
570.007	979.88
570.218	964.88
570.43	971.88
570.641	961.88
570.853	941.88
571.064	956.88
571.276	949.88
571.487	935.88
571.698	886.88
571.91	895.88
572.121	874.88
572.333	864.88
572.544	832.88
572.755	830.88
572.966	837.88
573.178	814.88
573.389	782.88
573.6	792.88
573.811	763.88
574.023	784.88
574.234	770.88
574.445	787.88
574.656	776.88
574.867	757.88
575.078	766.88
575.289	774.88
575.501	729.88
575.712	742.88
575.923	738.88
576.134	735.88
576.345	759.88
576.556	735.88
576.767	709.88
576.978	710.88
577.188	714.88
577.399	720.88
577.61	709.88
577.821	706.88
578.032	711.88
578.243	708.88
578.454	701.88
578.665	682.88
578.875	679.88
579.086	695.88
579.297	670.88
579.508	682.88
579.718	668.88
579.929	672.88
580.14	681.88
580.35	669.88
580.561	671.88
580.772	685.88
580.982	678.88
581.193	650.88
581.403	678.88
581.614	636.88
581.825	651.88
582.035	625.88
582.246	632.88
582.456	656.88
582.667	632.88
582.877	662.88
583.087	624.88
583.298	634.88
583.508	641.88
583.719	632.88
583.929	629.88
584.139	617.88
584.35	616.88
584.56	613.88
584.77	625.88
584.981	612.88
585.191	638.88
585.401	621.88
585.611	625.88
585.821	641.88
586.032	619.88
586.242	625.88
586.452	621.88
586.662	594.88
586.872	596.88
587.082	639.88
587.292	606.88
587.502	601.88
587.713	598.88
587.923	599.88
588.133	602.88
588.343	630.88
588.553	612.88
588.762	629.88
588.972	622.88
589.182	648.88
589.392	635.88
589.602	593.88
589.812	617.88
590.022	621.88
590.232	613.88
590.441	607.88
590.651	649.88
590.861	629.88
591.071	624.88
591.281	617.88
591.49	657.88
591.7	661.88
591.91	639.88
592.119	663.88
592.329	660.88
592.539	691.88
592.748	663.88
592.958	695.88
593.167	723.88
593.377	712.88
593.587	753.88
593.796	731.88
594.006	734.88
594.215	729.88
594.424	747.88
594.634	715.88
594.843	690.88
595.053	702.88
595.262	677.88
595.472	638.88
595.681	624.88
595.89	611.88
596.1	618.88
596.309	610.88
596.518	607.88
596.727	577.88
596.937	571.88
597.146	557.88
597.355	564.88
597.564	559.88
597.774	547.88
597.983	525.88
598.192	523.88
598.401	514.88
598.61	550.88
598.819	513.88
599.028	517.88
599.237	510.88
599.446	529.88
599.655	522.88
599.864	488.88
600.073	497.88
600.282	533.88
600.491	522.88
600.7	522.88
600.909	531.88
601.118	528.88
601.327	496.88
601.536	487.88
601.745	509.88
601.953	492.88
602.162	497.88
602.371	483.88
602.58	501.88
602.789	499.88
602.997	492.88
603.206	487.88
603.415	494.88
603.623	490.88
603.832	484.88
604.041	484.88
604.249	470.88
604.458	473.88
604.666	465.88
604.875	481.88
605.084	482.88
605.292	474.88
605.501	481.88
605.709	462.88
605.918	447.88
606.126	481.88
606.334	462.88
606.543	468.88
606.751	465.88
606.96	450.88
607.168	459.88
607.376	440.88
607.585	477.88
607.793	449.88
608.001	468.88
608.21	443.88
608.418	441.88
608.626	449.88
608.834	451.88
609.043	446.88
609.251	436.88
609.459	448.88
609.667	443.88
609.875	441.88
610.083	434.88
610.291	441.88
610.499	442.88
610.707	414.88
610.916	435.88
611.124	430.88
611.332	424.88
611.54	419.88
611.748	446.88
611.955	441.88
612.163	450.88
612.371	410.88
612.579	423.88
612.787	435.88
612.995	417.88
613.203	431.88
613.411	437.88
613.618	413.88
613.826	436.88
614.034	428.88
614.242	435.88
614.449	422.88
614.657	420.88
614.865	433.88
615.072	450.88
615.28	406.88
615.488	421.88
615.695	426.88
615.903	430.88
616.111	438.88
616.318	437.88
616.526	445.88
616.733	435.88
616.941	395.88
617.148	430.88
617.356	435.88
617.563	425.88
617.771	420.88
617.978	414.88
618.185	435.88
618.393	413.88
618.6	426.88
618.807	423.88
619.015	427.88
619.222	393.88
619.429	411.88
619.637	408.88
619.844	420.88
620.051	399.88
620.258	396.88
620.466	399.88
620.673	377.88
620.88	385.88
621.087	396.88
621.294	382.88
621.501	395.88
621.708	401.88
621.915	394.88
622.122	394.88
622.329	404.88
622.536	399.88
622.743	395.88
622.95	382.88
623.157	375.88
623.364	399.88
623.571	380.88
623.778	390.88
623.985	405.88
624.192	392.88
624.399	380.88
624.606	366.88
624.812	375.88
625.019	370.88
625.226	367.88
625.433	360.88
625.639	371.88
625.846	365.88
626.053	376.88
626.259	364.88
626.466	354.88
626.673	383.88
626.879	349.88
627.086	371.88
627.293	354.88
627.499	361.88
627.706	358.88
627.912	361.88
628.119	365.88
628.325	341.88
628.532	357.88
628.738	359.88
628.945	353.88
629.151	358.88
629.357	335.88
629.564	349.88
629.77	331.88
629.976	322.88
630.183	307.88
630.389	338.88
630.595	339.88
630.802	326.88
631.008	328.88
631.214	330.88
631.42	330.88
631.627	326.88
631.833	330.88
632.039	330.88
632.245	323.88
632.451	320.88
632.657	327.88
632.863	329.88
633.069	323.88
633.275	323.88
633.481	306.88
633.688	303.88
633.893	309.88
634.099	299.88
634.305	331.88
634.511	326.88
634.717	320.88
634.923	310.88
635.129	313.88
635.335	315.88
635.541	318.88
635.747	319.88
635.952	292.88
636.158	309.88
636.364	302.88
636.57	313.88
636.775	306.88
636.981	316.88
637.187	293.88
637.392	289.88
637.598	313.88
637.804	318.88
638.009	313.88
638.215	283.88
638.421	298.88
638.626	301.88
638.832	300.88
639.037	292.88
639.243	293.88
639.448	291.88
639.654	294.88
639.859	311.88
640.065	294.88
640.27	312.88
640.475	298.88
640.681	303.88
640.886	294.88
641.091	299.88
641.297	290.88
641.502	280.88
641.707	299.88
641.913	293.88
642.118	294.88
642.323	286.88
642.528	307.88
642.733	297.88
642.939	284.88
643.144	283.88
643.349	289.88
643.554	301.88
643.759	276.88
643.964	279.88
644.169	289.88
644.374	286.88
644.579	302.88
644.784	303.88
644.989	293.88
645.194	288.88
645.399	281.88
645.604	291.88
645.809	302.88
646.014	323.88
646.219	296.88
646.423	289.88
646.628	303.88
646.833	294.88
647.038	307.88
647.243	289.88
647.447	316.88
647.652	291.88
647.857	311.88
648.062	317.88
648.266	320.88
648.471	306.88
648.676	322.88
648.88	327.88
649.085	342.88
649.289	306.88
649.494	312.88
649.698	306.88
649.903	278.88
650.107	295.88
650.312	312.88
650.516	302.88
650.721	290.88
650.925	279.88
651.13	284.88
651.334	283.88
651.539	282.88
651.743	270.88
651.947	266.88
652.152	293.88
652.356	284.88
652.56	284.88
652.764	287.88
652.969	281.88
653.173	290.88
653.377	291.88
653.581	281.88
653.785	278.88
653.99	285.88
654.194	270.88
654.398	284.88
654.602	313.88
654.806	310.88
655.01	321.88
655.214	303.88
655.418	313.88
655.622	330.88
655.826	347.88
656.03	378.88
656.234	392.88
656.438	409.88
656.642	426.88
656.846	387.88
657.049	355.88
657.253	320.88
657.457	286.88
657.661	266.88
657.865	232.88
658.068	214.88
658.272	192.88
658.476	209.88
658.68	185.88
658.883	179.88
659.087	157.88
659.291	153.88
659.494	127.88
659.698	138.88
659.901	131.88
660.105	137.88
660.309	128.88
660.512	104.88
660.716	120.88
660.919	109.88
661.123	108.88
661.326	106.88
661.53	110.88
661.733	109.88
661.936	118.88
662.14	97.88
662.343	101.88
662.546	93.88
662.75	90.88
662.953	79.88
663.156	98.88
663.36	86.88
663.563	83.88
663.766	76.88
663.969	90.88
664.173	91.88
664.376	78.88
664.579	89.88
664.782	75.88
664.985	77.88
665.188	83.88
665.391	92.88
665.594	97.88
665.797	82.88
666	98.88
666.203	80.88
666.406	80.88
666.609	92.88
666.812	95.88
667.015	88.88
667.218	88.88
667.421	92.88
667.624	102.88
667.827	90.88
668.03	72.88
668.232	83.88
668.435	75.88
668.638	72.88
668.841	90.88
669.043	69.88
669.246	85.88
669.449	89.88
669.651	82.88
669.854	82.88
670.057	70.88
670.259	87.88
670.462	90.88
670.665	83.88
670.867	75.88
671.07	82.88
671.272	82.88
671.475	90.88
671.677	77.88
671.88	80.88
672.082	90.88
672.284	87.88
672.487	85.88
672.689	87.88
672.892	76.88
