Data from NiCl2@0.25M.TitratingCurve.Agarose3%dH2O.NegLispCup.LampEnergy10.LIBS07252019_HRD10591_18-25-26-573.txt Node
Date: Thu Jul 25 18:25:26 EDT 2019
User: cochatt
Spectrometer: HR+D1059
Trigger mode: 1
Integration Time (sec): 1.000000E-1
Scans to average: 1
Electric dark correction enabled: true
Nonlinearity correction enabled: false
Boxcar width: 0
XAxis mode: Wavelengths
Number of Pixels in Spectrum: 2048
>>>>>Begin Spectral Data<<<<<
223.165	-14.56
223.4	-14.56
223.635	-14.56
223.869	-17.56
224.104	-9.56
224.338	-4.56
224.573	-5.56
224.808	-7.56
225.042	-8.56
225.277	-0.56
225.511	10.44
225.746	-17.56
225.98	-1.56
226.215	6.44
226.449	12.44
226.683	14.44
226.918	13.44
227.152	30.44
227.387	41.44
227.621	36.44
227.856	37.44
228.09	41.44
228.324	34.44
228.559	78.44
228.793	68.44
229.027	134.44
229.262	114.44
229.496	142.44
229.73	128.44
229.964	128.44
230.199	145.44
230.433	136.44
230.667	140.44
230.901	155.44
231.136	163.44
231.37	161.44
231.604	167.44
231.838	168.44
232.072	164.44
232.306	147.44
232.541	165.44
232.775	154.44
233.009	159.44
233.243	180.44
233.477	163.44
233.711	183.44
233.945	166.44
234.179	187.44
234.413	178.44
234.647	174.44
234.881	183.44
235.115	185.44
235.349	165.44
235.583	172.44
235.817	178.44
236.051	187.44
236.285	171.44
236.519	187.44
236.753	188.44
236.987	178.44
237.221	179.44
237.455	188.44
237.689	190.44
237.922	192.44
238.156	182.44
238.39	178.44
238.624	196.44
238.858	200.44
239.091	196.44
239.325	197.44
239.559	220.44
239.793	218.44
240.027	200.44
240.26	223.44
240.494	208.44
240.728	230.44
240.961	214.44
241.195	214.44
241.429	220.44
241.662	213.44
241.896	228.44
242.13	218.44
242.363	223.44
242.597	228.44
242.83	226.44
243.064	229.44
243.298	241.44
243.531	243.44
243.765	249.44
243.998	263.44
244.232	234.44
244.465	229.44
244.699	232.44
244.932	249.44
245.166	264.44
245.399	272.44
245.633	259.44
245.866	252.44
246.099	259.44
246.333	261.44
246.566	259.44
246.8	264.44
247.033	274.44
247.266	288.44
247.5	282.44
247.733	298.44
247.966	284.44
248.2	293.44
248.433	288.44
248.666	277.44
248.899	295.44
249.133	292.44
249.366	290.44
249.599	279.44
249.832	291.44
250.066	312.44
250.299	297.44
250.532	304.44
250.765	295.44
250.998	321.44
251.231	320.44
251.465	310.44
251.698	297.44
251.931	309.44
252.164	346.44
252.397	337.44
252.63	334.44
252.863	335.44
253.096	322.44
253.329	330.44
253.562	338.44
253.795	334.44
254.028	339.44
254.261	330.44
254.494	329.44
254.727	343.44
254.96	340.44
255.193	346.44
255.426	327.44
255.659	363.44
255.892	342.44
256.124	354.44
256.357	373.44
256.59	363.44
256.823	358.44
257.056	373.44
257.289	354.44
257.521	378.44
257.754	353.44
257.987	366.44
258.22	360.44
258.452	370.44
258.685	360.44
258.918	376.44
259.151	371.44
259.383	363.44
259.616	374.44
259.849	400.44
260.081	379.44
260.314	388.44
260.547	381.44
260.779	390.44
261.012	396.44
261.244	394.44
261.477	394.44
261.71	400.44
261.942	405.44
262.175	407.44
262.407	400.44
262.64	408.44
262.872	418.44
263.105	398.44
263.337	380.44
263.57	425.44
263.802	410.44
264.035	402.44
264.267	435.44
264.499	407.44
264.732	430.44
264.964	415.44
265.197	424.44
265.429	446.44
265.661	420.44
265.894	431.44
266.126	425.44
266.358	434.44
266.591	424.44
266.823	454.44
267.055	424.44
267.287	451.44
267.52	439.44
267.752	461.44
267.984	440.44
268.216	469.44
268.448	455.44
268.681	455.44
268.913	459.44
269.145	444.44
269.377	452.44
269.609	482.44
269.841	443.44
270.073	456.44
270.306	465.44
270.538	454.44
270.77	466.44
271.002	484.44
271.234	473.44
271.466	474.44
271.698	477.44
271.93	469.44
272.162	472.44
272.394	479.44
272.626	470.44
272.858	489.44
273.09	473.44
273.322	497.44
273.553	484.44
273.785	476.44
274.017	493.44
274.249	482.44
274.481	489.44
274.713	505.44
274.945	494.44
275.176	500.44
275.408	516.44
275.64	536.44
275.872	503.44
276.104	531.44
276.335	521.44
276.567	489.44
276.799	494.44
277.031	537.44
277.262	502.44
277.494	524.44
277.726	551.44
277.957	563.44
278.189	547.44
278.421	539.44
278.652	534.44
278.884	547.44
279.115	540.44
279.347	532.44
279.579	562.44
279.81	521.44
280.042	535.44
280.273	560.44
280.505	554.44
280.736	562.44
280.968	579.44
281.199	592.44
281.431	569.44
281.662	585.44
281.894	560.44
282.125	568.44
282.356	570.44
282.588	586.44
282.819	579.44
283.051	598.44
283.282	587.44
283.513	587.44
283.745	583.44
283.976	584.44
284.207	616.44
284.439	605.44
284.67	617.44
284.901	592.44
285.132	619.44
285.364	609.44
285.595	620.44
285.826	612.44
286.057	582.44
286.288	610.44
286.52	633.44
286.751	638.44
286.982	631.44
287.213	652.44
287.444	626.44
287.675	653.44
287.906	636.44
288.138	618.44
288.369	632.44
288.6	642.44
288.831	656.44
289.062	658.44
289.293	638.44
289.524	657.44
289.755	648.44
289.986	644.44
290.217	650.44
290.448	638.44
290.679	673.44
290.91	628.44
291.141	640.44
291.371	659.44
291.602	666.44
291.833	653.44
292.064	663.44
292.295	640.44
292.526	642.44
292.757	645.44
292.987	649.44
293.218	650.44
293.449	657.44
293.68	664.44
293.91	674.44
294.141	667.44
294.372	658.44
294.603	657.44
294.833	679.44
295.064	672.44
295.295	675.44
295.525	671.44
295.756	659.44
295.987	671.44
296.217	683.44
296.448	693.44
296.679	670.44
296.909	693.44
297.14	690.44
297.37	708.44
297.601	724.44
297.831	696.44
298.062	706.44
298.292	728.44
298.523	732.44
298.753	734.44
298.984	728.44
299.214	721.44
299.445	729.44
299.675	703.44
299.905	721.44
300.136	706.44
300.366	725.44
300.597	725.44
300.827	719.44
301.057	735.44
301.288	774.44
301.518	744.44
301.748	766.44
301.979	786.44
302.209	769.44
302.439	771.44
302.669	769.44
302.9	750.44
303.13	734.44
303.36	745.44
303.59	729.44
303.82	736.44
304.051	782.44
304.281	708.44
304.511	743.44
304.741	739.44
304.971	724.44
305.201	750.44
305.431	736.44
305.661	738.44
305.891	730.44
306.121	727.44
306.352	738.44
306.582	735.44
306.812	708.44
307.042	741.44
307.272	729.44
307.502	736.44
307.731	746.44
307.961	731.44
308.191	731.44
308.421	724.44
308.651	743.44
308.881	747.44
309.111	735.44
309.341	737.44
309.571	754.44
309.8	714.44
310.03	730.44
310.26	724.44
310.49	726.44
310.72	746.44
310.949	715.44
311.179	734.44
311.409	751.44
311.639	770.44
311.868	763.44
312.098	747.44
312.328	745.44
312.557	753.44
312.787	787.44
313.017	762.44
313.246	776.44
313.476	768.44
313.706	795.44
313.935	779.44
314.165	831.44
314.394	786.44
314.624	814.44
314.853	781.44
315.083	808.44
315.312	803.44
315.542	785.44
315.771	767.44
316.001	779.44
316.23	769.44
316.46	754.44
316.689	784.44
316.919	775.44
317.148	774.44
317.377	776.44
317.607	764.44
317.836	763.44
318.065	772.44
318.295	770.44
318.524	792.44
318.753	766.44
318.983	745.44
319.212	751.44
319.441	772.44
319.67	782.44
319.9	772.44
320.129	756.44
320.358	777.44
320.587	758.44
320.816	764.44
321.046	779.44
321.275	796.44
321.504	766.44
321.733	783.44
321.962	760.44
322.191	776.44
322.42	792.44
322.649	802.44
322.878	774.44
323.108	786.44
323.337	799.44
323.566	781.44
323.795	779.44
324.024	798.44
324.253	777.44
324.482	774.44
324.71	810.44
324.939	806.44
325.168	803.44
325.397	809.44
325.626	829.44
325.855	830.44
326.084	867.44
326.313	848.44
326.542	848.44
326.77	849.44
326.999	802.44
327.228	841.44
327.457	847.44
327.686	834.44
327.914	828.44
328.143	843.44
328.372	862.44
328.6	858.44
328.829	858.44
329.058	843.44
329.287	867.44
329.515	859.44
329.744	851.44
329.972	868.44
330.201	871.44
330.43	856.44
330.658	854.44
330.887	898.44
331.115	888.44
331.344	868.44
331.572	869.44
331.801	914.44
332.03	924.44
332.258	968.44
332.486	972.44
332.715	1016.44
332.943	1033.44
333.172	1076.44
333.4	1134.44
333.629	1121.44
333.857	1191.44
334.085	1148.44
334.314	1131.44
334.542	1118.44
334.771	1107.44
334.999	1099.44
335.227	1067.44
335.455	1093.44
335.684	1076.44
335.912	1065.44
336.14	1024.44
336.369	1038.44
336.597	1037.44
336.825	1000.44
337.053	1024.44
337.281	1006.44
337.51	1024.44
337.738	977.44
337.966	954.44
338.194	952.44
338.422	937.44
338.65	937.44
338.878	914.44
339.106	946.44
339.334	954.44
339.562	915.44
339.79	905.44
340.018	890.44
340.246	887.44
340.474	889.44
340.702	883.44
340.93	874.44
341.158	903.44
341.386	920.44
341.614	898.44
341.842	891.44
342.07	874.44
342.298	854.44
342.526	875.44
342.754	901.44
342.981	886.44
343.209	891.44
343.437	937.44
343.665	985.44
343.893	1080.44
344.12	1138.44
344.348	1061.44
344.576	1018.44
344.804	968.44
345.031	929.44
345.259	898.44
345.487	892.44
345.714	840.44
345.942	873.44
346.17	892.44
346.397	870.44
346.625	832.44
346.853	825.44
347.08	846.44
347.308	855.44
347.535	868.44
347.763	870.44
347.99	871.44
348.218	875.44
348.445	865.44
348.673	828.44
348.9	858.44
349.128	862.44
349.355	839.44
349.583	838.44
349.81	831.44
350.037	831.44
350.265	831.44
350.492	852.44
350.72	839.44
350.947	848.44
351.174	834.44
351.402	831.44
351.629	860.44
351.856	852.44
352.083	820.44
352.311	814.44
352.538	819.44
352.765	811.44
352.992	817.44
353.22	790.44
353.447	802.44
353.674	810.44
353.901	812.44
354.128	821.44
354.355	823.44
354.583	827.44
354.81	802.44
355.037	825.44
355.264	806.44
355.491	815.44
355.718	817.44
355.945	816.44
356.172	844.44
356.399	847.44
356.626	816.44
356.853	816.44
357.08	828.44
357.307	829.44
357.534	832.44
357.761	828.44
357.988	832.44
358.215	831.44
358.441	825.44
358.668	826.44
358.895	825.44
359.122	821.44
359.349	816.44
359.576	828.44
359.802	844.44
360.029	844.44
360.256	820.44
360.483	834.44
360.709	839.44
360.936	826.44
361.163	810.44
361.39	826.44
361.616	818.44
361.843	826.44
362.07	859.44
362.296	842.44
362.523	785.44
362.749	842.44
362.976	817.44
363.203	795.44
363.429	797.44
363.656	837.44
363.882	834.44
364.109	798.44
364.335	791.44
364.562	820.44
364.788	802.44
365.015	816.44
365.241	814.44
365.468	822.44
365.694	800.44
365.92	826.44
366.147	809.44
366.373	805.44
366.599	831.44
366.826	809.44
367.052	816.44
367.278	836.44
367.505	820.44
367.731	804.44
367.957	838.44
368.184	808.44
368.41	811.44
368.636	838.44
368.862	811.44
369.089	875.44
369.315	834.44
369.541	841.44
369.767	858.44
369.993	859.44
370.219	852.44
370.445	861.44
370.672	849.44
370.898	895.44
371.124	875.44
371.35	889.44
371.576	888.44
371.802	904.44
372.028	886.44
372.254	900.44
372.48	902.44
372.706	914.44
372.932	954.44
373.158	959.44
373.384	937.44
373.61	891.44
373.835	914.44
374.061	909.44
374.287	894.44
374.513	915.44
374.739	964.44
374.965	969.44
375.191	979.44
375.416	1028.44
375.642	966.44
375.868	958.44
376.094	934.44
376.319	902.44
376.545	884.44
376.771	898.44
376.997	899.44
377.222	902.44
377.448	889.44
377.674	870.44
377.899	906.44
378.125	893.44
378.35	875.44
378.576	915.44
378.802	882.44
379.027	852.44
379.253	856.44
379.478	877.44
379.704	890.44
379.929	891.44
380.155	851.44
380.38	910.44
380.606	884.44
380.831	897.44
381.057	921.44
381.282	869.44
381.507	888.44
381.733	922.44
381.958	932.44
382.184	903.44
382.409	883.44
382.634	936.44
382.86	920.44
383.085	937.44
383.31	968.44
383.535	957.44
383.761	958.44
383.986	1014.44
384.211	1015.44
384.436	1062.44
384.662	1007.44
384.887	1060.44
385.112	1072.44
385.337	1087.44
385.562	1096.44
385.787	1095.44
386.013	1106.44
386.238	1082.44
386.463	1125.44
386.688	1100.44
386.913	1092.44
387.138	1072.44
387.363	1115.44
387.588	1064.44
387.813	1066.44
388.038	1093.44
388.263	1077.44
388.488	1103.44
388.713	1078.44
388.938	1060.44
389.163	1075.44
389.387	1073.44
389.612	1074.44
389.837	1077.44
390.062	1026.44
390.287	1037.44
390.512	1052.44
390.736	1047.44
390.961	1085.44
391.186	1118.44
391.411	1154.44
391.636	1159.44
391.86	1211.44
392.085	1242.44
392.31	1274.44
392.534	1223.44
392.759	1195.44
392.984	1156.44
393.208	1178.44
393.433	1158.44
393.658	1145.44
393.882	1157.44
394.107	1153.44
394.331	1163.44
394.556	1130.44
394.78	1177.44
395.005	1184.44
395.229	1207.44
395.454	1204.44
395.678	1215.44
395.903	1229.44
396.127	1214.44
396.352	1200.44
396.576	1170.44
396.801	1150.44
397.025	1165.44
397.249	1182.44
397.474	1213.44
397.698	1236.44
397.922	1255.44
398.147	1271.44
398.371	1232.44
398.595	1273.44
398.82	1342.44
399.044	1472.44
399.268	1657.44
399.492	1849.44
399.717	2075.44
399.941	2099.44
400.165	1905.44
400.389	1718.44
400.613	1590.44
400.837	1451.44
401.062	1424.44
401.286	1426.44
401.51	1404.44
401.734	1455.44
401.958	1436.44
402.182	1402.44
402.406	1398.44
402.63	1465.44
402.854	1482.44
403.078	1502.44
403.302	1523.44
403.526	1550.44
403.75	1578.44
403.974	1626.44
404.198	1580.44
404.422	1602.44
404.645	1569.44
404.869	1556.44
405.093	1568.44
405.317	1527.44
405.541	1534.44
405.765	1525.44
405.988	1523.44
406.212	1520.44
406.436	1545.44
406.66	1564.44
406.883	1577.44
407.107	1672.44
407.331	1758.44
407.555	1842.44
407.778	1823.44
408.002	1746.44
408.226	1693.44
408.449	1680.44
408.673	1618.44
408.896	1570.44
409.12	1591.44
409.344	1577.44
409.567	1556.44
409.791	1568.44
410.014	1528.44
410.238	1548.44
410.461	1551.44
410.685	1519.44
410.908	1495.44
411.132	1434.44
411.355	1423.44
411.578	1439.44
411.802	1420.44
412.025	1450.44
412.249	1435.44
412.472	1484.44
412.695	1432.44
412.919	1392.44
413.142	1378.44
413.365	1407.44
413.589	1400.44
413.812	1359.44
414.035	1338.44
414.258	1361.44
414.482	1377.44
414.705	1413.44
414.928	1387.44
415.151	1391.44
415.374	1358.44
415.597	1379.44
415.821	1363.44
416.044	1358.44
416.267	1334.44
416.49	1329.44
416.713	1335.44
416.936	1318.44
417.159	1325.44
417.382	1333.44
417.605	1337.44
417.828	1330.44
418.051	1355.44
418.274	1356.44
418.497	1324.44
418.72	1385.44
418.943	1370.44
419.166	1476.44
419.389	1587.44
419.611	1543.44
419.834	1480.44
420.057	1418.44
420.28	1377.44
420.503	1354.44
420.726	1355.44
420.948	1376.44
421.171	1340.44
421.394	1345.44
421.617	1324.44
421.839	1367.44
422.062	1370.44
422.285	1354.44
422.507	1395.44
422.73	1382.44
422.953	1381.44
423.175	1415.44
423.398	1382.44
423.621	1394.44
423.843	1432.44
424.066	1400.44
424.288	1434.44
424.511	1441.44
424.733	1394.44
424.956	1408.44
425.178	1356.44
425.401	1388.44
425.623	1348.44
425.846	1327.44
426.068	1306.44
426.291	1302.44
426.513	1286.44
426.735	1256.44
426.958	1244.44
427.18	1239.44
427.402	1267.44
427.625	1274.44
427.847	1226.44
428.069	1191.44
428.292	1248.44
428.514	1193.44
428.736	1219.44
428.958	1214.44
429.181	1156.44
429.403	1165.44
429.625	1175.44
429.847	1176.44
430.069	1155.44
430.292	1176.44
430.514	1143.44
430.736	1198.44
430.958	1176.44
431.18	1167.44
431.402	1189.44
431.624	1152.44
431.846	1218.44
432.068	1199.44
432.29	1249.44
432.512	1184.44
432.734	1204.44
432.956	1161.44
433.178	1197.44
433.4	1201.44
433.622	1203.44
433.844	1224.44
434.066	1225.44
434.287	1246.44
434.509	1294.44
434.731	1356.44
434.953	1363.44
435.175	1369.44
435.397	1299.44
435.618	1244.44
435.84	1262.44
436.062	1234.44
436.284	1207.44
436.505	1177.44
436.727	1219.44
436.949	1186.44
437.17	1155.44
437.392	1145.44
437.614	1170.44
437.835	1157.44
438.057	1144.44
438.278	1137.44
438.5	1145.44
438.721	1143.44
438.943	1167.44
439.165	1155.44
439.386	1138.44
439.608	1181.44
439.829	1184.44
440.05	1179.44
440.272	1171.44
440.493	1170.44
440.715	1187.44
440.936	1235.44
441.158	1242.44
441.379	1274.44
441.6	1348.44
441.822	1348.44
442.043	1316.44
442.264	1306.44
442.486	1279.44
442.707	1292.44
442.928	1284.44
443.149	1288.44
443.371	1305.44
443.592	1301.44
443.813	1331.44
444.034	1337.44
444.255	1403.44
444.476	1459.44
444.698	1521.44
444.919	1606.44
445.14	1665.44
445.361	1479.44
445.582	1410.44
445.803	1338.44
446.024	1286.44
446.245	1228.44
446.466	1249.44
446.687	1203.44
446.908	1208.44
447.129	1142.44
447.35	1153.44
447.571	1127.44
447.792	1108.44
448.013	1154.44
448.234	1099.44
448.455	1114.44
448.675	1076.44
448.896	1113.44
449.117	1086.44
449.338	1096.44
449.559	1057.44
449.779	1060.44
450	1072.44
450.221	1074.44
450.442	1040.44
450.662	1095.44
450.883	1074.44
451.104	1116.44
451.324	1108.44
451.545	1117.44
451.766	1068.44
451.986	1066.44
452.207	1059.44
452.428	1070.44
452.648	1078.44
452.869	1044.44
453.089	1046.44
453.31	1037.44
453.53	1030.44
453.751	1042.44
453.971	1033.44
454.192	1065.44
454.412	1041.44
454.633	1036.44
454.853	1009.44
455.073	1006.44
455.294	1002.44
455.514	986.44
455.734	1047.44
455.955	983.44
456.175	1012.44
456.395	981.44
456.616	1010.44
456.836	1007.44
457.056	1006.44
457.276	1007.44
457.497	1007.44
457.717	1030.44
457.937	1027.44
458.157	1027.44
458.377	1039.44
458.598	1067.44
458.818	1119.44
459.038	1148.44
459.258	1174.44
459.478	1194.44
459.698	1246.44
459.918	1273.44
460.138	1329.44
460.358	1403.44
460.578	1408.44
460.798	1431.44
461.018	1404.44
461.238	1413.44
461.458	1424.44
461.678	1427.44
461.898	1436.44
462.118	1423.44
462.338	1534.44
462.558	1563.44
462.777	1607.44
462.997	1720.44
463.217	1913.44
463.437	1926.44
463.657	1764.44
463.876	1713.44
464.096	1646.44
464.316	1691.44
464.536	1654.44
464.755	1612.44
464.975	1530.44
465.195	1476.44
465.414	1395.44
465.634	1286.44
465.854	1260.44
466.073	1225.44
466.293	1172.44
466.512	1143.44
466.732	1143.44
466.951	1147.44
467.171	1157.44
467.391	1160.44
467.61	1128.44
467.829	1123.44
468.049	1120.44
468.268	1074.44
468.488	1107.44
468.707	1093.44
468.927	1088.44
469.146	1068.44
469.365	1112.44
469.585	1128.44
469.804	1144.44
470.023	1154.44
470.243	1186.44
470.462	1158.44
470.681	1176.44
470.901	1209.44
471.12	1167.44
471.339	1160.44
471.558	1133.44
471.777	1100.44
471.997	1106.44
472.216	1090.44
472.435	1065.44
472.654	1092.44
472.873	1075.44
473.092	1061.44
473.311	1057.44
473.53	1048.44
473.749	1086.44
473.968	1064.44
474.187	1042.44
474.406	1042.44
474.625	1066.44
474.844	1083.44
475.063	1071.44
475.282	1082.44
475.501	1066.44
475.72	1066.44
475.939	1093.44
476.158	1090.44
476.377	1109.44
476.596	1083.44
476.814	1140.44
477.033	1116.44
477.252	1135.44
477.471	1180.44
477.69	1184.44
477.908	1207.44
478.127	1230.44
478.346	1290.44
478.564	1324.44
478.783	1271.44
479.002	1352.44
479.22	1355.44
479.439	1365.44
479.658	1377.44
479.876	1343.44
480.095	1353.44
480.313	1408.44
480.532	1454.44
480.751	1474.44
480.969	1361.44
481.188	1329.44
481.406	1287.44
481.624	1292.44
481.843	1249.44
482.061	1231.44
482.28	1205.44
482.498	1223.44
482.717	1244.44
482.935	1192.44
483.153	1196.44
483.372	1196.44
483.59	1203.44
483.808	1178.44
484.027	1213.44
484.245	1212.44
484.463	1226.44
484.681	1245.44
484.9	1268.44
485.118	1267.44
485.336	1269.44
485.554	1276.44
485.772	1266.44
485.99	1257.44
486.209	1290.44
486.427	1276.44
486.645	1300.44
486.863	1321.44
487.081	1263.44
487.299	1271.44
487.517	1306.44
487.735	1257.44
487.953	1272.44
488.171	1240.44
488.389	1231.44
488.607	1210.44
488.825	1266.44
489.043	1233.44
489.261	1253.44
489.479	1262.44
489.696	1252.44
489.914	1255.44
490.132	1287.44
490.35	1291.44
490.568	1276.44
490.786	1282.44
491.003	1298.44
491.221	1315.44
491.439	1255.44
491.657	1254.44
491.874	1307.44
492.092	1274.44
492.31	1292.44
492.527	1317.44
492.745	1341.44
492.963	1328.44
493.18	1330.44
493.398	1319.44
493.615	1346.44
493.833	1327.44
494.05	1363.44
494.268	1360.44
494.485	1381.44
494.703	1390.44
494.92	1371.44
495.138	1361.44
495.355	1400.44
495.573	1387.44
495.79	1353.44
496.008	1391.44
496.225	1392.44
496.442	1417.44
496.66	1435.44
496.877	1440.44
497.094	1503.44
497.312	1522.44
497.529	1511.44
497.746	1567.44
497.963	1654.44
498.181	1721.44
498.398	1804.44
498.615	1924.44
498.832	2021.44
499.049	2170.44
499.267	2338.44
499.484	2596.44
499.701	2868.44
499.918	3204.44
500.135	3627.44
500.352	4022.44
500.569	4223.44
500.786	4174.44
501.003	3931.44
501.22	3568.44
501.437	3172.44
501.654	2805.44
501.871	2505.44
502.088	2360.44
502.305	2144.44
502.522	1989.44
502.739	1945.44
502.956	1861.44
503.172	1786.44
503.389	1719.44
503.606	1616.44
503.823	1631.44
504.04	1615.44
504.256	1624.44
504.473	1660.44
504.69	1663.44
504.907	1635.44
505.123	1593.44
505.34	1452.44
505.557	1383.44
505.773	1389.44
505.99	1326.44
506.207	1287.44
506.423	1289.44
506.64	1248.44
506.856	1254.44
507.073	1240.44
507.289	1241.44
507.506	1207.44
507.722	1199.44
507.939	1204.44
508.155	1170.44
508.372	1172.44
508.588	1202.44
508.805	1150.44
509.021	1155.44
509.238	1133.44
509.454	1138.44
509.67	1106.44
509.887	1107.44
510.103	1124.44
510.319	1135.44
510.536	1096.44
510.752	1106.44
510.968	1095.44
511.184	1106.44
511.401	1097.44
511.617	1083.44
511.833	1078.44
512.049	1110.44
512.265	1105.44
512.481	1109.44
512.698	1089.44
512.914	1080.44
513.13	1115.44
513.346	1125.44
513.562	1125.44
513.778	1086.44
513.994	1106.44
514.21	1126.44
514.426	1109.44
514.642	1117.44
514.858	1152.44
515.074	1117.44
515.29	1131.44
515.506	1178.44
515.721	1176.44
515.937	1192.44
516.153	1183.44
516.369	1252.44
516.585	1291.44
516.801	1342.44
517.016	1374.44
517.232	1455.44
517.448	1509.44
517.664	1559.44
517.879	1539.44
518.095	1623.44
518.311	1570.44
518.527	1484.44
518.742	1417.44
518.958	1321.44
519.173	1280.44
519.389	1255.44
519.605	1239.44
519.82	1199.44
520.036	1186.44
520.251	1156.44
520.467	1147.44
520.682	1147.44
520.898	1088.44
521.113	1092.44
521.329	1081.44
521.544	1104.44
521.76	1047.44
521.975	1090.44
522.19	1044.44
522.406	1024.44
522.621	1051.44
522.836	1027.44
523.052	1044.44
523.267	1017.44
523.482	977.44
523.698	1020.44
523.913	999.44
524.128	1002.44
524.343	1031.44
524.559	996.44
524.774	990.44
524.989	1007.44
525.204	1015.44
525.419	972.44
525.634	989.44
525.849	999.44
526.064	977.44
526.28	981.44
526.495	988.44
526.71	1002.44
526.925	977.44
527.14	972.44
527.355	978.44
527.57	980.44
527.785	971.44
527.999	954.44
528.214	966.44
528.429	961.44
528.644	1008.44
528.859	1004.44
529.074	938.44
529.289	976.44
529.503	970.44
529.718	979.44
529.933	986.44
530.148	993.44
530.363	984.44
530.577	983.44
530.792	970.44
531.007	937.44
531.221	988.44
531.436	967.44
531.651	979.44
531.865	993.44
532.08	976.44
532.295	1006.44
532.509	987.44
532.724	968.44
532.938	970.44
533.153	987.44
533.367	955.44
533.582	980.44
533.796	983.44
534.011	976.44
534.225	958.44
534.44	955.44
534.654	973.44
534.868	937.44
535.083	932.44
535.297	963.44
535.511	938.44
535.726	939.44
535.94	927.44
536.154	920.44
536.369	924.44
536.583	884.44
536.797	908.44
537.011	913.44
537.225	888.44
537.44	912.44
537.654	883.44
537.868	895.44
538.082	907.44
538.296	914.44
538.51	893.44
538.724	878.44
538.938	903.44
539.153	899.44
539.367	908.44
539.581	902.44
539.795	868.44
540.009	876.44
540.222	848.44
540.436	896.44
540.65	885.44
540.864	848.44
541.078	866.44
541.292	862.44
541.506	868.44
541.72	889.44
541.934	907.44
542.147	900.44
542.361	891.44
542.575	864.44
542.789	846.44
543.002	838.44
543.216	866.44
543.43	871.44
543.644	832.44
543.857	867.44
544.071	870.44
544.285	886.44
544.498	867.44
544.712	830.44
544.925	901.44
545.139	888.44
545.352	887.44
545.566	882.44
545.779	913.44
545.993	892.44
546.206	907.44
546.42	893.44
546.633	885.44
546.847	894.44
547.06	896.44
547.274	900.44
547.487	898.44
547.7	910.44
547.914	888.44
548.127	916.44
548.34	888.44
548.554	920.44
548.767	917.44
548.98	939.44
549.193	902.44
549.407	917.44
549.62	918.44
549.833	913.44
550.046	925.44
550.259	902.44
550.473	914.44
550.686	907.44
550.899	889.44
551.112	855.44
551.325	853.44
551.538	880.44
551.751	886.44
551.964	894.44
552.177	891.44
552.39	899.44
552.603	914.44
552.816	966.44
553.029	965.44
553.242	983.44
553.455	996.44
553.667	990.44
553.88	964.44
554.093	959.44
554.306	916.44
554.519	925.44
554.732	910.44
554.944	892.44
555.157	865.44
555.37	857.44
555.583	841.44
555.795	821.44
556.008	810.44
556.221	808.44
556.433	788.44
556.646	745.44
556.859	775.44
557.071	765.44
557.284	792.44
557.496	760.44
557.709	769.44
557.921	774.44
558.134	731.44
558.346	752.44
558.559	734.44
558.771	731.44
558.984	757.44
559.196	750.44
559.409	766.44
559.621	748.44
559.833	717.44
560.046	752.44
560.258	700.44
560.47	747.44
560.683	733.44
560.895	710.44
561.107	756.44
561.32	716.44
561.532	763.44
561.744	732.44
561.956	754.44
562.168	751.44
562.381	729.44
562.593	736.44
562.805	733.44
563.017	733.44
563.229	734.44
563.441	750.44
563.653	734.44
563.865	760.44
564.077	753.44
564.289	763.44
564.501	762.44
564.713	780.44
564.925	796.44
565.137	823.44
565.349	842.44
565.561	846.44
565.773	918.44
565.985	946.44
566.197	940.44
566.408	1059.44
566.62	1134.44
566.832	1249.44
567.044	1239.44
567.255	1236.44
567.467	1311.44
567.679	1369.44
567.891	1425.44
568.102	1438.44
568.314	1323.44
568.526	1214.44
568.737	1140.44
568.949	1087.44
569.161	975.44
569.372	903.44
569.584	857.44
569.795	826.44
570.007	811.44
570.218	804.44
570.43	762.44
570.641	755.44
570.853	784.44
571.064	779.44
571.276	784.44
571.487	743.44
571.698	732.44
571.91	711.44
572.121	679.44
572.333	667.44
572.544	643.44
572.755	615.44
572.966	642.44
573.178	651.44
573.389	617.44
573.6	609.44
573.811	601.44
574.023	599.44
574.234	601.44
574.445	611.44
574.656	583.44
574.867	601.44
575.078	611.44
575.289	608.44
575.501	608.44
575.712	567.44
575.923	588.44
576.134	570.44
576.345	596.44
576.556	579.44
576.767	568.44
576.978	566.44
577.188	562.44
577.399	547.44
577.61	551.44
577.821	552.44
578.032	558.44
578.243	544.44
578.454	538.44
578.665	536.44
578.875	507.44
579.086	524.44
579.297	514.44
579.508	529.44
579.718	536.44
579.929	543.44
580.14	515.44
580.35	522.44
580.561	538.44
580.772	522.44
580.982	496.44
581.193	517.44
581.403	522.44
581.614	521.44
581.825	513.44
582.035	511.44
582.246	510.44
582.456	508.44
582.667	498.44
582.877	521.44
583.087	499.44
583.298	499.44
583.508	516.44
583.719	494.44
583.929	512.44
584.139	496.44
584.35	496.44
584.56	487.44
584.77	495.44
584.981	515.44
585.191	468.44
585.401	488.44
585.611	499.44
585.821	504.44
586.032	481.44
586.242	479.44
586.452	497.44
586.662	458.44
586.872	471.44
587.082	486.44
587.292	482.44
587.502	491.44
587.713	476.44
587.923	498.44
588.133	486.44
588.343	482.44
588.553	480.44
588.762	485.44
588.972	494.44
589.182	510.44
589.392	482.44
589.602	473.44
589.812	487.44
590.022	484.44
590.232	486.44
590.441	485.44
590.651	479.44
590.861	459.44
591.071	510.44
591.281	465.44
591.49	484.44
591.7	510.44
591.91	504.44
592.119	519.44
592.329	536.44
592.539	569.44
592.748	578.44
592.958	588.44
593.167	596.44
593.377	595.44
593.587	607.44
593.796	635.44
594.006	618.44
594.215	616.44
594.424	620.44
594.634	620.44
594.843	594.44
595.053	547.44
595.262	554.44
595.472	543.44
595.681	517.44
595.89	524.44
596.1	492.44
596.309	480.44
596.518	471.44
596.727	450.44
596.937	461.44
597.146	432.44
597.355	446.44
597.564	423.44
597.774	442.44
597.983	436.44
598.192	434.44
598.401	437.44
598.61	429.44
598.819	419.44
599.028	407.44
599.237	404.44
599.446	401.44
599.655	403.44
599.864	410.44
600.073	397.44
600.282	404.44
600.491	406.44
600.7	386.44
600.909	398.44
601.118	388.44
601.327	400.44
601.536	383.44
601.745	386.44
601.953	395.44
602.162	400.44
602.371	388.44
602.58	376.44
602.789	405.44
602.997	369.44
603.206	368.44
603.415	382.44
603.623	366.44
603.832	377.44
604.041	359.44
604.249	382.44
604.458	380.44
604.666	373.44
604.875	363.44
605.084	360.44
605.292	371.44
605.501	376.44
605.709	370.44
605.918	361.44
606.126	359.44
606.334	355.44
606.543	331.44
606.751	361.44
606.96	363.44
607.168	350.44
607.376	374.44
607.585	347.44
607.793	350.44
608.001	368.44
608.21	361.44
608.418	344.44
608.626	362.44
608.834	358.44
609.043	366.44
609.251	359.44
609.459	341.44
609.667	343.44
609.875	351.44
610.083	362.44
610.291	356.44
610.499	345.44
610.707	327.44
610.916	346.44
611.124	351.44
611.332	354.44
611.54	345.44
611.748	370.44
611.955	331.44
612.163	344.44
612.371	329.44
612.579	339.44
612.787	334.44
612.995	341.44
613.203	344.44
613.411	354.44
613.618	324.44
613.826	330.44
614.034	322.44
614.242	339.44
614.449	342.44
614.657	343.44
614.865	326.44
615.072	342.44
615.28	343.44
615.488	331.44
615.695	337.44
615.903	330.44
616.111	332.44
616.318	325.44
616.526	356.44
616.733	338.44
616.941	352.44
617.148	348.44
617.356	340.44
617.563	328.44
617.771	337.44
617.978	336.44
618.185	316.44
618.393	331.44
618.6	341.44
618.807	327.44
619.015	317.44
619.222	322.44
619.429	331.44
619.637	330.44
619.844	340.44
620.051	321.44
620.258	320.44
620.466	335.44
620.673	315.44
620.88	310.44
621.087	320.44
621.294	312.44
621.501	299.44
621.708	308.44
621.915	305.44
622.122	321.44
622.329	319.44
622.536	309.44
622.743	298.44
622.95	283.44
623.157	294.44
623.364	312.44
623.571	301.44
623.778	318.44
623.985	296.44
624.192	292.44
624.399	295.44
624.606	312.44
624.812	274.44
625.019	279.44
625.226	295.44
625.433	309.44
625.639	275.44
625.846	274.44
626.053	287.44
626.259	292.44
626.466	292.44
626.673	302.44
626.879	274.44
627.086	294.44
627.293	274.44
627.499	286.44
627.706	273.44
627.912	294.44
628.119	275.44
628.325	284.44
628.532	273.44
628.738	293.44
628.945	269.44
629.151	280.44
629.357	276.44
629.564	278.44
629.77	281.44
629.976	267.44
630.183	278.44
630.389	265.44
630.595	251.44
630.802	254.44
631.008	260.44
631.214	274.44
631.42	281.44
631.627	262.44
631.833	243.44
632.039	264.44
632.245	253.44
632.451	250.44
632.657	257.44
632.863	276.44
633.069	258.44
633.275	257.44
633.481	261.44
633.688	242.44
633.893	257.44
634.099	254.44
634.305	247.44
634.511	249.44
634.717	238.44
634.923	248.44
635.129	240.44
635.335	250.44
635.541	231.44
635.747	231.44
635.952	281.44
636.158	235.44
636.364	235.44
636.57	243.44
636.775	238.44
636.981	230.44
637.187	232.44
637.392	238.44
637.598	228.44
637.804	230.44
638.009	244.44
638.215	237.44
638.421	239.44
638.626	222.44
638.832	225.44
639.037	223.44
639.243	234.44
639.448	220.44
639.654	223.44
639.859	218.44
640.065	217.44
640.27	222.44
640.475	227.44
640.681	240.44
640.886	250.44
641.091	205.44
641.297	217.44
641.502	218.44
641.707	219.44
641.913	232.44
642.118	194.44
642.323	201.44
642.528	225.44
642.733	202.44
642.939	201.44
643.144	219.44
643.349	219.44
643.554	211.44
643.759	230.44
643.964	207.44
644.169	221.44
644.374	203.44
644.579	202.44
644.784	203.44
644.989	203.44
645.194	214.44
645.399	212.44
645.604	194.44
645.809	229.44
646.014	210.44
646.219	204.44
646.423	208.44
646.628	209.44
646.833	213.44
647.038	224.44
647.243	216.44
647.447	214.44
647.652	227.44
647.857	203.44
648.062	227.44
648.266	228.44
648.471	227.44
648.676	210.44
648.88	224.44
649.085	191.44
649.289	211.44
649.494	226.44
649.698	216.44
649.903	194.44
650.107	200.44
650.312	199.44
650.516	208.44
650.721	203.44
650.925	196.44
651.13	186.44
651.334	193.44
651.539	179.44
651.743	178.44
651.947	177.44
652.152	179.44
652.356	181.44
652.56	182.44
652.764	178.44
652.969	173.44
653.173	182.44
653.377	164.44
653.581	161.44
653.785	148.44
653.99	169.44
654.194	150.44
654.398	169.44
654.602	168.44
654.806	151.44
655.01	167.44
655.214	167.44
655.418	157.44
655.622	141.44
655.826	159.44
656.03	144.44
656.234	164.44
656.438	152.44
656.642	141.44
656.846	138.44
657.049	137.44
657.253	127.44
657.457	117.44
657.661	129.44
657.865	120.44
658.068	121.44
658.272	124.44
658.476	115.44
658.68	108.44
658.883	120.44
659.087	130.44
659.291	105.44
659.494	119.44
659.698	102.44
659.901	108.44
660.105	106.44
660.309	101.44
660.512	105.44
660.716	103.44
660.919	92.44
661.123	100.44
661.326	89.44
661.53	92.44
661.733	98.44
661.936	78.44
662.14	80.44
662.343	83.44
662.546	87.44
662.75	77.44
662.953	90.44
663.156	89.44
663.36	71.44
663.563	70.44
663.766	68.44
663.969	70.44
664.173	83.44
664.376	74.44
664.579	88.44
664.782	80.44
664.985	96.44
665.188	80.44
665.391	78.44
665.594	90.44
665.797	80.44
666	73.44
666.203	75.44
666.406	87.44
666.609	86.44
666.812	94.44
667.015	73.44
667.218	72.44
667.421	82.44
667.624	84.44
667.827	94.44
668.03	82.44
668.232	82.44
668.435	81.44
668.638	78.44
668.841	87.44
669.043	91.44
669.246	87.44
669.449	94.44
669.651	83.44
669.854	84.44
670.057	98.44
670.259	77.44
670.462	88.44
670.665	80.44
670.867	71.44
671.07	99.44
671.272	86.44
671.475	80.44
671.677	74.44
671.88	79.44
672.082	83.44
672.284	73.44
672.487	78.44
672.689	74.44
672.892	84.44
