Data from NiCl2@0.125M.TitratingCurve.Agarose3%dH2O.NegLispCup.LampEnergy10.LIBS07252019_HRD10591_18-29-15-575.txt Node
Date: Thu Jul 25 18:29:15 EDT 2019
User: cochatt
Spectrometer: HR+D1059
Trigger mode: 1
Integration Time (sec): 1.000000E-1
Scans to average: 1
Electric dark correction enabled: true
Nonlinearity correction enabled: false
Boxcar width: 0
XAxis mode: Wavelengths
Number of Pixels in Spectrum: 2048
>>>>>Begin Spectral Data<<<<<
223.165	-15.19
223.4	-15.19
223.635	-15.19
223.869	-15.19
224.104	-11.19
224.338	-12.19
224.573	-12.19
224.808	2.81
225.042	-23.19
225.277	-16.19
225.511	2.81
225.746	1.81
225.98	0.81
226.215	-1.19
226.449	26.81
226.683	16.81
226.918	20.81
227.152	33.81
227.387	36.81
227.621	36.81
227.856	30.81
228.09	44.81
228.324	40.81
228.559	56.81
228.793	77.81
229.027	106.81
229.262	106.81
229.496	110.81
229.73	112.81
229.964	121.81
230.199	121.81
230.433	123.81
230.667	133.81
230.901	127.81
231.136	140.81
231.37	145.81
231.604	140.81
231.838	137.81
232.072	143.81
232.306	139.81
232.541	137.81
232.775	150.81
233.009	166.81
233.243	148.81
233.477	144.81
233.711	152.81
233.945	151.81
234.179	141.81
234.413	162.81
234.647	153.81
234.881	161.81
235.115	151.81
235.349	159.81
235.583	150.81
235.817	147.81
236.051	152.81
236.285	162.81
236.519	159.81
236.753	178.81
236.987	161.81
237.221	176.81
237.455	164.81
237.689	170.81
237.922	176.81
238.156	168.81
238.39	181.81
238.624	175.81
238.858	161.81
239.091	171.81
239.325	167.81
239.559	175.81
239.793	162.81
240.027	178.81
240.26	172.81
240.494	180.81
240.728	187.81
240.961	193.81
241.195	195.81
241.429	194.81
241.662	187.81
241.896	181.81
242.13	192.81
242.363	194.81
242.597	203.81
242.83	204.81
243.064	190.81
243.298	197.81
243.531	211.81
243.765	206.81
243.998	210.81
244.232	200.81
244.465	212.81
244.699	215.81
244.932	243.81
245.166	224.81
245.399	230.81
245.633	215.81
245.866	213.81
246.099	226.81
246.333	216.81
246.566	236.81
246.8	240.81
247.033	221.81
247.266	232.81
247.5	252.81
247.733	250.81
247.966	228.81
248.2	258.81
248.433	236.81
248.666	254.81
248.899	282.81
249.133	259.81
249.366	240.81
249.599	259.81
249.832	258.81
250.066	259.81
250.299	257.81
250.532	239.81
250.765	242.81
250.998	281.81
251.231	266.81
251.465	269.81
251.698	279.81
251.931	280.81
252.164	285.81
252.397	290.81
252.63	273.81
252.863	290.81
253.096	284.81
253.329	288.81
253.562	293.81
253.795	304.81
254.028	290.81
254.261	303.81
254.494	297.81
254.727	291.81
254.96	290.81
255.193	284.81
255.426	306.81
255.659	286.81
255.892	293.81
256.124	310.81
256.357	284.81
256.59	329.81
256.823	309.81
257.056	286.81
257.289	293.81
257.521	316.81
257.754	327.81
257.987	319.81
258.22	299.81
258.452	312.81
258.685	318.81
258.918	299.81
259.151	315.81
259.383	318.81
259.616	321.81
259.849	300.81
260.081	332.81
260.314	313.81
260.547	334.81
260.779	336.81
261.012	338.81
261.244	327.81
261.477	321.81
261.71	324.81
261.942	329.81
262.175	347.81
262.407	334.81
262.64	344.81
262.872	339.81
263.105	345.81
263.337	346.81
263.57	360.81
263.802	339.81
264.035	340.81
264.267	340.81
264.499	361.81
264.732	377.81
264.964	380.81
265.197	363.81
265.429	356.81
265.661	363.81
265.894	389.81
266.126	378.81
266.358	372.81
266.591	386.81
266.823	383.81
267.055	388.81
267.287	372.81
267.52	367.81
267.752	360.81
267.984	372.81
268.216	385.81
268.448	376.81
268.681	392.81
268.913	390.81
269.145	387.81
269.377	390.81
269.609	395.81
269.841	394.81
270.073	376.81
270.306	401.81
270.538	397.81
270.77	373.81
271.002	379.81
271.234	385.81
271.466	404.81
271.698	407.81
271.93	401.81
272.162	401.81
272.394	395.81
272.626	424.81
272.858	395.81
273.09	420.81
273.322	406.81
273.553	412.81
273.785	409.81
274.017	430.81
274.249	409.81
274.481	410.81
274.713	399.81
274.945	420.81
275.176	426.81
275.408	435.81
275.64	432.81
275.872	414.81
276.104	446.81
276.335	428.81
276.567	436.81
276.799	450.81
277.031	454.81
277.262	421.81
277.494	422.81
277.726	446.81
277.957	465.81
278.189	448.81
278.421	430.81
278.652	439.81
278.884	454.81
279.115	473.81
279.347	473.81
279.579	451.81
279.81	468.81
280.042	460.81
280.273	459.81
280.505	459.81
280.736	478.81
280.968	443.81
281.199	466.81
281.431	486.81
281.662	467.81
281.894	479.81
282.125	467.81
282.356	489.81
282.588	482.81
282.819	489.81
283.051	489.81
283.282	511.81
283.513	505.81
283.745	492.81
283.976	483.81
284.207	475.81
284.439	495.81
284.67	496.81
284.901	497.81
285.132	482.81
285.364	501.81
285.595	506.81
285.826	520.81
286.057	497.81
286.288	500.81
286.52	549.81
286.751	538.81
286.982	501.81
287.213	528.81
287.444	491.81
287.675	520.81
287.906	540.81
288.138	528.81
288.369	538.81
288.6	515.81
288.831	547.81
289.062	535.81
289.293	523.81
289.524	531.81
289.755	529.81
289.986	554.81
290.217	524.81
290.448	549.81
290.679	543.81
290.91	548.81
291.141	552.81
291.371	538.81
291.602	539.81
291.833	538.81
292.064	540.81
292.295	531.81
292.526	534.81
292.757	544.81
292.987	572.81
293.218	562.81
293.449	550.81
293.68	541.81
293.91	555.81
294.141	540.81
294.372	570.81
294.603	552.81
294.833	571.81
295.064	565.81
295.295	567.81
295.525	561.81
295.756	566.81
295.987	561.81
296.217	555.81
296.448	577.81
296.679	564.81
296.909	572.81
297.14	594.81
297.37	588.81
297.601	588.81
297.831	575.81
298.062	601.81
298.292	624.81
298.523	626.81
298.753	618.81
298.984	574.81
299.214	591.81
299.445	610.81
299.675	597.81
299.905	601.81
300.136	602.81
300.366	599.81
300.597	622.81
300.827	625.81
301.057	632.81
301.288	646.81
301.518	627.81
301.748	632.81
301.979	642.81
302.209	639.81
302.439	626.81
302.669	634.81
302.9	614.81
303.13	623.81
303.36	617.81
303.59	592.81
303.82	611.81
304.051	610.81
304.281	620.81
304.511	615.81
304.741	615.81
304.971	611.81
305.201	609.81
305.431	594.81
305.661	607.81
305.891	611.81
306.121	612.81
306.352	613.81
306.582	581.81
306.812	594.81
307.042	583.81
307.272	605.81
307.502	595.81
307.731	586.81
307.961	598.81
308.191	602.81
308.421	577.81
308.651	590.81
308.881	590.81
309.111	604.81
309.341	584.81
309.571	563.81
309.8	579.81
310.03	587.81
310.26	574.81
310.49	590.81
310.72	598.81
310.949	600.81
311.179	606.81
311.409	594.81
311.639	606.81
311.868	610.81
312.098	627.81
312.328	618.81
312.557	618.81
312.787	619.81
313.017	636.81
313.246	627.81
313.476	619.81
313.706	650.81
313.935	638.81
314.165	656.81
314.394	647.81
314.624	662.81
314.853	623.81
315.083	634.81
315.312	636.81
315.542	628.81
315.771	626.81
316.001	618.81
316.23	638.81
316.46	617.81
316.689	617.81
316.919	609.81
317.148	631.81
317.377	617.81
317.607	610.81
317.836	599.81
318.065	598.81
318.295	615.81
318.524	605.81
318.753	623.81
318.983	599.81
319.212	609.81
319.441	626.81
319.67	619.81
319.9	616.81
320.129	619.81
320.358	609.81
320.587	632.81
320.816	626.81
321.046	622.81
321.275	631.81
321.504	646.81
321.733	624.81
321.962	628.81
322.191	635.81
322.42	624.81
322.649	640.81
322.878	610.81
323.108	646.81
323.337	633.81
323.566	630.81
323.795	638.81
324.024	632.81
324.253	644.81
324.482	643.81
324.71	638.81
324.939	652.81
325.168	647.81
325.397	656.81
325.626	658.81
325.855	666.81
326.084	685.81
326.313	679.81
326.542	668.81
326.77	691.81
326.999	675.81
327.228	697.81
327.457	671.81
327.686	671.81
327.914	684.81
328.143	681.81
328.372	676.81
328.6	676.81
328.829	682.81
329.058	690.81
329.287	662.81
329.515	662.81
329.744	664.81
329.972	697.81
330.201	701.81
330.43	686.81
330.658	695.81
330.887	691.81
331.115	695.81
331.344	711.81
331.572	736.81
331.801	734.81
332.03	716.81
332.258	790.81
332.486	811.81
332.715	808.81
332.943	844.81
333.172	882.81
333.4	916.81
333.629	956.81
333.857	982.81
334.085	939.81
334.314	916.81
334.542	873.81
334.771	870.81
334.999	864.81
335.227	868.81
335.455	855.81
335.684	841.81
335.912	839.81
336.14	843.81
336.369	823.81
336.597	816.81
336.825	856.81
337.053	824.81
337.281	836.81
337.51	807.81
337.738	778.81
337.966	793.81
338.194	747.81
338.422	742.81
338.65	729.81
338.878	731.81
339.106	725.81
339.334	762.81
339.562	736.81
339.79	731.81
340.018	698.81
340.246	710.81
340.474	694.81
340.702	694.81
340.93	718.81
341.158	723.81
341.386	694.81
341.614	704.81
341.842	697.81
342.07	684.81
342.298	710.81
342.526	710.81
342.754	686.81
342.981	705.81
343.209	704.81
343.437	759.81
343.665	797.81
343.893	860.81
344.12	892.81
344.348	879.81
344.576	821.81
344.804	772.81
345.031	744.81
345.259	702.81
345.487	707.81
345.714	703.81
345.942	703.81
346.17	688.81
346.397	712.81
346.625	702.81
346.853	683.81
347.08	679.81
347.308	687.81
347.535	707.81
347.763	717.81
347.99	715.81
348.218	702.81
348.445	709.81
348.673	712.81
348.9	691.81
349.128	696.81
349.355	680.81
349.583	681.81
349.81	664.81
350.037	648.81
350.265	660.81
350.492	684.81
350.72	654.81
350.947	652.81
351.174	642.81
351.402	655.81
351.629	658.81
351.856	659.81
352.083	632.81
352.311	660.81
352.538	655.81
352.765	644.81
352.992	662.81
353.22	654.81
353.447	631.81
353.674	636.81
353.901	674.81
354.128	628.81
354.355	630.81
354.583	627.81
354.81	667.81
355.037	658.81
355.264	675.81
355.491	636.81
355.718	667.81
355.945	656.81
356.172	651.81
356.399	666.81
356.626	645.81
356.853	651.81
357.08	649.81
357.307	651.81
357.534	657.81
357.761	660.81
357.988	643.81
358.215	648.81
358.441	658.81
358.668	646.81
358.895	679.81
359.122	692.81
359.349	664.81
359.576	665.81
359.802	676.81
360.029	664.81
360.256	643.81
360.483	629.81
360.709	652.81
360.936	676.81
361.163	672.81
361.39	663.81
361.616	671.81
361.843	658.81
362.07	658.81
362.296	635.81
362.523	630.81
362.749	651.81
362.976	650.81
363.203	668.81
363.429	615.81
363.656	640.81
363.882	649.81
364.109	672.81
364.335	647.81
364.562	622.81
364.788	637.81
365.015	675.81
365.241	628.81
365.468	646.81
365.694	651.81
365.92	661.81
366.147	660.81
366.373	628.81
366.599	662.81
366.826	652.81
367.052	640.81
367.278	659.81
367.505	651.81
367.731	661.81
367.957	684.81
368.184	661.81
368.41	668.81
368.636	676.81
368.862	666.81
369.089	656.81
369.315	682.81
369.541	679.81
369.767	674.81
369.993	684.81
370.219	666.81
370.445	691.81
370.672	691.81
370.898	715.81
371.124	704.81
371.35	711.81
371.576	721.81
371.802	720.81
372.028	715.81
372.254	709.81
372.48	701.81
372.706	723.81
372.932	730.81
373.158	758.81
373.384	748.81
373.61	696.81
373.835	729.81
374.061	705.81
374.287	730.81
374.513	748.81
374.739	763.81
374.965	780.81
375.191	822.81
375.416	820.81
375.642	791.81
375.868	776.81
376.094	745.81
376.319	720.81
376.545	733.81
376.771	729.81
376.997	722.81
377.222	723.81
377.448	710.81
377.674	712.81
377.899	719.81
378.125	699.81
378.35	672.81
378.576	693.81
378.802	716.81
379.027	707.81
379.253	700.81
379.478	693.81
379.704	711.81
379.929	700.81
380.155	695.81
380.38	710.81
380.606	715.81
380.831	727.81
381.057	726.81
381.282	725.81
381.507	731.81
381.733	745.81
381.958	712.81
382.184	727.81
382.409	754.81
382.634	746.81
382.86	746.81
383.085	780.81
383.31	780.81
383.535	801.81
383.761	779.81
383.986	848.81
384.211	818.81
384.436	836.81
384.662	847.81
384.887	848.81
385.112	869.81
385.337	863.81
385.562	875.81
385.787	873.81
386.013	900.81
386.238	858.81
386.463	889.81
386.688	896.81
386.913	858.81
387.138	823.81
387.363	880.81
387.588	858.81
387.813	854.81
388.038	851.81
388.263	849.81
388.488	858.81
388.713	858.81
388.938	859.81
389.163	842.81
389.387	839.81
389.612	828.81
389.837	854.81
390.062	826.81
390.287	856.81
390.512	849.81
390.736	877.81
390.961	861.81
391.186	880.81
391.411	914.81
391.636	926.81
391.86	967.81
392.085	994.81
392.31	982.81
392.534	946.81
392.759	938.81
392.984	935.81
393.208	922.81
393.433	914.81
393.658	946.81
393.882	953.81
394.107	946.81
394.331	959.81
394.556	939.81
394.78	945.81
395.005	907.81
395.229	935.81
395.454	950.81
395.678	1019.81
395.903	983.81
396.127	981.81
396.352	928.81
396.576	930.81
396.801	872.81
397.025	889.81
397.249	920.81
397.474	946.81
397.698	954.81
397.922	960.81
398.147	958.81
398.371	986.81
398.595	1008.81
398.82	1041.81
399.044	1107.81
399.268	1251.81
399.492	1468.81
399.717	1711.81
399.941	1745.81
400.165	1522.81
400.389	1334.81
400.613	1228.81
400.837	1140.81
401.062	1119.81
401.286	1078.81
401.51	1095.81
401.734	1085.81
401.958	1085.81
402.182	1105.81
402.406	1134.81
402.63	1111.81
402.854	1198.81
403.078	1202.81
403.302	1232.81
403.526	1250.81
403.75	1287.81
403.974	1319.81
404.198	1323.81
404.422	1328.81
404.645	1290.81
404.869	1273.81
405.093	1281.81
405.317	1194.81
405.541	1235.81
405.765	1228.81
405.988	1210.81
406.212	1220.81
406.436	1191.81
406.66	1232.81
406.883	1239.81
407.107	1331.81
407.331	1403.81
407.555	1444.81
407.778	1450.81
408.002	1411.81
408.226	1359.81
408.449	1319.81
408.673	1297.81
408.896	1281.81
409.12	1261.81
409.344	1270.81
409.567	1261.81
409.791	1288.81
410.014	1251.81
410.238	1258.81
410.461	1260.81
410.685	1222.81
410.908	1180.81
411.132	1179.81
411.355	1120.81
411.578	1154.81
411.802	1110.81
412.025	1141.81
412.249	1131.81
412.472	1131.81
412.695	1103.81
412.919	1112.81
413.142	1102.81
413.365	1089.81
413.589	1122.81
413.812	1082.81
414.035	1073.81
414.258	1097.81
414.482	1113.81
414.705	1132.81
414.928	1125.81
415.151	1081.81
415.374	1106.81
415.597	1099.81
415.821	1065.81
416.044	1072.81
416.267	1062.81
416.49	1053.81
416.713	1067.81
416.936	1116.81
417.159	1084.81
417.382	1099.81
417.605	1076.81
417.828	1089.81
418.051	1102.81
418.274	1104.81
418.497	1071.81
418.72	1145.81
418.943	1143.81
419.166	1203.81
419.389	1313.81
419.611	1270.81
419.834	1170.81
420.057	1123.81
420.28	1101.81
420.503	1110.81
420.726	1054.81
420.948	1061.81
421.171	1086.81
421.394	1082.81
421.617	1095.81
421.839	1076.81
422.062	1118.81
422.285	1095.81
422.507	1110.81
422.73	1121.81
422.953	1139.81
423.175	1152.81
423.398	1192.81
423.621	1143.81
423.843	1170.81
424.066	1203.81
424.288	1176.81
424.511	1148.81
424.733	1147.81
424.956	1131.81
425.178	1115.81
425.401	1138.81
425.623	1082.81
425.846	1107.81
426.068	1054.81
426.291	1073.81
426.513	1030.81
426.735	1026.81
426.958	1042.81
427.18	997.81
427.402	992.81
427.625	966.81
427.847	975.81
428.069	970.81
428.292	984.81
428.514	929.81
428.736	966.81
428.958	1002.81
429.181	946.81
429.403	926.81
429.625	944.81
429.847	961.81
430.069	951.81
430.292	936.81
430.514	942.81
430.736	950.81
430.958	930.81
431.18	954.81
431.402	974.81
431.624	970.81
431.846	951.81
432.068	994.81
432.29	1004.81
432.512	958.81
432.734	980.81
432.956	956.81
433.178	970.81
433.4	986.81
433.622	955.81
433.844	970.81
434.066	985.81
434.287	989.81
434.509	990.81
434.731	1054.81
434.953	1126.81
435.175	1119.81
435.397	1112.81
435.618	1021.81
435.84	1018.81
436.062	979.81
436.284	957.81
436.505	971.81
436.727	975.81
436.949	981.81
437.17	954.81
437.392	980.81
437.614	948.81
437.835	922.81
438.057	953.81
438.278	931.81
438.5	930.81
438.721	944.81
438.943	931.81
439.165	909.81
439.386	952.81
439.608	979.81
439.829	966.81
440.05	985.81
440.272	989.81
440.493	1000.81
440.715	963.81
440.936	1018.81
441.158	1048.81
441.379	1050.81
441.6	1128.81
441.822	1164.81
442.043	1144.81
442.264	1095.81
442.486	1094.81
442.707	1086.81
442.928	1103.81
443.149	1063.81
443.371	1074.81
443.592	1098.81
443.813	1102.81
444.034	1099.81
444.255	1146.81
444.476	1266.81
444.698	1326.81
444.919	1366.81
445.14	1464.81
445.361	1286.81
445.582	1166.81
445.803	1063.81
446.024	1034.81
446.245	1019.81
446.466	1014.81
446.687	990.81
446.908	995.81
447.129	999.81
447.35	962.81
447.571	958.81
447.792	907.81
448.013	908.81
448.234	908.81
448.455	925.81
448.675	918.81
448.896	902.81
449.117	897.81
449.338	876.81
449.559	894.81
449.779	906.81
450	860.81
450.221	889.81
450.442	904.81
450.662	916.81
450.883	922.81
451.104	961.81
451.324	956.81
451.545	950.81
451.766	933.81
451.986	907.81
452.207	914.81
452.428	930.81
452.648	926.81
452.869	899.81
453.089	861.81
453.31	905.81
453.53	879.81
453.751	878.81
453.971	843.81
454.192	863.81
454.412	850.81
454.633	870.81
454.853	859.81
455.073	865.81
455.294	859.81
455.514	862.81
455.734	844.81
455.955	809.81
456.175	847.81
456.395	838.81
456.616	812.81
456.836	862.81
457.056	850.81
457.276	826.81
457.497	823.81
457.717	839.81
457.937	837.81
458.157	866.81
458.377	879.81
458.598	878.81
458.818	921.81
459.038	922.81
459.258	995.81
459.478	982.81
459.698	1018.81
459.918	1080.81
460.138	1068.81
460.358	1146.81
460.578	1195.81
460.798	1177.81
461.018	1192.81
461.238	1173.81
461.458	1180.81
461.678	1158.81
461.898	1165.81
462.118	1162.81
462.338	1236.81
462.558	1252.81
462.777	1341.81
462.997	1461.81
463.217	1603.81
463.437	1643.81
463.657	1464.81
463.876	1445.81
464.096	1402.81
464.316	1406.81
464.536	1400.81
464.755	1371.81
464.975	1315.81
465.195	1246.81
465.414	1143.81
465.634	1068.81
465.854	1024.81
466.073	1013.81
466.293	982.81
466.512	986.81
466.732	935.81
466.951	992.81
467.171	939.81
467.391	947.81
467.61	946.81
467.829	914.81
468.049	928.81
468.268	902.81
468.488	896.81
468.707	884.81
468.927	920.81
469.146	906.81
469.365	931.81
469.585	919.81
469.804	937.81
470.023	966.81
470.243	970.81
470.462	977.81
470.681	971.81
470.901	993.81
471.12	989.81
471.339	932.81
471.558	939.81
471.777	920.81
471.997	898.81
472.216	905.81
472.435	882.81
472.654	886.81
472.873	866.81
473.092	879.81
473.311	863.81
473.53	871.81
473.749	880.81
473.968	869.81
474.187	846.81
474.406	816.81
474.625	859.81
474.844	866.81
475.063	884.81
475.282	866.81
475.501	882.81
475.72	886.81
475.939	904.81
476.158	893.81
476.377	880.81
476.596	926.81
476.814	916.81
477.033	920.81
477.252	948.81
477.471	908.81
477.69	982.81
477.908	996.81
478.127	1052.81
478.346	1068.81
478.564	1060.81
478.783	1068.81
479.002	1115.81
479.22	1104.81
479.439	1106.81
479.658	1096.81
479.876	1061.81
480.095	1119.81
480.313	1188.81
480.532	1195.81
480.751	1182.81
480.969	1140.81
481.188	1081.81
481.406	1043.81
481.624	1010.81
481.843	1010.81
482.061	977.81
482.28	982.81
482.498	1024.81
482.717	967.81
482.935	976.81
483.153	975.81
483.372	984.81
483.59	982.81
483.808	999.81
484.027	974.81
484.245	1016.81
484.463	986.81
484.681	987.81
484.9	987.81
485.118	1024.81
485.336	1042.81
485.554	1067.81
485.772	1083.81
485.99	1047.81
486.209	1087.81
486.427	1050.81
486.645	1059.81
486.863	1074.81
487.081	1056.81
487.299	1077.81
487.517	1036.81
487.735	1015.81
487.953	1031.81
488.171	1031.81
488.389	1033.81
488.607	1000.81
488.825	1010.81
489.043	1014.81
489.261	1024.81
489.479	1004.81
489.696	1035.81
489.914	1054.81
490.132	1000.81
490.35	1022.81
490.568	1022.81
490.786	1048.81
491.003	1029.81
491.221	1054.81
491.439	1028.81
491.657	1055.81
491.874	1053.81
492.092	1044.81
492.31	1060.81
492.527	1034.81
492.745	1089.81
492.963	1082.81
493.18	1065.81
493.398	1099.81
493.615	1067.81
493.833	1083.81
494.05	1112.81
494.268	1089.81
494.485	1105.81
494.703	1085.81
494.92	1094.81
495.138	1107.81
495.355	1106.81
495.573	1087.81
495.79	1092.81
496.008	1144.81
496.225	1106.81
496.442	1113.81
496.66	1148.81
496.877	1166.81
497.094	1162.81
497.312	1185.81
497.529	1193.81
497.746	1238.81
497.963	1292.81
498.181	1321.81
498.398	1352.81
498.615	1491.81
498.832	1592.81
499.049	1688.81
499.267	1854.81
499.484	2016.81
499.701	2272.81
499.918	2561.81
500.135	2960.81
500.352	3421.81
500.569	3659.81
500.786	3606.81
501.003	3332.81
501.22	2892.81
501.437	2576.81
501.654	2187.81
501.871	1982.81
502.088	1823.81
502.305	1696.81
502.522	1595.81
502.739	1574.81
502.956	1450.81
503.172	1396.81
503.389	1323.81
503.606	1257.81
503.823	1248.81
504.04	1262.81
504.256	1283.81
504.473	1346.81
504.69	1359.81
504.907	1349.81
505.123	1232.81
505.34	1160.81
505.557	1103.81
505.773	1081.81
505.99	1009.81
506.207	1051.81
506.423	996.81
506.64	988.81
506.856	967.81
507.073	965.81
507.289	987.81
507.506	974.81
507.722	968.81
507.939	976.81
508.155	966.81
508.372	930.81
508.588	936.81
508.805	917.81
509.021	916.81
509.238	912.81
509.454	905.81
509.67	890.81
509.887	913.81
510.103	872.81
510.319	877.81
510.536	885.81
510.752	886.81
510.968	897.81
511.184	896.81
511.401	880.81
511.617	889.81
511.833	881.81
512.049	890.81
512.265	881.81
512.481	878.81
512.698	888.81
512.914	882.81
513.13	898.81
513.346	894.81
513.562	908.81
513.778	899.81
513.994	890.81
514.21	914.81
514.426	888.81
514.642	880.81
514.858	899.81
515.074	942.81
515.29	937.81
515.506	942.81
515.721	952.81
515.937	938.81
516.153	964.81
516.369	980.81
516.585	1030.81
516.801	1064.81
517.016	1116.81
517.232	1108.81
517.448	1224.81
517.664	1253.81
517.879	1274.81
518.095	1285.81
518.311	1252.81
518.527	1168.81
518.742	1142.81
518.958	1085.81
519.173	1028.81
519.389	995.81
519.605	968.81
519.82	979.81
520.036	942.81
520.251	938.81
520.467	933.81
520.682	898.81
520.898	907.81
521.113	884.81
521.329	884.81
521.544	908.81
521.76	881.81
521.975	865.81
522.19	838.81
522.406	854.81
522.621	849.81
522.836	835.81
523.052	827.81
523.267	823.81
523.482	835.81
523.698	836.81
523.913	844.81
524.128	832.81
524.343	819.81
524.559	832.81
524.774	833.81
524.989	808.81
525.204	806.81
525.419	808.81
525.634	811.81
525.849	829.81
526.064	815.81
526.28	802.81
526.495	807.81
526.71	798.81
526.925	810.81
527.14	819.81
527.355	801.81
527.57	805.81
527.785	823.81
527.999	824.81
528.214	786.81
528.429	799.81
528.644	798.81
528.859	809.81
529.074	803.81
529.289	812.81
529.503	819.81
529.718	818.81
529.933	814.81
530.148	799.81
530.363	808.81
530.577	791.81
530.792	804.81
531.007	789.81
531.221	820.81
531.436	801.81
531.651	792.81
531.865	818.81
532.08	822.81
532.295	819.81
532.509	794.81
532.724	799.81
532.938	788.81
533.153	800.81
533.367	798.81
533.582	814.81
533.796	782.81
534.011	786.81
534.225	810.81
534.44	780.81
534.654	792.81
534.868	804.81
535.083	808.81
535.297	800.81
535.511	785.81
535.726	778.81
535.94	806.81
536.154	767.81
536.369	738.81
536.583	764.81
536.797	754.81
537.011	753.81
537.225	751.81
537.44	750.81
537.654	761.81
537.868	743.81
538.082	728.81
538.296	739.81
538.51	734.81
538.724	716.81
538.938	717.81
539.153	743.81
539.367	736.81
539.581	741.81
539.795	711.81
540.009	729.81
540.222	733.81
540.436	721.81
540.65	713.81
540.864	710.81
541.078	729.81
541.292	747.81
541.506	702.81
541.72	729.81
541.934	713.81
542.147	707.81
542.361	728.81
542.575	731.81
542.789	707.81
543.002	704.81
543.216	717.81
543.43	694.81
543.644	722.81
543.857	711.81
544.071	722.81
544.285	709.81
544.498	720.81
544.712	716.81
544.925	716.81
545.139	754.81
545.352	740.81
545.566	734.81
545.779	758.81
545.993	748.81
546.206	755.81
546.42	750.81
546.633	752.81
546.847	744.81
547.06	750.81
547.274	720.81
547.487	712.81
547.7	747.81
547.914	756.81
548.127	741.81
548.34	727.81
548.554	704.81
548.767	731.81
548.98	756.81
549.193	745.81
549.407	741.81
549.62	739.81
549.833	784.81
550.046	772.81
550.259	755.81
550.473	749.81
550.686	726.81
550.899	729.81
551.112	727.81
551.325	716.81
551.538	723.81
551.751	704.81
551.964	721.81
552.177	717.81
552.39	725.81
552.603	770.81
552.816	796.81
553.029	766.81
553.242	838.81
553.455	830.81
553.667	825.81
553.88	832.81
554.093	819.81
554.306	776.81
554.519	762.81
554.732	785.81
554.944	741.81
555.157	705.81
555.37	709.81
555.583	678.81
555.795	676.81
556.008	670.81
556.221	664.81
556.433	667.81
556.646	666.81
556.859	650.81
557.071	634.81
557.284	634.81
557.496	608.81
557.709	643.81
557.921	648.81
558.134	629.81
558.346	623.81
558.559	639.81
558.771	607.81
558.984	607.81
559.196	614.81
559.409	636.81
559.621	632.81
559.833	608.81
560.046	620.81
560.258	619.81
560.47	590.81
560.683	610.81
560.895	603.81
561.107	624.81
561.32	609.81
561.532	608.81
561.744	609.81
561.956	615.81
562.168	596.81
562.381	639.81
562.593	592.81
562.805	625.81
563.017	600.81
563.229	622.81
563.441	609.81
563.653	638.81
563.865	640.81
564.077	636.81
564.289	607.81
564.501	646.81
564.713	645.81
564.925	649.81
565.137	672.81
565.349	661.81
565.561	712.81
565.773	712.81
565.985	760.81
566.197	801.81
566.408	874.81
566.62	950.81
566.832	1044.81
567.044	1078.81
567.255	1070.81
567.467	1069.81
567.679	1146.81
567.891	1245.81
568.102	1280.81
568.314	1200.81
568.526	1079.81
568.737	977.81
568.949	866.81
569.161	814.81
569.372	737.81
569.584	706.81
569.795	658.81
570.007	675.81
570.218	620.81
570.43	659.81
570.641	630.81
570.853	648.81
571.064	655.81
571.276	648.81
571.487	635.81
571.698	602.81
571.91	578.81
572.121	571.81
572.333	562.81
572.544	565.81
572.755	552.81
572.966	540.81
573.178	514.81
573.389	533.81
573.6	500.81
573.811	530.81
574.023	519.81
574.234	514.81
574.445	519.81
574.656	528.81
574.867	516.81
575.078	508.81
575.289	505.81
575.501	508.81
575.712	515.81
575.923	468.81
576.134	462.81
576.345	487.81
576.556	494.81
576.767	480.81
576.978	512.81
577.188	492.81
577.399	474.81
577.61	468.81
577.821	457.81
578.032	431.81
578.243	458.81
578.454	458.81
578.665	450.81
578.875	451.81
579.086	453.81
579.297	455.81
579.508	458.81
579.718	458.81
579.929	440.81
580.14	430.81
580.35	447.81
580.561	446.81
580.772	435.81
580.982	446.81
581.193	432.81
581.403	437.81
581.614	445.81
581.825	432.81
582.035	446.81
582.246	428.81
582.456	443.81
582.667	429.81
582.877	427.81
583.087	434.81
583.298	424.81
583.508	408.81
583.719	432.81
583.929	434.81
584.139	401.81
584.35	412.81
584.56	421.81
584.77	416.81
584.981	422.81
585.191	435.81
585.401	417.81
585.611	415.81
585.821	417.81
586.032	408.81
586.242	415.81
586.452	419.81
586.662	411.81
586.872	408.81
587.082	401.81
587.292	416.81
587.502	402.81
587.713	400.81
587.923	432.81
588.133	404.81
588.343	417.81
588.553	416.81
588.762	405.81
588.972	402.81
589.182	416.81
589.392	431.81
589.602	413.81
589.812	402.81
590.022	434.81
590.232	409.81
590.441	409.81
590.651	418.81
590.861	393.81
591.071	418.81
591.281	426.81
591.49	426.81
591.7	432.81
591.91	454.81
592.119	449.81
592.329	483.81
592.539	487.81
592.748	478.81
592.958	512.81
593.167	516.81
593.377	526.81
593.587	544.81
593.796	544.81
594.006	528.81
594.215	566.81
594.424	563.81
594.634	536.81
594.843	519.81
595.053	498.81
595.262	478.81
595.472	457.81
595.681	450.81
595.89	451.81
596.1	431.81
596.309	410.81
596.518	390.81
596.727	401.81
596.937	388.81
597.146	380.81
597.355	382.81
597.564	366.81
597.774	356.81
597.983	370.81
598.192	363.81
598.401	350.81
598.61	366.81
598.819	343.81
599.028	355.81
599.237	371.81
599.446	362.81
599.655	324.81
599.864	347.81
600.073	355.81
600.282	339.81
600.491	337.81
600.7	352.81
600.909	343.81
601.118	347.81
601.327	339.81
601.536	343.81
601.745	346.81
601.953	347.81
602.162	350.81
602.371	342.81
602.58	335.81
602.789	329.81
602.997	325.81
603.206	331.81
603.415	347.81
603.623	336.81
603.832	358.81
604.041	334.81
604.249	325.81
604.458	327.81
604.666	326.81
604.875	325.81
605.084	342.81
605.292	324.81
605.501	338.81
605.709	322.81
605.918	323.81
606.126	313.81
606.334	309.81
606.543	312.81
606.751	325.81
606.96	330.81
607.168	331.81
607.376	311.81
607.585	312.81
607.793	307.81
608.001	309.81
608.21	304.81
608.418	314.81
608.626	319.81
608.834	320.81
609.043	320.81
609.251	311.81
609.459	302.81
609.667	296.81
609.875	308.81
610.083	316.81
610.291	303.81
610.499	300.81
610.707	304.81
610.916	302.81
611.124	303.81
611.332	308.81
611.54	307.81
611.748	315.81
611.955	310.81
612.163	287.81
612.371	291.81
612.579	323.81
612.787	304.81
612.995	300.81
613.203	285.81
613.411	293.81
613.618	300.81
613.826	302.81
614.034	302.81
614.242	300.81
614.449	293.81
614.657	315.81
614.865	292.81
615.072	300.81
615.28	290.81
615.488	299.81
615.695	294.81
615.903	300.81
616.111	286.81
616.318	305.81
616.526	305.81
616.733	300.81
616.941	288.81
617.148	310.81
617.356	309.81
617.563	301.81
617.771	317.81
617.978	291.81
618.185	309.81
618.393	304.81
618.6	305.81
618.807	316.81
619.015	307.81
619.222	298.81
619.429	288.81
619.637	307.81
619.844	285.81
620.051	296.81
620.258	288.81
620.466	278.81
620.673	276.81
620.88	277.81
621.087	282.81
621.294	274.81
621.501	270.81
621.708	287.81
621.915	276.81
622.122	281.81
622.329	264.81
622.536	266.81
622.743	279.81
622.95	277.81
623.157	269.81
623.364	277.81
623.571	249.81
623.778	258.81
623.985	262.81
624.192	257.81
624.399	252.81
624.606	275.81
624.812	278.81
625.019	276.81
625.226	269.81
625.433	260.81
625.639	242.81
625.846	251.81
626.053	254.81
626.259	266.81
626.466	251.81
626.673	260.81
626.879	273.81
627.086	240.81
627.293	261.81
627.499	244.81
627.706	255.81
627.912	249.81
628.119	254.81
628.325	257.81
628.532	243.81
628.738	240.81
628.945	244.81
629.151	233.81
629.357	226.81
629.564	236.81
629.77	240.81
629.976	232.81
630.183	252.81
630.389	239.81
630.595	229.81
630.802	246.81
631.008	228.81
631.214	208.81
631.42	234.81
631.627	231.81
631.833	218.81
632.039	238.81
632.245	214.81
632.451	228.81
632.657	235.81
632.863	234.81
633.069	220.81
633.275	210.81
633.481	201.81
633.688	219.81
633.893	224.81
634.099	235.81
634.305	231.81
634.511	211.81
634.717	208.81
634.923	223.81
635.129	218.81
635.335	210.81
635.541	227.81
635.747	240.81
635.952	222.81
636.158	223.81
636.364	219.81
636.57	213.81
636.775	200.81
636.981	206.81
637.187	211.81
637.392	209.81
637.598	217.81
637.804	208.81
638.009	231.81
638.215	204.81
638.421	198.81
638.626	209.81
638.832	207.81
639.037	217.81
639.243	192.81
639.448	214.81
639.654	227.81
639.859	215.81
640.065	195.81
640.27	204.81
640.475	195.81
640.681	182.81
640.886	194.81
641.091	195.81
641.297	196.81
641.502	189.81
641.707	190.81
641.913	193.81
642.118	192.81
642.323	192.81
642.528	192.81
642.733	198.81
642.939	201.81
643.144	190.81
643.349	192.81
643.554	189.81
643.759	200.81
643.964	206.81
644.169	190.81
644.374	187.81
644.579	190.81
644.784	193.81
644.989	188.81
645.194	184.81
645.399	200.81
645.604	190.81
645.809	178.81
646.014	192.81
646.219	192.81
646.423	201.81
646.628	176.81
646.833	198.81
647.038	196.81
647.243	199.81
647.447	188.81
647.652	180.81
647.857	205.81
648.062	194.81
648.266	192.81
648.471	207.81
648.676	203.81
648.88	192.81
649.085	201.81
649.289	186.81
649.494	199.81
649.698	202.81
649.903	180.81
650.107	190.81
650.312	183.81
650.516	174.81
650.721	189.81
650.925	155.81
651.13	178.81
651.334	162.81
651.539	168.81
651.743	143.81
651.947	165.81
652.152	167.81
652.356	166.81
652.56	160.81
652.764	142.81
652.969	148.81
653.173	157.81
653.377	144.81
653.581	142.81
653.785	152.81
653.99	136.81
654.194	135.81
654.398	146.81
654.602	136.81
654.806	129.81
655.01	147.81
655.214	142.81
655.418	150.81
655.622	131.81
655.826	132.81
656.03	138.81
656.234	125.81
656.438	122.81
656.642	120.81
656.846	108.81
657.049	131.81
657.253	112.81
657.457	125.81
657.661	119.81
657.865	110.81
658.068	117.81
658.272	104.81
658.476	113.81
658.68	104.81
658.883	102.81
659.087	115.81
659.291	106.81
659.494	104.81
659.698	96.81
659.901	94.81
660.105	90.81
660.309	96.81
660.512	91.81
660.716	87.81
660.919	91.81
661.123	90.81
661.326	94.81
661.53	88.81
661.733	90.81
661.936	78.81
662.14	96.81
662.343	72.81
662.546	85.81
662.75	87.81
662.953	95.81
663.156	67.81
663.36	103.81
663.563	76.81
663.766	80.81
663.969	64.81
664.173	79.81
664.376	80.81
664.579	82.81
664.782	84.81
664.985	84.81
665.188	84.81
665.391	82.81
665.594	66.81
665.797	70.81
666	89.81
666.203	83.81
666.406	89.81
666.609	82.81
666.812	90.81
667.015	87.81
667.218	75.81
667.421	86.81
667.624	74.81
667.827	85.81
668.03	80.81
668.232	68.81
668.435	71.81
668.638	81.81
668.841	84.81
669.043	78.81
669.246	73.81
669.449	71.81
669.651	85.81
669.854	88.81
670.057	79.81
670.259	79.81
670.462	72.81
670.665	81.81
670.867	76.81
671.07	82.81
671.272	73.81
671.475	65.81
671.677	83.81
671.88	85.81
672.082	88.81
672.284	79.81
672.487	67.81
672.689	81.81
672.892	70.81
