Data from NiCl2@0.125M.TitratingCurve.Agarose3%dH2O.NegLispCup.LampEnergy10.LIBS07252019_HRD10591_18-27-56-574.txt Node
Date: Thu Jul 25 18:27:56 EDT 2019
User: cochatt
Spectrometer: HR+D1059
Trigger mode: 1
Integration Time (sec): 1.000000E-1
Scans to average: 1
Electric dark correction enabled: true
Nonlinearity correction enabled: false
Boxcar width: 0
XAxis mode: Wavelengths
Number of Pixels in Spectrum: 2048
>>>>>Begin Spectral Data<<<<<
223.165	-33.12
223.4	-33.12
223.635	-33.12
223.869	-6.12
224.104	-14.12
224.338	-7.12
224.573	-11.12
224.808	-12.12
225.042	-9.12
225.277	-10.12
225.511	-6.12
225.746	0.88
225.98	1.88
226.215	7.88
226.449	23.88
226.683	13.88
226.918	33.88
227.152	26.88
227.387	48.88
227.621	36.88
227.856	42.88
228.09	52.88
228.324	55.88
228.559	54.88
228.793	75.88
229.027	116.88
229.262	121.88
229.496	128.88
229.73	119.88
229.964	133.88
230.199	133.88
230.433	139.88
230.667	140.88
230.901	136.88
231.136	143.88
231.37	138.88
231.604	149.88
231.838	148.88
232.072	161.88
232.306	146.88
232.541	172.88
232.775	162.88
233.009	155.88
233.243	164.88
233.477	168.88
233.711	174.88
233.945	159.88
234.179	149.88
234.413	162.88
234.647	166.88
234.881	160.88
235.115	163.88
235.349	154.88
235.583	177.88
235.817	163.88
236.051	163.88
236.285	168.88
236.519	173.88
236.753	164.88
236.987	182.88
237.221	169.88
237.455	164.88
237.689	165.88
237.922	188.88
238.156	177.88
238.39	181.88
238.624	180.88
238.858	207.88
239.091	183.88
239.325	200.88
239.559	188.88
239.793	192.88
240.027	185.88
240.26	210.88
240.494	185.88
240.728	186.88
240.961	187.88
241.195	195.88
241.429	202.88
241.662	207.88
241.896	198.88
242.13	211.88
242.363	194.88
242.597	226.88
242.83	217.88
243.064	203.88
243.298	235.88
243.531	208.88
243.765	224.88
243.998	213.88
244.232	255.88
244.465	223.88
244.699	219.88
244.932	225.88
245.166	224.88
245.399	232.88
245.633	235.88
245.866	246.88
246.099	242.88
246.333	242.88
246.566	238.88
246.8	239.88
247.033	235.88
247.266	241.88
247.5	245.88
247.733	255.88
247.966	260.88
248.2	246.88
248.433	265.88
248.666	266.88
248.899	265.88
249.133	260.88
249.366	271.88
249.599	258.88
249.832	257.88
250.066	263.88
250.299	268.88
250.532	276.88
250.765	279.88
250.998	273.88
251.231	299.88
251.465	294.88
251.698	293.88
251.931	280.88
252.164	290.88
252.397	300.88
252.63	297.88
252.863	274.88
253.096	283.88
253.329	309.88
253.562	296.88
253.795	286.88
254.028	307.88
254.261	319.88
254.494	321.88
254.727	299.88
254.96	316.88
255.193	306.88
255.426	311.88
255.659	313.88
255.892	338.88
256.124	299.88
256.357	318.88
256.59	325.88
256.823	314.88
257.056	336.88
257.289	317.88
257.521	330.88
257.754	319.88
257.987	316.88
258.22	312.88
258.452	320.88
258.685	329.88
258.918	341.88
259.151	341.88
259.383	311.88
259.616	348.88
259.849	347.88
260.081	360.88
260.314	363.88
260.547	350.88
260.779	354.88
261.012	364.88
261.244	354.88
261.477	346.88
261.71	365.88
261.942	361.88
262.175	361.88
262.407	346.88
262.64	371.88
262.872	359.88
263.105	352.88
263.337	375.88
263.57	380.88
263.802	363.88
264.035	391.88
264.267	383.88
264.499	369.88
264.732	370.88
264.964	372.88
265.197	391.88
265.429	385.88
265.661	359.88
265.894	369.88
266.126	376.88
266.358	383.88
266.591	385.88
266.823	407.88
267.055	417.88
267.287	389.88
267.52	390.88
267.752	389.88
267.984	415.88
268.216	411.88
268.448	410.88
268.681	411.88
268.913	399.88
269.145	400.88
269.377	424.88
269.609	409.88
269.841	404.88
270.073	413.88
270.306	440.88
270.538	395.88
270.77	421.88
271.002	424.88
271.234	413.88
271.466	419.88
271.698	418.88
271.93	404.88
272.162	429.88
272.394	426.88
272.626	404.88
272.858	415.88
273.09	425.88
273.322	448.88
273.553	447.88
273.785	424.88
274.017	444.88
274.249	444.88
274.481	443.88
274.713	444.88
274.945	472.88
275.176	448.88
275.408	462.88
275.64	483.88
275.872	469.88
276.104	472.88
276.335	427.88
276.567	445.88
276.799	477.88
277.031	485.88
277.262	466.88
277.494	468.88
277.726	461.88
277.957	477.88
278.189	468.88
278.421	473.88
278.652	467.88
278.884	458.88
279.115	493.88
279.347	474.88
279.579	508.88
279.81	495.88
280.042	490.88
280.273	512.88
280.505	482.88
280.736	485.88
280.968	502.88
281.199	523.88
281.431	508.88
281.662	522.88
281.894	480.88
282.125	498.88
282.356	529.88
282.588	493.88
282.819	501.88
283.051	511.88
283.282	515.88
283.513	529.88
283.745	517.88
283.976	537.88
284.207	526.88
284.439	537.88
284.67	529.88
284.901	526.88
285.132	523.88
285.364	525.88
285.595	525.88
285.826	549.88
286.057	560.88
286.288	550.88
286.52	553.88
286.751	565.88
286.982	560.88
287.213	565.88
287.444	548.88
287.675	559.88
287.906	589.88
288.138	550.88
288.369	546.88
288.6	554.88
288.831	562.88
289.062	589.88
289.293	571.88
289.524	577.88
289.755	556.88
289.986	581.88
290.217	564.88
290.448	559.88
290.679	573.88
290.91	562.88
291.141	579.88
291.371	604.88
291.602	579.88
291.833	571.88
292.064	606.88
292.295	578.88
292.526	592.88
292.757	588.88
292.987	559.88
293.218	583.88
293.449	609.88
293.68	598.88
293.91	600.88
294.141	583.88
294.372	575.88
294.603	568.88
294.833	598.88
295.064	607.88
295.295	607.88
295.525	601.88
295.756	617.88
295.987	611.88
296.217	613.88
296.448	600.88
296.679	607.88
296.909	608.88
297.14	607.88
297.37	646.88
297.601	629.88
297.831	619.88
298.062	633.88
298.292	642.88
298.523	659.88
298.753	639.88
298.984	657.88
299.214	628.88
299.445	615.88
299.675	620.88
299.905	631.88
300.136	639.88
300.366	621.88
300.597	645.88
300.827	633.88
301.057	675.88
301.288	663.88
301.518	656.88
301.748	671.88
301.979	673.88
302.209	677.88
302.439	641.88
302.669	677.88
302.9	667.88
303.13	653.88
303.36	657.88
303.59	656.88
303.82	639.88
304.051	653.88
304.281	673.88
304.511	634.88
304.741	645.88
304.971	637.88
305.201	631.88
305.431	636.88
305.661	664.88
305.891	654.88
306.121	640.88
306.352	649.88
306.582	664.88
306.812	626.88
307.042	643.88
307.272	636.88
307.502	658.88
307.731	646.88
307.961	653.88
308.191	635.88
308.421	628.88
308.651	651.88
308.881	651.88
309.111	648.88
309.341	641.88
309.571	639.88
309.8	643.88
310.03	664.88
310.26	646.88
310.49	643.88
310.72	649.88
310.949	650.88
311.179	661.88
311.409	661.88
311.639	659.88
311.868	665.88
312.098	672.88
312.328	673.88
312.557	695.88
312.787	681.88
313.017	662.88
313.246	689.88
313.476	687.88
313.706	692.88
313.935	698.88
314.165	693.88
314.394	692.88
314.624	685.88
314.853	669.88
315.083	674.88
315.312	700.88
315.542	698.88
315.771	707.88
316.001	703.88
316.23	704.88
316.46	681.88
316.689	674.88
316.919	683.88
317.148	679.88
317.377	691.88
317.607	696.88
317.836	684.88
318.065	681.88
318.295	671.88
318.524	680.88
318.753	689.88
318.983	670.88
319.212	663.88
319.441	688.88
319.67	673.88
319.9	675.88
320.129	671.88
320.358	675.88
320.587	662.88
320.816	675.88
321.046	691.88
321.275	685.88
321.504	704.88
321.733	696.88
321.962	691.88
322.191	687.88
322.42	694.88
322.649	698.88
322.878	693.88
323.108	669.88
323.337	710.88
323.566	693.88
323.795	676.88
324.024	691.88
324.253	723.88
324.482	696.88
324.71	695.88
324.939	716.88
325.168	723.88
325.397	723.88
325.626	713.88
325.855	722.88
326.084	748.88
326.313	736.88
326.542	760.88
326.77	761.88
326.999	750.88
327.228	723.88
327.457	722.88
327.686	720.88
327.914	739.88
328.143	731.88
328.372	740.88
328.6	751.88
328.829	754.88
329.058	779.88
329.287	753.88
329.515	759.88
329.744	763.88
329.972	732.88
330.201	771.88
330.43	740.88
330.658	774.88
330.887	741.88
331.115	787.88
331.344	803.88
331.572	788.88
331.801	810.88
332.03	825.88
332.258	860.88
332.486	853.88
332.715	909.88
332.943	935.88
333.172	957.88
333.4	1012.88
333.629	1040.88
333.857	1009.88
334.085	1011.88
334.314	972.88
334.542	985.88
334.771	976.88
334.999	945.88
335.227	954.88
335.455	948.88
335.684	955.88
335.912	932.88
336.14	907.88
336.369	897.88
336.597	929.88
336.825	935.88
337.053	898.88
337.281	885.88
337.51	861.88
337.738	865.88
337.966	861.88
338.194	828.88
338.422	836.88
338.65	829.88
338.878	832.88
339.106	816.88
339.334	808.88
339.562	797.88
339.79	795.88
340.018	771.88
340.246	801.88
340.474	792.88
340.702	794.88
340.93	780.88
341.158	811.88
341.386	766.88
341.614	790.88
341.842	769.88
342.07	767.88
342.298	756.88
342.526	779.88
342.754	761.88
342.981	803.88
343.209	791.88
343.437	854.88
343.665	855.88
343.893	956.88
344.12	996.88
344.348	972.88
344.576	881.88
344.804	843.88
345.031	806.88
345.259	807.88
345.487	812.88
345.714	781.88
345.942	776.88
346.17	765.88
346.397	773.88
346.625	765.88
346.853	752.88
347.08	730.88
347.308	741.88
347.535	739.88
347.763	780.88
347.99	747.88
348.218	729.88
348.445	751.88
348.673	741.88
348.9	745.88
349.128	738.88
349.355	744.88
349.583	759.88
349.81	723.88
350.037	722.88
350.265	731.88
350.492	735.88
350.72	720.88
350.947	706.88
351.174	701.88
351.402	735.88
351.629	723.88
351.856	691.88
352.083	733.88
352.311	709.88
352.538	711.88
352.765	712.88
352.992	735.88
353.22	726.88
353.447	716.88
353.674	732.88
353.901	728.88
354.128	708.88
354.355	709.88
354.583	737.88
354.81	736.88
355.037	724.88
355.264	733.88
355.491	735.88
355.718	744.88
355.945	718.88
356.172	727.88
356.399	744.88
356.626	715.88
356.853	728.88
357.08	727.88
357.307	712.88
357.534	739.88
357.761	755.88
357.988	735.88
358.215	742.88
358.441	724.88
358.668	731.88
358.895	710.88
359.122	723.88
359.349	745.88
359.576	731.88
359.802	715.88
360.029	715.88
360.256	753.88
360.483	740.88
360.709	724.88
360.936	717.88
361.163	717.88
361.39	733.88
361.616	717.88
361.843	731.88
362.07	740.88
362.296	734.88
362.523	713.88
362.749	752.88
362.976	733.88
363.203	731.88
363.429	703.88
363.656	725.88
363.882	730.88
364.109	719.88
364.335	721.88
364.562	715.88
364.788	747.88
365.015	736.88
365.241	712.88
365.468	692.88
365.694	723.88
365.92	728.88
366.147	704.88
366.373	727.88
366.599	728.88
366.826	737.88
367.052	717.88
367.278	738.88
367.505	715.88
367.731	739.88
367.957	739.88
368.184	759.88
368.41	753.88
368.636	739.88
368.862	743.88
369.089	727.88
369.315	749.88
369.541	743.88
369.767	730.88
369.993	742.88
370.219	752.88
370.445	789.88
370.672	789.88
370.898	760.88
371.124	780.88
371.35	793.88
371.576	825.88
371.802	825.88
372.028	788.88
372.254	779.88
372.48	807.88
372.706	826.88
372.932	825.88
373.158	826.88
373.384	802.88
373.61	792.88
373.835	809.88
374.061	807.88
374.287	793.88
374.513	838.88
374.739	829.88
374.965	850.88
375.191	884.88
375.416	886.88
375.642	832.88
375.868	858.88
376.094	829.88
376.319	817.88
376.545	824.88
376.771	826.88
376.997	818.88
377.222	800.88
377.448	793.88
377.674	805.88
377.899	770.88
378.125	787.88
378.35	751.88
378.576	744.88
378.802	777.88
379.027	802.88
379.253	794.88
379.478	775.88
379.704	790.88
379.929	787.88
380.155	812.88
380.38	782.88
380.606	763.88
380.831	790.88
381.057	803.88
381.282	769.88
381.507	813.88
381.733	819.88
381.958	781.88
382.184	813.88
382.409	825.88
382.634	815.88
382.86	823.88
383.085	823.88
383.31	859.88
383.535	868.88
383.761	849.88
383.986	875.88
384.211	902.88
384.436	921.88
384.662	923.88
384.887	959.88
385.112	954.88
385.337	966.88
385.562	975.88
385.787	956.88
386.013	953.88
386.238	966.88
386.463	963.88
386.688	978.88
386.913	946.88
387.138	947.88
387.363	943.88
387.588	931.88
387.813	948.88
388.038	925.88
388.263	932.88
388.488	967.88
388.713	973.88
388.938	944.88
389.163	935.88
389.387	942.88
389.612	953.88
389.837	935.88
390.062	907.88
390.287	919.88
390.512	953.88
390.736	943.88
390.961	971.88
391.186	993.88
391.411	998.88
391.636	1010.88
391.86	1074.88
392.085	1125.88
392.31	1089.88
392.534	1061.88
392.759	1035.88
392.984	1041.88
393.208	1013.88
393.433	1027.88
393.658	1014.88
393.882	1028.88
394.107	995.88
394.331	1029.88
394.556	1028.88
394.78	1029.88
395.005	1064.88
395.229	1035.88
395.454	1063.88
395.678	1069.88
395.903	1082.88
396.127	1047.88
396.352	1025.88
396.576	1016.88
396.801	1021.88
397.025	1026.88
397.249	1062.88
397.474	1072.88
397.698	1064.88
397.922	1091.88
398.147	1056.88
398.371	1108.88
398.595	1135.88
398.82	1185.88
399.044	1253.88
399.268	1409.88
399.492	1649.88
399.717	1852.88
399.941	1839.88
400.165	1643.88
400.389	1452.88
400.613	1342.88
400.837	1303.88
401.062	1230.88
401.286	1199.88
401.51	1182.88
401.734	1223.88
401.958	1218.88
402.182	1207.88
402.406	1243.88
402.63	1281.88
402.854	1295.88
403.078	1289.88
403.302	1357.88
403.526	1389.88
403.75	1392.88
403.974	1439.88
404.198	1427.88
404.422	1434.88
404.645	1416.88
404.869	1384.88
405.093	1375.88
405.317	1367.88
405.541	1313.88
405.765	1302.88
405.988	1315.88
406.212	1338.88
406.436	1311.88
406.66	1348.88
406.883	1401.88
407.107	1483.88
407.331	1531.88
407.555	1601.88
407.778	1562.88
408.002	1524.88
408.226	1501.88
408.449	1449.88
408.673	1365.88
408.896	1387.88
409.12	1385.88
409.344	1386.88
409.567	1370.88
409.791	1397.88
410.014	1371.88
410.238	1383.88
410.461	1370.88
410.685	1357.88
410.908	1322.88
411.132	1317.88
411.355	1268.88
411.578	1268.88
411.802	1284.88
412.025	1243.88
412.249	1271.88
412.472	1260.88
412.695	1221.88
412.919	1229.88
413.142	1216.88
413.365	1212.88
413.589	1196.88
413.812	1201.88
414.035	1205.88
414.258	1209.88
414.482	1203.88
414.705	1235.88
414.928	1216.88
415.151	1219.88
415.374	1199.88
415.597	1197.88
415.821	1183.88
416.044	1186.88
416.267	1169.88
416.49	1179.88
416.713	1171.88
416.936	1205.88
417.159	1184.88
417.382	1175.88
417.605	1168.88
417.828	1210.88
418.051	1225.88
418.274	1203.88
418.497	1193.88
418.72	1276.88
418.943	1224.88
419.166	1300.88
419.389	1421.88
419.611	1370.88
419.834	1297.88
420.057	1286.88
420.28	1205.88
420.503	1203.88
420.726	1187.88
420.948	1188.88
421.171	1172.88
421.394	1194.88
421.617	1172.88
421.839	1171.88
422.062	1221.88
422.285	1195.88
422.507	1235.88
422.73	1225.88
422.953	1252.88
423.175	1261.88
423.398	1270.88
423.621	1315.88
423.843	1287.88
424.066	1313.88
424.288	1290.88
424.511	1249.88
424.733	1283.88
424.956	1244.88
425.178	1251.88
425.401	1237.88
425.623	1212.88
425.846	1176.88
426.068	1170.88
426.291	1116.88
426.513	1144.88
426.735	1119.88
426.958	1135.88
427.18	1083.88
427.402	1073.88
427.625	1087.88
427.847	1096.88
428.069	1075.88
428.292	1071.88
428.514	1034.88
428.736	1081.88
428.958	1087.88
429.181	1009.88
429.403	1024.88
429.625	1033.88
429.847	1021.88
430.069	1031.88
430.292	1032.88
430.514	1025.88
430.736	1029.88
430.958	1050.88
431.18	1029.88
431.402	1033.88
431.624	1040.88
431.846	1059.88
432.068	1097.88
432.29	1068.88
432.512	1087.88
432.734	1101.88
432.956	1060.88
433.178	1063.88
433.4	1084.88
433.622	1096.88
433.844	1113.88
434.066	1089.88
434.287	1067.88
434.509	1152.88
434.731	1186.88
434.953	1188.88
435.175	1218.88
435.397	1179.88
435.618	1149.88
435.84	1111.88
436.062	1076.88
436.284	1058.88
436.505	1037.88
436.727	1068.88
436.949	1064.88
437.17	1044.88
437.392	1038.88
437.614	1078.88
437.835	1034.88
438.057	1017.88
438.278	1020.88
438.5	996.88
438.721	997.88
438.943	1029.88
439.165	1024.88
439.386	1033.88
439.608	1059.88
439.829	1085.88
440.05	1089.88
440.272	1082.88
440.493	1049.88
440.715	1092.88
440.936	1113.88
441.158	1107.88
441.379	1168.88
441.6	1201.88
441.822	1207.88
442.043	1206.88
442.264	1175.88
442.486	1137.88
442.707	1165.88
442.928	1215.88
443.149	1184.88
443.371	1181.88
443.592	1195.88
443.813	1212.88
444.034	1207.88
444.255	1228.88
444.476	1299.88
444.698	1403.88
444.919	1467.88
445.14	1514.88
445.361	1350.88
445.582	1272.88
445.803	1173.88
446.024	1139.88
446.245	1108.88
446.466	1105.88
446.687	1091.88
446.908	1089.88
447.129	1052.88
447.35	1038.88
447.571	1050.88
447.792	1008.88
448.013	1023.88
448.234	1004.88
448.455	996.88
448.675	977.88
448.896	972.88
449.117	969.88
449.338	978.88
449.559	977.88
449.779	951.88
450	957.88
450.221	959.88
450.442	960.88
450.662	975.88
450.883	995.88
451.104	1009.88
451.324	990.88
451.545	977.88
451.766	1013.88
451.986	985.88
452.207	993.88
452.428	957.88
452.648	966.88
452.869	988.88
453.089	958.88
453.31	964.88
453.53	934.88
453.751	940.88
453.971	924.88
454.192	953.88
454.412	913.88
454.633	918.88
454.853	909.88
455.073	912.88
455.294	917.88
455.514	907.88
455.734	910.88
455.955	888.88
456.175	894.88
456.395	904.88
456.616	894.88
456.836	888.88
457.056	885.88
457.276	874.88
457.497	895.88
457.717	873.88
457.937	901.88
458.157	939.88
458.377	918.88
458.598	950.88
458.818	982.88
459.038	998.88
459.258	1033.88
459.478	1068.88
459.698	1099.88
459.918	1109.88
460.138	1175.88
460.358	1251.88
460.578	1236.88
460.798	1241.88
461.018	1235.88
461.238	1263.88
461.458	1231.88
461.678	1233.88
461.898	1265.88
462.118	1251.88
462.338	1367.88
462.558	1385.88
462.777	1427.88
462.997	1567.88
463.217	1668.88
463.437	1709.88
463.657	1558.88
463.876	1487.88
464.096	1478.88
464.316	1461.88
464.536	1474.88
464.755	1431.88
464.975	1371.88
465.195	1307.88
465.414	1205.88
465.634	1144.88
465.854	1110.88
466.073	1064.88
466.293	1062.88
466.512	1047.88
466.732	1020.88
466.951	1016.88
467.171	1006.88
467.391	1008.88
467.61	985.88
467.829	1021.88
468.049	1008.88
468.268	994.88
468.488	947.88
468.707	963.88
468.927	981.88
469.146	983.88
469.365	968.88
469.585	972.88
469.804	1029.88
470.023	1029.88
470.243	1072.88
470.462	1062.88
470.681	1051.88
470.901	1055.88
471.12	1047.88
471.339	1035.88
471.558	1008.88
471.777	991.88
471.997	980.88
472.216	975.88
472.435	948.88
472.654	996.88
472.873	938.88
473.092	974.88
473.311	939.88
473.53	929.88
473.749	953.88
473.968	946.88
474.187	923.88
474.406	943.88
474.625	955.88
474.844	949.88
475.063	959.88
475.282	939.88
475.501	930.88
475.72	984.88
475.939	989.88
476.158	947.88
476.377	971.88
476.596	980.88
476.814	1005.88
477.033	971.88
477.252	991.88
477.471	1014.88
477.69	1081.88
477.908	1067.88
478.127	1108.88
478.346	1138.88
478.564	1171.88
478.783	1154.88
479.002	1177.88
479.22	1186.88
479.439	1208.88
479.658	1185.88
479.876	1167.88
480.095	1164.88
480.313	1209.88
480.532	1299.88
480.751	1285.88
480.969	1192.88
481.188	1152.88
481.406	1114.88
481.624	1084.88
481.843	1055.88
482.061	1079.88
482.28	1084.88
482.498	1068.88
482.717	1049.88
482.935	1069.88
483.153	1078.88
483.372	1069.88
483.59	1079.88
483.808	1100.88
484.027	1102.88
484.245	1071.88
484.463	1100.88
484.681	1103.88
484.9	1116.88
485.118	1111.88
485.336	1111.88
485.554	1119.88
485.772	1143.88
485.99	1141.88
486.209	1157.88
486.427	1137.88
486.645	1127.88
486.863	1112.88
487.081	1130.88
487.299	1118.88
487.517	1116.88
487.735	1098.88
487.953	1123.88
488.171	1096.88
488.389	1099.88
488.607	1091.88
488.825	1107.88
489.043	1112.88
489.261	1101.88
489.479	1111.88
489.696	1128.88
489.914	1100.88
490.132	1113.88
490.35	1132.88
490.568	1127.88
490.786	1113.88
491.003	1099.88
491.221	1137.88
491.439	1139.88
491.657	1135.88
491.874	1135.88
492.092	1157.88
492.31	1148.88
492.527	1147.88
492.745	1163.88
492.963	1165.88
493.18	1149.88
493.398	1168.88
493.615	1156.88
493.833	1173.88
494.05	1160.88
494.268	1194.88
494.485	1194.88
494.703	1188.88
494.92	1212.88
495.138	1200.88
495.355	1164.88
495.573	1189.88
495.79	1186.88
496.008	1194.88
496.225	1183.88
496.442	1204.88
496.66	1267.88
496.877	1207.88
497.094	1259.88
497.312	1292.88
497.529	1302.88
497.746	1339.88
497.963	1386.88
498.181	1432.88
498.398	1481.88
498.615	1599.88
498.832	1658.88
499.049	1849.88
499.267	2006.88
499.484	2181.88
499.701	2431.88
499.918	2679.88
500.135	3179.88
500.352	3591.88
500.569	3795.88
500.786	3711.88
501.003	3415.88
501.22	3026.88
501.437	2670.88
501.654	2332.88
501.871	2109.88
502.088	1883.88
502.305	1815.88
502.522	1711.88
502.739	1664.88
502.956	1521.88
503.172	1483.88
503.389	1416.88
503.606	1380.88
503.823	1338.88
504.04	1340.88
504.256	1362.88
504.473	1402.88
504.69	1401.88
504.907	1417.88
505.123	1309.88
505.34	1226.88
505.557	1164.88
505.773	1157.88
505.99	1134.88
506.207	1082.88
506.423	1084.88
506.64	1076.88
506.856	1047.88
507.073	1071.88
507.289	1034.88
507.506	1065.88
507.722	1015.88
507.939	1034.88
508.155	994.88
508.372	994.88
508.588	994.88
508.805	1001.88
509.021	1009.88
509.238	990.88
509.454	975.88
509.67	978.88
509.887	982.88
510.103	995.88
510.319	938.88
510.536	951.88
510.752	947.88
510.968	939.88
511.184	933.88
511.401	936.88
511.617	952.88
511.833	934.88
512.049	914.88
512.265	947.88
512.481	943.88
512.698	950.88
512.914	967.88
513.13	949.88
513.346	938.88
513.562	954.88
513.778	962.88
513.994	946.88
514.21	960.88
514.426	965.88
514.642	950.88
514.858	995.88
515.074	987.88
515.29	1014.88
515.506	1007.88
515.721	1036.88
515.937	1011.88
516.153	1064.88
516.369	1037.88
516.585	1100.88
516.801	1123.88
517.016	1171.88
517.232	1234.88
517.448	1308.88
517.664	1356.88
517.879	1348.88
518.095	1368.88
518.311	1332.88
518.527	1282.88
518.742	1213.88
518.958	1201.88
519.173	1098.88
519.389	1075.88
519.605	1024.88
519.82	1023.88
520.036	1011.88
520.251	965.88
520.467	967.88
520.682	948.88
520.898	968.88
521.113	956.88
521.329	940.88
521.544	891.88
521.76	910.88
521.975	920.88
522.19	896.88
522.406	909.88
522.621	883.88
522.836	907.88
523.052	894.88
523.267	904.88
523.482	894.88
523.698	899.88
523.913	876.88
524.128	901.88
524.343	883.88
524.559	868.88
524.774	882.88
524.989	878.88
525.204	867.88
525.419	872.88
525.634	872.88
525.849	881.88
526.064	863.88
526.28	863.88
526.495	863.88
526.71	853.88
526.925	843.88
527.14	837.88
527.355	839.88
527.57	868.88
527.785	883.88
527.999	831.88
528.214	858.88
528.429	861.88
528.644	835.88
528.859	860.88
529.074	875.88
529.289	852.88
529.503	851.88
529.718	828.88
529.933	867.88
530.148	867.88
530.363	850.88
530.577	867.88
530.792	840.88
531.007	857.88
531.221	850.88
531.436	844.88
531.651	886.88
531.865	857.88
532.08	860.88
532.295	874.88
532.509	872.88
532.724	840.88
532.938	849.88
533.153	831.88
533.367	861.88
533.582	832.88
533.796	867.88
534.011	855.88
534.225	822.88
534.44	831.88
534.654	827.88
534.868	866.88
535.083	831.88
535.297	842.88
535.511	813.88
535.726	827.88
535.94	816.88
536.154	804.88
536.369	799.88
536.583	802.88
536.797	804.88
537.011	780.88
537.225	804.88
537.44	792.88
537.654	799.88
537.868	797.88
538.082	782.88
538.296	774.88
538.51	777.88
538.724	780.88
538.938	767.88
539.153	781.88
539.367	757.88
539.581	768.88
539.795	779.88
540.009	757.88
540.222	735.88
540.436	780.88
540.65	758.88
540.864	761.88
541.078	760.88
541.292	780.88
541.506	775.88
541.72	785.88
541.934	768.88
542.147	769.88
542.361	785.88
542.575	745.88
542.789	734.88
543.002	787.88
543.216	760.88
543.43	761.88
543.644	756.88
543.857	769.88
544.071	755.88
544.285	769.88
544.498	760.88
544.712	767.88
544.925	781.88
545.139	804.88
545.352	787.88
545.566	777.88
545.779	807.88
545.993	779.88
546.206	786.88
546.42	767.88
546.633	782.88
546.847	779.88
547.06	775.88
547.274	779.88
547.487	812.88
547.7	767.88
547.914	798.88
548.127	778.88
548.34	787.88
548.554	821.88
548.767	795.88
548.98	787.88
549.193	799.88
549.407	805.88
549.62	808.88
549.833	815.88
550.046	808.88
550.259	794.88
550.473	778.88
550.686	796.88
550.899	778.88
551.112	757.88
551.325	787.88
551.538	775.88
551.751	768.88
551.964	744.88
552.177	790.88
552.39	795.88
552.603	810.88
552.816	826.88
553.029	837.88
553.242	853.88
553.455	881.88
553.667	892.88
553.88	875.88
554.093	831.88
554.306	797.88
554.519	781.88
554.732	775.88
554.944	745.88
555.157	746.88
555.37	725.88
555.583	727.88
555.795	713.88
556.008	711.88
556.221	688.88
556.433	681.88
556.646	680.88
556.859	679.88
557.071	659.88
557.284	650.88
557.496	672.88
557.709	676.88
557.921	688.88
558.134	683.88
558.346	675.88
558.559	654.88
558.771	649.88
558.984	668.88
559.196	668.88
559.409	655.88
559.621	633.88
559.833	626.88
560.046	657.88
560.258	636.88
560.47	637.88
560.683	639.88
560.895	637.88
561.107	632.88
561.32	640.88
561.532	628.88
561.744	661.88
561.956	648.88
562.168	635.88
562.381	655.88
562.593	640.88
562.805	650.88
563.017	654.88
563.229	651.88
563.441	659.88
563.653	635.88
563.865	648.88
564.077	659.88
564.289	684.88
564.501	666.88
564.713	684.88
564.925	685.88
565.137	698.88
565.349	719.88
565.561	741.88
565.773	755.88
565.985	808.88
566.197	842.88
566.408	911.88
566.62	963.88
566.832	1087.88
567.044	1055.88
567.255	1088.88
567.467	1108.88
567.679	1156.88
567.891	1271.88
568.102	1318.88
568.314	1252.88
568.526	1111.88
568.737	983.88
568.949	919.88
569.161	843.88
569.372	788.88
569.584	741.88
569.795	688.88
570.007	675.88
570.218	678.88
570.43	671.88
570.641	639.88
570.853	659.88
571.064	690.88
571.276	679.88
571.487	657.88
571.698	600.88
571.91	613.88
572.121	590.88
572.333	580.88
572.544	582.88
572.755	565.88
572.966	572.88
573.178	548.88
573.389	570.88
573.6	547.88
573.811	515.88
574.023	515.88
574.234	523.88
574.445	541.88
574.656	540.88
574.867	528.88
575.078	530.88
575.289	545.88
575.501	524.88
575.712	501.88
575.923	501.88
576.134	501.88
576.345	501.88
576.556	494.88
576.767	497.88
576.978	491.88
577.188	497.88
577.399	488.88
577.61	504.88
577.821	474.88
578.032	464.88
578.243	468.88
578.454	489.88
578.665	485.88
578.875	479.88
579.086	455.88
579.297	468.88
579.508	488.88
579.718	477.88
579.929	461.88
580.14	449.88
580.35	448.88
580.561	455.88
580.772	461.88
580.982	448.88
581.193	449.88
581.403	443.88
581.614	449.88
581.825	458.88
582.035	431.88
582.246	438.88
582.456	436.88
582.667	449.88
582.877	434.88
583.087	450.88
583.298	453.88
583.508	423.88
583.719	446.88
583.929	463.88
584.139	452.88
584.35	449.88
584.56	440.88
584.77	439.88
584.981	452.88
585.191	440.88
585.401	440.88
585.611	436.88
585.821	436.88
586.032	428.88
586.242	429.88
586.452	422.88
586.662	438.88
586.872	422.88
587.082	423.88
587.292	427.88
587.502	411.88
587.713	427.88
587.923	426.88
588.133	398.88
588.343	423.88
588.553	433.88
588.762	417.88
588.972	436.88
589.182	428.88
589.392	413.88
589.602	410.88
589.812	420.88
590.022	435.88
590.232	425.88
590.441	421.88
590.651	406.88
590.861	434.88
591.071	427.88
591.281	437.88
591.49	428.88
591.7	446.88
591.91	462.88
592.119	463.88
592.329	474.88
592.539	488.88
592.748	492.88
592.958	510.88
593.167	511.88
593.377	543.88
593.587	556.88
593.796	550.88
594.006	553.88
594.215	561.88
594.424	555.88
594.634	533.88
594.843	517.88
595.053	501.88
595.262	475.88
595.472	481.88
595.681	462.88
595.89	420.88
596.1	426.88
596.309	428.88
596.518	418.88
596.727	416.88
596.937	412.88
597.146	383.88
597.355	401.88
597.564	370.88
597.774	379.88
597.983	388.88
598.192	364.88
598.401	376.88
598.61	355.88
598.819	375.88
599.028	365.88
599.237	379.88
599.446	357.88
599.655	343.88
599.864	332.88
600.073	352.88
600.282	343.88
600.491	336.88
600.7	345.88
600.909	355.88
601.118	364.88
601.327	357.88
601.536	351.88
601.745	359.88
601.953	349.88
602.162	350.88
602.371	330.88
602.58	331.88
602.789	326.88
602.997	347.88
603.206	343.88
603.415	335.88
603.623	340.88
603.832	343.88
604.041	332.88
604.249	324.88
604.458	334.88
604.666	347.88
604.875	340.88
605.084	333.88
605.292	331.88
605.501	357.88
605.709	325.88
605.918	333.88
606.126	310.88
606.334	351.88
606.543	335.88
606.751	311.88
606.96	324.88
607.168	336.88
607.376	320.88
607.585	318.88
607.793	336.88
608.001	319.88
608.21	320.88
608.418	317.88
608.626	331.88
608.834	337.88
609.043	323.88
609.251	326.88
609.459	310.88
609.667	312.88
609.875	305.88
610.083	303.88
610.291	338.88
610.499	333.88
610.707	325.88
610.916	324.88
611.124	309.88
611.332	309.88
611.54	320.88
611.748	330.88
611.955	301.88
612.163	323.88
612.371	318.88
612.579	314.88
612.787	306.88
612.995	318.88
613.203	306.88
613.411	311.88
613.618	290.88
613.826	301.88
614.034	302.88
614.242	318.88
614.449	320.88
614.657	309.88
614.865	295.88
615.072	323.88
615.28	299.88
615.488	301.88
615.695	299.88
615.903	304.88
616.111	297.88
616.318	327.88
616.526	315.88
616.733	317.88
616.941	297.88
617.148	315.88
617.356	322.88
617.563	296.88
617.771	321.88
617.978	300.88
618.185	313.88
618.393	300.88
618.6	301.88
618.807	298.88
619.015	328.88
619.222	304.88
619.429	303.88
619.637	315.88
619.844	308.88
620.051	303.88
620.258	296.88
620.466	277.88
620.673	284.88
620.88	295.88
621.087	282.88
621.294	265.88
621.501	284.88
621.708	284.88
621.915	291.88
622.122	283.88
622.329	287.88
622.536	280.88
622.743	263.88
622.95	280.88
623.157	290.88
623.364	263.88
623.571	273.88
623.778	282.88
623.985	272.88
624.192	258.88
624.399	261.88
624.606	272.88
624.812	275.88
625.019	273.88
625.226	282.88
625.433	280.88
625.639	264.88
625.846	263.88
626.053	266.88
626.259	261.88
626.466	262.88
626.673	244.88
626.879	244.88
627.086	274.88
627.293	269.88
627.499	264.88
627.706	256.88
627.912	247.88
628.119	278.88
628.325	265.88
628.532	261.88
628.738	264.88
628.945	256.88
629.151	272.88
629.357	257.88
629.564	245.88
629.77	253.88
629.976	238.88
630.183	226.88
630.389	232.88
630.595	239.88
630.802	243.88
631.008	232.88
631.214	268.88
631.42	226.88
631.627	231.88
631.833	235.88
632.039	225.88
632.245	228.88
632.451	234.88
632.657	243.88
632.863	218.88
633.069	230.88
633.275	228.88
633.481	244.88
633.688	235.88
633.893	216.88
634.099	218.88
634.305	223.88
634.511	228.88
634.717	229.88
634.923	219.88
635.129	229.88
635.335	212.88
635.541	224.88
635.747	217.88
635.952	218.88
636.158	231.88
636.364	212.88
636.57	215.88
636.775	219.88
636.981	215.88
637.187	207.88
637.392	214.88
637.598	215.88
637.804	212.88
638.009	224.88
638.215	214.88
638.421	217.88
638.626	215.88
638.832	199.88
639.037	223.88
639.243	219.88
639.448	221.88
639.654	195.88
639.859	194.88
640.065	204.88
640.27	228.88
640.475	199.88
640.681	204.88
640.886	210.88
641.091	199.88
641.297	196.88
641.502	212.88
641.707	202.88
641.913	209.88
642.118	215.88
642.323	200.88
642.528	205.88
642.733	189.88
642.939	192.88
643.144	191.88
643.349	227.88
643.554	199.88
643.759	213.88
643.964	194.88
644.169	203.88
644.374	212.88
644.579	198.88
644.784	190.88
644.989	199.88
645.194	218.88
645.399	199.88
645.604	186.88
645.809	176.88
646.014	200.88
646.219	189.88
646.423	193.88
646.628	203.88
646.833	205.88
647.038	215.88
647.243	205.88
647.447	218.88
647.652	220.88
647.857	213.88
648.062	202.88
648.266	221.88
648.471	214.88
648.676	214.88
648.88	208.88
649.085	229.88
649.289	211.88
649.494	203.88
649.698	204.88
649.903	201.88
650.107	203.88
650.312	199.88
650.516	202.88
650.721	185.88
650.925	177.88
651.13	183.88
651.334	181.88
651.539	160.88
651.743	174.88
651.947	184.88
652.152	162.88
652.356	171.88
652.56	171.88
652.764	170.88
652.969	152.88
653.173	156.88
653.377	153.88
653.581	141.88
653.785	145.88
653.99	156.88
654.194	144.88
654.398	151.88
654.602	152.88
654.806	165.88
655.01	149.88
655.214	162.88
655.418	147.88
655.622	153.88
655.826	157.88
656.03	150.88
656.234	139.88
656.438	136.88
656.642	139.88
656.846	134.88
657.049	139.88
657.253	128.88
657.457	128.88
657.661	131.88
657.865	118.88
658.068	122.88
658.272	131.88
658.476	120.88
658.68	115.88
658.883	96.88
659.087	105.88
659.291	104.88
659.494	95.88
659.698	97.88
659.901	125.88
660.105	103.88
660.309	103.88
660.512	96.88
660.716	98.88
660.919	115.88
661.123	98.88
661.326	96.88
661.53	98.88
661.733	90.88
661.936	104.88
662.14	92.88
662.343	98.88
662.546	92.88
662.75	92.88
662.953	82.88
663.156	80.88
663.36	85.88
663.563	82.88
663.766	82.88
663.969	97.88
664.173	90.88
664.376	80.88
664.579	82.88
664.782	88.88
664.985	80.88
665.188	76.88
665.391	82.88
665.594	89.88
665.797	88.88
666	83.88
666.203	84.88
666.406	74.88
666.609	83.88
666.812	88.88
667.015	67.88
667.218	88.88
667.421	80.88
667.624	91.88
667.827	91.88
668.03	78.88
668.232	83.88
668.435	71.88
668.638	79.88
668.841	79.88
669.043	73.88
669.246	74.88
669.449	91.88
669.651	75.88
669.854	75.88
670.057	86.88
670.259	85.88
670.462	97.88
670.665	87.88
670.867	79.88
671.07	78.88
671.272	76.88
671.475	91.88
671.677	77.88
671.88	79.88
672.082	75.88
672.284	76.88
672.487	82.88
672.689	70.88
672.892	83.88
