Data from NiCl2@0.5M.TitratingCurve.Agarose3%dH2O.NegLispCup.LampEnergy10.LIBS07252019_HRD10591_18-19-48-571.txt Node
Date: Thu Jul 25 18:19:48 EDT 2019
User: cochatt
Spectrometer: HR+D1059
Trigger mode: 1
Integration Time (sec): 1.000000E-1
Scans to average: 1
Electric dark correction enabled: true
Nonlinearity correction enabled: false
Boxcar width: 0
XAxis mode: Wavelengths
Number of Pixels in Spectrum: 2048
>>>>>Begin Spectral Data<<<<<
223.165	-18.06
223.4	-18.06
223.635	-18.06
223.869	-12.06
224.104	-10.06
224.338	-8.06
224.573	-21.06
224.808	-14.06
225.042	-9.06
225.277	-7.06
225.511	-4.06
225.746	-3.06
225.98	3.94
226.215	-4.06
226.449	3.94
226.683	28.94
226.918	30.94
227.152	42.94
227.387	29.94
227.621	36.94
227.856	34.94
228.09	41.94
228.324	56.94
228.559	60.94
228.793	81.94
229.027	80.94
229.262	103.94
229.496	96.94
229.73	110.94
229.964	135.94
230.199	128.94
230.433	128.94
230.667	145.94
230.901	125.94
231.136	131.94
231.37	123.94
231.604	136.94
231.838	125.94
232.072	135.94
232.306	143.94
232.541	136.94
232.775	138.94
233.009	139.94
233.243	134.94
233.477	154.94
233.711	145.94
233.945	150.94
234.179	139.94
234.413	140.94
234.647	134.94
234.881	154.94
235.115	163.94
235.349	153.94
235.583	133.94
235.817	139.94
236.051	125.94
236.285	141.94
236.519	157.94
236.753	158.94
236.987	143.94
237.221	148.94
237.455	160.94
237.689	163.94
237.922	130.94
238.156	156.94
238.39	146.94
238.624	152.94
238.858	146.94
239.091	153.94
239.325	169.94
239.559	170.94
239.793	170.94
240.027	176.94
240.26	164.94
240.494	164.94
240.728	162.94
240.961	171.94
241.195	166.94
241.429	185.94
241.662	171.94
241.896	185.94
242.13	191.94
242.363	180.94
242.597	168.94
242.83	163.94
243.064	183.94
243.298	187.94
243.531	183.94
243.765	176.94
243.998	189.94
244.232	188.94
244.465	191.94
244.699	182.94
244.932	195.94
245.166	203.94
245.399	220.94
245.633	186.94
245.866	202.94
246.099	217.94
246.333	188.94
246.566	192.94
246.8	214.94
247.033	200.94
247.266	195.94
247.5	209.94
247.733	219.94
247.966	201.94
248.2	221.94
248.433	206.94
248.666	208.94
248.899	206.94
249.133	217.94
249.366	230.94
249.599	225.94
249.832	228.94
250.066	221.94
250.299	218.94
250.532	216.94
250.765	218.94
250.998	224.94
251.231	256.94
251.465	214.94
251.698	235.94
251.931	263.94
252.164	244.94
252.397	233.94
252.63	252.94
252.863	243.94
253.096	235.94
253.329	237.94
253.562	234.94
253.795	247.94
254.028	247.94
254.261	230.94
254.494	255.94
254.727	251.94
254.96	253.94
255.193	255.94
255.426	261.94
255.659	254.94
255.892	258.94
256.124	266.94
256.357	266.94
256.59	270.94
256.823	274.94
257.056	263.94
257.289	266.94
257.521	274.94
257.754	286.94
257.987	285.94
258.22	260.94
258.452	267.94
258.685	268.94
258.918	284.94
259.151	274.94
259.383	272.94
259.616	284.94
259.849	269.94
260.081	280.94
260.314	276.94
260.547	283.94
260.779	282.94
261.012	292.94
261.244	291.94
261.477	292.94
261.71	269.94
261.942	299.94
262.175	295.94
262.407	299.94
262.64	298.94
262.872	295.94
263.105	297.94
263.337	314.94
263.57	305.94
263.802	316.94
264.035	308.94
264.267	321.94
264.499	292.94
264.732	322.94
264.964	307.94
265.197	312.94
265.429	306.94
265.661	326.94
265.894	329.94
266.126	317.94
266.358	311.94
266.591	314.94
266.823	300.94
267.055	314.94
267.287	317.94
267.52	340.94
267.752	343.94
267.984	344.94
268.216	333.94
268.448	335.94
268.681	336.94
268.913	337.94
269.145	344.94
269.377	347.94
269.609	329.94
269.841	324.94
270.073	345.94
270.306	324.94
270.538	338.94
270.77	348.94
271.002	347.94
271.234	347.94
271.466	372.94
271.698	361.94
271.93	345.94
272.162	338.94
272.394	347.94
272.626	351.94
272.858	357.94
273.09	380.94
273.322	363.94
273.553	373.94
273.785	368.94
274.017	347.94
274.249	362.94
274.481	360.94
274.713	378.94
274.945	368.94
275.176	356.94
275.408	369.94
275.64	352.94
275.872	384.94
276.104	404.94
276.335	412.94
276.567	376.94
276.799	361.94
277.031	393.94
277.262	394.94
277.494	405.94
277.726	407.94
277.957	408.94
278.189	407.94
278.421	389.94
278.652	410.94
278.884	398.94
279.115	408.94
279.347	404.94
279.579	409.94
279.81	395.94
280.042	397.94
280.273	403.94
280.505	404.94
280.736	401.94
280.968	419.94
281.199	420.94
281.431	413.94
281.662	434.94
281.894	436.94
282.125	418.94
282.356	435.94
282.588	416.94
282.819	415.94
283.051	442.94
283.282	428.94
283.513	434.94
283.745	423.94
283.976	426.94
284.207	451.94
284.439	421.94
284.67	438.94
284.901	447.94
285.132	455.94
285.364	437.94
285.595	448.94
285.826	450.94
286.057	438.94
286.288	453.94
286.52	457.94
286.751	442.94
286.982	458.94
287.213	465.94
287.444	459.94
287.675	462.94
287.906	474.94
288.138	467.94
288.369	450.94
288.6	462.94
288.831	469.94
289.062	468.94
289.293	477.94
289.524	453.94
289.755	482.94
289.986	482.94
290.217	480.94
290.448	479.94
290.679	462.94
290.91	469.94
291.141	452.94
291.371	483.94
291.602	488.94
291.833	493.94
292.064	472.94
292.295	486.94
292.526	487.94
292.757	476.94
292.987	478.94
293.218	474.94
293.449	479.94
293.68	505.94
293.91	490.94
294.141	485.94
294.372	479.94
294.603	477.94
294.833	499.94
295.064	480.94
295.295	471.94
295.525	488.94
295.756	497.94
295.987	510.94
296.217	500.94
296.448	510.94
296.679	494.94
296.909	506.94
297.14	492.94
297.37	509.94
297.601	532.94
297.831	522.94
298.062	536.94
298.292	532.94
298.523	529.94
298.753	544.94
298.984	514.94
299.214	514.94
299.445	529.94
299.675	518.94
299.905	550.94
300.136	533.94
300.366	542.94
300.597	540.94
300.827	542.94
301.057	526.94
301.288	543.94
301.518	555.94
301.748	562.94
301.979	562.94
302.209	555.94
302.439	572.94
302.669	531.94
302.9	567.94
303.13	557.94
303.36	561.94
303.59	554.94
303.82	557.94
304.051	570.94
304.281	568.94
304.511	572.94
304.741	570.94
304.971	556.94
305.201	549.94
305.431	567.94
305.661	572.94
305.891	540.94
306.121	550.94
306.352	573.94
306.582	544.94
306.812	546.94
307.042	526.94
307.272	549.94
307.502	523.94
307.731	547.94
307.961	554.94
308.191	557.94
308.421	555.94
308.651	564.94
308.881	552.94
309.111	538.94
309.341	541.94
309.571	548.94
309.8	566.94
310.03	564.94
310.26	598.94
310.49	581.94
310.72	568.94
310.949	555.94
311.179	560.94
311.409	566.94
311.639	576.94
311.868	579.94
312.098	574.94
312.328	601.94
312.557	593.94
312.787	566.94
313.017	569.94
313.246	599.94
313.476	619.94
313.706	595.94
313.935	611.94
314.165	595.94
314.394	595.94
314.624	597.94
314.853	587.94
315.083	590.94
315.312	584.94
315.542	576.94
315.771	610.94
316.001	563.94
316.23	617.94
316.46	592.94
316.689	603.94
316.919	568.94
317.148	574.94
317.377	603.94
317.607	583.94
317.836	600.94
318.065	577.94
318.295	580.94
318.524	600.94
318.753	592.94
318.983	579.94
319.212	581.94
319.441	582.94
319.67	599.94
319.9	607.94
320.129	576.94
320.358	579.94
320.587	597.94
320.816	596.94
321.046	597.94
321.275	594.94
321.504	610.94
321.733	577.94
321.962	596.94
322.191	597.94
322.42	578.94
322.649	613.94
322.878	602.94
323.108	595.94
323.337	604.94
323.566	593.94
323.795	621.94
324.024	616.94
324.253	595.94
324.482	603.94
324.71	629.94
324.939	628.94
325.168	638.94
325.397	624.94
325.626	626.94
325.855	628.94
326.084	646.94
326.313	657.94
326.542	644.94
326.77	653.94
326.999	633.94
327.228	635.94
327.457	641.94
327.686	644.94
327.914	633.94
328.143	658.94
328.372	648.94
328.6	638.94
328.829	632.94
329.058	640.94
329.287	660.94
329.515	652.94
329.744	639.94
329.972	636.94
330.201	668.94
330.43	672.94
330.658	650.94
330.887	656.94
331.115	663.94
331.344	672.94
331.572	696.94
331.801	718.94
332.03	704.94
332.258	715.94
332.486	710.94
332.715	766.94
332.943	770.94
333.172	799.94
333.4	812.94
333.629	817.94
333.857	854.94
334.085	841.94
334.314	818.94
334.542	819.94
334.771	816.94
334.999	804.94
335.227	782.94
335.455	808.94
335.684	779.94
335.912	786.94
336.14	761.94
336.369	779.94
336.597	798.94
336.825	797.94
337.053	787.94
337.281	757.94
337.51	763.94
337.738	747.94
337.966	718.94
338.194	735.94
338.422	738.94
338.65	701.94
338.878	735.94
339.106	730.94
339.334	744.94
339.562	731.94
339.79	686.94
340.018	661.94
340.246	681.94
340.474	683.94
340.702	684.94
340.93	690.94
341.158	676.94
341.386	706.94
341.614	705.94
341.842	706.94
342.07	680.94
342.298	674.94
342.526	683.94
342.754	692.94
342.981	669.94
343.209	682.94
343.437	725.94
343.665	767.94
343.893	797.94
344.12	787.94
344.348	782.94
344.576	762.94
344.804	742.94
345.031	710.94
345.259	703.94
345.487	700.94
345.714	709.94
345.942	687.94
346.17	695.94
346.397	685.94
346.625	674.94
346.853	652.94
347.08	665.94
347.308	676.94
347.535	663.94
347.763	644.94
347.99	642.94
348.218	647.94
348.445	638.94
348.673	661.94
348.9	648.94
349.128	636.94
349.355	660.94
349.583	664.94
349.81	642.94
350.037	638.94
350.265	627.94
350.492	628.94
350.72	609.94
350.947	636.94
351.174	629.94
351.402	650.94
351.629	677.94
351.856	658.94
352.083	639.94
352.311	652.94
352.538	658.94
352.765	665.94
352.992	631.94
353.22	620.94
353.447	613.94
353.674	625.94
353.901	584.94
354.128	613.94
354.355	615.94
354.583	608.94
354.81	612.94
355.037	618.94
355.264	608.94
355.491	618.94
355.718	614.94
355.945	604.94
356.172	642.94
356.399	642.94
356.626	630.94
356.853	673.94
357.08	636.94
357.307	638.94
357.534	612.94
357.761	630.94
357.988	633.94
358.215	612.94
358.441	620.94
358.668	601.94
358.895	596.94
359.122	608.94
359.349	614.94
359.576	619.94
359.802	608.94
360.029	638.94
360.256	636.94
360.483	626.94
360.709	616.94
360.936	632.94
361.163	618.94
361.39	630.94
361.616	617.94
361.843	631.94
362.07	648.94
362.296	650.94
362.523	635.94
362.749	633.94
362.976	615.94
363.203	609.94
363.429	614.94
363.656	598.94
363.882	602.94
364.109	634.94
364.335	608.94
364.562	613.94
364.788	617.94
365.015	600.94
365.241	595.94
365.468	610.94
365.694	603.94
365.92	598.94
366.147	598.94
366.373	622.94
366.599	594.94
366.826	602.94
367.052	624.94
367.278	636.94
367.505	609.94
367.731	602.94
367.957	605.94
368.184	608.94
368.41	598.94
368.636	634.94
368.862	613.94
369.089	620.94
369.315	622.94
369.541	634.94
369.767	644.94
369.993	606.94
370.219	640.94
370.445	655.94
370.672	652.94
370.898	640.94
371.124	657.94
371.35	643.94
371.576	664.94
371.802	664.94
372.028	638.94
372.254	658.94
372.48	662.94
372.706	656.94
372.932	669.94
373.158	673.94
373.384	663.94
373.61	659.94
373.835	649.94
374.061	654.94
374.287	632.94
374.513	678.94
374.739	685.94
374.965	685.94
375.191	715.94
375.416	702.94
375.642	675.94
375.868	694.94
376.094	676.94
376.319	661.94
376.545	633.94
376.771	673.94
376.997	636.94
377.222	656.94
377.448	643.94
377.674	660.94
377.899	634.94
378.125	633.94
378.35	639.94
378.576	641.94
378.802	637.94
379.027	644.94
379.253	626.94
379.478	635.94
379.704	640.94
379.929	626.94
380.155	655.94
380.38	627.94
380.606	634.94
380.831	643.94
381.057	652.94
381.282	633.94
381.507	629.94
381.733	642.94
381.958	635.94
382.184	651.94
382.409	656.94
382.634	654.94
382.86	658.94
383.085	686.94
383.31	682.94
383.535	690.94
383.761	694.94
383.986	691.94
384.211	699.94
384.436	718.94
384.662	712.94
384.887	760.94
385.112	734.94
385.337	741.94
385.562	747.94
385.787	769.94
386.013	775.94
386.238	764.94
386.463	765.94
386.688	743.94
386.913	752.94
387.138	722.94
387.363	731.94
387.588	743.94
387.813	716.94
388.038	743.94
388.263	721.94
388.488	754.94
388.713	732.94
388.938	725.94
389.163	743.94
389.387	737.94
389.612	741.94
389.837	722.94
390.062	722.94
390.287	722.94
390.512	738.94
390.736	750.94
390.961	745.94
391.186	770.94
391.411	780.94
391.636	797.94
391.86	822.94
392.085	836.94
392.31	810.94
392.534	846.94
392.759	838.94
392.984	797.94
393.208	794.94
393.433	787.94
393.658	790.94
393.882	806.94
394.107	778.94
394.331	810.94
394.556	833.94
394.78	792.94
395.005	804.94
395.229	798.94
395.454	836.94
395.678	852.94
395.903	837.94
396.127	792.94
396.352	819.94
396.576	788.94
396.801	800.94
397.025	826.94
397.249	836.94
397.474	883.94
397.698	832.94
397.922	856.94
398.147	843.94
398.371	877.94
398.595	907.94
398.82	908.94
399.044	1010.94
399.268	1078.94
399.492	1259.94
399.717	1334.94
399.941	1302.94
400.165	1209.94
400.389	1131.94
400.613	1040.94
400.837	981.94
401.062	954.94
401.286	936.94
401.51	942.94
401.734	947.94
401.958	930.94
402.182	968.94
402.406	951.94
402.63	1003.94
402.854	966.94
403.078	988.94
403.302	1006.94
403.526	1015.94
403.75	1038.94
403.974	1065.94
404.198	1084.94
404.422	1045.94
404.645	1069.94
404.869	1025.94
405.093	1054.94
405.317	1019.94
405.541	1024.94
405.765	978.94
405.988	1029.94
406.212	1036.94
406.436	1052.94
406.66	1056.94
406.883	1074.94
407.107	1117.94
407.331	1152.94
407.555	1200.94
407.778	1206.94
408.002	1168.94
408.226	1153.94
408.449	1128.94
408.673	1067.94
408.896	1106.94
409.12	1055.94
409.344	1064.94
409.567	1083.94
409.791	1070.94
410.014	1058.94
410.238	1035.94
410.461	1028.94
410.685	1014.94
410.908	1035.94
411.132	1014.94
411.355	978.94
411.578	1003.94
411.802	992.94
412.025	972.94
412.249	1006.94
412.472	987.94
412.695	964.94
412.919	977.94
413.142	967.94
413.365	957.94
413.589	969.94
413.812	928.94
414.035	921.94
414.258	951.94
414.482	957.94
414.705	966.94
414.928	979.94
415.151	951.94
415.374	949.94
415.597	946.94
415.821	937.94
416.044	928.94
416.267	952.94
416.49	927.94
416.713	936.94
416.936	938.94
417.159	940.94
417.382	935.94
417.605	921.94
417.828	924.94
418.051	959.94
418.274	946.94
418.497	941.94
418.72	983.94
418.943	971.94
419.166	1010.94
419.389	1089.94
419.611	1070.94
419.834	1042.94
420.057	979.94
420.28	960.94
420.503	948.94
420.726	969.94
420.948	928.94
421.171	916.94
421.394	916.94
421.617	929.94
421.839	978.94
422.062	947.94
422.285	958.94
422.507	972.94
422.73	978.94
422.953	982.94
423.175	979.94
423.398	996.94
423.621	968.94
423.843	994.94
424.066	1009.94
424.288	989.94
424.511	985.94
424.733	973.94
424.956	981.94
425.178	966.94
425.401	965.94
425.623	990.94
425.846	920.94
426.068	908.94
426.291	923.94
426.513	903.94
426.735	920.94
426.958	927.94
427.18	889.94
427.402	885.94
427.625	921.94
427.847	889.94
428.069	885.94
428.292	871.94
428.514	865.94
428.736	880.94
428.958	893.94
429.181	880.94
429.403	865.94
429.625	870.94
429.847	835.94
430.069	874.94
430.292	868.94
430.514	842.94
430.736	879.94
430.958	878.94
431.18	842.94
431.402	882.94
431.624	876.94
431.846	882.94
432.068	886.94
432.29	883.94
432.512	889.94
432.734	886.94
432.956	874.94
433.178	896.94
433.4	900.94
433.622	909.94
433.844	910.94
434.066	885.94
434.287	901.94
434.509	940.94
434.731	957.94
434.953	950.94
435.175	966.94
435.397	997.94
435.618	961.94
435.84	930.94
436.062	920.94
436.284	900.94
436.505	892.94
436.727	921.94
436.949	910.94
437.17	880.94
437.392	851.94
437.614	875.94
437.835	853.94
438.057	842.94
438.278	849.94
438.5	864.94
438.721	868.94
438.943	836.94
439.165	868.94
439.386	896.94
439.608	899.94
439.829	843.94
440.05	891.94
440.272	888.94
440.493	864.94
440.715	912.94
440.936	924.94
441.158	955.94
441.379	946.94
441.6	986.94
441.822	997.94
442.043	1001.94
442.264	977.94
442.486	961.94
442.707	967.94
442.928	994.94
443.149	956.94
443.371	967.94
443.592	998.94
443.813	998.94
444.034	1011.94
444.255	1019.94
444.476	1062.94
444.698	1088.94
444.919	1162.94
445.14	1259.94
445.361	1115.94
445.582	1044.94
445.803	983.94
446.024	955.94
446.245	945.94
446.466	930.94
446.687	901.94
446.908	937.94
447.129	881.94
447.35	867.94
447.571	891.94
447.792	841.94
448.013	839.94
448.234	842.94
448.455	866.94
448.675	836.94
448.896	843.94
449.117	824.94
449.338	819.94
449.559	813.94
449.779	840.94
450	820.94
450.221	837.94
450.442	837.94
450.662	817.94
450.883	838.94
451.104	829.94
451.324	830.94
451.545	845.94
451.766	856.94
451.986	849.94
452.207	827.94
452.428	827.94
452.648	802.94
452.869	776.94
453.089	828.94
453.31	821.94
453.53	797.94
453.751	778.94
453.971	792.94
454.192	786.94
454.412	797.94
454.633	781.94
454.853	793.94
455.073	793.94
455.294	792.94
455.514	768.94
455.734	805.94
455.955	752.94
456.175	738.94
456.395	776.94
456.616	746.94
456.836	768.94
457.056	776.94
457.276	757.94
457.497	808.94
457.717	788.94
457.937	830.94
458.157	774.94
458.377	791.94
458.598	810.94
458.818	836.94
459.038	816.94
459.258	856.94
459.478	902.94
459.698	936.94
459.918	914.94
460.138	978.94
460.358	1029.94
460.578	1050.94
460.798	1045.94
461.018	1051.94
461.238	1062.94
461.458	1036.94
461.678	1059.94
461.898	1051.94
462.118	1080.94
462.338	1112.94
462.558	1149.94
462.777	1184.94
462.997	1248.94
463.217	1339.94
463.437	1355.94
463.657	1273.94
463.876	1215.94
464.096	1210.94
464.316	1169.94
464.536	1173.94
464.755	1164.94
464.975	1123.94
465.195	1092.94
465.414	1025.94
465.634	956.94
465.854	944.94
466.073	960.94
466.293	908.94
466.512	914.94
466.732	902.94
466.951	874.94
467.171	864.94
467.391	861.94
467.61	878.94
467.829	895.94
468.049	862.94
468.268	843.94
468.488	847.94
468.707	841.94
468.927	867.94
469.146	863.94
469.365	848.94
469.585	840.94
469.804	877.94
470.023	904.94
470.243	908.94
470.462	933.94
470.681	911.94
470.901	906.94
471.12	908.94
471.339	888.94
471.558	876.94
471.777	874.94
471.997	860.94
472.216	840.94
472.435	851.94
472.654	816.94
472.873	824.94
473.092	830.94
473.311	810.94
473.53	841.94
473.749	851.94
473.968	846.94
474.187	820.94
474.406	821.94
474.625	835.94
474.844	869.94
475.063	839.94
475.282	852.94
475.501	834.94
475.72	837.94
475.939	859.94
476.158	877.94
476.377	886.94
476.596	883.94
476.814	869.94
477.033	882.94
477.252	906.94
477.471	925.94
477.69	940.94
477.908	977.94
478.127	990.94
478.346	982.94
478.564	994.94
478.783	1015.94
479.002	1030.94
479.22	1044.94
479.439	1051.94
479.658	1025.94
479.876	1042.94
480.095	1026.94
480.313	1075.94
480.532	1089.94
480.751	1069.94
480.969	1046.94
481.188	1033.94
481.406	1009.94
481.624	968.94
481.843	958.94
482.061	961.94
482.28	998.94
482.498	982.94
482.717	967.94
482.935	964.94
483.153	995.94
483.372	995.94
483.59	970.94
483.808	988.94
484.027	979.94
484.245	973.94
484.463	982.94
484.681	986.94
484.9	1007.94
485.118	1024.94
485.336	993.94
485.554	1027.94
485.772	1015.94
485.99	1047.94
486.209	1035.94
486.427	1030.94
486.645	997.94
486.863	1032.94
487.081	1029.94
487.299	1004.94
487.517	1014.94
487.735	1031.94
487.953	1044.94
488.171	1031.94
488.389	991.94
488.607	1025.94
488.825	1009.94
489.043	972.94
489.261	994.94
489.479	1006.94
489.696	1059.94
489.914	1003.94
490.132	1019.94
490.35	1042.94
490.568	1018.94
490.786	1024.94
491.003	1032.94
491.221	1056.94
491.439	1053.94
491.657	1061.94
491.874	1056.94
492.092	1063.94
492.31	1076.94
492.527	1062.94
492.745	1050.94
492.963	1061.94
493.18	1048.94
493.398	1068.94
493.615	1080.94
493.833	1079.94
494.05	1072.94
494.268	1066.94
494.485	1074.94
494.703	1087.94
494.92	1100.94
495.138	1077.94
495.355	1089.94
495.573	1065.94
495.79	1084.94
496.008	1086.94
496.225	1138.94
496.442	1095.94
496.66	1140.94
496.877	1143.94
497.094	1145.94
497.312	1157.94
497.529	1201.94
497.746	1216.94
497.963	1266.94
498.181	1304.94
498.398	1366.94
498.615	1392.94
498.832	1466.94
499.049	1597.94
499.267	1708.94
499.484	1842.94
499.701	1998.94
499.918	2186.94
500.135	2461.94
500.352	2762.94
500.569	2828.94
500.786	2773.94
501.003	2622.94
501.22	2402.94
501.437	2163.94
501.654	1936.94
501.871	1810.94
502.088	1687.94
502.305	1548.94
502.522	1489.94
502.739	1420.94
502.956	1418.94
503.172	1325.94
503.389	1261.94
503.606	1217.94
503.823	1233.94
504.04	1230.94
504.256	1204.94
504.473	1229.94
504.69	1229.94
504.907	1198.94
505.123	1157.94
505.34	1107.94
505.557	1051.94
505.773	1042.94
505.99	1038.94
506.207	981.94
506.423	992.94
506.64	992.94
506.856	954.94
507.073	916.94
507.289	950.94
507.506	926.94
507.722	919.94
507.939	908.94
508.155	915.94
508.372	900.94
508.588	889.94
508.805	877.94
509.021	927.94
509.238	887.94
509.454	892.94
509.67	866.94
509.887	846.94
510.103	872.94
510.319	854.94
510.536	864.94
510.752	865.94
510.968	843.94
511.184	840.94
511.401	856.94
511.617	850.94
511.833	869.94
512.049	838.94
512.265	853.94
512.481	853.94
512.698	858.94
512.914	844.94
513.13	833.94
513.346	866.94
513.562	846.94
513.778	838.94
513.994	837.94
514.21	856.94
514.426	890.94
514.642	860.94
514.858	881.94
515.074	860.94
515.29	898.94
515.506	880.94
515.721	885.94
515.937	913.94
516.153	934.94
516.369	918.94
516.585	956.94
516.801	973.94
517.016	996.94
517.232	1045.94
517.448	1082.94
517.664	1126.94
517.879	1130.94
518.095	1126.94
518.311	1103.94
518.527	1049.94
518.742	1017.94
518.958	975.94
519.173	972.94
519.389	965.94
519.605	921.94
519.82	922.94
520.036	901.94
520.251	878.94
520.467	874.94
520.682	843.94
520.898	843.94
521.113	847.94
521.329	834.94
521.544	826.94
521.76	818.94
521.975	794.94
522.19	805.94
522.406	800.94
522.621	796.94
522.836	796.94
523.052	803.94
523.267	777.94
523.482	776.94
523.698	775.94
523.913	802.94
524.128	809.94
524.343	806.94
524.559	807.94
524.774	782.94
524.989	785.94
525.204	797.94
525.419	797.94
525.634	800.94
525.849	779.94
526.064	789.94
526.28	773.94
526.495	753.94
526.71	768.94
526.925	774.94
527.14	753.94
527.355	765.94
527.57	761.94
527.785	768.94
527.999	757.94
528.214	771.94
528.429	764.94
528.644	771.94
528.859	779.94
529.074	761.94
529.289	796.94
529.503	770.94
529.718	776.94
529.933	746.94
530.148	758.94
530.363	746.94
530.577	754.94
530.792	756.94
531.007	722.94
531.221	774.94
531.436	741.94
531.651	769.94
531.865	752.94
532.08	757.94
532.295	766.94
532.509	750.94
532.724	756.94
532.938	744.94
533.153	746.94
533.367	768.94
533.582	765.94
533.796	733.94
534.011	730.94
534.225	746.94
534.44	759.94
534.654	752.94
534.868	706.94
535.083	749.94
535.297	753.94
535.511	729.94
535.726	740.94
535.94	719.94
536.154	749.94
536.369	708.94
536.583	722.94
536.797	716.94
537.011	702.94
537.225	718.94
537.44	710.94
537.654	670.94
537.868	720.94
538.082	691.94
538.296	668.94
538.51	704.94
538.724	700.94
538.938	683.94
539.153	689.94
539.367	678.94
539.581	696.94
539.795	690.94
540.009	691.94
540.222	672.94
540.436	662.94
540.65	699.94
540.864	696.94
541.078	700.94
541.292	708.94
541.506	685.94
541.72	684.94
541.934	708.94
542.147	722.94
542.361	694.94
542.575	693.94
542.789	701.94
543.002	669.94
543.216	693.94
543.43	672.94
543.644	668.94
543.857	676.94
544.071	676.94
544.285	694.94
544.498	678.94
544.712	708.94
544.925	694.94
545.139	694.94
545.352	701.94
545.566	706.94
545.779	700.94
545.993	708.94
546.206	720.94
546.42	709.94
546.633	709.94
546.847	693.94
547.06	710.94
547.274	693.94
547.487	706.94
547.7	708.94
547.914	698.94
548.127	721.94
548.34	713.94
548.554	703.94
548.767	708.94
548.98	720.94
549.193	696.94
549.407	709.94
549.62	705.94
549.833	738.94
550.046	720.94
550.259	728.94
550.473	706.94
550.686	678.94
550.899	714.94
551.112	687.94
551.325	675.94
551.538	685.94
551.751	680.94
551.964	672.94
552.177	708.94
552.39	717.94
552.603	730.94
552.816	742.94
553.029	713.94
553.242	737.94
553.455	798.94
553.667	760.94
553.88	747.94
554.093	757.94
554.306	697.94
554.519	682.94
554.732	684.94
554.944	663.94
555.157	690.94
555.37	649.94
555.583	660.94
555.795	624.94
556.008	628.94
556.221	625.94
556.433	631.94
556.646	640.94
556.859	614.94
557.071	597.94
557.284	626.94
557.496	609.94
557.709	585.94
557.921	601.94
558.134	586.94
558.346	591.94
558.559	579.94
558.771	596.94
558.984	614.94
559.196	608.94
559.409	573.94
559.621	596.94
559.833	587.94
560.046	590.94
560.258	594.94
560.47	584.94
560.683	589.94
560.895	603.94
561.107	596.94
561.32	582.94
561.532	580.94
561.744	576.94
561.956	568.94
562.168	557.94
562.381	577.94
562.593	584.94
562.805	591.94
563.017	580.94
563.229	578.94
563.441	574.94
563.653	573.94
563.865	588.94
564.077	599.94
564.289	606.94
564.501	603.94
564.713	596.94
564.925	647.94
565.137	642.94
565.349	622.94
565.561	644.94
565.773	650.94
565.985	716.94
566.197	730.94
566.408	783.94
566.62	802.94
566.832	861.94
567.044	874.94
567.255	904.94
567.467	914.94
567.679	938.94
567.891	994.94
568.102	979.94
568.314	962.94
568.526	878.94
568.737	820.94
568.949	782.94
569.161	709.94
569.372	683.94
569.584	645.94
569.795	629.94
570.007	611.94
570.218	587.94
570.43	579.94
570.641	576.94
570.853	592.94
571.064	591.94
571.276	586.94
571.487	590.94
571.698	563.94
571.91	545.94
572.121	529.94
572.333	529.94
572.544	521.94
572.755	494.94
572.966	498.94
573.178	489.94
573.389	499.94
573.6	468.94
573.811	474.94
574.023	465.94
574.234	487.94
574.445	456.94
574.656	467.94
574.867	470.94
575.078	473.94
575.289	475.94
575.501	462.94
575.712	452.94
575.923	448.94
576.134	455.94
576.345	417.94
576.556	438.94
576.767	430.94
576.978	452.94
577.188	427.94
577.399	456.94
577.61	429.94
577.821	422.94
578.032	427.94
578.243	410.94
578.454	425.94
578.665	398.94
578.875	442.94
579.086	402.94
579.297	417.94
579.508	413.94
579.718	414.94
579.929	406.94
580.14	410.94
580.35	421.94
580.561	412.94
580.772	399.94
580.982	406.94
581.193	380.94
581.403	400.94
581.614	392.94
581.825	404.94
582.035	416.94
582.246	406.94
582.456	388.94
582.667	401.94
582.877	364.94
583.087	382.94
583.298	382.94
583.508	405.94
583.719	416.94
583.929	388.94
584.139	395.94
584.35	402.94
584.56	379.94
584.77	380.94
584.981	392.94
585.191	388.94
585.401	384.94
585.611	405.94
585.821	378.94
586.032	372.94
586.242	365.94
586.452	372.94
586.662	392.94
586.872	399.94
587.082	389.94
587.292	382.94
587.502	368.94
587.713	372.94
587.923	386.94
588.133	372.94
588.343	352.94
588.553	377.94
588.762	372.94
588.972	388.94
589.182	457.94
589.392	442.94
589.602	436.94
589.812	470.94
590.022	432.94
590.232	386.94
590.441	376.94
590.651	405.94
590.861	374.94
591.071	394.94
591.281	391.94
591.49	408.94
591.7	392.94
591.91	399.94
592.119	406.94
592.329	422.94
592.539	414.94
592.748	420.94
592.958	427.94
593.167	445.94
593.377	441.94
593.587	451.94
593.796	475.94
594.006	465.94
594.215	441.94
594.424	436.94
594.634	446.94
594.843	427.94
595.053	441.94
595.262	396.94
595.472	389.94
595.681	397.94
595.89	368.94
596.1	364.94
596.309	370.94
596.518	372.94
596.727	356.94
596.937	353.94
597.146	344.94
597.355	346.94
597.564	352.94
597.774	327.94
597.983	332.94
598.192	316.94
598.401	355.94
598.61	333.94
598.819	325.94
599.028	322.94
599.237	331.94
599.446	329.94
599.655	334.94
599.864	323.94
600.073	320.94
600.282	323.94
600.491	304.94
600.7	317.94
600.909	321.94
601.118	301.94
601.327	318.94
601.536	329.94
601.745	311.94
601.953	327.94
602.162	306.94
602.371	306.94
602.58	325.94
602.789	320.94
602.997	322.94
603.206	299.94
603.415	321.94
603.623	318.94
603.832	315.94
604.041	302.94
604.249	295.94
604.458	316.94
604.666	308.94
604.875	319.94
605.084	291.94
605.292	282.94
605.501	315.94
605.709	299.94
605.918	298.94
606.126	298.94
606.334	293.94
606.543	316.94
606.751	278.94
606.96	280.94
607.168	297.94
607.376	287.94
607.585	274.94
607.793	298.94
608.001	287.94
608.21	288.94
608.418	299.94
608.626	274.94
608.834	283.94
609.043	288.94
609.251	284.94
609.459	275.94
609.667	281.94
609.875	299.94
610.083	282.94
610.291	288.94
610.499	276.94
610.707	280.94
610.916	267.94
611.124	269.94
611.332	293.94
611.54	274.94
611.748	286.94
611.955	279.94
612.163	280.94
612.371	253.94
612.579	287.94
612.787	280.94
612.995	268.94
613.203	292.94
613.411	276.94
613.618	278.94
613.826	265.94
614.034	246.94
614.242	280.94
614.449	268.94
614.657	284.94
614.865	271.94
615.072	267.94
615.28	284.94
615.488	266.94
615.695	277.94
615.903	274.94
616.111	276.94
616.318	268.94
616.526	276.94
616.733	283.94
616.941	266.94
617.148	284.94
617.356	294.94
617.563	284.94
617.771	264.94
617.978	256.94
618.185	270.94
618.393	258.94
618.6	268.94
618.807	281.94
619.015	275.94
619.222	258.94
619.429	285.94
619.637	263.94
619.844	266.94
620.051	241.94
620.258	264.94
620.466	274.94
620.673	244.94
620.88	259.94
621.087	262.94
621.294	238.94
621.501	240.94
621.708	237.94
621.915	260.94
622.122	248.94
622.329	240.94
622.536	240.94
622.743	259.94
622.95	254.94
623.157	232.94
623.364	240.94
623.571	235.94
623.778	232.94
623.985	244.94
624.192	257.94
624.399	231.94
624.606	234.94
624.812	232.94
625.019	242.94
625.226	261.94
625.433	227.94
625.639	225.94
625.846	223.94
626.053	236.94
626.259	242.94
626.466	230.94
626.673	240.94
626.879	208.94
627.086	224.94
627.293	228.94
627.499	244.94
627.706	220.94
627.912	219.94
628.119	235.94
628.325	224.94
628.532	234.94
628.738	229.94
628.945	216.94
629.151	231.94
629.357	211.94
629.564	229.94
629.77	228.94
629.976	223.94
630.183	221.94
630.389	207.94
630.595	205.94
630.802	214.94
631.008	210.94
631.214	212.94
631.42	224.94
631.627	209.94
631.833	218.94
632.039	209.94
632.245	203.94
632.451	203.94
632.657	210.94
632.863	204.94
633.069	213.94
633.275	218.94
633.481	195.94
633.688	209.94
633.893	203.94
634.099	210.94
634.305	200.94
634.511	219.94
634.717	216.94
634.923	193.94
635.129	222.94
635.335	211.94
635.541	202.94
635.747	196.94
635.952	201.94
636.158	204.94
636.364	204.94
636.57	210.94
636.775	205.94
636.981	205.94
637.187	195.94
637.392	212.94
637.598	199.94
637.804	188.94
638.009	187.94
638.215	204.94
638.421	197.94
638.626	181.94
638.832	189.94
639.037	197.94
639.243	203.94
639.448	194.94
639.654	177.94
639.859	172.94
640.065	187.94
640.27	185.94
640.475	179.94
640.681	168.94
640.886	187.94
641.091	195.94
641.297	195.94
641.502	169.94
641.707	183.94
641.913	179.94
642.118	190.94
642.323	189.94
642.528	192.94
642.733	184.94
642.939	193.94
643.144	190.94
643.349	171.94
643.554	189.94
643.759	189.94
643.964	190.94
644.169	186.94
644.374	201.94
644.579	205.94
644.784	181.94
644.989	192.94
645.194	180.94
645.399	177.94
645.604	190.94
645.809	199.94
646.014	168.94
646.219	187.94
646.423	198.94
646.628	188.94
646.833	195.94
647.038	191.94
647.243	197.94
647.447	177.94
647.652	189.94
647.857	200.94
648.062	187.94
648.266	208.94
648.471	194.94
648.676	199.94
648.88	181.94
649.085	184.94
649.289	208.94
649.494	179.94
649.698	200.94
649.903	168.94
650.107	168.94
650.312	184.94
650.516	178.94
650.721	180.94
650.925	180.94
651.13	188.94
651.334	171.94
651.539	176.94
651.743	152.94
651.947	173.94
652.152	173.94
652.356	144.94
652.56	166.94
652.764	159.94
652.969	169.94
653.173	163.94
653.377	165.94
653.581	159.94
653.785	142.94
653.99	150.94
654.194	166.94
654.398	165.94
654.602	170.94
654.806	155.94
655.01	165.94
655.214	160.94
655.418	151.94
655.622	164.94
655.826	161.94
656.03	164.94
656.234	161.94
656.438	169.94
656.642	156.94
656.846	155.94
657.049	156.94
657.253	131.94
657.457	118.94
657.661	115.94
657.865	133.94
658.068	128.94
658.272	117.94
658.476	114.94
658.68	117.94
658.883	115.94
659.087	110.94
659.291	112.94
659.494	102.94
659.698	114.94
659.901	108.94
660.105	92.94
660.309	95.94
660.512	87.94
660.716	86.94
660.919	96.94
661.123	99.94
661.326	99.94
661.53	89.94
661.733	93.94
661.936	97.94
662.14	95.94
662.343	84.94
662.546	84.94
662.75	91.94
662.953	84.94
663.156	76.94
663.36	71.94
663.563	76.94
663.766	77.94
663.969	78.94
664.173	76.94
664.376	86.94
664.579	89.94
664.782	77.94
664.985	90.94
665.188	78.94
665.391	82.94
665.594	83.94
665.797	78.94
666	101.94
666.203	76.94
666.406	82.94
666.609	70.94
666.812	100.94
667.015	76.94
667.218	88.94
667.421	81.94
667.624	63.94
667.827	75.94
668.03	93.94
668.232	91.94
668.435	89.94
668.638	84.94
668.841	81.94
669.043	82.94
669.246	81.94
669.449	74.94
669.651	95.94
669.854	75.94
670.057	82.94
670.259	79.94
670.462	84.94
670.665	82.94
670.867	92.94
671.07	84.94
671.272	77.94
671.475	95.94
671.677	92.94
671.88	80.94
672.082	74.94
672.284	82.94
672.487	91.94
672.689	64.94
672.892	80.94
