Data from NiCl2@0.125M.TitratingCurve.Agarose3%dH2O.NegLispCup.LampEnergy10.LIBS07252019_HRD10591_18-28-45-574.txt Node
Date: Thu Jul 25 18:28:45 EDT 2019
User: cochatt
Spectrometer: HR+D1059
Trigger mode: 1
Integration Time (sec): 1.000000E-1
Scans to average: 1
Electric dark correction enabled: true
Nonlinearity correction enabled: false
Boxcar width: 0
XAxis mode: Wavelengths
Number of Pixels in Spectrum: 2048
>>>>>Begin Spectral Data<<<<<
223.165	-16.94
223.4	-16.94
223.635	-16.94
223.869	-24.94
224.104	-19.94
224.338	-12.94
224.573	-11.94
224.808	-8.94
225.042	-18.94
225.277	-3.94
225.511	-0.94
225.746	5.06
225.98	23.06
226.215	7.06
226.449	18.06
226.683	19.06
226.918	12.06
227.152	35.06
227.387	39.06
227.621	37.06
227.856	46.06
228.09	36.06
228.324	41.06
228.559	58.06
228.793	72.06
229.027	109.06
229.262	114.06
229.496	100.06
229.73	112.06
229.964	126.06
230.199	116.06
230.433	101.06
230.667	136.06
230.901	134.06
231.136	131.06
231.37	117.06
231.604	142.06
231.838	134.06
232.072	137.06
232.306	144.06
232.541	124.06
232.775	135.06
233.009	138.06
233.243	150.06
233.477	126.06
233.711	120.06
233.945	131.06
234.179	145.06
234.413	149.06
234.647	128.06
234.881	146.06
235.115	144.06
235.349	140.06
235.583	137.06
235.817	143.06
236.051	152.06
236.285	153.06
236.519	160.06
236.753	146.06
236.987	143.06
237.221	152.06
237.455	139.06
237.689	149.06
237.922	154.06
238.156	146.06
238.39	150.06
238.624	162.06
238.858	156.06
239.091	160.06
239.325	170.06
239.559	166.06
239.793	171.06
240.027	162.06
240.26	175.06
240.494	174.06
240.728	174.06
240.961	183.06
241.195	168.06
241.429	157.06
241.662	169.06
241.896	188.06
242.13	208.06
242.363	194.06
242.597	186.06
242.83	186.06
243.064	189.06
243.298	178.06
243.531	200.06
243.765	208.06
243.998	203.06
244.232	190.06
244.465	206.06
244.699	203.06
244.932	201.06
245.166	203.06
245.399	204.06
245.633	196.06
245.866	211.06
246.099	221.06
246.333	221.06
246.566	209.06
246.8	228.06
247.033	231.06
247.266	208.06
247.5	215.06
247.733	215.06
247.966	219.06
248.2	245.06
248.433	238.06
248.666	235.06
248.899	232.06
249.133	238.06
249.366	233.06
249.599	230.06
249.832	230.06
250.066	244.06
250.299	260.06
250.532	253.06
250.765	240.06
250.998	229.06
251.231	245.06
251.465	256.06
251.698	259.06
251.931	252.06
252.164	270.06
252.397	258.06
252.63	251.06
252.863	258.06
253.096	267.06
253.329	290.06
253.562	259.06
253.795	269.06
254.028	258.06
254.261	274.06
254.494	278.06
254.727	269.06
254.96	264.06
255.193	276.06
255.426	284.06
255.659	263.06
255.892	280.06
256.124	292.06
256.357	291.06
256.59	274.06
256.823	288.06
257.056	292.06
257.289	280.06
257.521	275.06
257.754	281.06
257.987	293.06
258.22	274.06
258.452	294.06
258.685	291.06
258.918	299.06
259.151	299.06
259.383	303.06
259.616	305.06
259.849	296.06
260.081	305.06
260.314	291.06
260.547	310.06
260.779	306.06
261.012	297.06
261.244	306.06
261.477	317.06
261.71	320.06
261.942	327.06
262.175	306.06
262.407	308.06
262.64	322.06
262.872	307.06
263.105	306.06
263.337	312.06
263.57	308.06
263.802	332.06
264.035	327.06
264.267	345.06
264.499	332.06
264.732	332.06
264.964	323.06
265.197	322.06
265.429	339.06
265.661	337.06
265.894	318.06
266.126	354.06
266.358	351.06
266.591	348.06
266.823	345.06
267.055	363.06
267.287	356.06
267.52	332.06
267.752	344.06
267.984	353.06
268.216	344.06
268.448	355.06
268.681	357.06
268.913	364.06
269.145	382.06
269.377	359.06
269.609	360.06
269.841	376.06
270.073	366.06
270.306	347.06
270.538	350.06
270.77	351.06
271.002	349.06
271.234	359.06
271.466	373.06
271.698	370.06
271.93	373.06
272.162	372.06
272.394	362.06
272.626	376.06
272.858	363.06
273.09	377.06
273.322	381.06
273.553	371.06
273.785	378.06
274.017	378.06
274.249	388.06
274.481	390.06
274.713	381.06
274.945	401.06
275.176	414.06
275.408	408.06
275.64	403.06
275.872	426.06
276.104	408.06
276.335	379.06
276.567	408.06
276.799	402.06
277.031	418.06
277.262	411.06
277.494	405.06
277.726	430.06
277.957	416.06
278.189	404.06
278.421	404.06
278.652	404.06
278.884	416.06
279.115	426.06
279.347	438.06
279.579	423.06
279.81	425.06
280.042	441.06
280.273	424.06
280.505	430.06
280.736	418.06
280.968	440.06
281.199	423.06
281.431	441.06
281.662	454.06
281.894	438.06
282.125	451.06
282.356	430.06
282.588	448.06
282.819	459.06
283.051	432.06
283.282	454.06
283.513	456.06
283.745	471.06
283.976	445.06
284.207	475.06
284.439	452.06
284.67	454.06
284.901	451.06
285.132	460.06
285.364	466.06
285.595	479.06
285.826	475.06
286.057	492.06
286.288	459.06
286.52	459.06
286.751	474.06
286.982	496.06
287.213	489.06
287.444	499.06
287.675	510.06
287.906	475.06
288.138	499.06
288.369	491.06
288.6	492.06
288.831	494.06
289.062	483.06
289.293	474.06
289.524	475.06
289.755	484.06
289.986	485.06
290.217	490.06
290.448	491.06
290.679	509.06
290.91	475.06
291.141	496.06
291.371	511.06
291.602	487.06
291.833	501.06
292.064	514.06
292.295	504.06
292.526	503.06
292.757	498.06
292.987	491.06
293.218	491.06
293.449	517.06
293.68	505.06
293.91	499.06
294.141	515.06
294.372	511.06
294.603	510.06
294.833	522.06
295.064	498.06
295.295	520.06
295.525	523.06
295.756	529.06
295.987	543.06
296.217	536.06
296.448	544.06
296.679	540.06
296.909	561.06
297.14	549.06
297.37	530.06
297.601	545.06
297.831	525.06
298.062	564.06
298.292	552.06
298.523	582.06
298.753	547.06
298.984	534.06
299.214	573.06
299.445	568.06
299.675	554.06
299.905	547.06
300.136	554.06
300.366	588.06
300.597	581.06
300.827	556.06
301.057	581.06
301.288	568.06
301.518	571.06
301.748	578.06
301.979	585.06
302.209	596.06
302.439	586.06
302.669	583.06
302.9	585.06
303.13	582.06
303.36	577.06
303.59	563.06
303.82	560.06
304.051	590.06
304.281	583.06
304.511	564.06
304.741	555.06
304.971	589.06
305.201	577.06
305.431	574.06
305.661	600.06
305.891	567.06
306.121	558.06
306.352	565.06
306.582	567.06
306.812	572.06
307.042	558.06
307.272	590.06
307.502	555.06
307.731	564.06
307.961	600.06
308.191	547.06
308.421	559.06
308.651	564.06
308.881	550.06
309.111	587.06
309.341	551.06
309.571	559.06
309.8	554.06
310.03	578.06
310.26	576.06
310.49	570.06
310.72	568.06
310.949	565.06
311.179	576.06
311.409	573.06
311.639	598.06
311.868	579.06
312.098	564.06
312.328	565.06
312.557	585.06
312.787	585.06
313.017	601.06
313.246	578.06
313.476	602.06
313.706	591.06
313.935	600.06
314.165	588.06
314.394	592.06
314.624	606.06
314.853	591.06
315.083	586.06
315.312	623.06
315.542	626.06
315.771	587.06
316.001	600.06
316.23	584.06
316.46	598.06
316.689	574.06
316.919	592.06
317.148	578.06
317.377	591.06
317.607	566.06
317.836	570.06
318.065	611.06
318.295	566.06
318.524	602.06
318.753	592.06
318.983	576.06
319.212	574.06
319.441	578.06
319.67	563.06
319.9	598.06
320.129	590.06
320.358	597.06
320.587	591.06
320.816	585.06
321.046	601.06
321.275	607.06
321.504	596.06
321.733	604.06
321.962	568.06
322.191	581.06
322.42	613.06
322.649	587.06
322.878	601.06
323.108	606.06
323.337	597.06
323.566	606.06
323.795	627.06
324.024	590.06
324.253	630.06
324.482	574.06
324.71	590.06
324.939	609.06
325.168	616.06
325.397	609.06
325.626	600.06
325.855	611.06
326.084	624.06
326.313	632.06
326.542	645.06
326.77	653.06
326.999	635.06
327.228	638.06
327.457	622.06
327.686	649.06
327.914	633.06
328.143	639.06
328.372	655.06
328.6	636.06
328.829	635.06
329.058	640.06
329.287	639.06
329.515	644.06
329.744	643.06
329.972	657.06
330.201	660.06
330.43	661.06
330.658	648.06
330.887	673.06
331.115	651.06
331.344	660.06
331.572	678.06
331.801	672.06
332.03	687.06
332.258	716.06
332.486	735.06
332.715	753.06
332.943	756.06
333.172	810.06
333.4	830.06
333.629	859.06
333.857	843.06
334.085	867.06
334.314	852.06
334.542	856.06
334.771	824.06
334.999	832.06
335.227	852.06
335.455	816.06
335.684	779.06
335.912	798.06
336.14	772.06
336.369	771.06
336.597	790.06
336.825	778.06
337.053	766.06
337.281	768.06
337.51	739.06
337.738	719.06
337.966	739.06
338.194	734.06
338.422	706.06
338.65	704.06
338.878	702.06
339.106	688.06
339.334	711.06
339.562	680.06
339.79	672.06
340.018	664.06
340.246	643.06
340.474	643.06
340.702	664.06
340.93	662.06
341.158	712.06
341.386	680.06
341.614	708.06
341.842	676.06
342.07	640.06
342.298	661.06
342.526	642.06
342.754	666.06
342.981	683.06
343.209	694.06
343.437	715.06
343.665	746.06
343.893	791.06
344.12	838.06
344.348	824.06
344.576	786.06
344.804	738.06
345.031	717.06
345.259	707.06
345.487	706.06
345.714	679.06
345.942	666.06
346.17	683.06
346.397	679.06
346.625	678.06
346.853	674.06
347.08	633.06
347.308	670.06
347.535	636.06
347.763	670.06
347.99	672.06
348.218	681.06
348.445	658.06
348.673	661.06
348.9	641.06
349.128	658.06
349.355	648.06
349.583	646.06
349.81	638.06
350.037	636.06
350.265	634.06
350.492	627.06
350.72	626.06
350.947	618.06
351.174	636.06
351.402	626.06
351.629	646.06
351.856	637.06
352.083	626.06
352.311	617.06
352.538	642.06
352.765	640.06
352.992	629.06
353.22	642.06
353.447	618.06
353.674	602.06
353.901	635.06
354.128	622.06
354.355	642.06
354.583	630.06
354.81	619.06
355.037	639.06
355.264	666.06
355.491	642.06
355.718	643.06
355.945	653.06
356.172	648.06
356.399	638.06
356.626	639.06
356.853	644.06
357.08	647.06
357.307	649.06
357.534	623.06
357.761	650.06
357.988	636.06
358.215	632.06
358.441	635.06
358.668	637.06
358.895	631.06
359.122	631.06
359.349	648.06
359.576	619.06
359.802	644.06
360.029	628.06
360.256	634.06
360.483	655.06
360.709	629.06
360.936	626.06
361.163	628.06
361.39	643.06
361.616	629.06
361.843	634.06
362.07	666.06
362.296	652.06
362.523	627.06
362.749	619.06
362.976	625.06
363.203	620.06
363.429	650.06
363.656	614.06
363.882	615.06
364.109	616.06
364.335	619.06
364.562	642.06
364.788	633.06
365.015	628.06
365.241	628.06
365.468	604.06
365.694	622.06
365.92	627.06
366.147	626.06
366.373	627.06
366.599	615.06
366.826	621.06
367.052	628.06
367.278	627.06
367.505	634.06
367.731	644.06
367.957	629.06
368.184	632.06
368.41	636.06
368.636	639.06
368.862	617.06
369.089	665.06
369.315	644.06
369.541	654.06
369.767	648.06
369.993	644.06
370.219	649.06
370.445	689.06
370.672	676.06
370.898	670.06
371.124	663.06
371.35	704.06
371.576	691.06
371.802	681.06
372.028	683.06
372.254	692.06
372.48	710.06
372.706	698.06
372.932	718.06
373.158	703.06
373.384	704.06
373.61	696.06
373.835	688.06
374.061	693.06
374.287	699.06
374.513	702.06
374.739	712.06
374.965	729.06
375.191	790.06
375.416	770.06
375.642	746.06
375.868	718.06
376.094	730.06
376.319	683.06
376.545	694.06
376.771	698.06
376.997	691.06
377.222	721.06
377.448	688.06
377.674	687.06
377.899	691.06
378.125	664.06
378.35	673.06
378.576	664.06
378.802	674.06
379.027	688.06
379.253	672.06
379.478	675.06
379.704	680.06
379.929	674.06
380.155	684.06
380.38	682.06
380.606	687.06
380.831	698.06
381.057	674.06
381.282	700.06
381.507	675.06
381.733	698.06
381.958	701.06
382.184	717.06
382.409	694.06
382.634	706.06
382.86	711.06
383.085	731.06
383.31	748.06
383.535	747.06
383.761	744.06
383.986	783.06
384.211	790.06
384.436	801.06
384.662	815.06
384.887	840.06
385.112	808.06
385.337	814.06
385.562	808.06
385.787	829.06
386.013	839.06
386.238	854.06
386.463	862.06
386.688	867.06
386.913	827.06
387.138	833.06
387.363	819.06
387.588	803.06
387.813	815.06
388.038	828.06
388.263	816.06
388.488	805.06
388.713	810.06
388.938	847.06
389.163	826.06
389.387	827.06
389.612	802.06
389.837	836.06
390.062	802.06
390.287	811.06
390.512	799.06
390.736	838.06
390.961	820.06
391.186	851.06
391.411	882.06
391.636	878.06
391.86	911.06
392.085	934.06
392.31	955.06
392.534	911.06
392.759	930.06
392.984	898.06
393.208	858.06
393.433	870.06
393.658	894.06
393.882	862.06
394.107	868.06
394.331	867.06
394.556	865.06
394.78	875.06
395.005	890.06
395.229	872.06
395.454	917.06
395.678	925.06
395.903	942.06
396.127	938.06
396.352	923.06
396.576	872.06
396.801	870.06
397.025	869.06
397.249	929.06
397.474	928.06
397.698	954.06
397.922	930.06
398.147	941.06
398.371	955.06
398.595	993.06
398.82	1034.06
399.044	1090.06
399.268	1230.06
399.492	1358.06
399.717	1526.06
399.941	1603.06
400.165	1462.06
400.389	1287.06
400.613	1208.06
400.837	1141.06
401.062	1084.06
401.286	1048.06
401.51	1023.06
401.734	1032.06
401.958	1071.06
402.182	1049.06
402.406	1103.06
402.63	1091.06
402.854	1121.06
403.078	1094.06
403.302	1162.06
403.526	1185.06
403.75	1172.06
403.974	1176.06
404.198	1209.06
404.422	1163.06
404.645	1235.06
404.869	1168.06
405.093	1211.06
405.317	1145.06
405.541	1163.06
405.765	1162.06
405.988	1146.06
406.212	1137.06
406.436	1146.06
406.66	1151.06
406.883	1189.06
407.107	1240.06
407.331	1294.06
407.555	1371.06
407.778	1383.06
408.002	1318.06
408.226	1293.06
408.449	1271.06
408.673	1222.06
408.896	1188.06
409.12	1164.06
409.344	1178.06
409.567	1160.06
409.791	1195.06
410.014	1178.06
410.238	1200.06
410.461	1162.06
410.685	1144.06
410.908	1151.06
411.132	1121.06
411.355	1068.06
411.578	1086.06
411.802	1068.06
412.025	1064.06
412.249	1083.06
412.472	1100.06
412.695	1086.06
412.919	1062.06
413.142	1031.06
413.365	1037.06
413.589	1054.06
413.812	1012.06
414.035	1049.06
414.258	1024.06
414.482	1052.06
414.705	1059.06
414.928	1079.06
415.151	1036.06
415.374	1048.06
415.597	1029.06
415.821	1017.06
416.044	1032.06
416.267	1034.06
416.49	1021.06
416.713	1018.06
416.936	1036.06
417.159	1027.06
417.382	1038.06
417.605	1026.06
417.828	1020.06
418.051	1023.06
418.274	1056.06
418.497	1057.06
418.72	1055.06
418.943	1048.06
419.166	1123.06
419.389	1174.06
419.611	1206.06
419.834	1131.06
420.057	1099.06
420.28	1051.06
420.503	1014.06
420.726	1008.06
420.948	1019.06
421.171	1038.06
421.394	1033.06
421.617	1036.06
421.839	1010.06
422.062	1023.06
422.285	1009.06
422.507	1045.06
422.73	1070.06
422.953	1070.06
423.175	1083.06
423.398	1062.06
423.621	1076.06
423.843	1106.06
424.066	1120.06
424.288	1091.06
424.511	1090.06
424.733	1054.06
424.956	1066.06
425.178	1089.06
425.401	1027.06
425.623	1020.06
425.846	1012.06
426.068	1014.06
426.291	1022.06
426.513	1000.06
426.735	980.06
426.958	976.06
427.18	946.06
427.402	963.06
427.625	946.06
427.847	935.06
428.069	926.06
428.292	934.06
428.514	925.06
428.736	904.06
428.958	921.06
429.181	921.06
429.403	889.06
429.625	889.06
429.847	922.06
430.069	891.06
430.292	912.06
430.514	901.06
430.736	887.06
430.958	910.06
431.18	894.06
431.402	918.06
431.624	904.06
431.846	943.06
432.068	914.06
432.29	943.06
432.512	922.06
432.734	954.06
432.956	934.06
433.178	947.06
433.4	947.06
433.622	950.06
433.844	958.06
434.066	963.06
434.287	972.06
434.509	967.06
434.731	1029.06
434.953	1058.06
435.175	1048.06
435.397	1035.06
435.618	966.06
435.84	946.06
436.062	958.06
436.284	962.06
436.505	919.06
436.727	928.06
436.949	971.06
437.17	912.06
437.392	932.06
437.614	939.06
437.835	905.06
438.057	894.06
438.278	899.06
438.5	878.06
438.721	889.06
438.943	917.06
439.165	893.06
439.386	917.06
439.608	942.06
439.829	915.06
440.05	956.06
440.272	948.06
440.493	931.06
440.715	968.06
440.936	966.06
441.158	983.06
441.379	1032.06
441.6	1059.06
441.822	1058.06
442.043	1070.06
442.264	1055.06
442.486	1023.06
442.707	1042.06
442.928	1034.06
443.149	1036.06
443.371	1011.06
443.592	1032.06
443.813	1067.06
444.034	1089.06
444.255	1098.06
444.476	1143.06
444.698	1193.06
444.919	1237.06
445.14	1326.06
445.361	1218.06
445.582	1107.06
445.803	1066.06
446.024	1020.06
446.245	1008.06
446.466	993.06
446.687	950.06
446.908	952.06
447.129	931.06
447.35	934.06
447.571	912.06
447.792	884.06
448.013	899.06
448.234	858.06
448.455	871.06
448.675	889.06
448.896	864.06
449.117	835.06
449.338	873.06
449.559	863.06
449.779	862.06
450	846.06
450.221	866.06
450.442	871.06
450.662	879.06
450.883	865.06
451.104	866.06
451.324	872.06
451.545	880.06
451.766	905.06
451.986	879.06
452.207	871.06
452.428	871.06
452.648	866.06
452.869	847.06
453.089	818.06
453.31	851.06
453.53	847.06
453.751	857.06
453.971	834.06
454.192	865.06
454.412	832.06
454.633	850.06
454.853	816.06
455.073	817.06
455.294	835.06
455.514	815.06
455.734	825.06
455.955	817.06
456.175	828.06
456.395	798.06
456.616	818.06
456.836	803.06
457.056	791.06
457.276	794.06
457.497	840.06
457.717	809.06
457.937	807.06
458.157	811.06
458.377	859.06
458.598	839.06
458.818	856.06
459.038	896.06
459.258	916.06
459.478	956.06
459.698	1005.06
459.918	1030.06
460.138	1048.06
460.358	1073.06
460.578	1114.06
460.798	1118.06
461.018	1138.06
461.238	1119.06
461.458	1122.06
461.678	1093.06
461.898	1119.06
462.118	1148.06
462.338	1196.06
462.558	1244.06
462.777	1268.06
462.997	1404.06
463.217	1472.06
463.437	1506.06
463.657	1368.06
463.876	1352.06
464.096	1348.06
464.316	1312.06
464.536	1306.06
464.755	1272.06
464.975	1221.06
465.195	1170.06
465.414	1092.06
465.634	1024.06
465.854	988.06
466.073	967.06
466.293	967.06
466.512	957.06
466.732	909.06
466.951	899.06
467.171	930.06
467.391	936.06
467.61	880.06
467.829	887.06
468.049	906.06
468.268	889.06
468.488	890.06
468.707	876.06
468.927	856.06
469.146	883.06
469.365	884.06
469.585	871.06
469.804	942.06
470.023	924.06
470.243	946.06
470.462	938.06
470.681	930.06
470.901	914.06
471.12	932.06
471.339	912.06
471.558	910.06
471.777	915.06
471.997	870.06
472.216	898.06
472.435	888.06
472.654	848.06
472.873	870.06
473.092	834.06
473.311	825.06
473.53	848.06
473.749	867.06
473.968	861.06
474.187	862.06
474.406	854.06
474.625	841.06
474.844	871.06
475.063	878.06
475.282	856.06
475.501	847.06
475.72	848.06
475.939	863.06
476.158	871.06
476.377	891.06
476.596	886.06
476.814	908.06
477.033	919.06
477.252	925.06
477.471	953.06
477.69	980.06
477.908	985.06
478.127	1010.06
478.346	1029.06
478.564	1021.06
478.783	1048.06
479.002	1092.06
479.22	1099.06
479.439	1076.06
479.658	1074.06
479.876	1089.06
480.095	1089.06
480.313	1137.06
480.532	1139.06
480.751	1148.06
480.969	1100.06
481.188	1096.06
481.406	1068.06
481.624	1033.06
481.843	1000.06
482.061	998.06
482.28	955.06
482.498	972.06
482.717	998.06
482.935	988.06
483.153	974.06
483.372	988.06
483.59	994.06
483.808	968.06
484.027	988.06
484.245	986.06
484.463	987.06
484.681	1048.06
484.9	1013.06
485.118	1026.06
485.336	989.06
485.554	1043.06
485.772	1040.06
485.99	1057.06
486.209	1072.06
486.427	1030.06
486.645	1031.06
486.863	1017.06
487.081	1047.06
487.299	1007.06
487.517	1031.06
487.735	1032.06
487.953	1007.06
488.171	1016.06
488.389	983.06
488.607	986.06
488.825	1015.06
489.043	1003.06
489.261	982.06
489.479	988.06
489.696	1019.06
489.914	1026.06
490.132	988.06
490.35	1021.06
490.568	1030.06
490.786	1039.06
491.003	1047.06
491.221	1060.06
491.439	1043.06
491.657	1027.06
491.874	1036.06
492.092	1058.06
492.31	1037.06
492.527	1057.06
492.745	1072.06
492.963	1042.06
493.18	1068.06
493.398	1072.06
493.615	1067.06
493.833	1068.06
494.05	1083.06
494.268	1081.06
494.485	1103.06
494.703	1095.06
494.92	1106.06
495.138	1112.06
495.355	1092.06
495.573	1091.06
495.79	1104.06
496.008	1106.06
496.225	1092.06
496.442	1134.06
496.66	1162.06
496.877	1144.06
497.094	1173.06
497.312	1206.06
497.529	1233.06
497.746	1239.06
497.963	1292.06
498.181	1341.06
498.398	1406.06
498.615	1486.06
498.832	1582.06
499.049	1695.06
499.267	1782.06
499.484	1947.06
499.701	2200.06
499.918	2389.06
500.135	2743.06
500.352	3025.06
500.569	3182.06
500.786	3135.06
501.003	2996.06
501.22	2718.06
501.437	2459.06
501.654	2182.06
501.871	1958.06
502.088	1805.06
502.305	1695.06
502.522	1596.06
502.739	1519.06
502.956	1438.06
503.172	1399.06
503.389	1338.06
503.606	1291.06
503.823	1281.06
504.04	1293.06
504.256	1284.06
504.473	1259.06
504.69	1283.06
504.907	1269.06
505.123	1208.06
505.34	1164.06
505.557	1078.06
505.773	1084.06
505.99	1039.06
506.207	1034.06
506.423	1052.06
506.64	995.06
506.856	986.06
507.073	991.06
507.289	966.06
507.506	978.06
507.722	982.06
507.939	959.06
508.155	938.06
508.372	944.06
508.588	907.06
508.805	920.06
509.021	899.06
509.238	900.06
509.454	904.06
509.67	913.06
509.887	891.06
510.103	875.06
510.319	883.06
510.536	882.06
510.752	880.06
510.968	893.06
511.184	898.06
511.401	893.06
511.617	879.06
511.833	891.06
512.049	897.06
512.265	889.06
512.481	912.06
512.698	894.06
512.914	876.06
513.13	873.06
513.346	882.06
513.562	882.06
513.778	874.06
513.994	873.06
514.21	901.06
514.426	902.06
514.642	903.06
514.858	910.06
515.074	910.06
515.29	875.06
515.506	900.06
515.721	906.06
515.937	899.06
516.153	951.06
516.369	974.06
516.585	1012.06
516.801	1034.06
517.016	1063.06
517.232	1092.06
517.448	1168.06
517.664	1196.06
517.879	1186.06
518.095	1205.06
518.311	1186.06
518.527	1134.06
518.742	1114.06
518.958	1041.06
519.173	1029.06
519.389	981.06
519.605	959.06
519.82	946.06
520.036	931.06
520.251	890.06
520.467	891.06
520.682	894.06
520.898	892.06
521.113	887.06
521.329	882.06
521.544	863.06
521.76	856.06
521.975	865.06
522.19	836.06
522.406	857.06
522.621	852.06
522.836	858.06
523.052	842.06
523.267	852.06
523.482	859.06
523.698	805.06
523.913	832.06
524.128	820.06
524.343	829.06
524.559	802.06
524.774	774.06
524.989	804.06
525.204	803.06
525.419	812.06
525.634	788.06
525.849	811.06
526.064	804.06
526.28	792.06
526.495	787.06
526.71	809.06
526.925	794.06
527.14	790.06
527.355	779.06
527.57	801.06
527.785	790.06
527.999	824.06
528.214	793.06
528.429	808.06
528.644	788.06
528.859	832.06
529.074	819.06
529.289	805.06
529.503	809.06
529.718	817.06
529.933	796.06
530.148	788.06
530.363	773.06
530.577	791.06
530.792	787.06
531.007	774.06
531.221	800.06
531.436	793.06
531.651	804.06
531.865	813.06
532.08	802.06
532.295	801.06
532.509	784.06
532.724	778.06
532.938	801.06
533.153	801.06
533.367	790.06
533.582	790.06
533.796	803.06
534.011	792.06
534.225	776.06
534.44	788.06
534.654	804.06
534.868	789.06
535.083	784.06
535.297	756.06
535.511	762.06
535.726	785.06
535.94	768.06
536.154	771.06
536.369	746.06
536.583	752.06
536.797	753.06
537.011	750.06
537.225	711.06
537.44	752.06
537.654	770.06
537.868	756.06
538.082	730.06
538.296	743.06
538.51	724.06
538.724	734.06
538.938	719.06
539.153	726.06
539.367	723.06
539.581	738.06
539.795	702.06
540.009	711.06
540.222	715.06
540.436	734.06
540.65	719.06
540.864	719.06
541.078	706.06
541.292	705.06
541.506	721.06
541.72	728.06
541.934	702.06
542.147	725.06
542.361	723.06
542.575	720.06
542.789	698.06
543.002	710.06
543.216	665.06
543.43	696.06
543.644	701.06
543.857	706.06
544.071	714.06
544.285	739.06
544.498	702.06
544.712	705.06
544.925	727.06
545.139	724.06
545.352	729.06
545.566	738.06
545.779	737.06
545.993	735.06
546.206	737.06
546.42	714.06
546.633	721.06
546.847	719.06
547.06	740.06
547.274	731.06
547.487	735.06
547.7	727.06
547.914	739.06
548.127	713.06
548.34	739.06
548.554	708.06
548.767	738.06
548.98	746.06
549.193	729.06
549.407	743.06
549.62	726.06
549.833	734.06
550.046	751.06
550.259	750.06
550.473	729.06
550.686	727.06
550.899	715.06
551.112	713.06
551.325	706.06
551.538	721.06
551.751	715.06
551.964	716.06
552.177	723.06
552.39	754.06
552.603	755.06
552.816	760.06
553.029	789.06
553.242	799.06
553.455	790.06
553.667	790.06
553.88	780.06
554.093	800.06
554.306	739.06
554.519	770.06
554.732	729.06
554.944	724.06
555.157	697.06
555.37	716.06
555.583	689.06
555.795	660.06
556.008	654.06
556.221	671.06
556.433	669.06
556.646	638.06
556.859	629.06
557.071	622.06
557.284	632.06
557.496	666.06
557.709	638.06
557.921	622.06
558.134	641.06
558.346	638.06
558.559	630.06
558.771	632.06
558.984	626.06
559.196	629.06
559.409	632.06
559.621	618.06
559.833	628.06
560.046	609.06
560.258	592.06
560.47	598.06
560.683	605.06
560.895	594.06
561.107	584.06
561.32	611.06
561.532	589.06
561.744	624.06
561.956	611.06
562.168	614.06
562.381	619.06
562.593	634.06
562.805	606.06
563.017	614.06
563.229	619.06
563.441	638.06
563.653	625.06
563.865	639.06
564.077	639.06
564.289	661.06
564.501	640.06
564.713	646.06
564.925	680.06
565.137	683.06
565.349	702.06
565.561	710.06
565.773	745.06
565.985	778.06
566.197	822.06
566.408	845.06
566.62	922.06
566.832	1010.06
567.044	1006.06
567.255	1030.06
567.467	1066.06
567.679	1109.06
567.891	1142.06
568.102	1162.06
568.314	1103.06
568.526	1014.06
568.737	926.06
568.949	843.06
569.161	795.06
569.372	768.06
569.584	722.06
569.795	688.06
570.007	663.06
570.218	654.06
570.43	658.06
570.641	643.06
570.853	638.06
571.064	652.06
571.276	642.06
571.487	606.06
571.698	588.06
571.91	584.06
572.121	582.06
572.333	579.06
572.544	545.06
572.755	543.06
572.966	523.06
573.178	551.06
573.389	537.06
573.6	532.06
573.811	530.06
574.023	513.06
574.234	522.06
574.445	506.06
574.656	521.06
574.867	520.06
575.078	506.06
575.289	511.06
575.501	510.06
575.712	515.06
575.923	499.06
576.134	499.06
576.345	479.06
576.556	499.06
576.767	481.06
576.978	491.06
577.188	464.06
577.399	501.06
577.61	468.06
577.821	469.06
578.032	471.06
578.243	450.06
578.454	454.06
578.665	478.06
578.875	438.06
579.086	454.06
579.297	453.06
579.508	460.06
579.718	460.06
579.929	448.06
580.14	441.06
580.35	454.06
580.561	447.06
580.772	451.06
580.982	448.06
581.193	435.06
581.403	442.06
581.614	452.06
581.825	420.06
582.035	440.06
582.246	435.06
582.456	436.06
582.667	430.06
582.877	416.06
583.087	443.06
583.298	443.06
583.508	436.06
583.719	418.06
583.929	433.06
584.139	426.06
584.35	425.06
584.56	422.06
584.77	425.06
584.981	409.06
585.191	399.06
585.401	408.06
585.611	410.06
585.821	419.06
586.032	426.06
586.242	422.06
586.452	419.06
586.662	394.06
586.872	432.06
587.082	402.06
587.292	417.06
587.502	403.06
587.713	408.06
587.923	438.06
588.133	431.06
588.343	418.06
588.553	420.06
588.762	414.06
588.972	396.06
589.182	422.06
589.392	434.06
589.602	402.06
589.812	436.06
590.022	436.06
590.232	410.06
590.441	422.06
590.651	399.06
590.861	430.06
591.071	412.06
591.281	448.06
591.49	418.06
591.7	424.06
591.91	454.06
592.119	457.06
592.329	465.06
592.539	476.06
592.748	482.06
592.958	495.06
593.167	503.06
593.377	513.06
593.587	530.06
593.796	525.06
594.006	520.06
594.215	540.06
594.424	544.06
594.634	511.06
594.843	507.06
595.053	474.06
595.262	460.06
595.472	460.06
595.681	435.06
595.89	436.06
596.1	397.06
596.309	424.06
596.518	414.06
596.727	389.06
596.937	371.06
597.146	407.06
597.355	406.06
597.564	377.06
597.774	394.06
597.983	358.06
598.192	356.06
598.401	379.06
598.61	378.06
598.819	374.06
599.028	372.06
599.237	355.06
599.446	358.06
599.655	372.06
599.864	345.06
600.073	368.06
600.282	348.06
600.491	351.06
600.7	352.06
600.909	352.06
601.118	355.06
601.327	353.06
601.536	355.06
601.745	337.06
601.953	329.06
602.162	332.06
602.371	323.06
602.58	347.06
602.789	343.06
602.997	344.06
603.206	340.06
603.415	339.06
603.623	327.06
603.832	336.06
604.041	330.06
604.249	324.06
604.458	331.06
604.666	331.06
604.875	324.06
605.084	347.06
605.292	319.06
605.501	306.06
605.709	332.06
605.918	318.06
606.126	318.06
606.334	314.06
606.543	320.06
606.751	336.06
606.96	315.06
607.168	302.06
607.376	296.06
607.585	325.06
607.793	318.06
608.001	297.06
608.21	323.06
608.418	313.06
608.626	325.06
608.834	323.06
609.043	322.06
609.251	303.06
609.459	332.06
609.667	318.06
609.875	304.06
610.083	308.06
610.291	313.06
610.499	306.06
610.707	315.06
610.916	312.06
611.124	315.06
611.332	319.06
611.54	312.06
611.748	317.06
611.955	298.06
612.163	308.06
612.371	321.06
612.579	315.06
612.787	303.06
612.995	295.06
613.203	282.06
613.411	304.06
613.618	290.06
613.826	312.06
614.034	308.06
614.242	319.06
614.449	314.06
614.657	304.06
614.865	308.06
615.072	322.06
615.28	291.06
615.488	295.06
615.695	308.06
615.903	305.06
616.111	311.06
616.318	304.06
616.526	326.06
616.733	292.06
616.941	303.06
617.148	299.06
617.356	312.06
617.563	290.06
617.771	311.06
617.978	295.06
618.185	308.06
618.393	292.06
618.6	296.06
618.807	292.06
619.015	311.06
619.222	296.06
619.429	301.06
619.637	300.06
619.844	292.06
620.051	278.06
620.258	280.06
620.466	268.06
620.673	274.06
620.88	278.06
621.087	282.06
621.294	286.06
621.501	300.06
621.708	304.06
621.915	307.06
622.122	267.06
622.329	281.06
622.536	299.06
622.743	279.06
622.95	288.06
623.157	266.06
623.364	266.06
623.571	272.06
623.778	262.06
623.985	278.06
624.192	260.06
624.399	254.06
624.606	267.06
624.812	257.06
625.019	275.06
625.226	258.06
625.433	252.06
625.639	260.06
625.846	253.06
626.053	265.06
626.259	259.06
626.466	264.06
626.673	274.06
626.879	262.06
627.086	254.06
627.293	254.06
627.499	273.06
627.706	268.06
627.912	254.06
628.119	246.06
628.325	257.06
628.532	233.06
628.738	234.06
628.945	242.06
629.151	240.06
629.357	258.06
629.564	260.06
629.77	249.06
629.976	246.06
630.183	254.06
630.389	234.06
630.595	228.06
630.802	247.06
631.008	241.06
631.214	232.06
631.42	243.06
631.627	231.06
631.833	238.06
632.039	231.06
632.245	244.06
632.451	250.06
632.657	223.06
632.863	228.06
633.069	235.06
633.275	229.06
633.481	217.06
633.688	222.06
633.893	236.06
634.099	240.06
634.305	220.06
634.511	241.06
634.717	231.06
634.923	249.06
635.129	223.06
635.335	225.06
635.541	224.06
635.747	225.06
635.952	231.06
636.158	216.06
636.364	212.06
636.57	225.06
636.775	208.06
636.981	226.06
637.187	214.06
637.392	211.06
637.598	217.06
637.804	219.06
638.009	222.06
638.215	207.06
638.421	209.06
638.626	198.06
638.832	211.06
639.037	212.06
639.243	213.06
639.448	220.06
639.654	218.06
639.859	216.06
640.065	212.06
640.27	223.06
640.475	208.06
640.681	206.06
640.886	207.06
641.091	186.06
641.297	204.06
641.502	214.06
641.707	208.06
641.913	202.06
642.118	214.06
642.323	209.06
642.528	206.06
642.733	207.06
642.939	216.06
643.144	200.06
643.349	194.06
643.554	220.06
643.759	206.06
643.964	204.06
644.169	199.06
644.374	208.06
644.579	195.06
644.784	220.06
644.989	204.06
645.194	195.06
645.399	190.06
645.604	195.06
645.809	196.06
646.014	208.06
646.219	202.06
646.423	190.06
646.628	195.06
646.833	217.06
647.038	208.06
647.243	210.06
647.447	203.06
647.652	228.06
647.857	196.06
648.062	212.06
648.266	215.06
648.471	213.06
648.676	211.06
648.88	222.06
649.085	213.06
649.289	206.06
649.494	185.06
649.698	206.06
649.903	196.06
650.107	210.06
650.312	200.06
650.516	202.06
650.721	194.06
650.925	172.06
651.13	171.06
651.334	192.06
651.539	186.06
651.743	178.06
651.947	181.06
652.152	183.06
652.356	174.06
652.56	171.06
652.764	166.06
652.969	178.06
653.173	160.06
653.377	172.06
653.581	160.06
653.785	162.06
653.99	161.06
654.194	167.06
654.398	148.06
654.602	162.06
654.806	146.06
655.01	146.06
655.214	149.06
655.418	152.06
655.622	153.06
655.826	143.06
656.03	145.06
656.234	155.06
656.438	163.06
656.642	140.06
656.846	160.06
657.049	152.06
657.253	128.06
657.457	133.06
657.661	124.06
657.865	136.06
658.068	122.06
658.272	113.06
658.476	101.06
658.68	116.06
658.883	111.06
659.087	115.06
659.291	118.06
659.494	114.06
659.698	94.06
659.901	106.06
660.105	97.06
660.309	90.06
660.512	95.06
660.716	103.06
660.919	107.06
661.123	100.06
661.326	91.06
661.53	85.06
661.733	83.06
661.936	90.06
662.14	83.06
662.343	91.06
662.546	93.06
662.75	85.06
662.953	83.06
663.156	81.06
663.36	79.06
663.563	94.06
663.766	76.06
663.969	91.06
664.173	87.06
664.376	75.06
664.579	71.06
664.782	84.06
664.985	83.06
665.188	77.06
665.391	86.06
665.594	70.06
665.797	79.06
666	71.06
666.203	71.06
666.406	84.06
666.609	89.06
666.812	94.06
667.015	80.06
667.218	76.06
667.421	81.06
667.624	81.06
667.827	79.06
668.03	69.06
668.232	72.06
668.435	69.06
668.638	82.06
668.841	85.06
669.043	78.06
669.246	81.06
669.449	83.06
669.651	77.06
669.854	72.06
670.057	78.06
670.259	77.06
670.462	72.06
670.665	85.06
670.867	79.06
671.07	79.06
671.272	81.06
671.475	94.06
671.677	68.06
671.88	81.06
672.082	76.06
672.284	87.06
672.487	70.06
672.689	79.06
672.892	81.06
