Data from NiCl2@0.125M.TitratingCurve.Agarose3%dH2O.NegLispCup.LampEnergy10.LIBS07252019_HRD10591_18-30-03-574.txt Node
Date: Thu Jul 25 18:30:03 EDT 2019
User: cochatt
Spectrometer: HR+D1059
Trigger mode: 1
Integration Time (sec): 1.000000E-1
Scans to average: 1
Electric dark correction enabled: true
Nonlinearity correction enabled: false
Boxcar width: 0
XAxis mode: Wavelengths
Number of Pixels in Spectrum: 2048
>>>>>Begin Spectral Data<<<<<
223.165	-25.06
223.4	-25.06
223.635	-25.06
223.869	-8.06
224.104	-20.06
224.338	10.94
224.573	-11.06
224.808	-4.06
225.042	-6.06
225.277	-16.06
225.511	-13.06
225.746	3.94
225.98	3.94
226.215	6.94
226.449	11.94
226.683	19.94
226.918	31.94
227.152	13.94
227.387	50.94
227.621	32.94
227.856	38.94
228.09	35.94
228.324	43.94
228.559	38.94
228.793	73.94
229.027	119.94
229.262	104.94
229.496	104.94
229.73	124.94
229.964	133.94
230.199	127.94
230.433	140.94
230.667	139.94
230.901	150.94
231.136	134.94
231.37	135.94
231.604	153.94
231.838	156.94
232.072	156.94
232.306	136.94
232.541	148.94
232.775	157.94
233.009	163.94
233.243	147.94
233.477	159.94
233.711	147.94
233.945	144.94
234.179	137.94
234.413	138.94
234.647	147.94
234.881	150.94
235.115	159.94
235.349	155.94
235.583	156.94
235.817	142.94
236.051	148.94
236.285	170.94
236.519	156.94
236.753	149.94
236.987	150.94
237.221	140.94
237.455	159.94
237.689	164.94
237.922	162.94
238.156	167.94
238.39	181.94
238.624	159.94
238.858	185.94
239.091	178.94
239.325	180.94
239.559	174.94
239.793	181.94
240.027	173.94
240.26	184.94
240.494	185.94
240.728	154.94
240.961	175.94
241.195	171.94
241.429	179.94
241.662	201.94
241.896	191.94
242.13	197.94
242.363	173.94
242.597	204.94
242.83	201.94
243.064	195.94
243.298	202.94
243.531	197.94
243.765	224.94
243.998	224.94
244.232	223.94
244.465	208.94
244.699	218.94
244.932	211.94
245.166	205.94
245.399	216.94
245.633	233.94
245.866	227.94
246.099	219.94
246.333	234.94
246.566	214.94
246.8	232.94
247.033	230.94
247.266	222.94
247.5	238.94
247.733	226.94
247.966	242.94
248.2	226.94
248.433	247.94
248.666	236.94
248.899	267.94
249.133	253.94
249.366	244.94
249.599	253.94
249.832	251.94
250.066	240.94
250.299	259.94
250.532	244.94
250.765	254.94
250.998	246.94
251.231	259.94
251.465	259.94
251.698	265.94
251.931	275.94
252.164	259.94
252.397	266.94
252.63	272.94
252.863	265.94
253.096	263.94
253.329	283.94
253.562	282.94
253.795	291.94
254.028	287.94
254.261	278.94
254.494	283.94
254.727	280.94
254.96	273.94
255.193	275.94
255.426	261.94
255.659	273.94
255.892	303.94
256.124	288.94
256.357	280.94
256.59	289.94
256.823	292.94
257.056	308.94
257.289	300.94
257.521	303.94
257.754	294.94
257.987	295.94
258.22	315.94
258.452	309.94
258.685	314.94
258.918	310.94
259.151	296.94
259.383	323.94
259.616	327.94
259.849	311.94
260.081	312.94
260.314	333.94
260.547	315.94
260.779	308.94
261.012	325.94
261.244	333.94
261.477	323.94
261.71	328.94
261.942	320.94
262.175	325.94
262.407	332.94
262.64	313.94
262.872	326.94
263.105	341.94
263.337	341.94
263.57	339.94
263.802	336.94
264.035	361.94
264.267	342.94
264.499	347.94
264.732	355.94
264.964	337.94
265.197	343.94
265.429	362.94
265.661	368.94
265.894	362.94
266.126	373.94
266.358	352.94
266.591	367.94
266.823	368.94
267.055	340.94
267.287	366.94
267.52	364.94
267.752	385.94
267.984	393.94
268.216	377.94
268.448	361.94
268.681	382.94
268.913	371.94
269.145	385.94
269.377	382.94
269.609	382.94
269.841	370.94
270.073	361.94
270.306	381.94
270.538	385.94
270.77	377.94
271.002	359.94
271.234	367.94
271.466	371.94
271.698	394.94
271.93	386.94
272.162	387.94
272.394	386.94
272.626	404.94
272.858	380.94
273.09	380.94
273.322	380.94
273.553	404.94
273.785	395.94
274.017	410.94
274.249	412.94
274.481	400.94
274.713	408.94
274.945	389.94
275.176	416.94
275.408	412.94
275.64	424.94
275.872	414.94
276.104	419.94
276.335	415.94
276.567	419.94
276.799	431.94
277.031	424.94
277.262	416.94
277.494	416.94
277.726	429.94
277.957	429.94
278.189	416.94
278.421	411.94
278.652	439.94
278.884	446.94
279.115	440.94
279.347	443.94
279.579	433.94
279.81	433.94
280.042	453.94
280.273	449.94
280.505	428.94
280.736	455.94
280.968	459.94
281.199	445.94
281.431	443.94
281.662	469.94
281.894	454.94
282.125	455.94
282.356	488.94
282.588	465.94
282.819	467.94
283.051	469.94
283.282	483.94
283.513	479.94
283.745	480.94
283.976	479.94
284.207	463.94
284.439	489.94
284.67	481.94
284.901	489.94
285.132	489.94
285.364	478.94
285.595	469.94
285.826	482.94
286.057	503.94
286.288	497.94
286.52	491.94
286.751	484.94
286.982	497.94
287.213	519.94
287.444	504.94
287.675	505.94
287.906	492.94
288.138	537.94
288.369	513.94
288.6	510.94
288.831	540.94
289.062	517.94
289.293	523.94
289.524	513.94
289.755	518.94
289.986	519.94
290.217	491.94
290.448	515.94
290.679	530.94
290.91	503.94
291.141	535.94
291.371	560.94
291.602	503.94
291.833	516.94
292.064	511.94
292.295	523.94
292.526	539.94
292.757	524.94
292.987	530.94
293.218	510.94
293.449	540.94
293.68	531.94
293.91	531.94
294.141	516.94
294.372	543.94
294.603	531.94
294.833	530.94
295.064	540.94
295.295	539.94
295.525	553.94
295.756	556.94
295.987	558.94
296.217	552.94
296.448	559.94
296.679	549.94
296.909	522.94
297.14	551.94
297.37	589.94
297.601	577.94
297.831	568.94
298.062	572.94
298.292	580.94
298.523	614.94
298.753	629.94
298.984	591.94
299.214	595.94
299.445	566.94
299.675	583.94
299.905	587.94
300.136	595.94
300.366	563.94
300.597	579.94
300.827	588.94
301.057	615.94
301.288	632.94
301.518	609.94
301.748	633.94
301.979	616.94
302.209	623.94
302.439	612.94
302.669	578.94
302.9	596.94
303.13	599.94
303.36	587.94
303.59	602.94
303.82	594.94
304.051	603.94
304.281	607.94
304.511	603.94
304.741	589.94
304.971	606.94
305.201	618.94
305.431	584.94
305.661	616.94
305.891	588.94
306.121	572.94
306.352	591.94
306.582	567.94
306.812	594.94
307.042	573.94
307.272	609.94
307.502	586.94
307.731	595.94
307.961	584.94
308.191	564.94
308.421	567.94
308.651	573.94
308.881	571.94
309.111	589.94
309.341	574.94
309.571	571.94
309.8	551.94
310.03	585.94
310.26	574.94
310.49	595.94
310.72	570.94
310.949	573.94
311.179	585.94
311.409	604.94
311.639	603.94
311.868	594.94
312.098	587.94
312.328	586.94
312.557	603.94
312.787	605.94
313.017	600.94
313.246	644.94
313.476	593.94
313.706	615.94
313.935	625.94
314.165	634.94
314.394	648.94
314.624	642.94
314.853	621.94
315.083	623.94
315.312	618.94
315.542	620.94
315.771	624.94
316.001	606.94
316.23	605.94
316.46	621.94
316.689	620.94
316.919	627.94
317.148	633.94
317.377	626.94
317.607	598.94
317.836	600.94
318.065	600.94
318.295	595.94
318.524	605.94
318.753	595.94
318.983	588.94
319.212	613.94
319.441	599.94
319.67	605.94
319.9	592.94
320.129	603.94
320.358	614.94
320.587	591.94
320.816	594.94
321.046	613.94
321.275	601.94
321.504	612.94
321.733	592.94
321.962	602.94
322.191	621.94
322.42	599.94
322.649	627.94
322.878	616.94
323.108	599.94
323.337	617.94
323.566	598.94
323.795	624.94
324.024	625.94
324.253	641.94
324.482	620.94
324.71	631.94
324.939	631.94
325.168	624.94
325.397	632.94
325.626	636.94
325.855	661.94
326.084	668.94
326.313	673.94
326.542	686.94
326.77	681.94
326.999	675.94
327.228	656.94
327.457	667.94
327.686	655.94
327.914	652.94
328.143	678.94
328.372	657.94
328.6	671.94
328.829	660.94
329.058	684.94
329.287	661.94
329.515	647.94
329.744	651.94
329.972	664.94
330.201	683.94
330.43	668.94
330.658	675.94
330.887	700.94
331.115	699.94
331.344	701.94
331.572	705.94
331.801	707.94
332.03	745.94
332.258	773.94
332.486	769.94
332.715	789.94
332.943	831.94
333.172	860.94
333.4	908.94
333.629	904.94
333.857	920.94
334.085	882.94
334.314	859.94
334.542	856.94
334.771	843.94
334.999	847.94
335.227	822.94
335.455	833.94
335.684	830.94
335.912	825.94
336.14	829.94
336.369	808.94
336.597	841.94
336.825	828.94
337.053	835.94
337.281	791.94
337.51	773.94
337.738	781.94
337.966	780.94
338.194	751.94
338.422	744.94
338.65	723.94
338.878	713.94
339.106	720.94
339.334	740.94
339.562	709.94
339.79	677.94
340.018	707.94
340.246	687.94
340.474	671.94
340.702	662.94
340.93	712.94
341.158	691.94
341.386	705.94
341.614	722.94
341.842	690.94
342.07	719.94
342.298	648.94
342.526	697.94
342.754	667.94
342.981	684.94
343.209	692.94
343.437	747.94
343.665	769.94
343.893	844.94
344.12	905.94
344.348	859.94
344.576	798.94
344.804	794.94
345.031	735.94
345.259	720.94
345.487	717.94
345.714	703.94
345.942	682.94
346.17	694.94
346.397	698.94
346.625	681.94
346.853	670.94
347.08	651.94
347.308	713.94
347.535	671.94
347.763	697.94
347.99	708.94
348.218	684.94
348.445	716.94
348.673	685.94
348.9	689.94
349.128	695.94
349.355	669.94
349.583	685.94
349.81	670.94
350.037	653.94
350.265	662.94
350.492	649.94
350.72	664.94
350.947	665.94
351.174	655.94
351.402	642.94
351.629	653.94
351.856	642.94
352.083	639.94
352.311	646.94
352.538	654.94
352.765	668.94
352.992	670.94
353.22	645.94
353.447	635.94
353.674	647.94
353.901	657.94
354.128	639.94
354.355	648.94
354.583	641.94
354.81	662.94
355.037	647.94
355.264	646.94
355.491	645.94
355.718	669.94
355.945	653.94
356.172	658.94
356.399	667.94
356.626	668.94
356.853	641.94
357.08	643.94
357.307	634.94
357.534	641.94
357.761	667.94
357.988	664.94
358.215	623.94
358.441	641.94
358.668	667.94
358.895	659.94
359.122	655.94
359.349	641.94
359.576	654.94
359.802	663.94
360.029	644.94
360.256	647.94
360.483	661.94
360.709	636.94
360.936	651.94
361.163	668.94
361.39	662.94
361.616	641.94
361.843	633.94
362.07	658.94
362.296	678.94
362.523	640.94
362.749	664.94
362.976	654.94
363.203	657.94
363.429	627.94
363.656	655.94
363.882	640.94
364.109	645.94
364.335	655.94
364.562	640.94
364.788	644.94
365.015	660.94
365.241	663.94
365.468	630.94
365.694	644.94
365.92	637.94
366.147	659.94
366.373	640.94
366.599	643.94
366.826	633.94
367.052	663.94
367.278	673.94
367.505	631.94
367.731	640.94
367.957	644.94
368.184	676.94
368.41	671.94
368.636	647.94
368.862	681.94
369.089	676.94
369.315	703.94
369.541	693.94
369.767	680.94
369.993	690.94
370.219	694.94
370.445	704.94
370.672	673.94
370.898	704.94
371.124	695.94
371.35	723.94
371.576	716.94
371.802	703.94
372.028	709.94
372.254	709.94
372.48	688.94
372.706	724.94
372.932	748.94
373.158	720.94
373.384	708.94
373.61	732.94
373.835	705.94
374.061	689.94
374.287	740.94
374.513	747.94
374.739	767.94
374.965	795.94
375.191	792.94
375.416	788.94
375.642	761.94
375.868	763.94
376.094	739.94
376.319	736.94
376.545	737.94
376.771	715.94
376.997	710.94
377.222	706.94
377.448	716.94
377.674	730.94
377.899	728.94
378.125	709.94
378.35	712.94
378.576	731.94
378.802	681.94
379.027	712.94
379.253	685.94
379.478	693.94
379.704	717.94
379.929	709.94
380.155	693.94
380.38	701.94
380.606	694.94
380.831	695.94
381.057	701.94
381.282	714.94
381.507	672.94
381.733	707.94
381.958	714.94
382.184	723.94
382.409	739.94
382.634	729.94
382.86	746.94
383.085	752.94
383.31	749.94
383.535	779.94
383.761	785.94
383.986	839.94
384.211	803.94
384.436	864.94
384.662	826.94
384.887	870.94
385.112	850.94
385.337	838.94
385.562	855.94
385.787	883.94
386.013	873.94
386.238	871.94
386.463	895.94
386.688	870.94
386.913	852.94
387.138	857.94
387.363	843.94
387.588	845.94
387.813	835.94
388.038	833.94
388.263	848.94
388.488	876.94
388.713	840.94
388.938	855.94
389.163	851.94
389.387	809.94
389.612	819.94
389.837	827.94
390.062	854.94
390.287	828.94
390.512	833.94
390.736	860.94
390.961	861.94
391.186	884.94
391.411	929.94
391.636	924.94
391.86	938.94
392.085	954.94
392.31	971.94
392.534	906.94
392.759	932.94
392.984	925.94
393.208	891.94
393.433	927.94
393.658	940.94
393.882	928.94
394.107	920.94
394.331	907.94
394.556	907.94
394.78	916.94
395.005	916.94
395.229	939.94
395.454	943.94
395.678	956.94
395.903	962.94
396.127	947.94
396.352	935.94
396.576	888.94
396.801	899.94
397.025	917.94
397.249	903.94
397.474	979.94
397.698	968.94
397.922	938.94
398.147	930.94
398.371	976.94
398.595	1000.94
398.82	1063.94
399.044	1099.94
399.268	1263.94
399.492	1433.94
399.717	1690.94
399.941	1675.94
400.165	1527.94
400.389	1342.94
400.613	1204.94
400.837	1114.94
401.062	1108.94
401.286	1100.94
401.51	1052.94
401.734	1068.94
401.958	1052.94
402.182	1088.94
402.406	1082.94
402.63	1134.94
402.854	1139.94
403.078	1194.94
403.302	1191.94
403.526	1215.94
403.75	1235.94
403.974	1259.94
404.198	1264.94
404.422	1252.94
404.645	1230.94
404.869	1239.94
405.093	1245.94
405.317	1203.94
405.541	1225.94
405.765	1182.94
405.988	1173.94
406.212	1197.94
406.436	1190.94
406.66	1203.94
406.883	1208.94
407.107	1295.94
407.331	1347.94
407.555	1404.94
407.778	1393.94
408.002	1383.94
408.226	1305.94
408.449	1310.94
408.673	1249.94
408.896	1230.94
409.12	1216.94
409.344	1250.94
409.567	1221.94
409.791	1241.94
410.014	1281.94
410.238	1245.94
410.461	1223.94
410.685	1191.94
410.908	1192.94
411.132	1123.94
411.355	1125.94
411.578	1112.94
411.802	1127.94
412.025	1149.94
412.249	1141.94
412.472	1138.94
412.695	1124.94
412.919	1062.94
413.142	1091.94
413.365	1075.94
413.589	1089.94
413.812	1066.94
414.035	1084.94
414.258	1072.94
414.482	1067.94
414.705	1081.94
414.928	1120.94
415.151	1090.94
415.374	1073.94
415.597	1075.94
415.821	1083.94
416.044	1026.94
416.267	1029.94
416.49	1064.94
416.713	1041.94
416.936	1056.94
417.159	1042.94
417.382	1076.94
417.605	1049.94
417.828	1056.94
418.051	1043.94
418.274	1065.94
418.497	1064.94
418.72	1070.94
418.943	1118.94
419.166	1165.94
419.389	1266.94
419.611	1208.94
419.834	1167.94
420.057	1161.94
420.28	1096.94
420.503	1069.94
420.726	1031.94
420.948	1035.94
421.171	1053.94
421.394	1077.94
421.617	1073.94
421.839	1101.94
422.062	1063.94
422.285	1059.94
422.507	1100.94
422.73	1084.94
422.953	1098.94
423.175	1101.94
423.398	1153.94
423.621	1144.94
423.843	1155.94
424.066	1131.94
424.288	1160.94
424.511	1120.94
424.733	1097.94
424.956	1094.94
425.178	1083.94
425.401	1082.94
425.623	1099.94
425.846	1051.94
426.068	1017.94
426.291	1031.94
426.513	999.94
426.735	1000.94
426.958	1006.94
427.18	966.94
427.402	967.94
427.625	984.94
427.847	967.94
428.069	957.94
428.292	966.94
428.514	952.94
428.736	951.94
428.958	969.94
429.181	952.94
429.403	925.94
429.625	943.94
429.847	940.94
430.069	950.94
430.292	922.94
430.514	904.94
430.736	955.94
430.958	953.94
431.18	951.94
431.402	940.94
431.624	925.94
431.846	951.94
432.068	975.94
432.29	984.94
432.512	951.94
432.734	951.94
432.956	960.94
433.178	961.94
433.4	971.94
433.622	971.94
433.844	999.94
434.066	968.94
434.287	977.94
434.509	998.94
434.731	1101.94
434.953	1081.94
435.175	1105.94
435.397	1091.94
435.618	1044.94
435.84	996.94
436.062	983.94
436.284	967.94
436.505	949.94
436.727	1000.94
436.949	972.94
437.17	980.94
437.392	989.94
437.614	973.94
437.835	927.94
438.057	944.94
438.278	928.94
438.5	906.94
438.721	897.94
438.943	927.94
439.165	907.94
439.386	928.94
439.608	975.94
439.829	981.94
440.05	976.94
440.272	979.94
440.493	989.94
440.715	988.94
440.936	1015.94
441.158	1011.94
441.379	1052.94
441.6	1076.94
441.822	1132.94
442.043	1096.94
442.264	1086.94
442.486	1048.94
442.707	1087.94
442.928	1058.94
443.149	1067.94
443.371	1033.94
443.592	1065.94
443.813	1089.94
444.034	1126.94
444.255	1145.94
444.476	1179.94
444.698	1258.94
444.919	1333.94
445.14	1431.94
445.361	1251.94
445.582	1158.94
445.803	1065.94
446.024	1032.94
446.245	1034.94
446.466	989.94
446.687	994.94
446.908	973.94
447.129	939.94
447.35	923.94
447.571	927.94
447.792	934.94
448.013	899.94
448.234	927.94
448.455	929.94
448.675	909.94
448.896	896.94
449.117	902.94
449.338	888.94
449.559	890.94
449.779	881.94
450	865.94
450.221	905.94
450.442	894.94
450.662	907.94
450.883	901.94
451.104	940.94
451.324	952.94
451.545	927.94
451.766	907.94
451.986	921.94
452.207	897.94
452.428	907.94
452.648	904.94
452.869	875.94
453.089	868.94
453.31	919.94
453.53	865.94
453.751	868.94
453.971	874.94
454.192	866.94
454.412	860.94
454.633	877.94
454.853	859.94
455.073	827.94
455.294	826.94
455.514	811.94
455.734	839.94
455.955	822.94
456.175	836.94
456.395	837.94
456.616	792.94
456.836	835.94
457.056	844.94
457.276	811.94
457.497	841.94
457.717	843.94
457.937	845.94
458.157	851.94
458.377	873.94
458.598	857.94
458.818	895.94
459.038	933.94
459.258	933.94
459.478	976.94
459.698	1017.94
459.918	1046.94
460.138	1090.94
460.358	1143.94
460.578	1153.94
460.798	1159.94
461.018	1169.94
461.238	1153.94
461.458	1168.94
461.678	1142.94
461.898	1139.94
462.118	1143.94
462.338	1237.94
462.558	1231.94
462.777	1313.94
462.997	1416.94
463.217	1539.94
463.437	1594.94
463.657	1464.94
463.876	1378.94
464.096	1392.94
464.316	1353.94
464.536	1397.94
464.755	1318.94
464.975	1265.94
465.195	1218.94
465.414	1128.94
465.634	1047.94
465.854	1028.94
466.073	1012.94
466.293	981.94
466.512	968.94
466.732	955.94
466.951	953.94
467.171	909.94
467.391	914.94
467.61	934.94
467.829	903.94
468.049	927.94
468.268	902.94
468.488	921.94
468.707	875.94
468.927	904.94
469.146	881.94
469.365	876.94
469.585	899.94
469.804	921.94
470.023	961.94
470.243	956.94
470.462	937.94
470.681	983.94
470.901	969.94
471.12	958.94
471.339	976.94
471.558	941.94
471.777	920.94
471.997	911.94
472.216	895.94
472.435	887.94
472.654	891.94
472.873	870.94
473.092	879.94
473.311	893.94
473.53	888.94
473.749	873.94
473.968	864.94
474.187	839.94
474.406	864.94
474.625	894.94
474.844	876.94
475.063	879.94
475.282	872.94
475.501	903.94
475.72	900.94
475.939	882.94
476.158	905.94
476.377	895.94
476.596	907.94
476.814	925.94
477.033	902.94
477.252	969.94
477.471	955.94
477.69	991.94
477.908	1009.94
478.127	1031.94
478.346	1028.94
478.564	1038.94
478.783	1067.94
479.002	1144.94
479.22	1135.94
479.439	1098.94
479.658	1066.94
479.876	1062.94
480.095	1081.94
480.313	1167.94
480.532	1223.94
480.751	1191.94
480.969	1139.94
481.188	1100.94
481.406	1050.94
481.624	1025.94
481.843	1014.94
482.061	1031.94
482.28	1002.94
482.498	1026.94
482.717	992.94
482.935	1010.94
483.153	1012.94
483.372	1011.94
483.59	1009.94
483.808	1020.94
484.027	1001.94
484.245	1034.94
484.463	1011.94
484.681	1049.94
484.9	996.94
485.118	1053.94
485.336	1064.94
485.554	1067.94
485.772	1105.94
485.99	1080.94
486.209	1058.94
486.427	1075.94
486.645	1081.94
486.863	1069.94
487.081	1077.94
487.299	1046.94
487.517	1055.94
487.735	1057.94
487.953	1043.94
488.171	1069.94
488.389	1031.94
488.607	1052.94
488.825	1013.94
489.043	993.94
489.261	1017.94
489.479	1043.94
489.696	1017.94
489.914	1045.94
490.132	1059.94
490.35	1075.94
490.568	1051.94
490.786	1088.94
491.003	1057.94
491.221	1067.94
491.439	1059.94
491.657	1054.94
491.874	1032.94
492.092	1081.94
492.31	1076.94
492.527	1083.94
492.745	1037.94
492.963	1058.94
493.18	1076.94
493.398	1091.94
493.615	1111.94
493.833	1110.94
494.05	1081.94
494.268	1105.94
494.485	1135.94
494.703	1111.94
494.92	1113.94
495.138	1101.94
495.355	1109.94
495.573	1106.94
495.79	1113.94
496.008	1117.94
496.225	1121.94
496.442	1147.94
496.66	1149.94
496.877	1148.94
497.094	1165.94
497.312	1205.94
497.529	1215.94
497.746	1236.94
497.963	1256.94
498.181	1324.94
498.398	1380.94
498.615	1487.94
498.832	1547.94
499.049	1692.94
499.267	1863.94
499.484	1979.94
499.701	2255.94
499.918	2451.94
500.135	2804.94
500.352	3315.94
500.569	3523.94
500.786	3433.94
501.003	3192.94
501.22	2861.94
501.437	2506.94
501.654	2199.94
501.871	1946.94
502.088	1777.94
502.305	1670.94
502.522	1583.94
502.739	1560.94
502.956	1449.94
503.172	1420.94
503.389	1303.94
503.606	1295.94
503.823	1233.94
504.04	1239.94
504.256	1263.94
504.473	1318.94
504.69	1308.94
504.907	1271.94
505.123	1227.94
505.34	1178.94
505.557	1117.94
505.773	1087.94
505.99	1086.94
506.207	1003.94
506.423	1014.94
506.64	1002.94
506.856	989.94
507.073	983.94
507.289	965.94
507.506	968.94
507.722	980.94
507.939	976.94
508.155	957.94
508.372	945.94
508.588	927.94
508.805	920.94
509.021	928.94
509.238	925.94
509.454	882.94
509.67	883.94
509.887	898.94
510.103	911.94
510.319	893.94
510.536	902.94
510.752	885.94
510.968	905.94
511.184	899.94
511.401	896.94
511.617	884.94
511.833	884.94
512.049	890.94
512.265	884.94
512.481	887.94
512.698	885.94
512.914	905.94
513.13	907.94
513.346	887.94
513.562	897.94
513.778	885.94
513.994	892.94
514.21	883.94
514.426	905.94
514.642	907.94
514.858	915.94
515.074	909.94
515.29	947.94
515.506	928.94
515.721	928.94
515.937	947.94
516.153	973.94
516.369	971.94
516.585	1015.94
516.801	1020.94
517.016	1111.94
517.232	1152.94
517.448	1189.94
517.664	1264.94
517.879	1240.94
518.095	1290.94
518.311	1245.94
518.527	1187.94
518.742	1113.94
518.958	1080.94
519.173	1025.94
519.389	1003.94
519.605	989.94
519.82	975.94
520.036	927.94
520.251	908.94
520.467	916.94
520.682	909.94
520.898	904.94
521.113	885.94
521.329	869.94
521.544	860.94
521.76	868.94
521.975	846.94
522.19	855.94
522.406	850.94
522.621	858.94
522.836	856.94
523.052	863.94
523.267	840.94
523.482	859.94
523.698	833.94
523.913	816.94
524.128	826.94
524.343	811.94
524.559	807.94
524.774	819.94
524.989	825.94
525.204	812.94
525.419	813.94
525.634	800.94
525.849	826.94
526.064	809.94
526.28	824.94
526.495	810.94
526.71	810.94
526.925	835.94
527.14	833.94
527.355	823.94
527.57	822.94
527.785	827.94
527.999	839.94
528.214	815.94
528.429	794.94
528.644	798.94
528.859	795.94
529.074	815.94
529.289	813.94
529.503	798.94
529.718	808.94
529.933	796.94
530.148	825.94
530.363	794.94
530.577	815.94
530.792	822.94
531.007	824.94
531.221	803.94
531.436	828.94
531.651	826.94
531.865	817.94
532.08	806.94
532.295	806.94
532.509	828.94
532.724	809.94
532.938	806.94
533.153	794.94
533.367	821.94
533.582	782.94
533.796	815.94
534.011	808.94
534.225	801.94
534.44	823.94
534.654	808.94
534.868	806.94
535.083	805.94
535.297	805.94
535.511	771.94
535.726	773.94
535.94	780.94
536.154	750.94
536.369	737.94
536.583	751.94
536.797	741.94
537.011	755.94
537.225	762.94
537.44	744.94
537.654	738.94
537.868	738.94
538.082	713.94
538.296	734.94
538.51	745.94
538.724	738.94
538.938	735.94
539.153	745.94
539.367	727.94
539.581	743.94
539.795	734.94
540.009	700.94
540.222	735.94
540.436	726.94
540.65	717.94
540.864	715.94
541.078	729.94
541.292	735.94
541.506	725.94
541.72	716.94
541.934	712.94
542.147	740.94
542.361	720.94
542.575	721.94
542.789	735.94
543.002	725.94
543.216	707.94
543.43	718.94
543.644	710.94
543.857	700.94
544.071	712.94
544.285	714.94
544.498	720.94
544.712	695.94
544.925	718.94
545.139	733.94
545.352	736.94
545.566	762.94
545.779	743.94
545.993	733.94
546.206	725.94
546.42	734.94
546.633	708.94
546.847	757.94
547.06	732.94
547.274	715.94
547.487	725.94
547.7	723.94
547.914	727.94
548.127	742.94
548.34	739.94
548.554	718.94
548.767	748.94
548.98	736.94
549.193	733.94
549.407	717.94
549.62	775.94
549.833	756.94
550.046	793.94
550.259	721.94
550.473	733.94
550.686	739.94
550.899	757.94
551.112	720.94
551.325	722.94
551.538	721.94
551.751	720.94
551.964	724.94
552.177	731.94
552.39	751.94
552.603	766.94
552.816	779.94
553.029	801.94
553.242	801.94
553.455	821.94
553.667	833.94
553.88	795.94
554.093	792.94
554.306	771.94
554.519	766.94
554.732	733.94
554.944	726.94
555.157	719.94
555.37	715.94
555.583	696.94
555.795	684.94
556.008	657.94
556.221	677.94
556.433	675.94
556.646	683.94
556.859	666.94
557.071	647.94
557.284	637.94
557.496	655.94
557.709	639.94
557.921	650.94
558.134	624.94
558.346	636.94
558.559	637.94
558.771	610.94
558.984	631.94
559.196	625.94
559.409	612.94
559.621	617.94
559.833	621.94
560.046	615.94
560.258	612.94
560.47	608.94
560.683	605.94
560.895	606.94
561.107	597.94
561.32	590.94
561.532	604.94
561.744	612.94
561.956	615.94
562.168	625.94
562.381	617.94
562.593	607.94
562.805	616.94
563.017	608.94
563.229	623.94
563.441	595.94
563.653	618.94
563.865	642.94
564.077	629.94
564.289	627.94
564.501	618.94
564.713	644.94
564.925	649.94
565.137	666.94
565.349	671.94
565.561	715.94
565.773	713.94
565.985	745.94
566.197	801.94
566.408	862.94
566.62	921.94
566.832	1008.94
567.044	1033.94
567.255	1060.94
567.467	1039.94
567.679	1116.94
567.891	1203.94
568.102	1231.94
568.314	1144.94
568.526	1029.94
568.737	938.94
568.949	877.94
569.161	789.94
569.372	744.94
569.584	695.94
569.795	658.94
570.007	653.94
570.218	653.94
570.43	655.94
570.641	632.94
570.853	634.94
571.064	626.94
571.276	618.94
571.487	619.94
571.698	602.94
571.91	576.94
572.121	585.94
572.333	573.94
572.544	563.94
572.755	541.94
572.966	527.94
573.178	529.94
573.389	511.94
573.6	523.94
573.811	498.94
574.023	536.94
574.234	504.94
574.445	508.94
574.656	498.94
574.867	510.94
575.078	519.94
575.289	519.94
575.501	506.94
575.712	487.94
575.923	473.94
576.134	453.94
576.345	484.94
576.556	500.94
576.767	479.94
576.978	474.94
577.188	472.94
577.399	487.94
577.61	475.94
577.821	465.94
578.032	478.94
578.243	468.94
578.454	459.94
578.665	451.94
578.875	456.94
579.086	440.94
579.297	457.94
579.508	448.94
579.718	441.94
579.929	458.94
580.14	445.94
580.35	443.94
580.561	444.94
580.772	442.94
580.982	469.94
581.193	460.94
581.403	466.94
581.614	419.94
581.825	438.94
582.035	440.94
582.246	453.94
582.456	425.94
582.667	433.94
582.877	439.94
583.087	429.94
583.298	438.94
583.508	435.94
583.719	445.94
583.929	436.94
584.139	425.94
584.35	397.94
584.56	419.94
584.77	419.94
584.981	417.94
585.191	409.94
585.401	406.94
585.611	428.94
585.821	440.94
586.032	419.94
586.242	415.94
586.452	412.94
586.662	403.94
586.872	410.94
587.082	422.94
587.292	419.94
587.502	412.94
587.713	419.94
587.923	403.94
588.133	410.94
588.343	408.94
588.553	395.94
588.762	415.94
588.972	433.94
589.182	401.94
589.392	412.94
589.602	402.94
589.812	437.94
590.022	422.94
590.232	395.94
590.441	414.94
590.651	424.94
590.861	428.94
591.071	433.94
591.281	404.94
591.49	439.94
591.7	447.94
591.91	439.94
592.119	434.94
592.329	463.94
592.539	467.94
592.748	482.94
592.958	482.94
593.167	516.94
593.377	522.94
593.587	521.94
593.796	517.94
594.006	530.94
594.215	533.94
594.424	538.94
594.634	547.94
594.843	488.94
595.053	464.94
595.262	458.94
595.472	442.94
595.681	432.94
595.89	425.94
596.1	431.94
596.309	414.94
596.518	401.94
596.727	395.94
596.937	383.94
597.146	404.94
597.355	382.94
597.564	380.94
597.774	371.94
597.983	371.94
598.192	348.94
598.401	358.94
598.61	378.94
598.819	372.94
599.028	346.94
599.237	356.94
599.446	348.94
599.655	363.94
599.864	355.94
600.073	363.94
600.282	343.94
600.491	340.94
600.7	348.94
600.909	363.94
601.118	357.94
601.327	346.94
601.536	331.94
601.745	335.94
601.953	349.94
602.162	340.94
602.371	345.94
602.58	340.94
602.789	323.94
602.997	307.94
603.206	341.94
603.415	332.94
603.623	332.94
603.832	349.94
604.041	333.94
604.249	317.94
604.458	333.94
604.666	345.94
604.875	341.94
605.084	324.94
605.292	333.94
605.501	324.94
605.709	323.94
605.918	332.94
606.126	331.94
606.334	329.94
606.543	324.94
606.751	331.94
606.96	326.94
607.168	297.94
607.376	309.94
607.585	332.94
607.793	327.94
608.001	321.94
608.21	305.94
608.418	308.94
608.626	312.94
608.834	320.94
609.043	313.94
609.251	315.94
609.459	311.94
609.667	321.94
609.875	317.94
610.083	309.94
610.291	325.94
610.499	304.94
610.707	317.94
610.916	311.94
611.124	302.94
611.332	322.94
611.54	316.94
611.748	304.94
611.955	316.94
612.163	304.94
612.371	292.94
612.579	319.94
612.787	291.94
612.995	296.94
613.203	317.94
613.411	301.94
613.618	301.94
613.826	303.94
614.034	315.94
614.242	303.94
614.449	319.94
614.657	294.94
614.865	291.94
615.072	292.94
615.28	311.94
615.488	307.94
615.695	298.94
615.903	305.94
616.111	301.94
616.318	326.94
616.526	323.94
616.733	302.94
616.941	295.94
617.148	305.94
617.356	300.94
617.563	310.94
617.771	320.94
617.978	319.94
618.185	315.94
618.393	311.94
618.6	308.94
618.807	302.94
619.015	316.94
619.222	285.94
619.429	303.94
619.637	291.94
619.844	284.94
620.051	287.94
620.258	299.94
620.466	278.94
620.673	279.94
620.88	267.94
621.087	275.94
621.294	278.94
621.501	296.94
621.708	268.94
621.915	305.94
622.122	279.94
622.329	283.94
622.536	279.94
622.743	264.94
622.95	274.94
623.157	259.94
623.364	269.94
623.571	290.94
623.778	284.94
623.985	260.94
624.192	275.94
624.399	279.94
624.606	276.94
624.812	291.94
625.019	266.94
625.226	278.94
625.433	260.94
625.639	256.94
625.846	259.94
626.053	268.94
626.259	257.94
626.466	284.94
626.673	257.94
626.879	259.94
627.086	277.94
627.293	264.94
627.499	252.94
627.706	257.94
627.912	265.94
628.119	268.94
628.325	258.94
628.532	245.94
628.738	258.94
628.945	234.94
629.151	245.94
629.357	264.94
629.564	245.94
629.77	234.94
629.976	255.94
630.183	232.94
630.389	234.94
630.595	240.94
630.802	224.94
631.008	232.94
631.214	235.94
631.42	236.94
631.627	239.94
631.833	225.94
632.039	243.94
632.245	237.94
632.451	241.94
632.657	217.94
632.863	219.94
633.069	234.94
633.275	220.94
633.481	213.94
633.688	217.94
633.893	236.94
634.099	232.94
634.305	223.94
634.511	228.94
634.717	245.94
634.923	233.94
635.129	220.94
635.335	231.94
635.541	227.94
635.747	221.94
635.952	239.94
636.158	223.94
636.364	221.94
636.57	205.94
636.775	226.94
636.981	221.94
637.187	229.94
637.392	225.94
637.598	210.94
637.804	209.94
638.009	219.94
638.215	221.94
638.421	227.94
638.626	223.94
638.832	223.94
639.037	203.94
639.243	202.94
639.448	221.94
639.654	204.94
639.859	211.94
640.065	199.94
640.27	218.94
640.475	216.94
640.681	209.94
640.886	209.94
641.091	235.94
641.297	220.94
641.502	207.94
641.707	210.94
641.913	189.94
642.118	206.94
642.323	216.94
642.528	216.94
642.733	207.94
642.939	200.94
643.144	204.94
643.349	204.94
643.554	205.94
643.759	195.94
643.964	203.94
644.169	201.94
644.374	205.94
644.579	198.94
644.784	200.94
644.989	205.94
645.194	204.94
645.399	191.94
645.604	200.94
645.809	191.94
646.014	204.94
646.219	213.94
646.423	213.94
646.628	202.94
646.833	208.94
647.038	204.94
647.243	207.94
647.447	211.94
647.652	196.94
647.857	214.94
648.062	217.94
648.266	219.94
648.471	216.94
648.676	211.94
648.88	220.94
649.085	215.94
649.289	205.94
649.494	228.94
649.698	220.94
649.903	205.94
650.107	202.94
650.312	206.94
650.516	193.94
650.721	180.94
650.925	192.94
651.13	191.94
651.334	183.94
651.539	187.94
651.743	184.94
651.947	179.94
652.152	175.94
652.356	171.94
652.56	183.94
652.764	167.94
652.969	173.94
653.173	163.94
653.377	165.94
653.581	190.94
653.785	165.94
653.99	168.94
654.194	171.94
654.398	166.94
654.602	178.94
654.806	164.94
655.01	164.94
655.214	157.94
655.418	169.94
655.622	159.94
655.826	154.94
656.03	169.94
656.234	171.94
656.438	169.94
656.642	148.94
656.846	141.94
657.049	170.94
657.253	164.94
657.457	149.94
657.661	140.94
657.865	125.94
658.068	116.94
658.272	125.94
658.476	125.94
658.68	119.94
658.883	129.94
659.087	127.94
659.291	118.94
659.494	111.94
659.698	105.94
659.901	103.94
660.105	109.94
660.309	97.94
660.512	99.94
660.716	97.94
660.919	83.94
661.123	103.94
661.326	88.94
661.53	97.94
661.733	113.94
661.936	95.94
662.14	91.94
662.343	84.94
662.546	84.94
662.75	77.94
662.953	84.94
663.156	81.94
663.36	85.94
663.563	86.94
663.766	81.94
663.969	77.94
664.173	80.94
664.376	88.94
664.579	84.94
664.782	79.94
664.985	90.94
665.188	88.94
665.391	99.94
665.594	91.94
665.797	87.94
666	72.94
666.203	96.94
666.406	84.94
666.609	100.94
666.812	77.94
667.015	73.94
667.218	71.94
667.421	89.94
667.624	88.94
667.827	83.94
668.03	72.94
668.232	75.94
668.435	70.94
668.638	96.94
668.841	97.94
669.043	89.94
669.246	77.94
669.449	81.94
669.651	77.94
669.854	90.94
670.057	77.94
670.259	88.94
670.462	86.94
670.665	89.94
670.867	87.94
671.07	86.94
671.272	79.94
671.475	91.94
671.677	75.94
671.88	73.94
672.082	69.94
672.284	89.94
672.487	89.94
672.689	73.94
672.892	76.94
