Data from NiCl2@0.0625M.TitratingCurve.Agarose3%dH2O.NegLispCup.LampEnergy10.LIBS07252019_HRD10591_18-32-41-577.txt Node
Date: Thu Jul 25 18:32:41 EDT 2019
User: cochatt
Spectrometer: HR+D1059
Trigger mode: 1
Integration Time (sec): 1.000000E-1
Scans to average: 1
Electric dark correction enabled: true
Nonlinearity correction enabled: false
Boxcar width: 0
XAxis mode: Wavelengths
Number of Pixels in Spectrum: 2048
>>>>>Begin Spectral Data<<<<<
223.165	-21.31
223.4	-21.31
223.635	-21.31
223.869	-16.31
224.104	-0.31
224.338	-4.31
224.573	-8.31
224.808	-9.31
225.042	-19.31
225.277	-19.31
225.511	-0.31
225.746	-7.31
225.98	-6.31
226.215	17.69
226.449	24.69
226.683	29.69
226.918	21.69
227.152	18.69
227.387	25.69
227.621	31.69
227.856	25.69
228.09	29.69
228.324	58.69
228.559	56.69
228.793	77.69
229.027	148.69
229.262	155.69
229.496	176.69
229.73	171.69
229.964	174.69
230.199	195.69
230.433	192.69
230.667	179.69
230.901	187.69
231.136	193.69
231.37	193.69
231.604	192.69
231.838	221.69
232.072	210.69
232.306	214.69
232.541	201.69
232.775	205.69
233.009	214.69
233.243	213.69
233.477	215.69
233.711	219.69
233.945	230.69
234.179	223.69
234.413	208.69
234.647	213.69
234.881	220.69
235.115	241.69
235.349	234.69
235.583	230.69
235.817	227.69
236.051	241.69
236.285	246.69
236.519	236.69
236.753	232.69
236.987	241.69
237.221	236.69
237.455	262.69
237.689	269.69
237.922	253.69
238.156	259.69
238.39	261.69
238.624	282.69
238.858	265.69
239.091	290.69
239.325	281.69
239.559	283.69
239.793	313.69
240.027	295.69
240.26	288.69
240.494	287.69
240.728	303.69
240.961	294.69
241.195	317.69
241.429	311.69
241.662	306.69
241.896	321.69
242.13	338.69
242.363	312.69
242.597	318.69
242.83	318.69
243.064	320.69
243.298	315.69
243.531	347.69
243.765	348.69
243.998	367.69
244.232	353.69
244.465	352.69
244.699	366.69
244.932	360.69
245.166	374.69
245.399	388.69
245.633	353.69
245.866	373.69
246.099	361.69
246.333	387.69
246.566	367.69
246.8	369.69
247.033	386.69
247.266	385.69
247.5	406.69
247.733	397.69
247.966	385.69
248.2	435.69
248.433	421.69
248.666	411.69
248.899	404.69
249.133	422.69
249.366	409.69
249.599	406.69
249.832	425.69
250.066	443.69
250.299	419.69
250.532	417.69
250.765	467.69
250.998	462.69
251.231	468.69
251.465	466.69
251.698	469.69
251.931	488.69
252.164	452.69
252.397	480.69
252.63	480.69
252.863	460.69
253.096	500.69
253.329	464.69
253.562	449.69
253.795	479.69
254.028	503.69
254.261	495.69
254.494	505.69
254.727	476.69
254.96	479.69
255.193	487.69
255.426	512.69
255.659	516.69
255.892	515.69
256.124	525.69
256.357	534.69
256.59	508.69
256.823	532.69
257.056	531.69
257.289	551.69
257.521	541.69
257.754	522.69
257.987	569.69
258.22	534.69
258.452	552.69
258.685	558.69
258.918	569.69
259.151	574.69
259.383	567.69
259.616	566.69
259.849	575.69
260.081	571.69
260.314	570.69
260.547	564.69
260.779	569.69
261.012	591.69
261.244	564.69
261.477	580.69
261.71	589.69
261.942	565.69
262.175	610.69
262.407	591.69
262.64	590.69
262.872	612.69
263.105	619.69
263.337	608.69
263.57	626.69
263.802	621.69
264.035	623.69
264.267	629.69
264.499	627.69
264.732	630.69
264.964	631.69
265.197	616.69
265.429	641.69
265.661	657.69
265.894	644.69
266.126	638.69
266.358	645.69
266.591	647.69
266.823	650.69
267.055	648.69
267.287	661.69
267.52	662.69
267.752	644.69
267.984	684.69
268.216	675.69
268.448	693.69
268.681	691.69
268.913	668.69
269.145	683.69
269.377	677.69
269.609	703.69
269.841	731.69
270.073	692.69
270.306	709.69
270.538	696.69
270.77	693.69
271.002	718.69
271.234	705.69
271.466	718.69
271.698	707.69
271.93	718.69
272.162	707.69
272.394	751.69
272.626	728.69
272.858	736.69
273.09	741.69
273.322	759.69
273.553	730.69
273.785	755.69
274.017	740.69
274.249	781.69
274.481	738.69
274.713	744.69
274.945	789.69
275.176	789.69
275.408	786.69
275.64	797.69
275.872	789.69
276.104	807.69
276.335	790.69
276.567	787.69
276.799	790.69
277.031	821.69
277.262	787.69
277.494	812.69
277.726	800.69
277.957	832.69
278.189	852.69
278.421	829.69
278.652	836.69
278.884	837.69
279.115	827.69
279.347	841.69
279.579	861.69
279.81	837.69
280.042	854.69
280.273	857.69
280.505	862.69
280.736	850.69
280.968	847.69
281.199	869.69
281.431	867.69
281.662	887.69
281.894	903.69
282.125	883.69
282.356	892.69
282.588	884.69
282.819	905.69
283.051	868.69
283.282	853.69
283.513	912.69
283.745	904.69
283.976	889.69
284.207	887.69
284.439	942.69
284.67	928.69
284.901	914.69
285.132	897.69
285.364	927.69
285.595	943.69
285.826	907.69
286.057	932.69
286.288	944.69
286.52	936.69
286.751	929.69
286.982	981.69
287.213	941.69
287.444	945.69
287.675	957.69
287.906	940.69
288.138	982.69
288.369	985.69
288.6	973.69
288.831	957.69
289.062	973.69
289.293	972.69
289.524	949.69
289.755	968.69
289.986	943.69
290.217	995.69
290.448	968.69
290.679	979.69
290.91	970.69
291.141	1004.69
291.371	971.69
291.602	1005.69
291.833	1000.69
292.064	999.69
292.295	985.69
292.526	1018.69
292.757	966.69
292.987	980.69
293.218	990.69
293.449	984.69
293.68	997.69
293.91	1008.69
294.141	988.69
294.372	978.69
294.603	1024.69
294.833	1010.69
295.064	970.69
295.295	1017.69
295.525	1010.69
295.756	1029.69
295.987	1000.69
296.217	992.69
296.448	1011.69
296.679	1015.69
296.909	1024.69
297.14	1038.69
297.37	1067.69
297.601	1085.69
297.831	1077.69
298.062	1055.69
298.292	1067.69
298.523	1079.69
298.753	1108.69
298.984	1079.69
299.214	1076.69
299.445	1061.69
299.675	1076.69
299.905	1066.69
300.136	1062.69
300.366	1107.69
300.597	1106.69
300.827	1096.69
301.057	1130.69
301.288	1135.69
301.518	1141.69
301.748	1135.69
301.979	1153.69
302.209	1149.69
302.439	1172.69
302.669	1129.69
302.9	1112.69
303.13	1101.69
303.36	1127.69
303.59	1121.69
303.82	1095.69
304.051	1120.69
304.281	1159.69
304.511	1113.69
304.741	1135.69
304.971	1113.69
305.201	1142.69
305.431	1133.69
305.661	1155.69
305.891	1111.69
306.121	1099.69
306.352	1142.69
306.582	1131.69
306.812	1127.69
307.042	1108.69
307.272	1134.69
307.502	1141.69
307.731	1118.69
307.961	1093.69
308.191	1134.69
308.421	1131.69
308.651	1127.69
308.881	1120.69
309.111	1124.69
309.341	1084.69
309.571	1108.69
309.8	1134.69
310.03	1123.69
310.26	1111.69
310.49	1121.69
310.72	1163.69
310.949	1153.69
311.179	1124.69
311.409	1138.69
311.639	1147.69
311.868	1147.69
312.098	1140.69
312.328	1161.69
312.557	1148.69
312.787	1175.69
313.017	1202.69
313.246	1207.69
313.476	1211.69
313.706	1221.69
313.935	1202.69
314.165	1240.69
314.394	1221.69
314.624	1233.69
314.853	1220.69
315.083	1187.69
315.312	1196.69
315.542	1221.69
315.771	1203.69
316.001	1218.69
316.23	1220.69
316.46	1188.69
316.689	1213.69
316.919	1203.69
317.148	1188.69
317.377	1192.69
317.607	1208.69
317.836	1173.69
318.065	1223.69
318.295	1217.69
318.524	1198.69
318.753	1193.69
318.983	1207.69
319.212	1176.69
319.441	1205.69
319.67	1211.69
319.9	1169.69
320.129	1184.69
320.358	1203.69
320.587	1172.69
320.816	1224.69
321.046	1237.69
321.275	1182.69
321.504	1219.69
321.733	1216.69
321.962	1235.69
322.191	1237.69
322.42	1230.69
322.649	1215.69
322.878	1221.69
323.108	1227.69
323.337	1225.69
323.566	1199.69
323.795	1230.69
324.024	1260.69
324.253	1253.69
324.482	1268.69
324.71	1269.69
324.939	1286.69
325.168	1242.69
325.397	1236.69
325.626	1289.69
325.855	1265.69
326.084	1298.69
326.313	1347.69
326.542	1312.69
326.77	1337.69
326.999	1298.69
327.228	1287.69
327.457	1285.69
327.686	1316.69
327.914	1287.69
328.143	1346.69
328.372	1334.69
328.6	1306.69
328.829	1313.69
329.058	1311.69
329.287	1311.69
329.515	1305.69
329.744	1333.69
329.972	1331.69
330.201	1349.69
330.43	1361.69
330.658	1332.69
330.887	1346.69
331.115	1371.69
331.344	1382.69
331.572	1393.69
331.801	1405.69
332.03	1423.69
332.258	1427.69
332.486	1464.69
332.715	1499.69
332.943	1591.69
333.172	1612.69
333.4	1632.69
333.629	1680.69
333.857	1688.69
334.085	1683.69
334.314	1685.69
334.542	1677.69
334.771	1688.69
334.999	1655.69
335.227	1674.69
335.455	1619.69
335.684	1614.69
335.912	1649.69
336.14	1588.69
336.369	1609.69
336.597	1601.69
336.825	1591.69
337.053	1593.69
337.281	1518.69
337.51	1547.69
337.738	1560.69
337.966	1477.69
338.194	1484.69
338.422	1463.69
338.65	1404.69
338.878	1414.69
339.106	1436.69
339.334	1467.69
339.562	1435.69
339.79	1400.69
340.018	1382.69
340.246	1367.69
340.474	1401.69
340.702	1403.69
340.93	1394.69
341.158	1422.69
341.386	1399.69
341.614	1353.69
341.842	1399.69
342.07	1351.69
342.298	1359.69
342.526	1369.69
342.754	1369.69
342.981	1383.69
343.209	1391.69
343.437	1427.69
343.665	1504.69
343.893	1625.69
344.12	1632.69
344.348	1609.69
344.576	1523.69
344.804	1518.69
345.031	1451.69
345.259	1422.69
345.487	1374.69
345.714	1381.69
345.942	1393.69
346.17	1357.69
346.397	1336.69
346.625	1348.69
346.853	1362.69
347.08	1305.69
347.308	1297.69
347.535	1320.69
347.763	1337.69
347.99	1303.69
348.218	1323.69
348.445	1337.69
348.673	1327.69
348.9	1286.69
349.128	1303.69
349.355	1300.69
349.583	1277.69
349.81	1283.69
350.037	1270.69
350.265	1277.69
350.492	1279.69
350.72	1294.69
350.947	1275.69
351.174	1285.69
351.402	1292.69
351.629	1258.69
351.856	1267.69
352.083	1265.69
352.311	1276.69
352.538	1237.69
352.765	1251.69
352.992	1259.69
353.22	1279.69
353.447	1259.69
353.674	1275.69
353.901	1299.69
354.128	1274.69
354.355	1247.69
354.583	1257.69
354.81	1237.69
355.037	1239.69
355.264	1296.69
355.491	1288.69
355.718	1248.69
355.945	1257.69
356.172	1303.69
356.399	1268.69
356.626	1283.69
356.853	1288.69
357.08	1255.69
357.307	1286.69
357.534	1264.69
357.761	1279.69
357.988	1283.69
358.215	1248.69
358.441	1258.69
358.668	1259.69
358.895	1249.69
359.122	1283.69
359.349	1273.69
359.576	1276.69
359.802	1309.69
360.029	1263.69
360.256	1277.69
360.483	1273.69
360.709	1295.69
360.936	1296.69
361.163	1264.69
361.39	1285.69
361.616	1277.69
361.843	1299.69
362.07	1293.69
362.296	1285.69
362.523	1259.69
362.749	1295.69
362.976	1234.69
363.203	1295.69
363.429	1281.69
363.656	1304.69
363.882	1299.69
364.109	1275.69
364.335	1266.69
364.562	1282.69
364.788	1240.69
365.015	1283.69
365.241	1266.69
365.468	1265.69
365.694	1296.69
365.92	1294.69
366.147	1292.69
366.373	1273.69
366.599	1287.69
366.826	1240.69
367.052	1252.69
367.278	1292.69
367.505	1336.69
367.731	1293.69
367.957	1271.69
368.184	1279.69
368.41	1290.69
368.636	1317.69
368.862	1329.69
369.089	1301.69
369.315	1330.69
369.541	1315.69
369.767	1335.69
369.993	1330.69
370.219	1358.69
370.445	1357.69
370.672	1325.69
370.898	1363.69
371.124	1398.69
371.35	1375.69
371.576	1389.69
371.802	1399.69
372.028	1387.69
372.254	1389.69
372.48	1379.69
372.706	1392.69
372.932	1473.69
373.158	1435.69
373.384	1413.69
373.61	1439.69
373.835	1433.69
374.061	1416.69
374.287	1427.69
374.513	1425.69
374.739	1466.69
374.965	1517.69
375.191	1503.69
375.416	1490.69
375.642	1481.69
375.868	1439.69
376.094	1410.69
376.319	1384.69
376.545	1395.69
376.771	1400.69
376.997	1397.69
377.222	1395.69
377.448	1358.69
377.674	1379.69
377.899	1367.69
378.125	1341.69
378.35	1362.69
378.576	1353.69
378.802	1376.69
379.027	1373.69
379.253	1368.69
379.478	1392.69
379.704	1371.69
379.929	1363.69
380.155	1361.69
380.38	1343.69
380.606	1367.69
380.831	1369.69
381.057	1413.69
381.282	1362.69
381.507	1409.69
381.733	1405.69
381.958	1380.69
382.184	1451.69
382.409	1454.69
382.634	1445.69
382.86	1430.69
383.085	1476.69
383.31	1500.69
383.535	1476.69
383.761	1509.69
383.986	1551.69
384.211	1575.69
384.436	1589.69
384.662	1589.69
384.887	1584.69
385.112	1623.69
385.337	1611.69
385.562	1587.69
385.787	1640.69
386.013	1677.69
386.238	1662.69
386.463	1692.69
386.688	1684.69
386.913	1647.69
387.138	1687.69
387.363	1667.69
387.588	1660.69
387.813	1617.69
388.038	1651.69
388.263	1624.69
388.488	1667.69
388.713	1662.69
388.938	1626.69
389.163	1640.69
389.387	1620.69
389.612	1628.69
389.837	1606.69
390.062	1625.69
390.287	1614.69
390.512	1680.69
390.736	1645.69
390.961	1704.69
391.186	1725.69
391.411	1749.69
391.636	1783.69
391.86	1823.69
392.085	1841.69
392.31	1827.69
392.534	1785.69
392.759	1807.69
392.984	1763.69
393.208	1805.69
393.433	1838.69
393.658	1831.69
393.882	1755.69
394.107	1744.69
394.331	1769.69
394.556	1788.69
394.78	1769.69
395.005	1731.69
395.229	1751.69
395.454	1855.69
395.678	1816.69
395.903	1859.69
396.127	1849.69
396.352	1813.69
396.576	1771.69
396.801	1816.69
397.025	1831.69
397.249	1860.69
397.474	1854.69
397.698	1888.69
397.922	1887.69
398.147	1873.69
398.371	1855.69
398.595	1987.69
398.82	2047.69
399.044	2165.69
399.268	2337.69
399.492	2607.69
399.717	2849.69
399.941	2887.69
400.165	2671.69
400.389	2462.69
400.613	2251.69
400.837	2193.69
401.062	2099.69
401.286	2112.69
401.51	2068.69
401.734	2044.69
401.958	2100.69
402.182	2081.69
402.406	2067.69
402.63	2120.69
402.854	2108.69
403.078	2171.69
403.302	2208.69
403.526	2197.69
403.75	2206.69
403.974	2242.69
404.198	2255.69
404.422	2302.69
404.645	2219.69
404.869	2183.69
405.093	2217.69
405.317	2182.69
405.541	2241.69
405.765	2210.69
405.988	2195.69
406.212	2273.69
406.436	2245.69
406.66	2297.69
406.883	2350.69
407.107	2429.69
407.331	2501.69
407.555	2541.69
407.778	2564.69
408.002	2500.69
408.226	2485.69
408.449	2449.69
408.673	2340.69
408.896	2315.69
409.12	2275.69
409.344	2300.69
409.567	2260.69
409.791	2257.69
410.014	2227.69
410.238	2215.69
410.461	2221.69
410.685	2225.69
410.908	2235.69
411.132	2214.69
411.355	2098.69
411.578	2181.69
411.802	2131.69
412.025	2109.69
412.249	2130.69
412.472	2148.69
412.695	2151.69
412.919	2058.69
413.142	2094.69
413.365	2069.69
413.589	2093.69
413.812	2046.69
414.035	2035.69
414.258	2043.69
414.482	2042.69
414.705	2071.69
414.928	2047.69
415.151	2039.69
415.374	2038.69
415.597	2040.69
415.821	1987.69
416.044	1993.69
416.267	1991.69
416.49	1951.69
416.713	1942.69
416.936	2018.69
417.159	1958.69
417.382	1972.69
417.605	1960.69
417.828	2004.69
418.051	2021.69
418.274	1969.69
418.497	1969.69
418.72	2039.69
418.943	1995.69
419.166	2127.69
419.389	2275.69
419.611	2213.69
419.834	2125.69
420.057	2076.69
420.28	2016.69
420.503	1916.69
420.726	1978.69
420.948	1959.69
421.171	1939.69
421.394	1987.69
421.617	1913.69
421.839	1990.69
422.062	1980.69
422.285	1951.69
422.507	2013.69
422.73	2002.69
422.953	1998.69
423.175	2054.69
423.398	2070.69
423.621	2001.69
423.843	2057.69
424.066	2062.69
424.288	2030.69
424.511	2031.69
424.733	1986.69
424.956	2016.69
425.178	1984.69
425.401	1990.69
425.623	2004.69
425.846	1941.69
426.068	1910.69
426.291	1923.69
426.513	1896.69
426.735	1875.69
426.958	1937.69
427.18	1877.69
427.402	1831.69
427.625	1822.69
427.847	1828.69
428.069	1795.69
428.292	1851.69
428.514	1831.69
428.736	1791.69
428.958	1805.69
429.181	1757.69
429.403	1802.69
429.625	1809.69
429.847	1794.69
430.069	1762.69
430.292	1781.69
430.514	1807.69
430.736	1779.69
430.958	1769.69
431.18	1784.69
431.402	1756.69
431.624	1791.69
431.846	1787.69
432.068	1832.69
432.29	1835.69
432.512	1769.69
432.734	1813.69
432.956	1777.69
433.178	1815.69
433.4	1844.69
433.622	1865.69
433.844	1839.69
434.066	1819.69
434.287	1853.69
434.509	1915.69
434.731	1940.69
434.953	1977.69
435.175	1998.69
435.397	1999.69
435.618	1917.69
435.84	1894.69
436.062	1852.69
436.284	1798.69
436.505	1744.69
436.727	1799.69
436.949	1837.69
437.17	1789.69
437.392	1763.69
437.614	1766.69
437.835	1717.69
438.057	1731.69
438.278	1687.69
438.5	1736.69
438.721	1711.69
438.943	1727.69
439.165	1708.69
439.386	1739.69
439.608	1757.69
439.829	1747.69
440.05	1794.69
440.272	1723.69
440.493	1790.69
440.715	1799.69
440.936	1847.69
441.158	1841.69
441.379	1877.69
441.6	1920.69
441.822	1958.69
442.043	1967.69
442.264	1885.69
442.486	1944.69
442.707	1923.69
442.928	1935.69
443.149	1941.69
443.371	1890.69
443.592	1953.69
443.813	1937.69
444.034	1956.69
444.255	2034.69
444.476	2083.69
444.698	2171.69
444.919	2204.69
445.14	2267.69
445.361	2136.69
445.582	2061.69
445.803	1927.69
446.024	1880.69
446.245	1843.69
446.466	1810.69
446.687	1776.69
446.908	1768.69
447.129	1750.69
447.35	1729.69
447.571	1685.69
447.792	1652.69
448.013	1669.69
448.234	1659.69
448.455	1641.69
448.675	1621.69
448.896	1623.69
449.117	1589.69
449.338	1591.69
449.559	1576.69
449.779	1620.69
450	1567.69
450.221	1593.69
450.442	1587.69
450.662	1619.69
450.883	1608.69
451.104	1608.69
451.324	1620.69
451.545	1624.69
451.766	1661.69
451.986	1610.69
452.207	1575.69
452.428	1571.69
452.648	1561.69
452.869	1555.69
453.089	1531.69
453.31	1551.69
453.53	1534.69
453.751	1501.69
453.971	1563.69
454.192	1533.69
454.412	1514.69
454.633	1512.69
454.853	1543.69
455.073	1507.69
455.294	1496.69
455.514	1479.69
455.734	1492.69
455.955	1468.69
456.175	1502.69
456.395	1472.69
456.616	1496.69
456.836	1502.69
457.056	1515.69
457.276	1497.69
457.497	1506.69
457.717	1530.69
457.937	1515.69
458.157	1556.69
458.377	1589.69
458.598	1573.69
458.818	1641.69
459.038	1651.69
459.258	1733.69
459.478	1785.69
459.698	1823.69
459.918	1903.69
460.138	1956.69
460.358	1960.69
460.578	1969.69
460.798	2024.69
461.018	2101.69
461.238	2011.69
461.458	2014.69
461.678	2027.69
461.898	2071.69
462.118	2081.69
462.338	2153.69
462.558	2191.69
462.777	2295.69
462.997	2430.69
463.217	2588.69
463.437	2571.69
463.657	2443.69
463.876	2340.69
464.096	2305.69
464.316	2274.69
464.536	2295.69
464.755	2193.69
464.975	2187.69
465.195	2097.69
465.414	1959.69
465.634	1889.69
465.854	1812.69
466.073	1812.69
466.293	1764.69
466.512	1739.69
466.732	1670.69
466.951	1723.69
467.171	1667.69
467.391	1668.69
467.61	1697.69
467.829	1673.69
468.049	1638.69
468.268	1633.69
468.488	1617.69
468.707	1633.69
468.927	1619.69
469.146	1591.69
469.365	1661.69
469.585	1659.69
469.804	1680.69
470.023	1729.69
470.243	1705.69
470.462	1705.69
470.681	1727.69
470.901	1734.69
471.12	1707.69
471.339	1687.69
471.558	1691.69
471.777	1654.69
471.997	1641.69
472.216	1651.69
472.435	1639.69
472.654	1638.69
472.873	1620.69
473.092	1613.69
473.311	1632.69
473.53	1607.69
473.749	1581.69
473.968	1571.69
474.187	1608.69
474.406	1602.69
474.625	1609.69
474.844	1622.69
475.063	1620.69
475.282	1643.69
475.501	1629.69
475.72	1646.69
475.939	1621.69
476.158	1669.69
476.377	1727.69
476.596	1709.69
476.814	1730.69
477.033	1705.69
477.252	1773.69
477.471	1793.69
477.69	1808.69
477.908	1852.69
478.127	1900.69
478.346	1880.69
478.564	1956.69
478.783	1966.69
479.002	2027.69
479.22	1985.69
479.439	2034.69
479.658	2002.69
479.876	2045.69
480.095	2065.69
480.313	2084.69
480.532	2179.69
480.751	2142.69
480.969	2087.69
481.188	2067.69
481.406	2018.69
481.624	1991.69
481.843	1910.69
482.061	1993.69
482.28	1929.69
482.498	1936.69
482.717	1900.69
482.935	1924.69
483.153	1939.69
483.372	1956.69
483.59	1990.69
483.808	1958.69
484.027	1947.69
484.245	1958.69
484.463	2009.69
484.681	2059.69
484.9	2023.69
485.118	2032.69
485.336	2054.69
485.554	2063.69
485.772	2074.69
485.99	2061.69
486.209	2094.69
486.427	2085.69
486.645	2056.69
486.863	2036.69
487.081	2065.69
487.299	2039.69
487.517	2051.69
487.735	2041.69
487.953	2051.69
488.171	2019.69
488.389	2029.69
488.607	2068.69
488.825	2003.69
489.043	2025.69
489.261	2015.69
489.479	2018.69
489.696	2027.69
489.914	2057.69
490.132	2019.69
490.35	2034.69
490.568	1987.69
490.786	2019.69
491.003	2035.69
491.221	1998.69
491.439	1999.69
491.657	1978.69
491.874	1998.69
492.092	2031.69
492.31	1974.69
492.527	2038.69
492.745	2007.69
492.963	2024.69
493.18	2036.69
493.398	2052.69
493.615	2030.69
493.833	2049.69
494.05	2011.69
494.268	1999.69
494.485	2065.69
494.703	2017.69
494.92	2060.69
495.138	2077.69
495.355	2079.69
495.573	2095.69
495.79	2094.69
496.008	2107.69
496.225	2167.69
496.442	2168.69
496.66	2161.69
496.877	2173.69
497.094	2216.69
497.312	2242.69
497.529	2310.69
497.746	2370.69
497.963	2396.69
498.181	2482.69
498.398	2632.69
498.615	2743.69
498.832	2881.69
499.049	3058.69
499.267	3282.69
499.484	3566.69
499.701	3841.69
499.918	4203.69
500.135	4610.69
500.352	5044.69
500.569	5135.69
500.786	5111.69
501.003	4994.69
501.22	4533.69
501.437	4195.69
501.654	3750.69
501.871	3552.69
502.088	3245.69
502.305	2999.69
502.522	2871.69
502.739	2827.69
502.956	2658.69
503.172	2545.69
503.389	2469.69
503.606	2379.69
503.823	2313.69
504.04	2344.69
504.256	2335.69
504.473	2329.69
504.69	2375.69
504.907	2309.69
505.123	2174.69
505.34	2141.69
505.557	2036.69
505.773	1984.69
505.99	1941.69
506.207	1919.69
506.423	1887.69
506.64	1883.69
506.856	1826.69
507.073	1824.69
507.289	1820.69
507.506	1793.69
507.722	1781.69
507.939	1760.69
508.155	1739.69
508.372	1750.69
508.588	1689.69
508.805	1713.69
509.021	1691.69
509.238	1663.69
509.454	1679.69
509.67	1652.69
509.887	1665.69
510.103	1636.69
510.319	1605.69
510.536	1618.69
510.752	1631.69
510.968	1618.69
511.184	1611.69
511.401	1612.69
511.617	1601.69
511.833	1625.69
512.049	1629.69
512.265	1630.69
512.481	1567.69
512.698	1597.69
512.914	1596.69
513.13	1595.69
513.346	1631.69
513.562	1615.69
513.778	1608.69
513.994	1605.69
514.21	1606.69
514.426	1638.69
514.642	1626.69
514.858	1611.69
515.074	1679.69
515.29	1677.69
515.506	1679.69
515.721	1734.69
515.937	1719.69
516.153	1746.69
516.369	1806.69
516.585	1802.69
516.801	1888.69
517.016	1950.69
517.232	2015.69
517.448	2050.69
517.664	2101.69
517.879	2078.69
518.095	2096.69
518.311	2091.69
518.527	1995.69
518.742	1935.69
518.958	1927.69
519.173	1871.69
519.389	1795.69
519.605	1738.69
519.82	1691.69
520.036	1682.69
520.251	1656.69
520.467	1643.69
520.682	1647.69
520.898	1581.69
521.113	1569.69
521.329	1591.69
521.544	1567.69
521.76	1551.69
521.975	1553.69
522.19	1509.69
522.406	1559.69
522.621	1492.69
522.836	1527.69
523.052	1499.69
523.267	1492.69
523.482	1443.69
523.698	1429.69
523.913	1508.69
524.128	1455.69
524.343	1499.69
524.559	1421.69
524.774	1433.69
524.989	1458.69
525.204	1445.69
525.419	1443.69
525.634	1435.69
525.849	1445.69
526.064	1445.69
526.28	1415.69
526.495	1410.69
526.71	1423.69
526.925	1400.69
527.14	1413.69
527.355	1388.69
527.57	1391.69
527.785	1411.69
527.999	1407.69
528.214	1438.69
528.429	1402.69
528.644	1416.69
528.859	1441.69
529.074	1420.69
529.289	1405.69
529.503	1426.69
529.718	1396.69
529.933	1415.69
530.148	1395.69
530.363	1409.69
530.577	1416.69
530.792	1394.69
531.007	1374.69
531.221	1419.69
531.436	1409.69
531.651	1394.69
531.865	1388.69
532.08	1395.69
532.295	1402.69
532.509	1387.69
532.724	1381.69
532.938	1407.69
533.153	1396.69
533.367	1380.69
533.582	1374.69
533.796	1379.69
534.011	1409.69
534.225	1359.69
534.44	1407.69
534.654	1388.69
534.868	1371.69
535.083	1353.69
535.297	1318.69
535.511	1362.69
535.726	1362.69
535.94	1335.69
536.154	1312.69
536.369	1307.69
536.583	1301.69
536.797	1301.69
537.011	1273.69
537.225	1305.69
537.44	1302.69
537.654	1244.69
537.868	1278.69
538.082	1283.69
538.296	1283.69
538.51	1264.69
538.724	1290.69
538.938	1264.69
539.153	1275.69
539.367	1279.69
539.581	1273.69
539.795	1259.69
540.009	1257.69
540.222	1244.69
540.436	1239.69
540.65	1241.69
540.864	1235.69
541.078	1225.69
541.292	1253.69
541.506	1244.69
541.72	1209.69
541.934	1243.69
542.147	1246.69
542.361	1225.69
542.575	1201.69
542.789	1223.69
543.002	1222.69
543.216	1201.69
543.43	1185.69
543.644	1216.69
543.857	1243.69
544.071	1209.69
544.285	1201.69
544.498	1200.69
544.712	1229.69
544.925	1242.69
545.139	1257.69
545.352	1226.69
545.566	1245.69
545.779	1244.69
545.993	1246.69
546.206	1264.69
546.42	1257.69
546.633	1236.69
546.847	1244.69
547.06	1224.69
547.274	1225.69
547.487	1248.69
547.7	1229.69
547.914	1232.69
548.127	1231.69
548.34	1264.69
548.554	1254.69
548.767	1224.69
548.98	1242.69
549.193	1231.69
549.407	1288.69
549.62	1252.69
549.833	1294.69
550.046	1248.69
550.259	1249.69
550.473	1240.69
550.686	1226.69
550.899	1238.69
551.112	1221.69
551.325	1232.69
551.538	1266.69
551.751	1245.69
551.964	1216.69
552.177	1254.69
552.39	1236.69
552.603	1290.69
552.816	1321.69
553.029	1333.69
553.242	1339.69
553.455	1346.69
553.667	1343.69
553.88	1335.69
554.093	1296.69
554.306	1256.69
554.519	1277.69
554.732	1229.69
554.944	1179.69
555.157	1202.69
555.37	1180.69
555.583	1171.69
555.795	1182.69
556.008	1135.69
556.221	1103.69
556.433	1094.69
556.646	1102.69
556.859	1106.69
557.071	1084.69
557.284	1068.69
557.496	1076.69
557.709	1059.69
557.921	1065.69
558.134	1084.69
558.346	1039.69
558.559	1067.69
558.771	1071.69
558.984	1032.69
559.196	1041.69
559.409	1024.69
559.621	1017.69
559.833	1009.69
560.046	1037.69
560.258	1011.69
560.47	1003.69
560.683	1026.69
560.895	1034.69
561.107	1039.69
561.32	1020.69
561.532	1037.69
561.744	1032.69
561.956	1003.69
562.168	1007.69
562.381	1023.69
562.593	1053.69
562.805	1029.69
563.017	1012.69
563.229	1048.69
563.441	1022.69
563.653	1074.69
563.865	1048.69
564.077	1055.69
564.289	1089.69
564.501	1081.69
564.713	1114.69
564.925	1130.69
565.137	1118.69
565.349	1157.69
565.561	1167.69
565.773	1224.69
565.985	1260.69
566.197	1335.69
566.408	1398.69
566.62	1491.69
566.832	1572.69
567.044	1632.69
567.255	1648.69
567.467	1645.69
567.679	1691.69
567.891	1781.69
568.102	1804.69
568.314	1712.69
568.526	1606.69
568.737	1500.69
568.949	1392.69
569.161	1302.69
569.372	1209.69
569.584	1172.69
569.795	1156.69
570.007	1093.69
570.218	1063.69
570.43	1055.69
570.641	1056.69
570.853	1051.69
571.064	1064.69
571.276	1033.69
571.487	1011.69
571.698	988.69
571.91	987.69
572.121	953.69
572.333	913.69
572.544	871.69
572.755	884.69
572.966	872.69
573.178	867.69
573.389	888.69
573.6	830.69
573.811	835.69
574.023	855.69
574.234	833.69
574.445	850.69
574.656	855.69
574.867	865.69
575.078	831.69
575.289	822.69
575.501	809.69
575.712	801.69
575.923	818.69
576.134	778.69
576.345	799.69
576.556	783.69
576.767	794.69
576.978	783.69
577.188	774.69
577.399	777.69
577.61	776.69
577.821	773.69
578.032	760.69
578.243	750.69
578.454	776.69
578.665	747.69
578.875	737.69
579.086	747.69
579.297	729.69
579.508	745.69
579.718	708.69
579.929	725.69
580.14	739.69
580.35	739.69
580.561	717.69
580.772	691.69
580.982	730.69
581.193	701.69
581.403	701.69
581.614	724.69
581.825	704.69
582.035	681.69
582.246	683.69
582.456	721.69
582.667	695.69
582.877	685.69
583.087	693.69
583.298	701.69
583.508	680.69
583.719	709.69
583.929	693.69
584.139	680.69
584.35	702.69
584.56	702.69
584.77	683.69
584.981	692.69
585.191	682.69
585.401	667.69
585.611	637.69
585.821	657.69
586.032	691.69
586.242	684.69
586.452	685.69
586.662	659.69
586.872	675.69
587.082	663.69
587.292	668.69
587.502	663.69
587.713	643.69
587.923	667.69
588.133	649.69
588.343	659.69
588.553	655.69
588.762	650.69
588.972	659.69
589.182	696.69
589.392	683.69
589.602	668.69
589.812	668.69
590.022	655.69
590.232	671.69
590.441	653.69
590.651	681.69
590.861	655.69
591.071	668.69
591.281	696.69
591.49	687.69
591.7	726.69
591.91	703.69
592.119	699.69
592.329	724.69
592.539	730.69
592.748	756.69
592.958	802.69
593.167	764.69
593.377	775.69
593.587	808.69
593.796	820.69
594.006	825.69
594.215	786.69
594.424	773.69
594.634	774.69
594.843	769.69
595.053	749.69
595.262	711.69
595.472	699.69
595.681	684.69
595.89	672.69
596.1	645.69
596.309	642.69
596.518	617.69
596.727	645.69
596.937	618.69
597.146	591.69
597.355	621.69
597.564	593.69
597.774	586.69
597.983	607.69
598.192	578.69
598.401	564.69
598.61	569.69
598.819	575.69
599.028	561.69
599.237	552.69
599.446	567.69
599.655	549.69
599.864	547.69
600.073	550.69
600.282	545.69
600.491	529.69
600.7	546.69
600.909	531.69
601.118	535.69
601.327	539.69
601.536	529.69
601.745	518.69
601.953	547.69
602.162	508.69
602.371	527.69
602.58	522.69
602.789	508.69
602.997	527.69
603.206	513.69
603.415	525.69
603.623	502.69
603.832	514.69
604.041	509.69
604.249	511.69
604.458	502.69
604.666	510.69
604.875	499.69
605.084	483.69
605.292	465.69
605.501	491.69
605.709	496.69
605.918	497.69
606.126	499.69
606.334	485.69
606.543	470.69
606.751	495.69
606.96	484.69
607.168	476.69
607.376	475.69
607.585	485.69
607.793	454.69
608.001	490.69
608.21	499.69
608.418	485.69
608.626	471.69
608.834	485.69
609.043	482.69
609.251	486.69
609.459	476.69
609.667	471.69
609.875	458.69
610.083	479.69
610.291	477.69
610.499	475.69
610.707	464.69
610.916	480.69
611.124	485.69
611.332	469.69
611.54	459.69
611.748	469.69
611.955	476.69
612.163	453.69
612.371	457.69
612.579	459.69
612.787	454.69
612.995	433.69
613.203	468.69
613.411	452.69
613.618	428.69
613.826	454.69
614.034	454.69
614.242	454.69
614.449	439.69
614.657	438.69
614.865	441.69
615.072	446.69
615.28	451.69
615.488	454.69
615.695	447.69
615.903	476.69
616.111	449.69
616.318	458.69
616.526	456.69
616.733	434.69
616.941	457.69
617.148	448.69
617.356	425.69
617.563	438.69
617.771	456.69
617.978	455.69
618.185	458.69
618.393	447.69
618.6	455.69
618.807	453.69
619.015	450.69
619.222	443.69
619.429	427.69
619.637	442.69
619.844	424.69
620.051	429.69
620.258	435.69
620.466	408.69
620.673	396.69
620.88	413.69
621.087	407.69
621.294	418.69
621.501	436.69
621.708	427.69
621.915	440.69
622.122	416.69
622.329	416.69
622.536	405.69
622.743	403.69
622.95	409.69
623.157	410.69
623.364	410.69
623.571	372.69
623.778	394.69
623.985	394.69
624.192	375.69
624.399	414.69
624.606	383.69
624.812	400.69
625.019	391.69
625.226	373.69
625.433	399.69
625.639	363.69
625.846	384.69
626.053	379.69
626.259	363.69
626.466	378.69
626.673	388.69
626.879	384.69
627.086	375.69
627.293	375.69
627.499	374.69
627.706	358.69
627.912	365.69
628.119	389.69
628.325	361.69
628.532	357.69
628.738	371.69
628.945	371.69
629.151	376.69
629.357	353.69
629.564	372.69
629.77	358.69
629.976	350.69
630.183	357.69
630.389	350.69
630.595	354.69
630.802	356.69
631.008	353.69
631.214	338.69
631.42	351.69
631.627	352.69
631.833	341.69
632.039	337.69
632.245	338.69
632.451	333.69
632.657	338.69
632.863	328.69
633.069	340.69
633.275	342.69
633.481	326.69
633.688	326.69
633.893	340.69
634.099	325.69
634.305	338.69
634.511	341.69
634.717	315.69
634.923	329.69
635.129	337.69
635.335	343.69
635.541	318.69
635.747	319.69
635.952	310.69
636.158	325.69
636.364	315.69
636.57	313.69
636.775	311.69
636.981	325.69
637.187	296.69
637.392	315.69
637.598	306.69
637.804	311.69
638.009	318.69
638.215	319.69
638.421	301.69
638.626	314.69
638.832	313.69
639.037	292.69
639.243	307.69
639.448	316.69
639.654	314.69
639.859	315.69
640.065	313.69
640.27	315.69
640.475	297.69
640.681	311.69
640.886	304.69
641.091	292.69
641.297	309.69
641.502	288.69
641.707	310.69
641.913	302.69
642.118	310.69
642.323	305.69
642.528	297.69
642.733	289.69
642.939	283.69
643.144	309.69
643.349	286.69
643.554	305.69
643.759	285.69
643.964	304.69
644.169	287.69
644.374	310.69
644.579	291.69
644.784	299.69
644.989	305.69
645.194	304.69
645.399	291.69
645.604	305.69
645.809	299.69
646.014	280.69
646.219	306.69
646.423	307.69
646.628	314.69
646.833	296.69
647.038	305.69
647.243	294.69
647.447	313.69
647.652	309.69
647.857	312.69
648.062	313.69
648.266	326.69
648.471	309.69
648.676	318.69
648.88	312.69
649.085	315.69
649.289	329.69
649.494	297.69
649.698	309.69
649.903	293.69
650.107	313.69
650.312	299.69
650.516	317.69
650.721	292.69
650.925	313.69
651.13	287.69
651.334	304.69
651.539	292.69
651.743	303.69
651.947	303.69
652.152	276.69
652.356	275.69
652.56	273.69
652.764	283.69
652.969	276.69
653.173	292.69
653.377	285.69
653.581	261.69
653.785	272.69
653.99	273.69
654.194	283.69
654.398	277.69
654.602	295.69
654.806	290.69
655.01	304.69
655.214	278.69
655.418	309.69
655.622	313.69
655.826	324.69
656.03	321.69
656.234	346.69
656.438	348.69
656.642	323.69
656.846	336.69
657.049	307.69
657.253	279.69
657.457	280.69
657.661	243.69
657.865	199.69
658.068	205.69
658.272	192.69
658.476	192.69
658.68	174.69
658.883	181.69
659.087	140.69
659.291	159.69
659.494	143.69
659.698	127.69
659.901	143.69
660.105	116.69
660.309	117.69
660.512	110.69
660.716	128.69
660.919	110.69
661.123	106.69
661.326	94.69
661.53	102.69
661.733	102.69
661.936	97.69
662.14	91.69
662.343	91.69
662.546	89.69
662.75	93.69
662.953	100.69
663.156	84.69
663.36	87.69
663.563	92.69
663.766	78.69
663.969	79.69
664.173	77.69
664.376	88.69
664.579	84.69
664.782	77.69
664.985	80.69
665.188	87.69
665.391	92.69
665.594	84.69
665.797	80.69
666	77.69
666.203	74.69
666.406	65.69
666.609	60.69
666.812	88.69
667.015	85.69
667.218	82.69
667.421	79.69
667.624	86.69
667.827	85.69
668.03	78.69
668.232	67.69
668.435	64.69
668.638	81.69
668.841	80.69
669.043	82.69
669.246	77.69
669.449	83.69
669.651	72.69
669.854	86.69
670.057	80.69
670.259	81.69
670.462	76.69
670.665	74.69
670.867	76.69
671.07	90.69
671.272	83.69
671.475	93.69
671.677	84.69
671.88	66.69
672.082	88.69
672.284	77.69
672.487	75.69
672.689	79.69
672.892	75.69
