Data from NiCl2@0.0625M.TitratingCurve.Agarose3%dH2O.NegLispCup.LampEnergy10.LIBS07252019_HRD10591_18-34-13-577.txt Node
Date: Thu Jul 25 18:34:13 EDT 2019
User: cochatt
Spectrometer: HR+D1059
Trigger mode: 1
Integration Time (sec): 1.000000E-1
Scans to average: 1
Electric dark correction enabled: true
Nonlinearity correction enabled: false
Boxcar width: 0
XAxis mode: Wavelengths
Number of Pixels in Spectrum: 2048
>>>>>Begin Spectral Data<<<<<
223.165	-14.38
223.4	-14.38
223.635	-14.38
223.869	-10.38
224.104	-19.38
224.338	-26.38
224.573	-14.38
224.808	-6.38
225.042	-3.38
225.277	2.62
225.511	-15.38
225.746	-0.38
225.98	6.62
226.215	11.62
226.449	27.62
226.683	7.62
226.918	20.62
227.152	33.62
227.387	41.62
227.621	41.62
227.856	43.62
228.09	51.62
228.324	59.62
228.559	46.62
228.793	74.62
229.027	147.62
229.262	148.62
229.496	161.62
229.73	166.62
229.964	160.62
230.199	185.62
230.433	173.62
230.667	191.62
230.901	195.62
231.136	178.62
231.37	189.62
231.604	191.62
231.838	204.62
232.072	203.62
232.306	206.62
232.541	214.62
232.775	202.62
233.009	196.62
233.243	190.62
233.477	198.62
233.711	203.62
233.945	229.62
234.179	215.62
234.413	221.62
234.647	207.62
234.881	214.62
235.115	201.62
235.349	209.62
235.583	216.62
235.817	219.62
236.051	223.62
236.285	229.62
236.519	209.62
236.753	230.62
236.987	234.62
237.221	233.62
237.455	229.62
237.689	228.62
237.922	259.62
238.156	241.62
238.39	258.62
238.624	233.62
238.858	239.62
239.091	250.62
239.325	248.62
239.559	256.62
239.793	268.62
240.027	262.62
240.26	281.62
240.494	266.62
240.728	269.62
240.961	282.62
241.195	285.62
241.429	273.62
241.662	286.62
241.896	283.62
242.13	301.62
242.363	298.62
242.597	297.62
242.83	286.62
243.064	295.62
243.298	303.62
243.531	318.62
243.765	329.62
243.998	315.62
244.232	316.62
244.465	293.62
244.699	333.62
244.932	334.62
245.166	333.62
245.399	344.62
245.633	330.62
245.866	348.62
246.099	339.62
246.333	344.62
246.566	345.62
246.8	359.62
247.033	342.62
247.266	343.62
247.5	351.62
247.733	344.62
247.966	365.62
248.2	365.62
248.433	385.62
248.666	379.62
248.899	389.62
249.133	379.62
249.366	378.62
249.599	386.62
249.832	385.62
250.066	387.62
250.299	405.62
250.532	397.62
250.765	399.62
250.998	413.62
251.231	406.62
251.465	409.62
251.698	437.62
251.931	431.62
252.164	426.62
252.397	425.62
252.63	452.62
252.863	435.62
253.096	436.62
253.329	437.62
253.562	427.62
253.795	426.62
254.028	462.62
254.261	444.62
254.494	444.62
254.727	442.62
254.96	438.62
255.193	464.62
255.426	462.62
255.659	473.62
255.892	451.62
256.124	447.62
256.357	460.62
256.59	478.62
256.823	467.62
257.056	483.62
257.289	484.62
257.521	485.62
257.754	446.62
257.987	477.62
258.22	494.62
258.452	493.62
258.685	493.62
258.918	526.62
259.151	491.62
259.383	479.62
259.616	504.62
259.849	503.62
260.081	514.62
260.314	497.62
260.547	528.62
260.779	536.62
261.012	554.62
261.244	550.62
261.477	537.62
261.71	527.62
261.942	548.62
262.175	537.62
262.407	524.62
262.64	546.62
262.872	523.62
263.105	533.62
263.337	553.62
263.57	556.62
263.802	563.62
264.035	565.62
264.267	564.62
264.499	565.62
264.732	571.62
264.964	588.62
265.197	588.62
265.429	568.62
265.661	567.62
265.894	578.62
266.126	577.62
266.358	567.62
266.591	558.62
266.823	597.62
267.055	600.62
267.287	599.62
267.52	595.62
267.752	594.62
267.984	604.62
268.216	606.62
268.448	631.62
268.681	613.62
268.913	625.62
269.145	598.62
269.377	633.62
269.609	639.62
269.841	628.62
270.073	620.62
270.306	633.62
270.538	635.62
270.77	663.62
271.002	649.62
271.234	641.62
271.466	640.62
271.698	651.62
271.93	643.62
272.162	637.62
272.394	665.62
272.626	639.62
272.858	659.62
273.09	674.62
273.322	668.62
273.553	660.62
273.785	662.62
274.017	695.62
274.249	680.62
274.481	697.62
274.713	701.62
274.945	709.62
275.176	705.62
275.408	710.62
275.64	705.62
275.872	715.62
276.104	699.62
276.335	702.62
276.567	711.62
276.799	706.62
277.031	717.62
277.262	719.62
277.494	710.62
277.726	726.62
277.957	718.62
278.189	747.62
278.421	738.62
278.652	734.62
278.884	765.62
279.115	737.62
279.347	779.62
279.579	757.62
279.81	755.62
280.042	770.62
280.273	779.62
280.505	760.62
280.736	786.62
280.968	774.62
281.199	783.62
281.431	782.62
281.662	785.62
281.894	782.62
282.125	787.62
282.356	798.62
282.588	793.62
282.819	790.62
283.051	776.62
283.282	823.62
283.513	817.62
283.745	817.62
283.976	818.62
284.207	782.62
284.439	839.62
284.67	825.62
284.901	833.62
285.132	829.62
285.364	821.62
285.595	835.62
285.826	793.62
286.057	827.62
286.288	856.62
286.52	842.62
286.751	843.62
286.982	859.62
287.213	861.62
287.444	866.62
287.675	860.62
287.906	849.62
288.138	857.62
288.369	862.62
288.6	852.62
288.831	882.62
289.062	893.62
289.293	889.62
289.524	867.62
289.755	870.62
289.986	875.62
290.217	868.62
290.448	867.62
290.679	883.62
290.91	896.62
291.141	900.62
291.371	892.62
291.602	914.62
291.833	865.62
292.064	879.62
292.295	916.62
292.526	897.62
292.757	883.62
292.987	894.62
293.218	862.62
293.449	894.62
293.68	908.62
293.91	890.62
294.141	925.62
294.372	903.62
294.603	908.62
294.833	906.62
295.064	895.62
295.295	890.62
295.525	905.62
295.756	864.62
295.987	884.62
296.217	913.62
296.448	939.62
296.679	938.62
296.909	961.62
297.14	925.62
297.37	927.62
297.601	953.62
297.831	951.62
298.062	932.62
298.292	956.62
298.523	980.62
298.753	990.62
298.984	969.62
299.214	967.62
299.445	979.62
299.675	969.62
299.905	965.62
300.136	981.62
300.366	984.62
300.597	979.62
300.827	1017.62
301.057	1009.62
301.288	993.62
301.518	1017.62
301.748	1022.62
301.979	1040.62
302.209	1025.62
302.439	1031.62
302.669	1050.62
302.9	1033.62
303.13	1000.62
303.36	999.62
303.59	994.62
303.82	1011.62
304.051	1006.62
304.281	1039.62
304.511	1023.62
304.741	1003.62
304.971	987.62
305.201	1006.62
305.431	1020.62
305.661	989.62
305.891	1001.62
306.121	1006.62
306.352	1005.62
306.582	1006.62
306.812	1014.62
307.042	1000.62
307.272	989.62
307.502	989.62
307.731	1002.62
307.961	1001.62
308.191	1011.62
308.421	997.62
308.651	993.62
308.881	984.62
309.111	1010.62
309.341	983.62
309.571	1005.62
309.8	981.62
310.03	1021.62
310.26	1031.62
310.49	997.62
310.72	977.62
310.949	1030.62
311.179	1025.62
311.409	1020.62
311.639	1047.62
311.868	1009.62
312.098	1053.62
312.328	1026.62
312.557	1069.62
312.787	1054.62
313.017	1053.62
313.246	1078.62
313.476	1069.62
313.706	1087.62
313.935	1086.62
314.165	1083.62
314.394	1095.62
314.624	1081.62
314.853	1085.62
315.083	1092.62
315.312	1080.62
315.542	1093.62
315.771	1069.62
316.001	1073.62
316.23	1087.62
316.46	1060.62
316.689	1101.62
316.919	1053.62
317.148	1067.62
317.377	1067.62
317.607	1076.62
317.836	1057.62
318.065	1057.62
318.295	1060.62
318.524	1079.62
318.753	1082.62
318.983	1073.62
319.212	1055.62
319.441	1052.62
319.67	1064.62
319.9	1085.62
320.129	1086.62
320.358	1075.62
320.587	1089.62
320.816	1150.62
321.046	1077.62
321.275	1092.62
321.504	1092.62
321.733	1078.62
321.962	1078.62
322.191	1107.62
322.42	1066.62
322.649	1081.62
322.878	1062.62
323.108	1058.62
323.337	1115.62
323.566	1071.62
323.795	1095.62
324.024	1077.62
324.253	1108.62
324.482	1097.62
324.71	1145.62
324.939	1139.62
325.168	1153.62
325.397	1150.62
325.626	1131.62
325.855	1166.62
326.084	1162.62
326.313	1158.62
326.542	1163.62
326.77	1221.62
326.999	1187.62
327.228	1147.62
327.457	1142.62
327.686	1167.62
327.914	1190.62
328.143	1145.62
328.372	1159.62
328.6	1166.62
328.829	1154.62
329.058	1181.62
329.287	1198.62
329.515	1190.62
329.744	1163.62
329.972	1170.62
330.201	1195.62
330.43	1210.62
330.658	1185.62
330.887	1217.62
331.115	1223.62
331.344	1261.62
331.572	1259.62
331.801	1295.62
332.03	1295.62
332.258	1310.62
332.486	1303.62
332.715	1348.62
332.943	1379.62
333.172	1434.62
333.4	1488.62
333.629	1478.62
333.857	1505.62
334.085	1547.62
334.314	1533.62
334.542	1483.62
334.771	1513.62
334.999	1436.62
335.227	1471.62
335.455	1467.62
335.684	1449.62
335.912	1403.62
336.14	1437.62
336.369	1412.62
336.597	1420.62
336.825	1427.62
337.053	1407.62
337.281	1373.62
337.51	1366.62
337.738	1351.62
337.966	1325.62
338.194	1303.62
338.422	1281.62
338.65	1260.62
338.878	1283.62
339.106	1244.62
339.334	1305.62
339.562	1310.62
339.79	1276.62
340.018	1228.62
340.246	1228.62
340.474	1249.62
340.702	1195.62
340.93	1270.62
341.158	1238.62
341.386	1253.62
341.614	1235.62
341.842	1228.62
342.07	1223.62
342.298	1220.62
342.526	1217.62
342.754	1199.62
342.981	1217.62
343.209	1262.62
343.437	1304.62
343.665	1355.62
343.893	1420.62
344.12	1489.62
344.348	1431.62
344.576	1386.62
344.804	1353.62
345.031	1273.62
345.259	1244.62
345.487	1252.62
345.714	1233.62
345.942	1224.62
346.17	1226.62
346.397	1193.62
346.625	1193.62
346.853	1167.62
347.08	1192.62
347.308	1174.62
347.535	1189.62
347.763	1190.62
347.99	1187.62
348.218	1195.62
348.445	1166.62
348.673	1181.62
348.9	1193.62
349.128	1152.62
349.355	1166.62
349.583	1179.62
349.81	1144.62
350.037	1145.62
350.265	1159.62
350.492	1135.62
350.72	1147.62
350.947	1139.62
351.174	1150.62
351.402	1180.62
351.629	1172.62
351.856	1132.62
352.083	1129.62
352.311	1169.62
352.538	1150.62
352.765	1122.62
352.992	1123.62
353.22	1140.62
353.447	1134.62
353.674	1169.62
353.901	1127.62
354.128	1094.62
354.355	1124.62
354.583	1134.62
354.81	1122.62
355.037	1118.62
355.264	1133.62
355.491	1137.62
355.718	1144.62
355.945	1140.62
356.172	1125.62
356.399	1132.62
356.626	1150.62
356.853	1173.62
357.08	1125.62
357.307	1140.62
357.534	1145.62
357.761	1155.62
357.988	1172.62
358.215	1116.62
358.441	1156.62
358.668	1126.62
358.895	1127.62
359.122	1121.62
359.349	1140.62
359.576	1134.62
359.802	1143.62
360.029	1141.62
360.256	1131.62
360.483	1148.62
360.709	1148.62
360.936	1139.62
361.163	1147.62
361.39	1139.62
361.616	1172.62
361.843	1134.62
362.07	1165.62
362.296	1160.62
362.523	1133.62
362.749	1161.62
362.976	1151.62
363.203	1165.62
363.429	1125.62
363.656	1151.62
363.882	1145.62
364.109	1146.62
364.335	1132.62
364.562	1142.62
364.788	1149.62
365.015	1134.62
365.241	1139.62
365.468	1127.62
365.694	1165.62
365.92	1139.62
366.147	1140.62
366.373	1147.62
366.599	1136.62
366.826	1133.62
367.052	1175.62
367.278	1185.62
367.505	1116.62
367.731	1123.62
367.957	1122.62
368.184	1158.62
368.41	1155.62
368.636	1178.62
368.862	1188.62
369.089	1173.62
369.315	1184.62
369.541	1187.62
369.767	1207.62
369.993	1188.62
370.219	1202.62
370.445	1202.62
370.672	1183.62
370.898	1213.62
371.124	1218.62
371.35	1230.62
371.576	1236.62
371.802	1226.62
372.028	1252.62
372.254	1261.62
372.48	1256.62
372.706	1254.62
372.932	1272.62
373.158	1275.62
373.384	1274.62
373.61	1252.62
373.835	1257.62
374.061	1239.62
374.287	1247.62
374.513	1293.62
374.739	1265.62
374.965	1307.62
375.191	1351.62
375.416	1343.62
375.642	1337.62
375.868	1307.62
376.094	1266.62
376.319	1266.62
376.545	1266.62
376.771	1253.62
376.997	1237.62
377.222	1242.62
377.448	1251.62
377.674	1233.62
377.899	1231.62
378.125	1213.62
378.35	1210.62
378.576	1199.62
378.802	1219.62
379.027	1233.62
379.253	1227.62
379.478	1198.62
379.704	1227.62
379.929	1233.62
380.155	1196.62
380.38	1219.62
380.606	1262.62
380.831	1241.62
381.057	1247.62
381.282	1241.62
381.507	1239.62
381.733	1249.62
381.958	1213.62
382.184	1267.62
382.409	1292.62
382.634	1275.62
382.86	1298.62
383.085	1313.62
383.31	1281.62
383.535	1375.62
383.761	1376.62
383.986	1364.62
384.211	1374.62
384.436	1418.62
384.662	1384.62
384.887	1436.62
385.112	1474.62
385.337	1514.62
385.562	1465.62
385.787	1457.62
386.013	1480.62
386.238	1496.62
386.463	1486.62
386.688	1493.62
386.913	1469.62
387.138	1453.62
387.363	1505.62
387.588	1461.62
387.813	1462.62
388.038	1455.62
388.263	1462.62
388.488	1473.62
388.713	1474.62
388.938	1454.62
389.163	1455.62
389.387	1458.62
389.612	1468.62
389.837	1473.62
390.062	1460.62
390.287	1479.62
390.512	1459.62
390.736	1518.62
390.961	1529.62
391.186	1519.62
391.411	1564.62
391.636	1581.62
391.86	1621.62
392.085	1664.62
392.31	1613.62
392.534	1628.62
392.759	1575.62
392.984	1581.62
393.208	1580.62
393.433	1593.62
393.658	1591.62
393.882	1508.62
394.107	1535.62
394.331	1537.62
394.556	1603.62
394.78	1529.62
395.005	1621.62
395.229	1597.62
395.454	1668.62
395.678	1683.62
395.903	1639.62
396.127	1626.62
396.352	1588.62
396.576	1588.62
396.801	1611.62
397.025	1614.62
397.249	1629.62
397.474	1706.62
397.698	1646.62
397.922	1713.62
398.147	1678.62
398.371	1739.62
398.595	1790.62
398.82	1859.62
399.044	1918.62
399.268	2120.62
399.492	2356.62
399.717	2563.62
399.941	2606.62
400.165	2391.62
400.389	2253.62
400.613	2086.62
400.837	1935.62
401.062	1895.62
401.286	1876.62
401.51	1849.62
401.734	1834.62
401.958	1818.62
402.182	1879.62
402.406	1869.62
402.63	1913.62
402.854	1921.62
403.078	1925.62
403.302	1978.62
403.526	1974.62
403.75	2004.62
403.974	2050.62
404.198	2006.62
404.422	2059.62
404.645	2037.62
404.869	1999.62
405.093	2061.62
405.317	1972.62
405.541	2006.62
405.765	2003.62
405.988	1988.62
406.212	2030.62
406.436	2033.62
406.66	2063.62
406.883	2055.62
407.107	2198.62
407.331	2233.62
407.555	2349.62
407.778	2317.62
408.002	2289.62
408.226	2234.62
408.449	2187.62
408.673	2091.62
408.896	2090.62
409.12	2016.62
409.344	2097.62
409.567	2059.62
409.791	2092.62
410.014	2003.62
410.238	2024.62
410.461	2052.62
410.685	2008.62
410.908	1973.62
411.132	1943.62
411.355	1910.62
411.578	1918.62
411.802	1920.62
412.025	1963.62
412.249	1933.62
412.472	1905.62
412.695	1892.62
412.919	1829.62
413.142	1892.62
413.365	1846.62
413.589	1874.62
413.812	1799.62
414.035	1849.62
414.258	1853.62
414.482	1841.62
414.705	1842.62
414.928	1848.62
415.151	1848.62
415.374	1820.62
415.597	1785.62
415.821	1797.62
416.044	1793.62
416.267	1788.62
416.49	1778.62
416.713	1758.62
416.936	1787.62
417.159	1815.62
417.382	1762.62
417.605	1731.62
417.828	1754.62
418.051	1804.62
418.274	1815.62
418.497	1773.62
418.72	1816.62
418.943	1756.62
419.166	1955.62
419.389	2030.62
419.611	2017.62
419.834	1938.62
420.057	1908.62
420.28	1833.62
420.503	1742.62
420.726	1766.62
420.948	1736.62
421.171	1793.62
421.394	1781.62
421.617	1779.62
421.839	1777.62
422.062	1788.62
422.285	1749.62
422.507	1777.62
422.73	1794.62
422.953	1793.62
423.175	1794.62
423.398	1799.62
423.621	1831.62
423.843	1825.62
424.066	1853.62
424.288	1847.62
424.511	1806.62
424.733	1787.62
424.956	1767.62
425.178	1797.62
425.401	1813.62
425.623	1818.62
425.846	1760.62
426.068	1724.62
426.291	1718.62
426.513	1678.62
426.735	1698.62
426.958	1703.62
427.18	1634.62
427.402	1665.62
427.625	1649.62
427.847	1622.62
428.069	1640.62
428.292	1637.62
428.514	1606.62
428.736	1604.62
428.958	1613.62
429.181	1562.62
429.403	1561.62
429.625	1561.62
429.847	1585.62
430.069	1587.62
430.292	1603.62
430.514	1549.62
430.736	1576.62
430.958	1603.62
431.18	1587.62
431.402	1620.62
431.624	1623.62
431.846	1637.62
432.068	1646.62
432.29	1633.62
432.512	1611.62
432.734	1635.62
432.956	1581.62
433.178	1650.62
433.4	1635.62
433.622	1669.62
433.844	1660.62
434.066	1678.62
434.287	1679.62
434.509	1749.62
434.731	1805.62
434.953	1818.62
435.175	1795.62
435.397	1812.62
435.618	1711.62
435.84	1690.62
436.062	1621.62
436.284	1665.62
436.505	1635.62
436.727	1626.62
436.949	1651.62
437.17	1625.62
437.392	1601.62
437.614	1614.62
437.835	1604.62
438.057	1550.62
438.278	1549.62
438.5	1549.62
438.721	1537.62
438.943	1557.62
439.165	1545.62
439.386	1555.62
439.608	1626.62
439.829	1587.62
440.05	1577.62
440.272	1578.62
440.493	1624.62
440.715	1646.62
440.936	1645.62
441.158	1609.62
441.379	1688.62
441.6	1689.62
441.822	1749.62
442.043	1769.62
442.264	1721.62
442.486	1673.62
442.707	1707.62
442.928	1698.62
443.149	1732.62
443.371	1750.62
443.592	1706.62
443.813	1746.62
444.034	1717.62
444.255	1820.62
444.476	1856.62
444.698	1917.62
444.919	2008.62
445.14	2093.62
445.361	1912.62
445.582	1796.62
445.803	1714.62
446.024	1705.62
446.245	1665.62
446.466	1649.62
446.687	1614.62
446.908	1604.62
447.129	1511.62
447.35	1550.62
447.571	1572.62
447.792	1486.62
448.013	1506.62
448.234	1493.62
448.455	1470.62
448.675	1476.62
448.896	1469.62
449.117	1431.62
449.338	1433.62
449.559	1453.62
449.779	1437.62
450	1450.62
450.221	1459.62
450.442	1438.62
450.662	1440.62
450.883	1422.62
451.104	1449.62
451.324	1439.62
451.545	1426.62
451.766	1460.62
451.986	1437.62
452.207	1429.62
452.428	1386.62
452.648	1421.62
452.869	1371.62
453.089	1416.62
453.31	1440.62
453.53	1403.62
453.751	1379.62
453.971	1361.62
454.192	1337.62
454.412	1365.62
454.633	1325.62
454.853	1356.62
455.073	1351.62
455.294	1346.62
455.514	1346.62
455.734	1354.62
455.955	1325.62
456.175	1331.62
456.395	1342.62
456.616	1349.62
456.836	1328.62
457.056	1340.62
457.276	1334.62
457.497	1354.62
457.717	1365.62
457.937	1374.62
458.157	1385.62
458.377	1420.62
458.598	1463.62
458.818	1489.62
459.038	1493.62
459.258	1510.62
459.478	1593.62
459.698	1636.62
459.918	1645.62
460.138	1726.62
460.358	1785.62
460.578	1774.62
460.798	1805.62
461.018	1813.62
461.238	1839.62
461.458	1825.62
461.678	1793.62
461.898	1868.62
462.118	1880.62
462.338	1936.62
462.558	1993.62
462.777	2071.62
462.997	2190.62
463.217	2322.62
463.437	2324.62
463.657	2134.62
463.876	2103.62
464.096	2076.62
464.316	2081.62
464.536	2083.62
464.755	2054.62
464.975	2014.62
465.195	1852.62
465.414	1785.62
465.634	1674.62
465.854	1658.62
466.073	1643.62
466.293	1587.62
466.512	1559.62
466.732	1517.62
466.951	1548.62
467.171	1539.62
467.391	1527.62
467.61	1515.62
467.829	1485.62
468.049	1499.62
468.268	1471.62
468.488	1460.62
468.707	1439.62
468.927	1411.62
469.146	1430.62
469.365	1477.62
469.585	1482.62
469.804	1490.62
470.023	1515.62
470.243	1524.62
470.462	1520.62
470.681	1577.62
470.901	1558.62
471.12	1537.62
471.339	1505.62
471.558	1497.62
471.777	1472.62
471.997	1474.62
472.216	1439.62
472.435	1415.62
472.654	1431.62
472.873	1421.62
473.092	1429.62
473.311	1423.62
473.53	1434.62
473.749	1459.62
473.968	1444.62
474.187	1437.62
474.406	1410.62
474.625	1427.62
474.844	1458.62
475.063	1465.62
475.282	1448.62
475.501	1471.62
475.72	1475.62
475.939	1448.62
476.158	1473.62
476.377	1524.62
476.596	1490.62
476.814	1565.62
477.033	1518.62
477.252	1595.62
477.471	1613.62
477.69	1623.62
477.908	1652.62
478.127	1679.62
478.346	1708.62
478.564	1749.62
478.783	1745.62
479.002	1813.62
479.22	1811.62
479.439	1802.62
479.658	1786.62
479.876	1832.62
480.095	1849.62
480.313	1921.62
480.532	1939.62
480.751	1909.62
480.969	1858.62
481.188	1829.62
481.406	1806.62
481.624	1723.62
481.843	1761.62
482.061	1730.62
482.28	1769.62
482.498	1779.62
482.717	1743.62
482.935	1740.62
483.153	1799.62
483.372	1721.62
483.59	1783.62
483.808	1803.62
484.027	1786.62
484.245	1831.62
484.463	1861.62
484.681	1853.62
484.9	1888.62
485.118	1903.62
485.336	1937.62
485.554	1923.62
485.772	1970.62
485.99	1926.62
486.209	1963.62
486.427	1959.62
486.645	1924.62
486.863	1939.62
487.081	1921.62
487.299	1924.62
487.517	1920.62
487.735	1929.62
487.953	1893.62
488.171	1861.62
488.389	1845.62
488.607	1828.62
488.825	1799.62
489.043	1801.62
489.261	1821.62
489.479	1825.62
489.696	1826.62
489.914	1835.62
490.132	1852.62
490.35	1783.62
490.568	1814.62
490.786	1807.62
491.003	1830.62
491.221	1861.62
491.439	1815.62
491.657	1830.62
491.874	1813.62
492.092	1803.62
492.31	1774.62
492.527	1827.62
492.745	1839.62
492.963	1836.62
493.18	1803.62
493.398	1847.62
493.615	1837.62
493.833	1857.62
494.05	1854.62
494.268	1846.62
494.485	1854.62
494.703	1834.62
494.92	1873.62
495.138	1855.62
495.355	1882.62
495.573	1870.62
495.79	1838.62
496.008	1892.62
496.225	1893.62
496.442	1895.62
496.66	1918.62
496.877	1933.62
497.094	2009.62
497.312	2002.62
497.529	2058.62
497.746	2117.62
497.963	2187.62
498.181	2206.62
498.398	2315.62
498.615	2467.62
498.832	2590.62
499.049	2773.62
499.267	2977.62
499.484	3232.62
499.701	3453.62
499.918	3859.62
500.135	4205.62
500.352	4553.62
500.569	4700.62
500.786	4676.62
501.003	4449.62
501.22	4085.62
501.437	3719.62
501.654	3470.62
501.871	3116.62
502.088	2901.62
502.305	2742.62
502.522	2614.62
502.739	2501.62
502.956	2356.62
503.172	2297.62
503.389	2202.62
503.606	2105.62
503.823	2088.62
504.04	2070.62
504.256	2098.62
504.473	2072.62
504.69	2103.62
504.907	2097.62
505.123	1973.62
505.34	1911.62
505.557	1811.62
505.773	1785.62
505.99	1728.62
506.207	1686.62
506.423	1645.62
506.64	1635.62
506.856	1632.62
507.073	1606.62
507.289	1589.62
507.506	1549.62
507.722	1577.62
507.939	1617.62
508.155	1589.62
508.372	1544.62
508.588	1537.62
508.805	1503.62
509.021	1535.62
509.238	1511.62
509.454	1479.62
509.67	1472.62
509.887	1479.62
510.103	1437.62
510.319	1422.62
510.536	1463.62
510.752	1481.62
510.968	1468.62
511.184	1454.62
511.401	1480.62
511.617	1433.62
511.833	1423.62
512.049	1417.62
512.265	1442.62
512.481	1442.62
512.698	1426.62
512.914	1446.62
513.13	1440.62
513.346	1435.62
513.562	1455.62
513.778	1400.62
513.994	1433.62
514.21	1436.62
514.426	1433.62
514.642	1441.62
514.858	1442.62
515.074	1482.62
515.29	1491.62
515.506	1515.62
515.721	1529.62
515.937	1551.62
516.153	1566.62
516.369	1600.62
516.585	1640.62
516.801	1662.62
517.016	1736.62
517.232	1805.62
517.448	1875.62
517.664	1875.62
517.879	1905.62
518.095	1887.62
518.311	1894.62
518.527	1839.62
518.742	1742.62
518.958	1730.62
519.173	1667.62
519.389	1649.62
519.605	1533.62
519.82	1529.62
520.036	1496.62
520.251	1462.62
520.467	1447.62
520.682	1454.62
520.898	1405.62
521.113	1417.62
521.329	1399.62
521.544	1379.62
521.76	1382.62
521.975	1361.62
522.19	1365.62
522.406	1365.62
522.621	1345.62
522.836	1320.62
523.052	1361.62
523.267	1359.62
523.482	1311.62
523.698	1302.62
523.913	1317.62
524.128	1309.62
524.343	1330.62
524.559	1300.62
524.774	1305.62
524.989	1309.62
525.204	1301.62
525.419	1285.62
525.634	1288.62
525.849	1283.62
526.064	1266.62
526.28	1287.62
526.495	1286.62
526.71	1279.62
526.925	1293.62
527.14	1294.62
527.355	1252.62
527.57	1282.62
527.785	1303.62
527.999	1276.62
528.214	1270.62
528.429	1281.62
528.644	1251.62
528.859	1241.62
529.074	1269.62
529.289	1269.62
529.503	1288.62
529.718	1279.62
529.933	1269.62
530.148	1230.62
530.363	1256.62
530.577	1267.62
530.792	1276.62
531.007	1261.62
531.221	1275.62
531.436	1238.62
531.651	1217.62
531.865	1230.62
532.08	1257.62
532.295	1258.62
532.509	1267.62
532.724	1254.62
532.938	1273.62
533.153	1253.62
533.367	1238.62
533.582	1279.62
533.796	1228.62
534.011	1260.62
534.225	1245.62
534.44	1226.62
534.654	1225.62
534.868	1239.62
535.083	1237.62
535.297	1221.62
535.511	1196.62
535.726	1191.62
535.94	1224.62
536.154	1191.62
536.369	1171.62
536.583	1194.62
536.797	1189.62
537.011	1190.62
537.225	1192.62
537.44	1160.62
537.654	1165.62
537.868	1162.62
538.082	1165.62
538.296	1137.62
538.51	1145.62
538.724	1162.62
538.938	1171.62
539.153	1124.62
539.367	1151.62
539.581	1116.62
539.795	1111.62
540.009	1140.62
540.222	1135.62
540.436	1155.62
540.65	1147.62
540.864	1108.62
541.078	1126.62
541.292	1121.62
541.506	1094.62
541.72	1106.62
541.934	1122.62
542.147	1110.62
542.361	1118.62
542.575	1105.62
542.789	1094.62
543.002	1093.62
543.216	1118.62
543.43	1109.62
543.644	1107.62
543.857	1096.62
544.071	1102.62
544.285	1096.62
544.498	1080.62
544.712	1141.62
544.925	1113.62
545.139	1163.62
545.352	1122.62
545.566	1126.62
545.779	1099.62
545.993	1117.62
546.206	1137.62
546.42	1126.62
546.633	1116.62
546.847	1123.62
547.06	1143.62
547.274	1125.62
547.487	1092.62
547.7	1121.62
547.914	1109.62
548.127	1115.62
548.34	1125.62
548.554	1140.62
548.767	1134.62
548.98	1133.62
549.193	1154.62
549.407	1132.62
549.62	1150.62
549.833	1146.62
550.046	1155.62
550.259	1131.62
550.473	1112.62
550.686	1134.62
550.899	1112.62
551.112	1102.62
551.325	1124.62
551.538	1102.62
551.751	1093.62
551.964	1141.62
552.177	1121.62
552.39	1137.62
552.603	1188.62
552.816	1174.62
553.029	1193.62
553.242	1225.62
553.455	1213.62
553.667	1212.62
553.88	1204.62
554.093	1207.62
554.306	1149.62
554.519	1149.62
554.732	1121.62
554.944	1116.62
555.157	1092.62
555.37	1094.62
555.583	1048.62
555.795	1018.62
556.008	1011.62
556.221	994.62
556.433	990.62
556.646	1000.62
556.859	996.62
557.071	983.62
557.284	982.62
557.496	1017.62
557.709	952.62
557.921	954.62
558.134	987.62
558.346	975.62
558.559	989.62
558.771	923.62
558.984	949.62
559.196	948.62
559.409	925.62
559.621	953.62
559.833	931.62
560.046	938.62
560.258	948.62
560.47	959.62
560.683	941.62
560.895	951.62
561.107	938.62
561.32	927.62
561.532	940.62
561.744	945.62
561.956	921.62
562.168	913.62
562.381	913.62
562.593	921.62
562.805	908.62
563.017	928.62
563.229	932.62
563.441	946.62
563.653	969.62
563.865	952.62
564.077	949.62
564.289	972.62
564.501	972.62
564.713	991.62
564.925	1042.62
565.137	1045.62
565.349	1028.62
565.561	1063.62
565.773	1117.62
565.985	1163.62
566.197	1187.62
566.408	1237.62
566.62	1331.62
566.832	1440.62
567.044	1445.62
567.255	1457.62
567.467	1502.62
567.679	1565.62
567.891	1609.62
568.102	1655.62
568.314	1577.62
568.526	1447.62
568.737	1372.62
568.949	1258.62
569.161	1183.62
569.372	1111.62
569.584	1098.62
569.795	1042.62
570.007	1000.62
570.218	971.62
570.43	949.62
570.641	957.62
570.853	941.62
571.064	970.62
571.276	928.62
571.487	935.62
571.698	881.62
571.91	860.62
572.121	840.62
572.333	824.62
572.544	802.62
572.755	795.62
572.966	783.62
573.178	781.62
573.389	797.62
573.6	780.62
573.811	757.62
574.023	799.62
574.234	769.62
574.445	766.62
574.656	744.62
574.867	748.62
575.078	757.62
575.289	755.62
575.501	722.62
575.712	756.62
575.923	700.62
576.134	724.62
576.345	727.62
576.556	717.62
576.767	706.62
576.978	732.62
577.188	695.62
577.399	703.62
577.61	682.62
577.821	692.62
578.032	659.62
578.243	662.62
578.454	674.62
578.665	676.62
578.875	670.62
579.086	653.62
579.297	670.62
579.508	677.62
579.718	664.62
579.929	664.62
580.14	643.62
580.35	653.62
580.561	663.62
580.772	649.62
580.982	633.62
581.193	651.62
581.403	670.62
581.614	650.62
581.825	636.62
582.035	636.62
582.246	639.62
582.456	639.62
582.667	626.62
582.877	639.62
583.087	625.62
583.298	605.62
583.508	640.62
583.719	613.62
583.929	625.62
584.139	632.62
584.35	614.62
584.56	615.62
584.77	596.62
584.981	604.62
585.191	612.62
585.401	622.62
585.611	600.62
585.821	626.62
586.032	633.62
586.242	621.62
586.452	606.62
586.662	618.62
586.872	620.62
587.082	593.62
587.292	605.62
587.502	582.62
587.713	619.62
587.923	595.62
588.133	578.62
588.343	603.62
588.553	600.62
588.762	607.62
588.972	587.62
589.182	613.62
589.392	606.62
589.602	612.62
589.812	595.62
590.022	616.62
590.232	578.62
590.441	613.62
590.651	623.62
590.861	606.62
591.071	633.62
591.281	612.62
591.49	601.62
591.7	633.62
591.91	636.62
592.119	638.62
592.329	651.62
592.539	671.62
592.748	702.62
592.958	701.62
593.167	699.62
593.377	729.62
593.587	713.62
593.796	725.62
594.006	721.62
594.215	738.62
594.424	740.62
594.634	705.62
594.843	722.62
595.053	696.62
595.262	673.62
595.472	647.62
595.681	637.62
595.89	619.62
596.1	596.62
596.309	588.62
596.518	580.62
596.727	553.62
596.937	575.62
597.146	560.62
597.355	535.62
597.564	526.62
597.774	533.62
597.983	536.62
598.192	539.62
598.401	527.62
598.61	532.62
598.819	485.62
599.028	526.62
599.237	492.62
599.446	511.62
599.655	507.62
599.864	509.62
600.073	502.62
600.282	486.62
600.491	477.62
600.7	498.62
600.909	489.62
601.118	500.62
601.327	494.62
601.536	489.62
601.745	490.62
601.953	497.62
602.162	496.62
602.371	489.62
602.58	500.62
602.789	485.62
602.997	493.62
603.206	466.62
603.415	469.62
603.623	484.62
603.832	479.62
604.041	482.62
604.249	475.62
604.458	481.62
604.666	469.62
604.875	469.62
605.084	449.62
605.292	467.62
605.501	476.62
605.709	452.62
605.918	455.62
606.126	466.62
606.334	459.62
606.543	439.62
606.751	456.62
606.96	451.62
607.168	449.62
607.376	438.62
607.585	450.62
607.793	442.62
608.001	447.62
608.21	442.62
608.418	443.62
608.626	427.62
608.834	424.62
609.043	434.62
609.251	431.62
609.459	437.62
609.667	443.62
609.875	426.62
610.083	441.62
610.291	431.62
610.499	433.62
610.707	416.62
610.916	430.62
611.124	425.62
611.332	420.62
611.54	436.62
611.748	421.62
611.955	435.62
612.163	428.62
612.371	433.62
612.579	437.62
612.787	418.62
612.995	414.62
613.203	411.62
613.411	424.62
613.618	405.62
613.826	412.62
614.034	446.62
614.242	447.62
614.449	401.62
614.657	417.62
614.865	422.62
615.072	416.62
615.28	421.62
615.488	427.62
615.695	407.62
615.903	435.62
616.111	417.62
616.318	434.62
616.526	445.62
616.733	415.62
616.941	413.62
617.148	434.62
617.356	417.62
617.563	435.62
617.771	419.62
617.978	414.62
618.185	423.62
618.393	431.62
618.6	414.62
618.807	394.62
619.015	427.62
619.222	408.62
619.429	412.62
619.637	404.62
619.844	410.62
620.051	398.62
620.258	391.62
620.466	390.62
620.673	380.62
620.88	385.62
621.087	389.62
621.294	385.62
621.501	391.62
621.708	385.62
621.915	375.62
622.122	380.62
622.329	383.62
622.536	378.62
622.743	383.62
622.95	385.62
623.157	365.62
623.364	373.62
623.571	379.62
623.778	371.62
623.985	378.62
624.192	367.62
624.399	373.62
624.606	373.62
624.812	376.62
625.019	370.62
625.226	364.62
625.433	362.62
625.639	371.62
625.846	341.62
626.053	369.62
626.259	364.62
626.466	362.62
626.673	358.62
626.879	362.62
627.086	358.62
627.293	354.62
627.499	351.62
627.706	347.62
627.912	358.62
628.119	356.62
628.325	338.62
628.532	354.62
628.738	340.62
628.945	357.62
629.151	350.62
629.357	345.62
629.564	323.62
629.77	350.62
629.976	337.62
630.183	315.62
630.389	337.62
630.595	340.62
630.802	332.62
631.008	325.62
631.214	319.62
631.42	333.62
631.627	327.62
631.833	339.62
632.039	313.62
632.245	302.62
632.451	331.62
632.657	318.62
632.863	316.62
633.069	303.62
633.275	328.62
633.481	318.62
633.688	302.62
633.893	313.62
634.099	309.62
634.305	324.62
634.511	314.62
634.717	313.62
634.923	295.62
635.129	307.62
635.335	305.62
635.541	297.62
635.747	305.62
635.952	315.62
636.158	297.62
636.364	280.62
636.57	289.62
636.775	297.62
636.981	288.62
637.187	305.62
637.392	306.62
637.598	282.62
637.804	279.62
638.009	282.62
638.215	307.62
638.421	303.62
638.626	307.62
638.832	286.62
639.037	307.62
639.243	280.62
639.448	297.62
639.654	286.62
639.859	307.62
640.065	282.62
640.27	283.62
640.475	280.62
640.681	293.62
640.886	290.62
641.091	298.62
641.297	277.62
641.502	282.62
641.707	287.62
641.913	298.62
642.118	284.62
642.323	279.62
642.528	262.62
642.733	282.62
642.939	261.62
643.144	272.62
643.349	282.62
643.554	283.62
643.759	272.62
643.964	269.62
644.169	258.62
644.374	285.62
644.579	276.62
644.784	267.62
644.989	277.62
645.194	264.62
645.399	267.62
645.604	280.62
645.809	287.62
646.014	292.62
646.219	294.62
646.423	288.62
646.628	290.62
646.833	280.62
647.038	301.62
647.243	282.62
647.447	281.62
647.652	309.62
647.857	302.62
648.062	313.62
648.266	315.62
648.471	321.62
648.676	299.62
648.88	313.62
649.085	300.62
649.289	290.62
649.494	309.62
649.698	282.62
649.903	287.62
650.107	293.62
650.312	294.62
650.516	285.62
650.721	295.62
650.925	270.62
651.13	279.62
651.334	269.62
651.539	276.62
651.743	275.62
651.947	270.62
652.152	265.62
652.356	260.62
652.56	284.62
652.764	288.62
652.969	263.62
653.173	259.62
653.377	274.62
653.581	269.62
653.785	262.62
653.99	252.62
654.194	275.62
654.398	282.62
654.602	267.62
654.806	279.62
655.01	290.62
655.214	301.62
655.418	289.62
655.622	308.62
655.826	313.62
656.03	366.62
656.234	377.62
656.438	419.62
656.642	421.62
656.846	372.62
657.049	348.62
657.253	293.62
657.457	245.62
657.661	261.62
657.865	218.62
658.068	208.62
658.272	187.62
658.476	183.62
658.68	157.62
658.883	163.62
659.087	151.62
659.291	146.62
659.494	155.62
659.698	135.62
659.901	132.62
660.105	129.62
660.309	134.62
660.512	126.62
660.716	127.62
660.919	118.62
661.123	116.62
661.326	123.62
661.53	115.62
661.733	115.62
661.936	100.62
662.14	105.62
662.343	105.62
662.546	100.62
662.75	114.62
662.953	90.62
663.156	97.62
663.36	86.62
663.563	97.62
663.766	83.62
663.969	97.62
664.173	97.62
664.376	81.62
664.579	86.62
664.782	79.62
664.985	90.62
665.188	86.62
665.391	87.62
665.594	91.62
665.797	91.62
666	79.62
666.203	89.62
666.406	82.62
666.609	84.62
666.812	99.62
667.015	87.62
667.218	92.62
667.421	85.62
667.624	79.62
667.827	83.62
668.03	89.62
668.232	81.62
668.435	81.62
668.638	88.62
668.841	81.62
669.043	79.62
669.246	79.62
669.449	93.62
669.651	91.62
669.854	92.62
670.057	95.62
670.259	87.62
670.462	83.62
670.665	72.62
670.867	93.62
671.07	87.62
671.272	85.62
671.475	82.62
671.677	88.62
671.88	87.62
672.082	89.62
672.284	86.62
672.487	72.62
672.689	80.62
672.892	72.62
