Data from NiCl2@0.5M.TitratingCurve.Agarose3%dH2O.NegLispCup.LampEnergy10.LIBS07252019_HRD10591_18-19-32-571.txt Node
Date: Thu Jul 25 18:19:32 EDT 2019
User: cochatt
Spectrometer: HR+D1059
Trigger mode: 1
Integration Time (sec): 1.000000E-1
Scans to average: 1
Electric dark correction enabled: true
Nonlinearity correction enabled: false
Boxcar width: 0
XAxis mode: Wavelengths
Number of Pixels in Spectrum: 2048
>>>>>Begin Spectral Data<<<<<
223.165	-22.56
223.4	-22.56
223.635	-22.56
223.869	-12.56
224.104	-15.56
224.338	-6.56
224.573	-23.56
224.808	-14.56
225.042	-2.56
225.277	-2.56
225.511	-8.56
225.746	-0.56
225.98	6.44
226.215	9.44
226.449	7.44
226.683	17.44
226.918	26.44
227.152	42.44
227.387	38.44
227.621	36.44
227.856	36.44
228.09	48.44
228.324	50.44
228.559	47.44
228.793	64.44
229.027	108.44
229.262	112.44
229.496	114.44
229.73	105.44
229.964	121.44
230.199	126.44
230.433	142.44
230.667	137.44
230.901	120.44
231.136	131.44
231.37	116.44
231.604	125.44
231.838	130.44
232.072	139.44
232.306	132.44
232.541	127.44
232.775	127.44
233.009	133.44
233.243	139.44
233.477	121.44
233.711	123.44
233.945	139.44
234.179	139.44
234.413	132.44
234.647	135.44
234.881	134.44
235.115	146.44
235.349	142.44
235.583	121.44
235.817	131.44
236.051	127.44
236.285	131.44
236.519	131.44
236.753	133.44
236.987	131.44
237.221	144.44
237.455	137.44
237.689	140.44
237.922	132.44
238.156	130.44
238.39	145.44
238.624	129.44
238.858	142.44
239.091	136.44
239.325	157.44
239.559	154.44
239.793	155.44
240.027	157.44
240.26	152.44
240.494	142.44
240.728	146.44
240.961	157.44
241.195	164.44
241.429	145.44
241.662	167.44
241.896	142.44
242.13	164.44
242.363	167.44
242.597	167.44
242.83	160.44
243.064	175.44
243.298	178.44
243.531	177.44
243.765	175.44
243.998	176.44
244.232	187.44
244.465	171.44
244.699	155.44
244.932	181.44
245.166	186.44
245.399	154.44
245.633	173.44
245.866	179.44
246.099	170.44
246.333	169.44
246.566	195.44
246.8	170.44
247.033	168.44
247.266	188.44
247.5	179.44
247.733	186.44
247.966	184.44
248.2	191.44
248.433	198.44
248.666	185.44
248.899	177.44
249.133	194.44
249.366	197.44
249.599	204.44
249.832	204.44
250.066	197.44
250.299	213.44
250.532	214.44
250.765	211.44
250.998	187.44
251.231	229.44
251.465	216.44
251.698	204.44
251.931	200.44
252.164	221.44
252.397	216.44
252.63	212.44
252.863	217.44
253.096	221.44
253.329	219.44
253.562	216.44
253.795	227.44
254.028	227.44
254.261	221.44
254.494	229.44
254.727	227.44
254.96	220.44
255.193	231.44
255.426	237.44
255.659	237.44
255.892	231.44
256.124	222.44
256.357	232.44
256.59	261.44
256.823	240.44
257.056	248.44
257.289	228.44
257.521	248.44
257.754	236.44
257.987	264.44
258.22	264.44
258.452	234.44
258.685	233.44
258.918	229.44
259.151	241.44
259.383	246.44
259.616	248.44
259.849	251.44
260.081	250.44
260.314	252.44
260.547	259.44
260.779	238.44
261.012	252.44
261.244	268.44
261.477	264.44
261.71	264.44
261.942	274.44
262.175	243.44
262.407	266.44
262.64	261.44
262.872	272.44
263.105	264.44
263.337	297.44
263.57	288.44
263.802	297.44
264.035	287.44
264.267	269.44
264.499	275.44
264.732	269.44
264.964	288.44
265.197	266.44
265.429	291.44
265.661	270.44
265.894	291.44
266.126	286.44
266.358	284.44
266.591	292.44
266.823	299.44
267.055	289.44
267.287	287.44
267.52	291.44
267.752	301.44
267.984	291.44
268.216	307.44
268.448	325.44
268.681	294.44
268.913	301.44
269.145	311.44
269.377	303.44
269.609	292.44
269.841	315.44
270.073	311.44
270.306	307.44
270.538	301.44
270.77	304.44
271.002	313.44
271.234	311.44
271.466	310.44
271.698	323.44
271.93	313.44
272.162	327.44
272.394	300.44
272.626	310.44
272.858	317.44
273.09	316.44
273.322	333.44
273.553	330.44
273.785	313.44
274.017	321.44
274.249	313.44
274.481	346.44
274.713	339.44
274.945	332.44
275.176	326.44
275.408	340.44
275.64	326.44
275.872	326.44
276.104	352.44
276.335	347.44
276.567	351.44
276.799	335.44
277.031	356.44
277.262	360.44
277.494	344.44
277.726	353.44
277.957	339.44
278.189	345.44
278.421	340.44
278.652	366.44
278.884	343.44
279.115	358.44
279.347	359.44
279.579	377.44
279.81	353.44
280.042	363.44
280.273	378.44
280.505	342.44
280.736	373.44
280.968	387.44
281.199	362.44
281.431	377.44
281.662	363.44
281.894	378.44
282.125	381.44
282.356	382.44
282.588	381.44
282.819	387.44
283.051	394.44
283.282	392.44
283.513	390.44
283.745	385.44
283.976	384.44
284.207	388.44
284.439	373.44
284.67	415.44
284.901	372.44
285.132	402.44
285.364	402.44
285.595	385.44
285.826	371.44
286.057	406.44
286.288	383.44
286.52	404.44
286.751	398.44
286.982	392.44
287.213	406.44
287.444	393.44
287.675	388.44
287.906	419.44
288.138	414.44
288.369	419.44
288.6	424.44
288.831	425.44
289.062	428.44
289.293	414.44
289.524	419.44
289.755	429.44
289.986	402.44
290.217	395.44
290.448	421.44
290.679	427.44
290.91	426.44
291.141	425.44
291.371	429.44
291.602	427.44
291.833	437.44
292.064	449.44
292.295	418.44
292.526	429.44
292.757	412.44
292.987	431.44
293.218	442.44
293.449	440.44
293.68	418.44
293.91	432.44
294.141	425.44
294.372	439.44
294.603	441.44
294.833	441.44
295.064	437.44
295.295	444.44
295.525	435.44
295.756	444.44
295.987	422.44
296.217	449.44
296.448	443.44
296.679	449.44
296.909	441.44
297.14	461.44
297.37	470.44
297.601	466.44
297.831	467.44
298.062	473.44
298.292	475.44
298.523	502.44
298.753	484.44
298.984	467.44
299.214	451.44
299.445	472.44
299.675	472.44
299.905	477.44
300.136	480.44
300.366	503.44
300.597	489.44
300.827	474.44
301.057	479.44
301.288	489.44
301.518	485.44
301.748	511.44
301.979	496.44
302.209	481.44
302.439	493.44
302.669	496.44
302.9	484.44
303.13	521.44
303.36	504.44
303.59	499.44
303.82	493.44
304.051	503.44
304.281	499.44
304.511	502.44
304.741	483.44
304.971	522.44
305.201	507.44
305.431	517.44
305.661	517.44
305.891	491.44
306.121	512.44
306.352	521.44
306.582	474.44
306.812	474.44
307.042	501.44
307.272	503.44
307.502	459.44
307.731	499.44
307.961	502.44
308.191	495.44
308.421	483.44
308.651	495.44
308.881	493.44
309.111	507.44
309.341	501.44
309.571	490.44
309.8	513.44
310.03	525.44
310.26	522.44
310.49	525.44
310.72	518.44
310.949	516.44
311.179	504.44
311.409	498.44
311.639	504.44
311.868	529.44
312.098	509.44
312.328	514.44
312.557	515.44
312.787	545.44
313.017	537.44
313.246	533.44
313.476	529.44
313.706	524.44
313.935	540.44
314.165	520.44
314.394	535.44
314.624	521.44
314.853	547.44
315.083	515.44
315.312	553.44
315.542	540.44
315.771	553.44
316.001	534.44
316.23	533.44
316.46	524.44
316.689	543.44
316.919	551.44
317.148	537.44
317.377	532.44
317.607	540.44
317.836	552.44
318.065	546.44
318.295	535.44
318.524	559.44
318.753	527.44
318.983	536.44
319.212	561.44
319.441	532.44
319.67	560.44
319.9	541.44
320.129	548.44
320.358	550.44
320.587	549.44
320.816	549.44
321.046	559.44
321.275	567.44
321.504	540.44
321.733	549.44
321.962	571.44
322.191	538.44
322.42	579.44
322.649	555.44
322.878	538.44
323.108	554.44
323.337	571.44
323.566	585.44
323.795	573.44
324.024	581.44
324.253	575.44
324.482	570.44
324.71	563.44
324.939	583.44
325.168	574.44
325.397	589.44
325.626	578.44
325.855	585.44
326.084	600.44
326.313	579.44
326.542	567.44
326.77	613.44
326.999	597.44
327.228	582.44
327.457	618.44
327.686	592.44
327.914	602.44
328.143	587.44
328.372	572.44
328.6	559.44
328.829	565.44
329.058	574.44
329.287	600.44
329.515	605.44
329.744	604.44
329.972	587.44
330.201	597.44
330.43	606.44
330.658	597.44
330.887	626.44
331.115	601.44
331.344	591.44
331.572	614.44
331.801	638.44
332.03	636.44
332.258	647.44
332.486	643.44
332.715	624.44
332.943	653.44
333.172	661.44
333.4	691.44
333.629	693.44
333.857	715.44
334.085	686.44
334.314	701.44
334.542	672.44
334.771	692.44
334.999	696.44
335.227	667.44
335.455	692.44
335.684	683.44
335.912	695.44
336.14	677.44
336.369	661.44
336.597	715.44
336.825	680.44
337.053	685.44
337.281	680.44
337.51	680.44
337.738	633.44
337.966	663.44
338.194	652.44
338.422	650.44
338.65	643.44
338.878	640.44
339.106	660.44
339.334	646.44
339.562	651.44
339.79	611.44
340.018	596.44
340.246	620.44
340.474	625.44
340.702	627.44
340.93	630.44
341.158	636.44
341.386	628.44
341.614	632.44
341.842	660.44
342.07	646.44
342.298	639.44
342.526	604.44
342.754	629.44
342.981	604.44
343.209	625.44
343.437	635.44
343.665	678.44
343.893	661.44
344.12	688.44
344.348	679.44
344.576	676.44
344.804	669.44
345.031	642.44
345.259	611.44
345.487	626.44
345.714	629.44
345.942	649.44
346.17	665.44
346.397	619.44
346.625	615.44
346.853	589.44
347.08	616.44
347.308	583.44
347.535	612.44
347.763	606.44
347.99	617.44
348.218	599.44
348.445	568.44
348.673	594.44
348.9	591.44
349.128	581.44
349.355	603.44
349.583	630.44
349.81	585.44
350.037	575.44
350.265	582.44
350.492	574.44
350.72	581.44
350.947	603.44
351.174	598.44
351.402	593.44
351.629	583.44
351.856	577.44
352.083	582.44
352.311	576.44
352.538	635.44
352.765	613.44
352.992	595.44
353.22	573.44
353.447	581.44
353.674	562.44
353.901	553.44
354.128	567.44
354.355	577.44
354.583	559.44
354.81	580.44
355.037	572.44
355.264	556.44
355.491	551.44
355.718	595.44
355.945	571.44
356.172	582.44
356.399	560.44
356.626	592.44
356.853	605.44
357.08	598.44
357.307	609.44
357.534	568.44
357.761	555.44
357.988	561.44
358.215	563.44
358.441	570.44
358.668	550.44
358.895	557.44
359.122	554.44
359.349	545.44
359.576	566.44
359.802	552.44
360.029	561.44
360.256	568.44
360.483	555.44
360.709	571.44
360.936	563.44
361.163	555.44
361.39	576.44
361.616	570.44
361.843	585.44
362.07	601.44
362.296	588.44
362.523	560.44
362.749	556.44
362.976	559.44
363.203	555.44
363.429	555.44
363.656	548.44
363.882	546.44
364.109	565.44
364.335	549.44
364.562	539.44
364.788	544.44
365.015	575.44
365.241	557.44
365.468	542.44
365.694	544.44
365.92	551.44
366.147	563.44
366.373	565.44
366.599	564.44
366.826	533.44
367.052	535.44
367.278	556.44
367.505	560.44
367.731	568.44
367.957	539.44
368.184	552.44
368.41	557.44
368.636	559.44
368.862	549.44
369.089	561.44
369.315	550.44
369.541	556.44
369.767	543.44
369.993	559.44
370.219	561.44
370.445	562.44
370.672	580.44
370.898	555.44
371.124	553.44
371.35	565.44
371.576	562.44
371.802	570.44
372.028	576.44
372.254	565.44
372.48	591.44
372.706	596.44
372.932	589.44
373.158	581.44
373.384	574.44
373.61	569.44
373.835	562.44
374.061	592.44
374.287	574.44
374.513	581.44
374.739	592.44
374.965	595.44
375.191	570.44
375.416	583.44
375.642	586.44
375.868	590.44
376.094	569.44
376.319	579.44
376.545	562.44
376.771	562.44
376.997	528.44
377.222	543.44
377.448	561.44
377.674	554.44
377.899	548.44
378.125	556.44
378.35	552.44
378.576	545.44
378.802	538.44
379.027	550.44
379.253	532.44
379.478	558.44
379.704	538.44
379.929	563.44
380.155	549.44
380.38	546.44
380.606	565.44
380.831	563.44
381.057	562.44
381.282	549.44
381.507	523.44
381.733	545.44
381.958	548.44
382.184	529.44
382.409	575.44
382.634	557.44
382.86	563.44
383.085	579.44
383.31	560.44
383.535	574.44
383.761	577.44
383.986	588.44
384.211	593.44
384.436	577.44
384.662	613.44
384.887	600.44
385.112	617.44
385.337	615.44
385.562	613.44
385.787	621.44
386.013	647.44
386.238	629.44
386.463	640.44
386.688	632.44
386.913	616.44
387.138	628.44
387.363	623.44
387.588	627.44
387.813	632.44
388.038	624.44
388.263	642.44
388.488	605.44
388.713	629.44
388.938	607.44
389.163	620.44
389.387	599.44
389.612	608.44
389.837	616.44
390.062	618.44
390.287	615.44
390.512	604.44
390.736	618.44
390.961	618.44
391.186	630.44
391.411	615.44
391.636	651.44
391.86	650.44
392.085	676.44
392.31	664.44
392.534	678.44
392.759	631.44
392.984	647.44
393.208	636.44
393.433	627.44
393.658	647.44
393.882	635.44
394.107	652.44
394.331	655.44
394.556	633.44
394.78	649.44
395.005	629.44
395.229	650.44
395.454	669.44
395.678	697.44
395.903	655.44
396.127	688.44
396.352	653.44
396.576	652.44
396.801	640.44
397.025	672.44
397.249	694.44
397.474	681.44
397.698	691.44
397.922	690.44
398.147	686.44
398.371	684.44
398.595	708.44
398.82	721.44
399.044	772.44
399.268	810.44
399.492	895.44
399.717	937.44
399.941	939.44
400.165	905.44
400.389	845.44
400.613	830.44
400.837	760.44
401.062	753.44
401.286	738.44
401.51	734.44
401.734	726.44
401.958	737.44
402.182	725.44
402.406	755.44
402.63	756.44
402.854	767.44
403.078	779.44
403.302	777.44
403.526	786.44
403.75	784.44
403.974	797.44
404.198	818.44
404.422	797.44
404.645	804.44
404.869	777.44
405.093	798.44
405.317	769.44
405.541	809.44
405.765	775.44
405.988	781.44
406.212	795.44
406.436	821.44
406.66	812.44
406.883	829.44
407.107	860.44
407.331	863.44
407.555	900.44
407.778	910.44
408.002	892.44
408.226	876.44
408.449	863.44
408.673	842.44
408.896	822.44
409.12	828.44
409.344	860.44
409.567	838.44
409.791	851.44
410.014	837.44
410.238	845.44
410.461	861.44
410.685	821.44
410.908	826.44
411.132	803.44
411.355	769.44
411.578	793.44
411.802	804.44
412.025	812.44
412.249	810.44
412.472	816.44
412.695	763.44
412.919	803.44
413.142	780.44
413.365	800.44
413.589	766.44
413.812	787.44
414.035	779.44
414.258	789.44
414.482	805.44
414.705	789.44
414.928	780.44
415.151	777.44
415.374	797.44
415.597	794.44
415.821	755.44
416.044	726.44
416.267	756.44
416.49	747.44
416.713	755.44
416.936	759.44
417.159	765.44
417.382	749.44
417.605	764.44
417.828	769.44
418.051	773.44
418.274	756.44
418.497	770.44
418.72	785.44
418.943	790.44
419.166	831.44
419.389	864.44
419.611	861.44
419.834	823.44
420.057	795.44
420.28	777.44
420.503	755.44
420.726	757.44
420.948	730.44
421.171	761.44
421.394	810.44
421.617	797.44
421.839	771.44
422.062	763.44
422.285	741.44
422.507	781.44
422.73	776.44
422.953	794.44
423.175	795.44
423.398	796.44
423.621	787.44
423.843	805.44
424.066	802.44
424.288	806.44
424.511	787.44
424.733	801.44
424.956	780.44
425.178	795.44
425.401	767.44
425.623	807.44
425.846	759.44
426.068	785.44
426.291	749.44
426.513	747.44
426.735	746.44
426.958	747.44
427.18	741.44
427.402	760.44
427.625	774.44
427.847	752.44
428.069	761.44
428.292	755.44
428.514	751.44
428.736	759.44
428.958	753.44
429.181	723.44
429.403	747.44
429.625	734.44
429.847	762.44
430.069	733.44
430.292	755.44
430.514	731.44
430.736	756.44
430.958	744.44
431.18	719.44
431.402	733.44
431.624	738.44
431.846	757.44
432.068	746.44
432.29	735.44
432.512	771.44
432.734	790.44
432.956	762.44
433.178	745.44
433.4	790.44
433.622	770.44
433.844	782.44
434.066	767.44
434.287	782.44
434.509	768.44
434.731	786.44
434.953	804.44
435.175	829.44
435.397	801.44
435.618	776.44
435.84	747.44
436.062	745.44
436.284	770.44
436.505	781.44
436.727	792.44
436.949	795.44
437.17	746.44
437.392	749.44
437.614	765.44
437.835	735.44
438.057	748.44
438.278	717.44
438.5	719.44
438.721	743.44
438.943	760.44
439.165	769.44
439.386	736.44
439.608	764.44
439.829	776.44
440.05	785.44
440.272	782.44
440.493	760.44
440.715	804.44
440.936	779.44
441.158	789.44
441.379	830.44
441.6	841.44
441.822	839.44
442.043	815.44
442.264	822.44
442.486	802.44
442.707	822.44
442.928	795.44
443.149	840.44
443.371	798.44
443.592	836.44
443.813	866.44
444.034	838.44
444.255	856.44
444.476	897.44
444.698	933.44
444.919	915.44
445.14	1036.44
445.361	930.44
445.582	858.44
445.803	823.44
446.024	824.44
446.245	825.44
446.466	817.44
446.687	784.44
446.908	802.44
447.129	769.44
447.35	752.44
447.571	778.44
447.792	778.44
448.013	741.44
448.234	715.44
448.455	738.44
448.675	740.44
448.896	724.44
449.117	736.44
449.338	744.44
449.559	724.44
449.779	727.44
450	730.44
450.221	736.44
450.442	754.44
450.662	736.44
450.883	733.44
451.104	765.44
451.324	727.44
451.545	709.44
451.766	731.44
451.986	713.44
452.207	733.44
452.428	714.44
452.648	717.44
452.869	695.44
453.089	717.44
453.31	744.44
453.53	707.44
453.751	712.44
453.971	710.44
454.192	714.44
454.412	701.44
454.633	714.44
454.853	700.44
455.073	697.44
455.294	704.44
455.514	722.44
455.734	729.44
455.955	716.44
456.175	704.44
456.395	708.44
456.616	691.44
456.836	726.44
457.056	726.44
457.276	707.44
457.497	693.44
457.717	707.44
457.937	727.44
458.157	727.44
458.377	722.44
458.598	723.44
458.818	758.44
459.038	753.44
459.258	776.44
459.478	797.44
459.698	815.44
459.918	833.44
460.138	844.44
460.358	883.44
460.578	869.44
460.798	883.44
461.018	865.44
461.238	879.44
461.458	856.44
461.678	862.44
461.898	883.44
462.118	899.44
462.338	913.44
462.558	930.44
462.777	968.44
462.997	1038.44
463.217	1048.44
463.437	1054.44
463.657	1013.44
463.876	979.44
464.096	979.44
464.316	959.44
464.536	973.44
464.755	933.44
464.975	939.44
465.195	892.44
465.414	860.44
465.634	843.44
465.854	797.44
466.073	820.44
466.293	819.44
466.512	782.44
466.732	771.44
466.951	805.44
467.171	764.44
467.391	781.44
467.61	779.44
467.829	757.44
468.049	791.44
468.268	760.44
468.488	767.44
468.707	787.44
468.927	750.44
469.146	767.44
469.365	781.44
469.585	773.44
469.804	775.44
470.023	805.44
470.243	823.44
470.462	799.44
470.681	808.44
470.901	793.44
471.12	799.44
471.339	779.44
471.558	800.44
471.777	792.44
471.997	760.44
472.216	759.44
472.435	762.44
472.654	783.44
472.873	756.44
473.092	777.44
473.311	765.44
473.53	784.44
473.749	784.44
473.968	765.44
474.187	768.44
474.406	782.44
474.625	756.44
474.844	781.44
475.063	790.44
475.282	771.44
475.501	814.44
475.72	800.44
475.939	777.44
476.158	771.44
476.377	787.44
476.596	836.44
476.814	833.44
477.033	818.44
477.252	823.44
477.471	856.44
477.69	847.44
477.908	869.44
478.127	874.44
478.346	852.44
478.564	867.44
478.783	874.44
479.002	907.44
479.22	931.44
479.439	931.44
479.658	903.44
479.876	897.44
480.095	894.44
480.313	973.44
480.532	923.44
480.751	942.44
480.969	920.44
481.188	887.44
481.406	896.44
481.624	890.44
481.843	881.44
482.061	875.44
482.28	890.44
482.498	901.44
482.717	906.44
482.935	876.44
483.153	909.44
483.372	910.44
483.59	937.44
483.808	943.44
484.027	910.44
484.245	889.44
484.463	902.44
484.681	948.44
484.9	923.44
485.118	939.44
485.336	905.44
485.554	875.44
485.772	902.44
485.99	908.44
486.209	918.44
486.427	923.44
486.645	917.44
486.863	931.44
487.081	948.44
487.299	947.44
487.517	937.44
487.735	962.44
487.953	945.44
488.171	947.44
488.389	959.44
488.607	929.44
488.825	921.44
489.043	921.44
489.261	907.44
489.479	947.44
489.696	901.44
489.914	931.44
490.132	936.44
490.35	913.44
490.568	953.44
490.786	945.44
491.003	963.44
491.221	981.44
491.439	971.44
491.657	955.44
491.874	1009.44
492.092	1001.44
492.31	980.44
492.527	964.44
492.745	998.44
492.963	971.44
493.18	981.44
493.398	1000.44
493.615	1003.44
493.833	1003.44
494.05	995.44
494.268	998.44
494.485	1003.44
494.703	1011.44
494.92	1007.44
495.138	977.44
495.355	1016.44
495.573	1019.44
495.79	1001.44
496.008	1007.44
496.225	1046.44
496.442	1047.44
496.66	1055.44
496.877	1078.44
497.094	1049.44
497.312	1088.44
497.529	1069.44
497.746	1105.44
497.963	1091.44
498.181	1147.44
498.398	1194.44
498.615	1202.44
498.832	1295.44
499.049	1320.44
499.267	1378.44
499.484	1447.44
499.701	1583.44
499.918	1647.44
500.135	1768.44
500.352	1898.44
500.569	1929.44
500.786	1928.44
501.003	1857.44
501.22	1731.44
501.437	1595.44
501.654	1498.44
501.871	1450.44
502.088	1374.44
502.305	1319.44
502.522	1287.44
502.739	1197.44
502.956	1190.44
503.172	1146.44
503.389	1098.44
503.606	1083.44
503.823	1081.44
504.04	1087.44
504.256	1044.44
504.473	1069.44
504.69	1086.44
504.907	1028.44
505.123	1019.44
505.34	982.44
505.557	967.44
505.773	958.44
505.99	963.44
506.207	920.44
506.423	941.44
506.64	888.44
506.856	910.44
507.073	923.44
507.289	895.44
507.506	884.44
507.722	899.44
507.939	879.44
508.155	850.44
508.372	866.44
508.588	843.44
508.805	835.44
509.021	849.44
509.238	824.44
509.454	855.44
509.67	803.44
509.887	857.44
510.103	820.44
510.319	821.44
510.536	816.44
510.752	790.44
510.968	809.44
511.184	796.44
511.401	820.44
511.617	794.44
511.833	810.44
512.049	801.44
512.265	807.44
512.481	795.44
512.698	795.44
512.914	824.44
513.13	804.44
513.346	799.44
513.562	799.44
513.778	791.44
513.994	806.44
514.21	787.44
514.426	823.44
514.642	802.44
514.858	807.44
515.074	803.44
515.29	818.44
515.506	795.44
515.721	849.44
515.937	819.44
516.153	820.44
516.369	835.44
516.585	872.44
516.801	882.44
517.016	905.44
517.232	911.44
517.448	944.44
517.664	940.44
517.879	944.44
518.095	928.44
518.311	923.44
518.527	901.44
518.742	900.44
518.958	889.44
519.173	882.44
519.389	873.44
519.605	827.44
519.82	848.44
520.036	825.44
520.251	800.44
520.467	815.44
520.682	813.44
520.898	778.44
521.113	786.44
521.329	778.44
521.544	770.44
521.76	755.44
521.975	747.44
522.19	759.44
522.406	755.44
522.621	742.44
522.836	735.44
523.052	735.44
523.267	751.44
523.482	724.44
523.698	733.44
523.913	736.44
524.128	732.44
524.343	765.44
524.559	728.44
524.774	729.44
524.989	721.44
525.204	747.44
525.419	735.44
525.634	708.44
525.849	727.44
526.064	714.44
526.28	690.44
526.495	711.44
526.71	712.44
526.925	703.44
527.14	710.44
527.355	718.44
527.57	713.44
527.785	711.44
527.999	692.44
528.214	716.44
528.429	758.44
528.644	724.44
528.859	700.44
529.074	714.44
529.289	729.44
529.503	711.44
529.718	713.44
529.933	728.44
530.148	708.44
530.363	716.44
530.577	713.44
530.792	682.44
531.007	685.44
531.221	728.44
531.436	699.44
531.651	704.44
531.865	681.44
532.08	688.44
532.295	708.44
532.509	692.44
532.724	691.44
532.938	670.44
533.153	694.44
533.367	728.44
533.582	679.44
533.796	693.44
534.011	666.44
534.225	691.44
534.44	685.44
534.654	655.44
534.868	686.44
535.083	692.44
535.297	688.44
535.511	684.44
535.726	683.44
535.94	691.44
536.154	670.44
536.369	676.44
536.583	657.44
536.797	653.44
537.011	672.44
537.225	667.44
537.44	668.44
537.654	676.44
537.868	659.44
538.082	644.44
538.296	647.44
538.51	645.44
538.724	668.44
538.938	682.44
539.153	658.44
539.367	657.44
539.581	652.44
539.795	643.44
540.009	637.44
540.222	628.44
540.436	642.44
540.65	667.44
540.864	634.44
541.078	635.44
541.292	633.44
541.506	667.44
541.72	632.44
541.934	653.44
542.147	646.44
542.361	664.44
542.575	648.44
542.789	652.44
543.002	650.44
543.216	662.44
543.43	630.44
543.644	633.44
543.857	637.44
544.071	649.44
544.285	642.44
544.498	632.44
544.712	631.44
544.925	648.44
545.139	652.44
545.352	649.44
545.566	649.44
545.779	666.44
545.993	674.44
546.206	676.44
546.42	642.44
546.633	633.44
546.847	642.44
547.06	635.44
547.274	639.44
547.487	641.44
547.7	639.44
547.914	651.44
548.127	654.44
548.34	668.44
548.554	665.44
548.767	645.44
548.98	656.44
549.193	657.44
549.407	667.44
549.62	635.44
549.833	647.44
550.046	633.44
550.259	638.44
550.473	641.44
550.686	652.44
550.899	651.44
551.112	626.44
551.325	647.44
551.538	612.44
551.751	633.44
551.964	630.44
552.177	625.44
552.39	635.44
552.603	645.44
552.816	647.44
553.029	657.44
553.242	681.44
553.455	672.44
553.667	651.44
553.88	656.44
554.093	652.44
554.306	628.44
554.519	638.44
554.732	640.44
554.944	615.44
555.157	621.44
555.37	602.44
555.583	604.44
555.795	594.44
556.008	581.44
556.221	573.44
556.433	576.44
556.646	551.44
556.859	579.44
557.071	567.44
557.284	575.44
557.496	544.44
557.709	553.44
557.921	562.44
558.134	554.44
558.346	568.44
558.559	564.44
558.771	586.44
558.984	579.44
559.196	540.44
559.409	530.44
559.621	543.44
559.833	540.44
560.046	544.44
560.258	545.44
560.47	543.44
560.683	540.44
560.895	522.44
561.107	541.44
561.32	553.44
561.532	531.44
561.744	543.44
561.956	533.44
562.168	543.44
562.381	539.44
562.593	553.44
562.805	540.44
563.017	553.44
563.229	536.44
563.441	547.44
563.653	571.44
563.865	534.44
564.077	511.44
564.289	513.44
564.501	548.44
564.713	568.44
564.925	568.44
565.137	560.44
565.349	573.44
565.561	594.44
565.773	604.44
565.985	621.44
566.197	631.44
566.408	670.44
566.62	653.44
566.832	682.44
567.044	705.44
567.255	722.44
567.467	688.44
567.679	728.44
567.891	744.44
568.102	737.44
568.314	743.44
568.526	672.44
568.737	659.44
568.949	635.44
569.161	586.44
569.372	561.44
569.584	564.44
569.795	562.44
570.007	548.44
570.218	514.44
570.43	505.44
570.641	505.44
570.853	527.44
571.064	533.44
571.276	498.44
571.487	500.44
571.698	473.44
571.91	467.44
572.121	491.44
572.333	477.44
572.544	459.44
572.755	432.44
572.966	457.44
573.178	448.44
573.389	451.44
573.6	453.44
573.811	442.44
574.023	448.44
574.234	429.44
574.445	433.44
574.656	437.44
574.867	418.44
575.078	414.44
575.289	442.44
575.501	436.44
575.712	428.44
575.923	412.44
576.134	414.44
576.345	413.44
576.556	416.44
576.767	409.44
576.978	392.44
577.188	392.44
577.399	409.44
577.61	417.44
577.821	398.44
578.032	403.44
578.243	424.44
578.454	388.44
578.665	390.44
578.875	389.44
579.086	379.44
579.297	391.44
579.508	382.44
579.718	377.44
579.929	396.44
580.14	375.44
580.35	371.44
580.561	372.44
580.772	388.44
580.982	393.44
581.193	378.44
581.403	391.44
581.614	375.44
581.825	359.44
582.035	383.44
582.246	360.44
582.456	372.44
582.667	380.44
582.877	375.44
583.087	371.44
583.298	381.44
583.508	378.44
583.719	361.44
583.929	364.44
584.139	375.44
584.35	352.44
584.56	372.44
584.77	351.44
584.981	344.44
585.191	356.44
585.401	368.44
585.611	345.44
585.821	343.44
586.032	362.44
586.242	351.44
586.452	349.44
586.662	346.44
586.872	350.44
587.082	368.44
587.292	359.44
587.502	337.44
587.713	339.44
587.923	370.44
588.133	351.44
588.343	360.44
588.553	348.44
588.762	358.44
588.972	353.44
589.182	379.44
589.392	399.44
589.602	356.44
589.812	377.44
590.022	359.44
590.232	331.44
590.441	329.44
590.651	347.44
590.861	365.44
591.071	338.44
591.281	364.44
591.49	363.44
591.7	348.44
591.91	349.44
592.119	367.44
592.329	357.44
592.539	373.44
592.748	377.44
592.958	356.44
593.167	390.44
593.377	381.44
593.587	382.44
593.796	383.44
594.006	379.44
594.215	399.44
594.424	372.44
594.634	387.44
594.843	368.44
595.053	362.44
595.262	367.44
595.472	355.44
595.681	333.44
595.89	359.44
596.1	333.44
596.309	324.44
596.518	320.44
596.727	317.44
596.937	321.44
597.146	316.44
597.355	340.44
597.564	317.44
597.774	308.44
597.983	316.44
598.192	315.44
598.401	313.44
598.61	309.44
598.819	331.44
599.028	301.44
599.237	291.44
599.446	289.44
599.655	298.44
599.864	301.44
600.073	291.44
600.282	295.44
600.491	298.44
600.7	289.44
600.909	306.44
601.118	294.44
601.327	290.44
601.536	271.44
601.745	313.44
601.953	307.44
602.162	296.44
602.371	292.44
602.58	276.44
602.789	293.44
602.997	275.44
603.206	288.44
603.415	297.44
603.623	274.44
603.832	272.44
604.041	288.44
604.249	275.44
604.458	270.44
604.666	265.44
604.875	291.44
605.084	257.44
605.292	275.44
605.501	267.44
605.709	260.44
605.918	277.44
606.126	275.44
606.334	280.44
606.543	283.44
606.751	281.44
606.96	268.44
607.168	263.44
607.376	281.44
607.585	278.44
607.793	274.44
608.001	276.44
608.21	267.44
608.418	255.44
608.626	269.44
608.834	249.44
609.043	262.44
609.251	293.44
609.459	269.44
609.667	277.44
609.875	245.44
610.083	246.44
610.291	251.44
610.499	264.44
610.707	244.44
610.916	272.44
611.124	261.44
611.332	252.44
611.54	242.44
611.748	265.44
611.955	278.44
612.163	275.44
612.371	262.44
612.579	261.44
612.787	261.44
612.995	283.44
613.203	249.44
613.411	265.44
613.618	255.44
613.826	245.44
614.034	265.44
614.242	247.44
614.449	247.44
614.657	253.44
614.865	268.44
615.072	271.44
615.28	241.44
615.488	255.44
615.695	269.44
615.903	249.44
616.111	256.44
616.318	255.44
616.526	267.44
616.733	263.44
616.941	244.44
617.148	268.44
617.356	252.44
617.563	252.44
617.771	255.44
617.978	235.44
618.185	255.44
618.393	253.44
618.6	251.44
618.807	250.44
619.015	263.44
619.222	257.44
619.429	241.44
619.637	237.44
619.844	239.44
620.051	239.44
620.258	233.44
620.466	228.44
620.673	243.44
620.88	250.44
621.087	245.44
621.294	238.44
621.501	239.44
621.708	242.44
621.915	242.44
622.122	247.44
622.329	239.44
622.536	245.44
622.743	223.44
622.95	239.44
623.157	229.44
623.364	230.44
623.571	227.44
623.778	219.44
623.985	225.44
624.192	220.44
624.399	232.44
624.606	220.44
624.812	212.44
625.019	226.44
625.226	217.44
625.433	215.44
625.639	216.44
625.846	203.44
626.053	217.44
626.259	228.44
626.466	210.44
626.673	224.44
626.879	220.44
627.086	223.44
627.293	212.44
627.499	215.44
627.706	215.44
627.912	209.44
628.119	225.44
628.325	223.44
628.532	221.44
628.738	208.44
628.945	215.44
629.151	205.44
629.357	194.44
629.564	211.44
629.77	213.44
629.976	196.44
630.183	188.44
630.389	198.44
630.595	208.44
630.802	208.44
631.008	216.44
631.214	200.44
631.42	199.44
631.627	200.44
631.833	200.44
632.039	191.44
632.245	193.44
632.451	200.44
632.657	198.44
632.863	195.44
633.069	205.44
633.275	210.44
633.481	205.44
633.688	184.44
633.893	198.44
634.099	191.44
634.305	199.44
634.511	179.44
634.717	194.44
634.923	199.44
635.129	187.44
635.335	187.44
635.541	182.44
635.747	208.44
635.952	179.44
636.158	188.44
636.364	186.44
636.57	183.44
636.775	178.44
636.981	179.44
637.187	189.44
637.392	200.44
637.598	201.44
637.804	190.44
638.009	197.44
638.215	192.44
638.421	188.44
638.626	193.44
638.832	194.44
639.037	193.44
639.243	194.44
639.448	191.44
639.654	205.44
639.859	191.44
640.065	164.44
640.27	184.44
640.475	177.44
640.681	182.44
640.886	173.44
641.091	172.44
641.297	178.44
641.502	163.44
641.707	183.44
641.913	192.44
642.118	178.44
642.323	165.44
642.528	181.44
642.733	161.44
642.939	184.44
643.144	188.44
643.349	187.44
643.554	183.44
643.759	186.44
643.964	163.44
644.169	177.44
644.374	182.44
644.579	178.44
644.784	189.44
644.989	184.44
645.194	177.44
645.399	178.44
645.604	177.44
645.809	170.44
646.014	161.44
646.219	161.44
646.423	177.44
646.628	170.44
646.833	175.44
647.038	183.44
647.243	181.44
647.447	166.44
647.652	191.44
647.857	180.44
648.062	186.44
648.266	179.44
648.471	191.44
648.676	187.44
648.88	187.44
649.085	171.44
649.289	166.44
649.494	181.44
649.698	182.44
649.903	168.44
650.107	173.44
650.312	171.44
650.516	165.44
650.721	164.44
650.925	177.44
651.13	169.44
651.334	151.44
651.539	168.44
651.743	164.44
651.947	170.44
652.152	156.44
652.356	159.44
652.56	135.44
652.764	151.44
652.969	163.44
653.173	155.44
653.377	162.44
653.581	149.44
653.785	147.44
653.99	156.44
654.194	148.44
654.398	144.44
654.602	148.44
654.806	140.44
655.01	155.44
655.214	147.44
655.418	144.44
655.622	148.44
655.826	151.44
656.03	145.44
656.234	142.44
656.438	129.44
656.642	136.44
656.846	134.44
657.049	128.44
657.253	139.44
657.457	115.44
657.661	123.44
657.865	109.44
658.068	113.44
658.272	113.44
658.476	129.44
658.68	120.44
658.883	112.44
659.087	99.44
659.291	119.44
659.494	91.44
659.698	108.44
659.901	99.44
660.105	101.44
660.309	104.44
660.512	107.44
660.716	103.44
660.919	101.44
661.123	99.44
661.326	104.44
661.53	91.44
661.733	95.44
661.936	94.44
662.14	90.44
662.343	87.44
662.546	85.44
662.75	81.44
662.953	83.44
663.156	81.44
663.36	96.44
663.563	67.44
663.766	76.44
663.969	76.44
664.173	76.44
664.376	66.44
664.579	92.44
664.782	83.44
664.985	84.44
665.188	84.44
665.391	84.44
665.594	73.44
665.797	69.44
666	96.44
666.203	95.44
666.406	71.44
666.609	82.44
666.812	76.44
667.015	65.44
667.218	84.44
667.421	67.44
667.624	75.44
667.827	90.44
668.03	76.44
668.232	68.44
668.435	76.44
668.638	71.44
668.841	82.44
669.043	71.44
669.246	78.44
669.449	82.44
669.651	83.44
669.854	82.44
670.057	69.44
670.259	76.44
670.462	73.44
670.665	80.44
670.867	70.44
671.07	71.44
671.272	84.44
671.475	91.44
671.677	80.44
671.88	69.44
672.082	78.44
672.284	80.44
672.487	76.44
672.689	62.44
672.892	77.44
