Data from NiCl2@0.0625M.TitratingCurve.Agarose3%dH2O.NegLispCup.LampEnergy10.LIBS07252019_HRD10591_18-35-02-577.txt Node
Date: Thu Jul 25 18:35:02 EDT 2019
User: cochatt
Spectrometer: HR+D1059
Trigger mode: 1
Integration Time (sec): 1.000000E-1
Scans to average: 1
Electric dark correction enabled: true
Nonlinearity correction enabled: false
Boxcar width: 0
XAxis mode: Wavelengths
Number of Pixels in Spectrum: 2048
>>>>>Begin Spectral Data<<<<<
223.165	-4.62
223.4	-4.62
223.635	-4.62
223.869	-9.62
224.104	-17.62
224.338	-15.62
224.573	-16.62
224.808	-27.62
225.042	-10.62
225.277	-5.62
225.511	-5.62
225.746	7.38
225.98	-2.62
226.215	19.38
226.449	2.38
226.683	26.38
226.918	33.38
227.152	27.38
227.387	36.38
227.621	34.38
227.856	49.38
228.09	30.38
228.324	40.38
228.559	51.38
228.793	82.38
229.027	114.38
229.262	132.38
229.496	146.38
229.73	130.38
229.964	150.38
230.199	152.38
230.433	165.38
230.667	149.38
230.901	156.38
231.136	162.38
231.37	170.38
231.604	162.38
231.838	179.38
232.072	184.38
232.306	176.38
232.541	172.38
232.775	178.38
233.009	188.38
233.243	169.38
233.477	183.38
233.711	184.38
233.945	190.38
234.179	190.38
234.413	201.38
234.647	194.38
234.881	194.38
235.115	184.38
235.349	199.38
235.583	201.38
235.817	198.38
236.051	198.38
236.285	205.38
236.519	213.38
236.753	201.38
236.987	207.38
237.221	199.38
237.455	223.38
237.689	217.38
237.922	204.38
238.156	213.38
238.39	213.38
238.624	223.38
238.858	219.38
239.091	221.38
239.325	226.38
239.559	232.38
239.793	227.38
240.027	240.38
240.26	230.38
240.494	233.38
240.728	237.38
240.961	234.38
241.195	238.38
241.429	270.38
241.662	254.38
241.896	251.38
242.13	250.38
242.363	249.38
242.597	250.38
242.83	274.38
243.064	264.38
243.298	287.38
243.531	278.38
243.765	296.38
243.998	278.38
244.232	274.38
244.465	280.38
244.699	294.38
244.932	294.38
245.166	277.38
245.399	286.38
245.633	284.38
245.866	306.38
246.099	304.38
246.333	309.38
246.566	275.38
246.8	288.38
247.033	289.38
247.266	292.38
247.5	327.38
247.733	314.38
247.966	312.38
248.2	323.38
248.433	328.38
248.666	314.38
248.899	330.38
249.133	335.38
249.366	328.38
249.599	333.38
249.832	330.38
250.066	343.38
250.299	324.38
250.532	322.38
250.765	342.38
250.998	341.38
251.231	350.38
251.465	365.38
251.698	374.38
251.931	375.38
252.164	383.38
252.397	374.38
252.63	388.38
252.863	375.38
253.096	377.38
253.329	368.38
253.562	395.38
253.795	400.38
254.028	370.38
254.261	379.38
254.494	390.38
254.727	393.38
254.96	370.38
255.193	394.38
255.426	387.38
255.659	390.38
255.892	395.38
256.124	394.38
256.357	403.38
256.59	408.38
256.823	421.38
257.056	418.38
257.289	410.38
257.521	397.38
257.754	432.38
257.987	416.38
258.22	451.38
258.452	453.38
258.685	457.38
258.918	436.38
259.151	438.38
259.383	442.38
259.616	427.38
259.849	426.38
260.081	457.38
260.314	463.38
260.547	474.38
260.779	441.38
261.012	443.38
261.244	469.38
261.477	467.38
261.71	457.38
261.942	446.38
262.175	460.38
262.407	475.38
262.64	465.38
262.872	459.38
263.105	463.38
263.337	484.38
263.57	483.38
263.802	472.38
264.035	486.38
264.267	490.38
264.499	476.38
264.732	494.38
264.964	474.38
265.197	488.38
265.429	484.38
265.661	502.38
265.894	514.38
266.126	522.38
266.358	487.38
266.591	518.38
266.823	537.38
267.055	510.38
267.287	507.38
267.52	526.38
267.752	519.38
267.984	532.38
268.216	547.38
268.448	508.38
268.681	530.38
268.913	535.38
269.145	523.38
269.377	549.38
269.609	527.38
269.841	538.38
270.073	548.38
270.306	536.38
270.538	567.38
270.77	531.38
271.002	552.38
271.234	539.38
271.466	557.38
271.698	564.38
271.93	560.38
272.162	537.38
272.394	557.38
272.626	565.38
272.858	591.38
273.09	582.38
273.322	588.38
273.553	575.38
273.785	601.38
274.017	597.38
274.249	598.38
274.481	601.38
274.713	594.38
274.945	591.38
275.176	591.38
275.408	599.38
275.64	598.38
275.872	598.38
276.104	604.38
276.335	594.38
276.567	615.38
276.799	598.38
277.031	609.38
277.262	624.38
277.494	622.38
277.726	597.38
277.957	603.38
278.189	638.38
278.421	640.38
278.652	656.38
278.884	623.38
279.115	635.38
279.347	632.38
279.579	655.38
279.81	647.38
280.042	663.38
280.273	653.38
280.505	642.38
280.736	648.38
280.968	669.38
281.199	679.38
281.431	642.38
281.662	671.38
281.894	661.38
282.125	656.38
282.356	688.38
282.588	684.38
282.819	686.38
283.051	676.38
283.282	666.38
283.513	663.38
283.745	680.38
283.976	688.38
284.207	710.38
284.439	713.38
284.67	723.38
284.901	707.38
285.132	714.38
285.364	715.38
285.595	716.38
285.826	700.38
286.057	699.38
286.288	706.38
286.52	718.38
286.751	711.38
286.982	709.38
287.213	728.38
287.444	711.38
287.675	724.38
287.906	726.38
288.138	744.38
288.369	734.38
288.6	763.38
288.831	730.38
289.062	708.38
289.293	747.38
289.524	723.38
289.755	735.38
289.986	778.38
290.217	758.38
290.448	719.38
290.679	754.38
290.91	715.38
291.141	744.38
291.371	770.38
291.602	778.38
291.833	750.38
292.064	743.38
292.295	755.38
292.526	772.38
292.757	730.38
292.987	752.38
293.218	754.38
293.449	759.38
293.68	756.38
293.91	753.38
294.141	770.38
294.372	760.38
294.603	762.38
294.833	767.38
295.064	776.38
295.295	782.38
295.525	760.38
295.756	778.38
295.987	782.38
296.217	792.38
296.448	781.38
296.679	806.38
296.909	781.38
297.14	796.38
297.37	812.38
297.601	812.38
297.831	830.38
298.062	794.38
298.292	830.38
298.523	835.38
298.753	848.38
298.984	822.38
299.214	819.38
299.445	816.38
299.675	809.38
299.905	830.38
300.136	838.38
300.366	810.38
300.597	860.38
300.827	862.38
301.057	890.38
301.288	832.38
301.518	850.38
301.748	854.38
301.979	875.38
302.209	888.38
302.439	877.38
302.669	856.38
302.9	867.38
303.13	854.38
303.36	868.38
303.59	864.38
303.82	865.38
304.051	862.38
304.281	867.38
304.511	857.38
304.741	864.38
304.971	863.38
305.201	874.38
305.431	882.38
305.661	853.38
305.891	853.38
306.121	875.38
306.352	832.38
306.582	867.38
306.812	844.38
307.042	858.38
307.272	848.38
307.502	821.38
307.731	850.38
307.961	867.38
308.191	864.38
308.421	852.38
308.651	870.38
308.881	849.38
309.111	849.38
309.341	870.38
309.571	870.38
309.8	867.38
310.03	843.38
310.26	899.38
310.49	872.38
310.72	859.38
310.949	850.38
311.179	864.38
311.409	892.38
311.639	859.38
311.868	886.38
312.098	889.38
312.328	884.38
312.557	915.38
312.787	897.38
313.017	907.38
313.246	918.38
313.476	923.38
313.706	929.38
313.935	938.38
314.165	938.38
314.394	935.38
314.624	922.38
314.853	916.38
315.083	907.38
315.312	898.38
315.542	939.38
315.771	919.38
316.001	914.38
316.23	889.38
316.46	886.38
316.689	902.38
316.919	913.38
317.148	903.38
317.377	896.38
317.607	910.38
317.836	926.38
318.065	894.38
318.295	923.38
318.524	918.38
318.753	940.38
318.983	918.38
319.212	865.38
319.441	923.38
319.67	906.38
319.9	897.38
320.129	924.38
320.358	917.38
320.587	891.38
320.816	900.38
321.046	926.38
321.275	912.38
321.504	930.38
321.733	926.38
321.962	912.38
322.191	922.38
322.42	927.38
322.649	933.38
322.878	953.38
323.108	936.38
323.337	966.38
323.566	951.38
323.795	966.38
324.024	958.38
324.253	952.38
324.482	939.38
324.71	939.38
324.939	954.38
325.168	964.38
325.397	976.38
325.626	995.38
325.855	1000.38
326.084	977.38
326.313	990.38
326.542	1010.38
326.77	1010.38
326.999	1002.38
327.228	970.38
327.457	977.38
327.686	998.38
327.914	998.38
328.143	988.38
328.372	998.38
328.6	1026.38
328.829	992.38
329.058	1001.38
329.287	1026.38
329.515	1006.38
329.744	985.38
329.972	1001.38
330.201	976.38
330.43	1035.38
330.658	1016.38
330.887	1058.38
331.115	1065.38
331.344	1045.38
331.572	1042.38
331.801	1074.38
332.03	1086.38
332.258	1094.38
332.486	1141.38
332.715	1105.38
332.943	1180.38
333.172	1201.38
333.4	1219.38
333.629	1239.38
333.857	1270.38
334.085	1272.38
334.314	1269.38
334.542	1286.38
334.771	1225.38
334.999	1218.38
335.227	1217.38
335.455	1237.38
335.684	1242.38
335.912	1210.38
336.14	1196.38
336.369	1203.38
336.597	1214.38
336.825	1192.38
337.053	1171.38
337.281	1189.38
337.51	1151.38
337.738	1134.38
337.966	1126.38
338.194	1145.38
338.422	1102.38
338.65	1112.38
338.878	1066.38
339.106	1089.38
339.334	1088.38
339.562	1089.38
339.79	1058.38
340.018	1046.38
340.246	1050.38
340.474	1014.38
340.702	1035.38
340.93	1051.38
341.158	1062.38
341.386	1038.38
341.614	1083.38
341.842	1078.38
342.07	1051.38
342.298	1020.38
342.526	1044.38
342.754	1046.38
342.981	1029.38
343.209	1059.38
343.437	1100.38
343.665	1120.38
343.893	1190.38
344.12	1226.38
344.348	1205.38
344.576	1162.38
344.804	1127.38
345.031	1091.38
345.259	1075.38
345.487	1030.38
345.714	1049.38
345.942	1045.38
346.17	1049.38
346.397	1047.38
346.625	1001.38
346.853	971.38
347.08	1019.38
347.308	1032.38
347.535	1006.38
347.763	1014.38
347.99	999.38
348.218	988.38
348.445	966.38
348.673	968.38
348.9	989.38
349.128	993.38
349.355	1005.38
349.583	1017.38
349.81	995.38
350.037	982.38
350.265	972.38
350.492	947.38
350.72	970.38
350.947	954.38
351.174	925.38
351.402	971.38
351.629	949.38
351.856	996.38
352.083	960.38
352.311	965.38
352.538	946.38
352.765	973.38
352.992	966.38
353.22	968.38
353.447	973.38
353.674	956.38
353.901	954.38
354.128	979.38
354.355	956.38
354.583	970.38
354.81	970.38
355.037	984.38
355.264	929.38
355.491	967.38
355.718	984.38
355.945	964.38
356.172	948.38
356.399	977.38
356.626	959.38
356.853	982.38
357.08	979.38
357.307	971.38
357.534	948.38
357.761	999.38
357.988	976.38
358.215	961.38
358.441	994.38
358.668	958.38
358.895	987.38
359.122	985.38
359.349	975.38
359.576	972.38
359.802	974.38
360.029	971.38
360.256	993.38
360.483	975.38
360.709	965.38
360.936	943.38
361.163	965.38
361.39	984.38
361.616	966.38
361.843	987.38
362.07	980.38
362.296	1006.38
362.523	965.38
362.749	970.38
362.976	951.38
363.203	982.38
363.429	950.38
363.656	982.38
363.882	956.38
364.109	991.38
364.335	971.38
364.562	974.38
364.788	954.38
365.015	927.38
365.241	950.38
365.468	952.38
365.694	952.38
365.92	962.38
366.147	975.38
366.373	966.38
366.599	988.38
366.826	968.38
367.052	968.38
367.278	975.38
367.505	969.38
367.731	983.38
367.957	975.38
368.184	985.38
368.41	1001.38
368.636	969.38
368.862	985.38
369.089	999.38
369.315	1010.38
369.541	1001.38
369.767	1009.38
369.993	1005.38
370.219	1009.38
370.445	1035.38
370.672	1049.38
370.898	1002.38
371.124	1032.38
371.35	1076.38
371.576	1049.38
371.802	1089.38
372.028	1069.38
372.254	1041.38
372.48	1079.38
372.706	1070.38
372.932	1105.38
373.158	1098.38
373.384	1060.38
373.61	1055.38
373.835	1056.38
374.061	1049.38
374.287	1090.38
374.513	1090.38
374.739	1148.38
374.965	1134.38
375.191	1176.38
375.416	1166.38
375.642	1121.38
375.868	1119.38
376.094	1091.38
376.319	1098.38
376.545	1094.38
376.771	1082.38
376.997	1047.38
377.222	1063.38
377.448	1052.38
377.674	1050.38
377.899	1048.38
378.125	1051.38
378.35	1044.38
378.576	1034.38
378.802	1017.38
379.027	1042.38
379.253	1037.38
379.478	1054.38
379.704	1028.38
379.929	1015.38
380.155	1026.38
380.38	1006.38
380.606	1047.38
380.831	1048.38
381.057	1041.38
381.282	1037.38
381.507	1042.38
381.733	1060.38
381.958	1065.38
382.184	1077.38
382.409	1072.38
382.634	1092.38
382.86	1055.38
383.085	1098.38
383.31	1110.38
383.535	1127.38
383.761	1100.38
383.986	1142.38
384.211	1174.38
384.436	1172.38
384.662	1195.38
384.887	1218.38
385.112	1199.38
385.337	1236.38
385.562	1253.38
385.787	1238.38
386.013	1274.38
386.238	1228.38
386.463	1237.38
386.688	1242.38
386.913	1243.38
387.138	1237.38
387.363	1265.38
387.588	1214.38
387.813	1225.38
388.038	1251.38
388.263	1254.38
388.488	1266.38
388.713	1237.38
388.938	1222.38
389.163	1256.38
389.387	1211.38
389.612	1183.38
389.837	1237.38
390.062	1228.38
390.287	1218.38
390.512	1224.38
390.736	1226.38
390.961	1227.38
391.186	1252.38
391.411	1327.38
391.636	1322.38
391.86	1358.38
392.085	1379.38
392.31	1352.38
392.534	1332.38
392.759	1335.38
392.984	1332.38
393.208	1330.38
393.433	1336.38
393.658	1340.38
393.882	1301.38
394.107	1311.38
394.331	1301.38
394.556	1323.38
394.78	1320.38
395.005	1345.38
395.229	1320.38
395.454	1350.38
395.678	1406.38
395.903	1391.38
396.127	1370.38
396.352	1351.38
396.576	1332.38
396.801	1326.38
397.025	1364.38
397.249	1374.38
397.474	1400.38
397.698	1410.38
397.922	1419.38
398.147	1385.38
398.371	1450.38
398.595	1450.38
398.82	1547.38
399.044	1586.38
399.268	1730.38
399.492	1928.38
399.717	2065.38
399.941	2080.38
400.165	1967.38
400.389	1862.38
400.613	1680.38
400.837	1662.38
401.062	1601.38
401.286	1589.38
401.51	1534.38
401.734	1540.38
401.958	1585.38
402.182	1528.38
402.406	1573.38
402.63	1603.38
402.854	1582.38
403.078	1586.38
403.302	1596.38
403.526	1657.38
403.75	1658.38
403.974	1664.38
404.198	1676.38
404.422	1687.38
404.645	1691.38
404.869	1610.38
405.093	1686.38
405.317	1640.38
405.541	1655.38
405.765	1666.38
405.988	1685.38
406.212	1671.38
406.436	1695.38
406.66	1722.38
406.883	1715.38
407.107	1805.38
407.331	1868.38
407.555	1886.38
407.778	1906.38
408.002	1904.38
408.226	1881.38
408.449	1866.38
408.673	1792.38
408.896	1768.38
409.12	1707.38
409.344	1766.38
409.567	1734.38
409.791	1686.38
410.014	1680.38
410.238	1711.38
410.461	1676.38
410.685	1681.38
410.908	1636.38
411.132	1628.38
411.355	1598.38
411.578	1626.38
411.802	1602.38
412.025	1649.38
412.249	1609.38
412.472	1591.38
412.695	1579.38
412.919	1539.38
413.142	1560.38
413.365	1561.38
413.589	1578.38
413.812	1545.38
414.035	1549.38
414.258	1520.38
414.482	1542.38
414.705	1583.38
414.928	1554.38
415.151	1561.38
415.374	1517.38
415.597	1522.38
415.821	1469.38
416.044	1472.38
416.267	1491.38
416.49	1491.38
416.713	1504.38
416.936	1498.38
417.159	1479.38
417.382	1462.38
417.605	1509.38
417.828	1505.38
418.051	1482.38
418.274	1486.38
418.497	1490.38
418.72	1513.38
418.943	1527.38
419.166	1610.38
419.389	1692.38
419.611	1639.38
419.834	1620.38
420.057	1588.38
420.28	1494.38
420.503	1489.38
420.726	1462.38
420.948	1490.38
421.171	1454.38
421.394	1480.38
421.617	1497.38
421.839	1472.38
422.062	1491.38
422.285	1497.38
422.507	1478.38
422.73	1467.38
422.953	1527.38
423.175	1509.38
423.398	1523.38
423.621	1508.38
423.843	1547.38
424.066	1562.38
424.288	1545.38
424.511	1506.38
424.733	1489.38
424.956	1518.38
425.178	1486.38
425.401	1514.38
425.623	1460.38
425.846	1468.38
426.068	1460.38
426.291	1438.38
426.513	1420.38
426.735	1424.38
426.958	1403.38
427.18	1403.38
427.402	1399.38
427.625	1399.38
427.847	1363.38
428.069	1383.38
428.292	1403.38
428.514	1381.38
428.736	1372.38
428.958	1366.38
429.181	1338.38
429.403	1304.38
429.625	1334.38
429.847	1310.38
430.069	1312.38
430.292	1344.38
430.514	1344.38
430.736	1349.38
430.958	1350.38
431.18	1326.38
431.402	1348.38
431.624	1355.38
431.846	1370.38
432.068	1406.38
432.29	1386.38
432.512	1366.38
432.734	1377.38
432.956	1379.38
433.178	1371.38
433.4	1362.38
433.622	1363.38
433.844	1398.38
434.066	1395.38
434.287	1413.38
434.509	1468.38
434.731	1477.38
434.953	1497.38
435.175	1509.38
435.397	1513.38
435.618	1447.38
435.84	1412.38
436.062	1365.38
436.284	1353.38
436.505	1347.38
436.727	1369.38
436.949	1360.38
437.17	1374.38
437.392	1319.38
437.614	1328.38
437.835	1316.38
438.057	1308.38
438.278	1288.38
438.5	1283.38
438.721	1284.38
438.943	1309.38
439.165	1288.38
439.386	1281.38
439.608	1307.38
439.829	1322.38
440.05	1330.38
440.272	1339.38
440.493	1328.38
440.715	1368.38
440.936	1390.38
441.158	1392.38
441.379	1434.38
441.6	1503.38
441.822	1462.38
442.043	1518.38
442.264	1457.38
442.486	1412.38
442.707	1445.38
442.928	1426.38
443.149	1439.38
443.371	1436.38
443.592	1496.38
443.813	1466.38
444.034	1504.38
444.255	1524.38
444.476	1574.38
444.698	1619.38
444.919	1690.38
445.14	1736.38
445.361	1611.38
445.582	1494.38
445.803	1460.38
446.024	1436.38
446.245	1399.38
446.466	1375.38
446.687	1342.38
446.908	1346.38
447.129	1304.38
447.35	1326.38
447.571	1306.38
447.792	1254.38
448.013	1256.38
448.234	1253.38
448.455	1221.38
448.675	1239.38
448.896	1223.38
449.117	1201.38
449.338	1227.38
449.559	1196.38
449.779	1183.38
450	1214.38
450.221	1235.38
450.442	1238.38
450.662	1200.38
450.883	1199.38
451.104	1242.38
451.324	1225.38
451.545	1232.38
451.766	1236.38
451.986	1224.38
452.207	1185.38
452.428	1199.38
452.648	1180.38
452.869	1188.38
453.089	1164.38
453.31	1169.38
453.53	1184.38
453.751	1183.38
453.971	1184.38
454.192	1154.38
454.412	1136.38
454.633	1149.38
454.853	1148.38
455.073	1143.38
455.294	1145.38
455.514	1128.38
455.734	1136.38
455.955	1121.38
456.175	1134.38
456.395	1123.38
456.616	1126.38
456.836	1150.38
457.056	1158.38
457.276	1125.38
457.497	1166.38
457.717	1170.38
457.937	1154.38
458.157	1182.38
458.377	1178.38
458.598	1211.38
458.818	1208.38
459.038	1256.38
459.258	1279.38
459.478	1327.38
459.698	1375.38
459.918	1428.38
460.138	1428.38
460.358	1455.38
460.578	1516.38
460.798	1540.38
461.018	1530.38
461.238	1525.38
461.458	1526.38
461.678	1534.38
461.898	1542.38
462.118	1522.38
462.338	1622.38
462.558	1635.38
462.777	1705.38
462.997	1819.38
463.217	1888.38
463.437	1929.38
463.657	1794.38
463.876	1750.38
464.096	1748.38
464.316	1721.38
464.536	1716.38
464.755	1667.38
464.975	1646.38
465.195	1532.38
465.414	1490.38
465.634	1441.38
465.854	1432.38
466.073	1358.38
466.293	1353.38
466.512	1307.38
466.732	1304.38
466.951	1303.38
467.171	1280.38
467.391	1306.38
467.61	1273.38
467.829	1268.38
468.049	1253.38
468.268	1271.38
468.488	1217.38
468.707	1266.38
468.927	1225.38
469.146	1225.38
469.365	1270.38
469.585	1242.38
469.804	1292.38
470.023	1306.38
470.243	1302.38
470.462	1286.38
470.681	1327.38
470.901	1293.38
471.12	1285.38
471.339	1288.38
471.558	1279.38
471.777	1251.38
471.997	1247.38
472.216	1251.38
472.435	1239.38
472.654	1222.38
472.873	1197.38
473.092	1226.38
473.311	1238.38
473.53	1227.38
473.749	1214.38
473.968	1201.38
474.187	1195.38
474.406	1188.38
474.625	1218.38
474.844	1216.38
475.063	1257.38
475.282	1209.38
475.501	1230.38
475.72	1230.38
475.939	1246.38
476.158	1242.38
476.377	1282.38
476.596	1262.38
476.814	1328.38
477.033	1251.38
477.252	1342.38
477.471	1369.38
477.69	1362.38
477.908	1400.38
478.127	1440.38
478.346	1440.38
478.564	1514.38
478.783	1462.38
479.002	1489.38
479.22	1519.38
479.439	1512.38
479.658	1502.38
479.876	1525.38
480.095	1544.38
480.313	1595.38
480.532	1585.38
480.751	1600.38
480.969	1569.38
481.188	1493.38
481.406	1479.38
481.624	1523.38
481.843	1505.38
482.061	1468.38
482.28	1458.38
482.498	1446.38
482.717	1498.38
482.935	1470.38
483.153	1498.38
483.372	1478.38
483.59	1483.38
483.808	1523.38
484.027	1492.38
484.245	1558.38
484.463	1547.38
484.681	1571.38
484.9	1560.38
485.118	1578.38
485.336	1612.38
485.554	1647.38
485.772	1610.38
485.99	1594.38
486.209	1615.38
486.427	1592.38
486.645	1584.38
486.863	1619.38
487.081	1595.38
487.299	1614.38
487.517	1614.38
487.735	1595.38
487.953	1597.38
488.171	1579.38
488.389	1550.38
488.607	1564.38
488.825	1575.38
489.043	1519.38
489.261	1528.38
489.479	1527.38
489.696	1533.38
489.914	1518.38
490.132	1540.38
490.35	1560.38
490.568	1559.38
490.786	1546.38
491.003	1509.38
491.221	1557.38
491.439	1526.38
491.657	1557.38
491.874	1510.38
492.092	1549.38
492.31	1518.38
492.527	1489.38
492.745	1547.38
492.963	1542.38
493.18	1580.38
493.398	1513.38
493.615	1562.38
493.833	1562.38
494.05	1574.38
494.268	1538.38
494.485	1559.38
494.703	1561.38
494.92	1527.38
495.138	1606.38
495.355	1566.38
495.573	1558.38
495.79	1588.38
496.008	1611.38
496.225	1598.38
496.442	1585.38
496.66	1618.38
496.877	1618.38
497.094	1669.38
497.312	1712.38
497.529	1724.38
497.746	1741.38
497.963	1807.38
498.181	1875.38
498.398	1975.38
498.615	2082.38
498.832	2158.38
499.049	2319.38
499.267	2415.38
499.484	2610.38
499.701	2835.38
499.918	3047.38
500.135	3402.38
500.352	3673.38
500.569	3890.38
500.786	3697.38
501.003	3635.38
501.22	3370.38
501.437	3066.38
501.654	2779.38
501.871	2618.38
502.088	2388.38
502.305	2304.38
502.522	2144.38
502.739	2119.38
502.956	2008.38
503.172	1920.38
503.389	1842.38
503.606	1803.38
503.823	1740.38
504.04	1748.38
504.256	1749.38
504.473	1762.38
504.69	1766.38
504.907	1770.38
505.123	1655.38
505.34	1566.38
505.557	1547.38
505.773	1502.38
505.99	1483.38
506.207	1412.38
506.423	1408.38
506.64	1401.38
506.856	1349.38
507.073	1361.38
507.289	1353.38
507.506	1341.38
507.722	1375.38
507.939	1330.38
508.155	1321.38
508.372	1306.38
508.588	1280.38
508.805	1291.38
509.021	1247.38
509.238	1272.38
509.454	1240.38
509.67	1235.38
509.887	1252.38
510.103	1226.38
510.319	1210.38
510.536	1243.38
510.752	1225.38
510.968	1224.38
511.184	1211.38
511.401	1193.38
511.617	1209.38
511.833	1231.38
512.049	1203.38
512.265	1180.38
512.481	1216.38
512.698	1216.38
512.914	1208.38
513.13	1226.38
513.346	1200.38
513.562	1228.38
513.778	1216.38
513.994	1221.38
514.21	1227.38
514.426	1221.38
514.642	1248.38
514.858	1241.38
515.074	1232.38
515.29	1255.38
515.506	1277.38
515.721	1273.38
515.937	1287.38
516.153	1328.38
516.369	1332.38
516.585	1356.38
516.801	1381.38
517.016	1432.38
517.232	1476.38
517.448	1537.38
517.664	1561.38
517.879	1569.38
518.095	1570.38
518.311	1563.38
518.527	1484.38
518.742	1479.38
518.958	1402.38
519.173	1391.38
519.389	1352.38
519.605	1310.38
519.82	1316.38
520.036	1264.38
520.251	1243.38
520.467	1212.38
520.682	1231.38
520.898	1163.38
521.113	1188.38
521.329	1152.38
521.544	1180.38
521.76	1144.38
521.975	1139.38
522.19	1140.38
522.406	1119.38
522.621	1154.38
522.836	1108.38
523.052	1142.38
523.267	1118.38
523.482	1124.38
523.698	1120.38
523.913	1119.38
524.128	1081.38
524.343	1109.38
524.559	1097.38
524.774	1075.38
524.989	1126.38
525.204	1118.38
525.419	1082.38
525.634	1087.38
525.849	1086.38
526.064	1089.38
526.28	1060.38
526.495	1082.38
526.71	1098.38
526.925	1076.38
527.14	1064.38
527.355	1030.38
527.57	1081.38
527.785	1074.38
527.999	1058.38
528.214	1097.38
528.429	1080.38
528.644	1072.38
528.859	1064.38
529.074	1050.38
529.289	1068.38
529.503	1070.38
529.718	1059.38
529.933	1058.38
530.148	1010.38
530.363	1075.38
530.577	1080.38
530.792	1047.38
531.007	1086.38
531.221	1034.38
531.436	1050.38
531.651	1068.38
531.865	1042.38
532.08	1064.38
532.295	1090.38
532.509	1037.38
532.724	1007.38
532.938	1066.38
533.153	1034.38
533.367	1033.38
533.582	1034.38
533.796	1041.38
534.011	1073.38
534.225	1041.38
534.44	1035.38
534.654	1033.38
534.868	1039.38
535.083	1007.38
535.297	998.38
535.511	1010.38
535.726	996.38
535.94	989.38
536.154	988.38
536.369	981.38
536.583	985.38
536.797	975.38
537.011	969.38
537.225	990.38
537.44	961.38
537.654	950.38
537.868	968.38
538.082	962.38
538.296	987.38
538.51	975.38
538.724	948.38
538.938	948.38
539.153	951.38
539.367	960.38
539.581	926.38
539.795	913.38
540.009	950.38
540.222	961.38
540.436	927.38
540.65	926.38
540.864	918.38
541.078	924.38
541.292	974.38
541.506	954.38
541.72	951.38
541.934	957.38
542.147	960.38
542.361	937.38
542.575	945.38
542.789	923.38
543.002	930.38
543.216	914.38
543.43	902.38
543.644	917.38
543.857	935.38
544.071	907.38
544.285	919.38
544.498	921.38
544.712	928.38
544.925	950.38
545.139	949.38
545.352	968.38
545.566	947.38
545.779	950.38
545.993	937.38
546.206	953.38
546.42	932.38
546.633	949.38
546.847	926.38
547.06	951.38
547.274	949.38
547.487	935.38
547.7	949.38
547.914	950.38
548.127	959.38
548.34	964.38
548.554	950.38
548.767	919.38
548.98	935.38
549.193	993.38
549.407	940.38
549.62	966.38
549.833	952.38
550.046	956.38
550.259	951.38
550.473	937.38
550.686	950.38
550.899	947.38
551.112	922.38
551.325	913.38
551.538	933.38
551.751	951.38
551.964	926.38
552.177	944.38
552.39	943.38
552.603	955.38
552.816	1002.38
553.029	1026.38
553.242	1003.38
553.455	985.38
553.667	997.38
553.88	1028.38
554.093	993.38
554.306	957.38
554.519	947.38
554.732	924.38
554.944	914.38
555.157	902.38
555.37	922.38
555.583	891.38
555.795	858.38
556.008	852.38
556.221	844.38
556.433	848.38
556.646	824.38
556.859	820.38
557.071	831.38
557.284	835.38
557.496	814.38
557.709	837.38
557.921	802.38
558.134	812.38
558.346	796.38
558.559	819.38
558.771	821.38
558.984	806.38
559.196	811.38
559.409	772.38
559.621	804.38
559.833	785.38
560.046	778.38
560.258	795.38
560.47	797.38
560.683	784.38
560.895	786.38
561.107	775.38
561.32	768.38
561.532	776.38
561.744	818.38
561.956	802.38
562.168	760.38
562.381	777.38
562.593	798.38
562.805	791.38
563.017	763.38
563.229	781.38
563.441	814.38
563.653	809.38
563.865	800.38
564.077	821.38
564.289	824.38
564.501	826.38
564.713	841.38
564.925	876.38
565.137	874.38
565.349	891.38
565.561	898.38
565.773	936.38
565.985	985.38
566.197	995.38
566.408	1078.38
566.62	1128.38
566.832	1163.38
567.044	1209.38
567.255	1222.38
567.467	1228.38
567.679	1250.38
567.891	1319.38
568.102	1298.38
568.314	1272.38
568.526	1201.38
568.737	1124.38
568.949	1040.38
569.161	958.38
569.372	936.38
569.584	906.38
569.795	841.38
570.007	833.38
570.218	831.38
570.43	811.38
570.641	808.38
570.853	817.38
571.064	802.38
571.276	802.38
571.487	777.38
571.698	734.38
571.91	728.38
572.121	720.38
572.333	703.38
572.544	688.38
572.755	711.38
572.966	670.38
573.178	680.38
573.389	667.38
573.6	650.38
573.811	652.38
574.023	646.38
574.234	650.38
574.445	634.38
574.656	647.38
574.867	665.38
575.078	666.38
575.289	635.38
575.501	639.38
575.712	614.38
575.923	607.38
576.134	606.38
576.345	609.38
576.556	611.38
576.767	613.38
576.978	595.38
577.188	600.38
577.399	624.38
577.61	588.38
577.821	586.38
578.032	576.38
578.243	587.38
578.454	595.38
578.665	573.38
578.875	555.38
579.086	572.38
579.297	572.38
579.508	569.38
579.718	575.38
579.929	566.38
580.14	571.38
580.35	557.38
580.561	538.38
580.772	564.38
580.982	579.38
581.193	541.38
581.403	562.38
581.614	535.38
581.825	548.38
582.035	550.38
582.246	537.38
582.456	532.38
582.667	531.38
582.877	540.38
583.087	534.38
583.298	546.38
583.508	542.38
583.719	544.38
583.929	518.38
584.139	535.38
584.35	536.38
584.56	524.38
584.77	502.38
584.981	499.38
585.191	499.38
585.401	513.38
585.611	530.38
585.821	523.38
586.032	517.38
586.242	507.38
586.452	492.38
586.662	498.38
586.872	514.38
587.082	522.38
587.292	515.38
587.502	484.38
587.713	517.38
587.923	524.38
588.133	512.38
588.343	482.38
588.553	479.38
588.762	488.38
588.972	517.38
589.182	521.38
589.392	526.38
589.602	514.38
589.812	508.38
590.022	553.38
590.232	517.38
590.441	532.38
590.651	526.38
590.861	497.38
591.071	521.38
591.281	543.38
591.49	549.38
591.7	545.38
591.91	541.38
592.119	535.38
592.329	551.38
592.539	554.38
592.748	565.38
592.958	598.38
593.167	588.38
593.377	616.38
593.587	624.38
593.796	598.38
594.006	619.38
594.215	624.38
594.424	615.38
594.634	594.38
594.843	607.38
595.053	566.38
595.262	582.38
595.472	536.38
595.681	552.38
595.89	539.38
596.1	512.38
596.309	483.38
596.518	490.38
596.727	472.38
596.937	502.38
597.146	468.38
597.355	474.38
597.564	483.38
597.774	459.38
597.983	456.38
598.192	444.38
598.401	438.38
598.61	456.38
598.819	440.38
599.028	436.38
599.237	432.38
599.446	427.38
599.655	422.38
599.864	421.38
600.073	432.38
600.282	418.38
600.491	441.38
600.7	423.38
600.909	409.38
601.118	421.38
601.327	423.38
601.536	419.38
601.745	421.38
601.953	411.38
602.162	404.38
602.371	416.38
602.58	407.38
602.789	405.38
602.997	427.38
603.206	404.38
603.415	391.38
603.623	383.38
603.832	412.38
604.041	406.38
604.249	390.38
604.458	411.38
604.666	391.38
604.875	400.38
605.084	389.38
605.292	388.38
605.501	378.38
605.709	387.38
605.918	384.38
606.126	378.38
606.334	372.38
606.543	379.38
606.751	393.38
606.96	385.38
607.168	389.38
607.376	383.38
607.585	379.38
607.793	371.38
608.001	382.38
608.21	378.38
608.418	359.38
608.626	369.38
608.834	390.38
609.043	380.38
609.251	388.38
609.459	373.38
609.667	374.38
609.875	371.38
610.083	361.38
610.291	377.38
610.499	376.38
610.707	366.38
610.916	387.38
611.124	385.38
611.332	358.38
611.54	364.38
611.748	375.38
611.955	369.38
612.163	370.38
612.371	362.38
612.579	378.38
612.787	351.38
612.995	370.38
613.203	383.38
613.411	374.38
613.618	361.38
613.826	360.38
614.034	359.38
614.242	364.38
614.449	356.38
614.657	342.38
614.865	359.38
615.072	360.38
615.28	360.38
615.488	363.38
615.695	346.38
615.903	344.38
616.111	368.38
616.318	363.38
616.526	360.38
616.733	359.38
616.941	355.38
617.148	350.38
617.356	359.38
617.563	355.38
617.771	356.38
617.978	350.38
618.185	358.38
618.393	355.38
618.6	352.38
618.807	360.38
619.015	358.38
619.222	338.38
619.429	342.38
619.637	332.38
619.844	342.38
620.051	343.38
620.258	347.38
620.466	312.38
620.673	315.38
620.88	314.38
621.087	325.38
621.294	336.38
621.501	316.38
621.708	336.38
621.915	309.38
622.122	331.38
622.329	329.38
622.536	340.38
622.743	332.38
622.95	339.38
623.157	328.38
623.364	326.38
623.571	309.38
623.778	318.38
623.985	334.38
624.192	310.38
624.399	300.38
624.606	320.38
624.812	293.38
625.019	287.38
625.226	307.38
625.433	320.38
625.639	295.38
625.846	297.38
626.053	313.38
626.259	303.38
626.466	330.38
626.673	298.38
626.879	295.38
627.086	305.38
627.293	301.38
627.499	299.38
627.706	312.38
627.912	299.38
628.119	323.38
628.325	303.38
628.532	291.38
628.738	287.38
628.945	293.38
629.151	296.38
629.357	287.38
629.564	297.38
629.77	299.38
629.976	283.38
630.183	267.38
630.389	279.38
630.595	280.38
630.802	276.38
631.008	297.38
631.214	271.38
631.42	264.38
631.627	270.38
631.833	270.38
632.039	279.38
632.245	275.38
632.451	267.38
632.657	286.38
632.863	270.38
633.069	281.38
633.275	276.38
633.481	269.38
633.688	273.38
633.893	275.38
634.099	274.38
634.305	266.38
634.511	268.38
634.717	264.38
634.923	255.38
635.129	261.38
635.335	266.38
635.541	260.38
635.747	261.38
635.952	276.38
636.158	281.38
636.364	255.38
636.57	254.38
636.775	263.38
636.981	264.38
637.187	246.38
637.392	265.38
637.598	267.38
637.804	262.38
638.009	247.38
638.215	245.38
638.421	261.38
638.626	259.38
638.832	265.38
639.037	258.38
639.243	256.38
639.448	248.38
639.654	246.38
639.859	245.38
640.065	231.38
640.27	249.38
640.475	248.38
640.681	259.38
640.886	243.38
641.091	255.38
641.297	255.38
641.502	252.38
641.707	235.38
641.913	245.38
642.118	260.38
642.323	249.38
642.528	249.38
642.733	238.38
642.939	261.38
643.144	271.38
643.349	265.38
643.554	228.38
643.759	256.38
643.964	240.38
644.169	246.38
644.374	239.38
644.579	243.38
644.784	231.38
644.989	244.38
645.194	254.38
645.399	244.38
645.604	244.38
645.809	263.38
646.014	254.38
646.219	230.38
646.423	249.38
646.628	245.38
646.833	253.38
647.038	243.38
647.243	265.38
647.447	242.38
647.652	266.38
647.857	268.38
648.062	268.38
648.266	270.38
648.471	260.38
648.676	256.38
648.88	261.38
649.085	258.38
649.289	265.38
649.494	265.38
649.698	261.38
649.903	239.38
650.107	256.38
650.312	251.38
650.516	266.38
650.721	225.38
650.925	238.38
651.13	249.38
651.334	246.38
651.539	259.38
651.743	238.38
651.947	243.38
652.152	250.38
652.356	257.38
652.56	261.38
652.764	238.38
652.969	233.38
653.173	264.38
653.377	233.38
653.581	258.38
653.785	241.38
653.99	244.38
654.194	251.38
654.398	244.38
654.602	253.38
654.806	247.38
655.01	260.38
655.214	255.38
655.418	244.38
655.622	281.38
655.826	288.38
656.03	309.38
656.234	329.38
656.438	336.38
656.642	328.38
656.846	320.38
657.049	273.38
657.253	264.38
657.457	249.38
657.661	218.38
657.865	202.38
658.068	188.38
658.272	183.38
658.476	170.38
658.68	154.38
658.883	160.38
659.087	146.38
659.291	129.38
659.494	125.38
659.698	123.38
659.901	133.38
660.105	104.38
660.309	119.38
660.512	115.38
660.716	103.38
660.919	101.38
661.123	117.38
661.326	96.38
661.53	94.38
661.733	83.38
661.936	93.38
662.14	91.38
662.343	84.38
662.546	96.38
662.75	86.38
662.953	80.38
663.156	94.38
663.36	84.38
663.563	87.38
663.766	80.38
663.969	76.38
664.173	87.38
664.376	88.38
664.579	90.38
664.782	77.38
664.985	86.38
665.188	78.38
665.391	94.38
665.594	73.38
665.797	83.38
666	70.38
666.203	82.38
666.406	80.38
666.609	77.38
666.812	85.38
667.015	84.38
667.218	66.38
667.421	81.38
667.624	86.38
667.827	79.38
668.03	85.38
668.232	79.38
668.435	77.38
668.638	73.38
668.841	82.38
669.043	78.38
669.246	84.38
669.449	80.38
669.651	64.38
669.854	82.38
670.057	83.38
670.259	86.38
670.462	71.38
670.665	87.38
670.867	81.38
671.07	70.38
671.272	91.38
671.475	82.38
671.677	89.38
671.88	79.38
672.082	75.38
672.284	82.38
672.487	81.38
672.689	76.38
672.892	94.38
