Data from NiCl2@0.5M.TitratingCurve.Agarose3%dH2O.NegLispCup.LampEnergy10.LIBS07252019_HRD10591_18-18-35-570.txt Node
Date: Thu Jul 25 18:18:35 EDT 2019
User: cochatt
Spectrometer: HR+D1059
Trigger mode: 1
Integration Time (sec): 1.000000E-1
Scans to average: 1
Electric dark correction enabled: true
Nonlinearity correction enabled: false
Boxcar width: 0
XAxis mode: Wavelengths
Number of Pixels in Spectrum: 2048
>>>>>Begin Spectral Data<<<<<
223.165	-19.62
223.4	-19.62
223.635	-19.62
223.869	-18.62
224.104	-17.62
224.338	-19.62
224.573	-17.62
224.808	-6.62
225.042	-10.62
225.277	-2.62
225.511	-2.62
225.746	9.38
225.98	10.38
226.215	11.38
226.449	12.38
226.683	16.38
226.918	22.38
227.152	33.38
227.387	53.38
227.621	45.38
227.856	42.38
228.09	42.38
228.324	40.38
228.559	41.38
228.793	94.38
229.027	178.38
229.262	195.38
229.496	191.38
229.73	206.38
229.964	247.38
230.199	310.38
230.433	270.38
230.667	274.38
230.901	278.38
231.136	232.38
231.37	247.38
231.604	267.38
231.838	300.38
232.072	303.38
232.306	296.38
232.541	266.38
232.775	257.38
233.009	263.38
233.243	251.38
233.477	249.38
233.711	244.38
233.945	269.38
234.179	263.38
234.413	269.38
234.647	287.38
234.881	273.38
235.115	293.38
235.349	257.38
235.583	262.38
235.817	258.38
236.051	279.38
236.285	271.38
236.519	261.38
236.753	279.38
236.987	300.38
237.221	296.38
237.455	292.38
237.689	291.38
237.922	298.38
238.156	332.38
238.39	291.38
238.624	307.38
238.858	321.38
239.091	341.38
239.325	326.38
239.559	345.38
239.793	387.38
240.027	385.38
240.26	341.38
240.494	345.38
240.728	358.38
240.961	354.38
241.195	335.38
241.429	365.38
241.662	389.38
241.896	403.38
242.13	416.38
242.363	384.38
242.597	372.38
242.83	372.38
243.064	388.38
243.298	384.38
243.531	402.38
243.765	412.38
243.998	426.38
244.232	430.38
244.465	412.38
244.699	398.38
244.932	396.38
245.166	407.38
245.399	439.38
245.633	416.38
245.866	426.38
246.099	447.38
246.333	428.38
246.566	424.38
246.8	443.38
247.033	455.38
247.266	431.38
247.5	438.38
247.733	443.38
247.966	463.38
248.2	441.38
248.433	474.38
248.666	456.38
248.899	485.38
249.133	471.38
249.366	482.38
249.599	490.38
249.832	481.38
250.066	489.38
250.299	480.38
250.532	503.38
250.765	526.38
250.998	520.38
251.231	545.38
251.465	588.38
251.698	578.38
251.931	535.38
252.164	547.38
252.397	524.38
252.63	517.38
252.863	537.38
253.096	531.38
253.329	555.38
253.562	531.38
253.795	552.38
254.028	571.38
254.261	586.38
254.494	573.38
254.727	579.38
254.96	585.38
255.193	581.38
255.426	574.38
255.659	575.38
255.892	595.38
256.124	586.38
256.357	606.38
256.59	596.38
256.823	599.38
257.056	623.38
257.289	612.38
257.521	614.38
257.754	636.38
257.987	625.38
258.22	620.38
258.452	628.38
258.685	630.38
258.918	627.38
259.151	630.38
259.383	617.38
259.616	620.38
259.849	642.38
260.081	684.38
260.314	642.38
260.547	674.38
260.779	652.38
261.012	696.38
261.244	673.38
261.477	678.38
261.71	707.38
261.942	692.38
262.175	687.38
262.407	698.38
262.64	681.38
262.872	666.38
263.105	697.38
263.337	711.38
263.57	725.38
263.802	705.38
264.035	719.38
264.267	726.38
264.499	715.38
264.732	729.38
264.964	742.38
265.197	730.38
265.429	770.38
265.661	734.38
265.894	743.38
266.126	738.38
266.358	764.38
266.591	745.38
266.823	765.38
267.055	730.38
267.287	758.38
267.52	777.38
267.752	767.38
267.984	799.38
268.216	798.38
268.448	783.38
268.681	776.38
268.913	801.38
269.145	801.38
269.377	796.38
269.609	808.38
269.841	807.38
270.073	814.38
270.306	806.38
270.538	814.38
270.77	797.38
271.002	835.38
271.234	830.38
271.466	834.38
271.698	846.38
271.93	846.38
272.162	853.38
272.394	860.38
272.626	853.38
272.858	840.38
273.09	847.38
273.322	872.38
273.553	873.38
273.785	884.38
274.017	880.38
274.249	893.38
274.481	897.38
274.713	881.38
274.945	904.38
275.176	939.38
275.408	950.38
275.64	887.38
275.872	909.38
276.104	914.38
276.335	913.38
276.567	899.38
276.799	933.38
277.031	924.38
277.262	909.38
277.494	949.38
277.726	947.38
277.957	962.38
278.189	929.38
278.421	948.38
278.652	961.38
278.884	963.38
279.115	990.38
279.347	966.38
279.579	980.38
279.81	1003.38
280.042	1003.38
280.273	963.38
280.505	981.38
280.736	986.38
280.968	1006.38
281.199	1006.38
281.431	999.38
281.662	1037.38
281.894	996.38
282.125	1035.38
282.356	1033.38
282.588	1018.38
282.819	1019.38
283.051	1038.38
283.282	1028.38
283.513	1057.38
283.745	1073.38
283.976	1033.38
284.207	1052.38
284.439	1059.38
284.67	1083.38
284.901	1080.38
285.132	1068.38
285.364	1067.38
285.595	1094.38
285.826	1069.38
286.057	1101.38
286.288	1097.38
286.52	1112.38
286.751	1100.38
286.982	1092.38
287.213	1110.38
287.444	1129.38
287.675	1139.38
287.906	1125.38
288.138	1111.38
288.369	1121.38
288.6	1145.38
288.831	1133.38
289.062	1151.38
289.293	1121.38
289.524	1105.38
289.755	1134.38
289.986	1117.38
290.217	1123.38
290.448	1127.38
290.679	1143.38
290.91	1161.38
291.141	1149.38
291.371	1163.38
291.602	1151.38
291.833	1140.38
292.064	1131.38
292.295	1147.38
292.526	1159.38
292.757	1154.38
292.987	1106.38
293.218	1128.38
293.449	1156.38
293.68	1163.38
293.91	1155.38
294.141	1142.38
294.372	1147.38
294.603	1178.38
294.833	1185.38
295.064	1189.38
295.295	1180.38
295.525	1182.38
295.756	1175.38
295.987	1204.38
296.217	1172.38
296.448	1209.38
296.679	1205.38
296.909	1187.38
297.14	1234.38
297.37	1230.38
297.601	1245.38
297.831	1221.38
298.062	1222.38
298.292	1217.38
298.523	1273.38
298.753	1286.38
298.984	1269.38
299.214	1275.38
299.445	1284.38
299.675	1258.38
299.905	1281.38
300.136	1279.38
300.366	1315.38
300.597	1350.38
300.827	1319.38
301.057	1307.38
301.288	1355.38
301.518	1322.38
301.748	1341.38
301.979	1341.38
302.209	1313.38
302.439	1343.38
302.669	1339.38
302.9	1326.38
303.13	1308.38
303.36	1326.38
303.59	1346.38
303.82	1356.38
304.051	1366.38
304.281	1356.38
304.511	1334.38
304.741	1383.38
304.971	1390.38
305.201	1422.38
305.431	1399.38
305.661	1357.38
305.891	1371.38
306.121	1345.38
306.352	1320.38
306.582	1341.38
306.812	1315.38
307.042	1313.38
307.272	1334.38
307.502	1313.38
307.731	1345.38
307.961	1350.38
308.191	1315.38
308.421	1324.38
308.651	1325.38
308.881	1334.38
309.111	1336.38
309.341	1313.38
309.571	1356.38
309.8	1353.38
310.03	1407.38
310.26	1415.38
310.49	1453.38
310.72	1385.38
310.949	1354.38
311.179	1388.38
311.409	1400.38
311.639	1397.38
311.868	1387.38
312.098	1421.38
312.328	1405.38
312.557	1401.38
312.787	1370.38
313.017	1384.38
313.246	1409.38
313.476	1445.38
313.706	1477.38
313.935	1474.38
314.165	1454.38
314.394	1451.38
314.624	1467.38
314.853	1426.38
315.083	1412.38
315.312	1458.38
315.542	1464.38
315.771	1453.38
316.001	1449.38
316.23	1483.38
316.46	1478.38
316.689	1494.38
316.919	1439.38
317.148	1440.38
317.377	1435.38
317.607	1442.38
317.836	1446.38
318.065	1468.38
318.295	1467.38
318.524	1470.38
318.753	1458.38
318.983	1460.38
319.212	1455.38
319.441	1439.38
319.67	1499.38
319.9	1481.38
320.129	1477.38
320.358	1468.38
320.587	1454.38
320.816	1468.38
321.046	1478.38
321.275	1449.38
321.504	1521.38
321.733	1476.38
321.962	1505.38
322.191	1498.38
322.42	1530.38
322.649	1495.38
322.878	1496.38
323.108	1493.38
323.337	1551.38
323.566	1521.38
323.795	1530.38
324.024	1533.38
324.253	1554.38
324.482	1526.38
324.71	1515.38
324.939	1581.38
325.168	1550.38
325.397	1510.38
325.626	1541.38
325.855	1556.38
326.084	1597.38
326.313	1561.38
326.542	1578.38
326.77	1591.38
326.999	1535.38
327.228	1525.38
327.457	1543.38
327.686	1557.38
327.914	1599.38
328.143	1574.38
328.372	1623.38
328.6	1580.38
328.829	1573.38
329.058	1597.38
329.287	1614.38
329.515	1622.38
329.744	1618.38
329.972	1630.38
330.201	1612.38
330.43	1591.38
330.658	1635.38
330.887	1644.38
331.115	1645.38
331.344	1672.38
331.572	1635.38
331.801	1712.38
332.03	1706.38
332.258	1717.38
332.486	1741.38
332.715	1750.38
332.943	1814.38
333.172	1781.38
333.4	1870.38
333.629	1879.38
333.857	1882.38
334.085	1925.38
334.314	1961.38
334.542	1943.38
334.771	1935.38
334.999	1905.38
335.227	1927.38
335.455	1938.38
335.684	1912.38
335.912	1887.38
336.14	1907.38
336.369	1916.38
336.597	1902.38
336.825	1937.38
337.053	1903.38
337.281	1882.38
337.51	1840.38
337.738	1826.38
337.966	1861.38
338.194	1885.38
338.422	1875.38
338.65	1732.38
338.878	1784.38
339.106	1750.38
339.334	1821.38
339.562	1791.38
339.79	1691.38
340.018	1714.38
340.246	1705.38
340.474	1722.38
340.702	1671.38
340.93	1680.38
341.158	1714.38
341.386	1728.38
341.614	1856.38
341.842	1817.38
342.07	1714.38
342.298	1676.38
342.526	1717.38
342.754	1703.38
342.981	1671.38
343.209	1725.38
343.437	1755.38
343.665	1841.38
343.893	1823.38
344.12	1878.38
344.348	1851.38
344.576	1846.38
344.804	1847.38
345.031	1765.38
345.259	1725.38
345.487	1741.38
345.714	1762.38
345.942	1790.38
346.17	1777.38
346.397	1743.38
346.625	1689.38
346.853	1635.38
347.08	1631.38
347.308	1674.38
347.535	1615.38
347.763	1624.38
347.99	1598.38
348.218	1606.38
348.445	1596.38
348.673	1601.38
348.9	1576.38
349.128	1595.38
349.355	1621.38
349.583	1624.38
349.81	1601.38
350.037	1566.38
350.265	1583.38
350.492	1585.38
350.72	1571.38
350.947	1577.38
351.174	1666.38
351.402	1627.38
351.629	1646.38
351.856	1606.38
352.083	1614.38
352.311	1619.38
352.538	1676.38
352.765	1706.38
352.992	1559.38
353.22	1534.38
353.447	1530.38
353.674	1503.38
353.901	1525.38
354.128	1506.38
354.355	1524.38
354.583	1494.38
354.81	1541.38
355.037	1510.38
355.264	1496.38
355.491	1535.38
355.718	1491.38
355.945	1547.38
356.172	1563.38
356.399	1571.38
356.626	1597.38
356.853	1646.38
357.08	1580.38
357.307	1500.38
357.534	1589.38
357.761	1583.38
357.988	1577.38
358.215	1522.38
358.441	1535.38
358.668	1540.38
358.895	1499.38
359.122	1510.38
359.349	1562.38
359.576	1542.38
359.802	1532.38
360.029	1531.38
360.256	1516.38
360.483	1542.38
360.709	1515.38
360.936	1557.38
361.163	1554.38
361.39	1574.38
361.616	1609.38
361.843	1588.38
362.07	1645.38
362.296	1647.38
362.523	1546.38
362.749	1555.38
362.976	1537.38
363.203	1537.38
363.429	1473.38
363.656	1502.38
363.882	1528.38
364.109	1532.38
364.335	1546.38
364.562	1530.38
364.788	1528.38
365.015	1528.38
365.241	1518.38
365.468	1483.38
365.694	1522.38
365.92	1499.38
366.147	1489.38
366.373	1516.38
366.599	1549.38
366.826	1502.38
367.052	1529.38
367.278	1515.38
367.505	1549.38
367.731	1528.38
367.957	1534.38
368.184	1507.38
368.41	1549.38
368.636	1559.38
368.862	1558.38
369.089	1557.38
369.315	1518.38
369.541	1550.38
369.767	1541.38
369.993	1562.38
370.219	1575.38
370.445	1587.38
370.672	1614.38
370.898	1579.38
371.124	1586.38
371.35	1633.38
371.576	1595.38
371.802	1587.38
372.028	1655.38
372.254	1619.38
372.48	1601.38
372.706	1653.38
372.932	1655.38
373.158	1626.38
373.384	1599.38
373.61	1656.38
373.835	1629.38
374.061	1629.38
374.287	1609.38
374.513	1619.38
374.739	1692.38
374.965	1668.38
375.191	1706.38
375.416	1703.38
375.642	1661.38
375.868	1656.38
376.094	1649.38
376.319	1631.38
376.545	1643.38
376.771	1577.38
376.997	1606.38
377.222	1585.38
377.448	1615.38
377.674	1627.38
377.899	1577.38
378.125	1603.38
378.35	1600.38
378.576	1591.38
378.802	1570.38
379.027	1568.38
379.253	1569.38
379.478	1572.38
379.704	1566.38
379.929	1551.38
380.155	1587.38
380.38	1573.38
380.606	1607.38
380.831	1623.38
381.057	1614.38
381.282	1595.38
381.507	1585.38
381.733	1614.38
381.958	1596.38
382.184	1627.38
382.409	1626.38
382.634	1630.38
382.86	1682.38
383.085	1659.38
383.31	1705.38
383.535	1665.38
383.761	1692.38
383.986	1725.38
384.211	1713.38
384.436	1766.38
384.662	1756.38
384.887	1796.38
385.112	1784.38
385.337	1802.38
385.562	1790.38
385.787	1871.38
386.013	1885.38
386.238	1844.38
386.463	1857.38
386.688	1839.38
386.913	1841.38
387.138	1825.38
387.363	1870.38
387.588	1832.38
387.813	1867.38
388.038	1839.38
388.263	1836.38
388.488	1864.38
388.713	1862.38
388.938	1841.38
389.163	1862.38
389.387	1869.38
389.612	1829.38
389.837	1834.38
390.062	1857.38
390.287	1875.38
390.512	1832.38
390.736	1864.38
390.961	1874.38
391.186	1917.38
391.411	1918.38
391.636	1962.38
391.86	2004.38
392.085	2025.38
392.31	2007.38
392.534	1983.38
392.759	2028.38
392.984	1972.38
393.208	1943.38
393.433	1971.38
393.658	1958.38
393.882	1927.38
394.107	1943.38
394.331	1943.38
394.556	1949.38
394.78	1977.38
395.005	1966.38
395.229	1973.38
395.454	2008.38
395.678	2032.38
395.903	2028.38
396.127	2013.38
396.352	2038.38
396.576	2021.38
396.801	1987.38
397.025	2027.38
397.249	2085.38
397.474	2107.38
397.698	2124.38
397.922	2129.38
398.147	2084.38
398.371	2103.38
398.595	2183.38
398.82	2322.38
399.044	2425.38
399.268	2511.38
399.492	2678.38
399.717	2847.38
399.941	2857.38
400.165	2759.38
400.389	2599.38
400.613	2529.38
400.837	2453.38
401.062	2380.38
401.286	2379.38
401.51	2289.38
401.734	2282.38
401.958	2332.38
402.182	2342.38
402.406	2273.38
402.63	2269.38
402.854	2246.38
403.078	2295.38
403.302	2329.38
403.526	2346.38
403.75	2329.38
403.974	2343.38
404.198	2349.38
404.422	2354.38
404.645	2314.38
404.869	2328.38
405.093	2396.38
405.317	2332.38
405.541	2409.38
405.765	2385.38
405.988	2420.38
406.212	2395.38
406.436	2410.38
406.66	2491.38
406.883	2471.38
407.107	2623.38
407.331	2630.38
407.555	2653.38
407.778	2655.38
408.002	2662.38
408.226	2652.38
408.449	2611.38
408.673	2539.38
408.896	2548.38
409.12	2510.38
409.344	2459.38
409.567	2461.38
409.791	2486.38
410.014	2456.38
410.238	2400.38
410.461	2465.38
410.685	2396.38
410.908	2351.38
411.132	2395.38
411.355	2311.38
411.578	2334.38
411.802	2346.38
412.025	2350.38
412.249	2368.38
412.472	2371.38
412.695	2335.38
412.919	2270.38
413.142	2326.38
413.365	2313.38
413.589	2257.38
413.812	2285.38
414.035	2289.38
414.258	2304.38
414.482	2305.38
414.705	2310.38
414.928	2292.38
415.151	2270.38
415.374	2283.38
415.597	2276.38
415.821	2180.38
416.044	2188.38
416.267	2138.38
416.49	2196.38
416.713	2243.38
416.936	2185.38
417.159	2161.38
417.382	2141.38
417.605	2162.38
417.828	2140.38
418.051	2201.38
418.274	2189.38
418.497	2202.38
418.72	2176.38
418.943	2200.38
419.166	2325.38
419.389	2475.38
419.611	2446.38
419.834	2363.38
420.057	2274.38
420.28	2238.38
420.503	2152.38
420.726	2141.38
420.948	2142.38
421.171	2161.38
421.394	2189.38
421.617	2143.38
421.839	2171.38
422.062	2194.38
422.285	2147.38
422.507	2201.38
422.73	2195.38
422.953	2187.38
423.175	2228.38
423.398	2230.38
423.621	2177.38
423.843	2238.38
424.066	2210.38
424.288	2205.38
424.511	2132.38
424.733	2159.38
424.956	2179.38
425.178	2149.38
425.401	2170.38
425.623	2203.38
425.846	2169.38
426.068	2122.38
426.291	2145.38
426.513	2123.38
426.735	2118.38
426.958	2145.38
427.18	2075.38
427.402	2112.38
427.625	2099.38
427.847	2082.38
428.069	2026.38
428.292	2099.38
428.514	2038.38
428.736	2063.38
428.958	2078.38
429.181	2043.38
429.403	2052.38
429.625	2052.38
429.847	2052.38
430.069	2002.38
430.292	2023.38
430.514	2051.38
430.736	2038.38
430.958	2036.38
431.18	2081.38
431.402	2050.38
431.624	2053.38
431.846	2026.38
432.068	2084.38
432.29	2113.38
432.512	2062.38
432.734	2085.38
432.956	2086.38
433.178	2085.38
433.4	2141.38
433.622	2161.38
433.844	2124.38
434.066	2169.38
434.287	2139.38
434.509	2124.38
434.731	2191.38
434.953	2243.38
435.175	2264.38
435.397	2329.38
435.618	2180.38
435.84	2180.38
436.062	2102.38
436.284	2070.38
436.505	2075.38
436.727	2053.38
436.949	2092.38
437.17	2094.38
437.392	2068.38
437.614	2052.38
437.835	1990.38
438.057	1994.38
438.278	1988.38
438.5	1974.38
438.721	1988.38
438.943	2027.38
439.165	2018.38
439.386	1988.38
439.608	2015.38
439.829	2051.38
440.05	2077.38
440.272	2057.38
440.493	2102.38
440.715	2131.38
440.936	2117.38
441.158	2110.38
441.379	2131.38
441.6	2186.38
441.822	2197.38
442.043	2221.38
442.264	2201.38
442.486	2167.38
442.707	2183.38
442.928	2204.38
443.149	2258.38
443.371	2237.38
443.592	2340.38
443.813	2275.38
444.034	2218.38
444.255	2335.38
444.476	2382.38
444.698	2405.38
444.919	2494.38
445.14	2573.38
445.361	2430.38
445.582	2330.38
445.803	2200.38
446.024	2156.38
446.245	2186.38
446.466	2141.38
446.687	2038.38
446.908	2126.38
447.129	2052.38
447.35	2020.38
447.571	2017.38
447.792	1915.38
448.013	1952.38
448.234	1945.38
448.455	1953.38
448.675	1931.38
448.896	1909.38
449.117	1876.38
449.338	1896.38
449.559	1873.38
449.779	1872.38
450	1839.38
450.221	1868.38
450.442	1912.38
450.662	1914.38
450.883	1882.38
451.104	1981.38
451.324	1908.38
451.545	1891.38
451.766	1903.38
451.986	1863.38
452.207	1857.38
452.428	1872.38
452.648	1869.38
452.869	1789.38
453.089	1856.38
453.31	1884.38
453.53	1806.38
453.751	1845.38
453.971	1819.38
454.192	1869.38
454.412	1880.38
454.633	1840.38
454.853	1806.38
455.073	1785.38
455.294	1809.38
455.514	1819.38
455.734	1827.38
455.955	1864.38
456.175	1854.38
456.395	1791.38
456.616	1812.38
456.836	1805.38
457.056	1817.38
457.276	1769.38
457.497	1879.38
457.717	1825.38
457.937	1842.38
458.157	1899.38
458.377	1880.38
458.598	1891.38
458.818	1921.38
459.038	1954.38
459.258	2003.38
459.478	2143.38
459.698	2293.38
459.918	2321.38
460.138	2252.38
460.358	2310.38
460.578	2293.38
460.798	2423.38
461.018	2403.38
461.238	2417.38
461.458	2383.38
461.678	2334.38
461.898	2374.38
462.118	2331.38
462.338	2492.38
462.558	2560.38
462.777	2598.38
462.997	2714.38
463.217	2789.38
463.437	2906.38
463.657	2768.38
463.876	2674.38
464.096	2659.38
464.316	2609.38
464.536	2634.38
464.755	2532.38
464.975	2460.38
465.195	2408.38
465.414	2286.38
465.634	2243.38
465.854	2179.38
466.073	2178.38
466.293	2130.38
466.512	2077.38
466.732	2066.38
466.951	2076.38
467.171	2067.38
467.391	2030.38
467.61	2004.38
467.829	2030.38
468.049	2003.38
468.268	1965.38
468.488	1983.38
468.707	1977.38
468.927	2004.38
469.146	1991.38
469.365	2006.38
469.585	1988.38
469.804	2036.38
470.023	2028.38
470.243	2038.38
470.462	2036.38
470.681	2051.38
470.901	2052.38
471.12	2026.38
471.339	2001.38
471.558	2039.38
471.777	2049.38
471.997	2013.38
472.216	1975.38
472.435	1973.38
472.654	1938.38
472.873	1981.38
473.092	1953.38
473.311	1926.38
473.53	1983.38
473.749	1967.38
473.968	1946.38
474.187	1925.38
474.406	1963.38
474.625	2000.38
474.844	1968.38
475.063	1995.38
475.282	2036.38
475.501	2017.38
475.72	2033.38
475.939	2018.38
476.158	2087.38
476.377	2051.38
476.596	2019.38
476.814	2091.38
477.033	2088.38
477.252	2127.38
477.471	2180.38
477.69	2217.38
477.908	2227.38
478.127	2231.38
478.346	2257.38
478.564	2353.38
478.783	2363.38
479.002	2444.38
479.22	2542.38
479.439	2467.38
479.658	2411.38
479.876	2429.38
480.095	2485.38
480.313	2476.38
480.532	2492.38
480.751	2533.38
480.969	2481.38
481.188	2422.38
481.406	2417.38
481.624	2389.38
481.843	2343.38
482.061	2364.38
482.28	2389.38
482.498	2375.38
482.717	2363.38
482.935	2390.38
483.153	2436.38
483.372	2441.38
483.59	2512.38
483.808	2417.38
484.027	2429.38
484.245	2427.38
484.463	2445.38
484.681	2453.38
484.9	2431.38
485.118	2479.38
485.336	2482.38
485.554	2479.38
485.772	2467.38
485.99	2503.38
486.209	2499.38
486.427	2506.38
486.645	2449.38
486.863	2539.38
487.081	2519.38
487.299	2489.38
487.517	2506.38
487.735	2489.38
487.953	2526.38
488.171	2493.38
488.389	2493.38
488.607	2453.38
488.825	2466.38
489.043	2451.38
489.261	2459.38
489.479	2472.38
489.696	2450.38
489.914	2458.38
490.132	2519.38
490.35	2505.38
490.568	2500.38
490.786	2519.38
491.003	2461.38
491.221	2516.38
491.439	2454.38
491.657	2477.38
491.874	2535.38
492.092	2526.38
492.31	2534.38
492.527	2510.38
492.745	2547.38
492.963	2487.38
493.18	2514.38
493.398	2502.38
493.615	2522.38
493.833	2543.38
494.05	2622.38
494.268	2598.38
494.485	2554.38
494.703	2579.38
494.92	2609.38
495.138	2585.38
495.355	2582.38
495.573	2619.38
495.79	2654.38
496.008	2693.38
496.225	2690.38
496.442	2681.38
496.66	2698.38
496.877	2778.38
497.094	2754.38
497.312	2832.38
497.529	2881.38
497.746	2957.38
497.963	2997.38
498.181	3187.38
498.398	3201.38
498.615	3364.38
498.832	3486.38
499.049	3681.38
499.267	3867.38
499.484	4076.38
499.701	4403.38
499.918	4580.38
500.135	4883.38
500.352	5145.38
500.569	5178.38
500.786	5136.38
501.003	5078.38
501.22	4881.38
501.437	4549.38
501.654	4260.38
501.871	4099.38
502.088	3865.38
502.305	3692.38
502.522	3502.38
502.739	3356.38
502.956	3251.38
503.172	3181.38
503.389	3004.38
503.606	2945.38
503.823	2966.38
504.04	2917.38
504.256	2891.38
504.473	2820.38
504.69	2803.38
504.907	2767.38
505.123	2731.38
505.34	2656.38
505.557	2582.38
505.773	2499.38
505.99	2462.38
506.207	2382.38
506.423	2371.38
506.64	2345.38
506.856	2272.38
507.073	2298.38
507.289	2244.38
507.506	2273.38
507.722	2233.38
507.939	2221.38
508.155	2249.38
508.372	2226.38
508.588	2169.38
508.805	2133.38
509.021	2115.38
509.238	2142.38
509.454	2141.38
509.67	2092.38
509.887	2023.38
510.103	2056.38
510.319	2039.38
510.536	2027.38
510.752	2052.38
510.968	2075.38
511.184	2026.38
511.401	2025.38
511.617	2050.38
511.833	2048.38
512.049	2007.38
512.265	2026.38
512.481	1987.38
512.698	2009.38
512.914	1963.38
513.13	2021.38
513.346	2018.38
513.562	2005.38
513.778	2025.38
513.994	2051.38
514.21	2053.38
514.426	2040.38
514.642	2025.38
514.858	2074.38
515.074	2051.38
515.29	2102.38
515.506	2068.38
515.721	2095.38
515.937	2156.38
516.153	2117.38
516.369	2172.38
516.585	2237.38
516.801	2244.38
517.016	2330.38
517.232	2343.38
517.448	2364.38
517.664	2431.38
517.879	2467.38
518.095	2422.38
518.311	2394.38
518.527	2365.38
518.742	2289.38
518.958	2284.38
519.173	2233.38
519.389	2185.38
519.605	2099.38
519.82	2125.38
520.036	2043.38
520.251	1997.38
520.467	2001.38
520.682	1981.38
520.898	1989.38
521.113	1932.38
521.329	1951.38
521.544	1917.38
521.76	1913.38
521.975	1908.38
522.19	1898.38
522.406	1879.38
522.621	1897.38
522.836	1881.38
523.052	1834.38
523.267	1827.38
523.482	1838.38
523.698	1853.38
523.913	1805.38
524.128	1837.38
524.343	1820.38
524.559	1825.38
524.774	1798.38
524.989	1773.38
525.204	1823.38
525.419	1802.38
525.634	1785.38
525.849	1808.38
526.064	1772.38
526.28	1783.38
526.495	1773.38
526.71	1767.38
526.925	1779.38
527.14	1742.38
527.355	1738.38
527.57	1733.38
527.785	1769.38
527.999	1756.38
528.214	1746.38
528.429	1751.38
528.644	1772.38
528.859	1758.38
529.074	1761.38
529.289	1753.38
529.503	1748.38
529.718	1761.38
529.933	1727.38
530.148	1721.38
530.363	1742.38
530.577	1698.38
530.792	1695.38
531.007	1717.38
531.221	1753.38
531.436	1715.38
531.651	1685.38
531.865	1700.38
532.08	1701.38
532.295	1714.38
532.509	1698.38
532.724	1688.38
532.938	1727.38
533.153	1697.38
533.367	1721.38
533.582	1719.38
533.796	1724.38
534.011	1686.38
534.225	1701.38
534.44	1663.38
534.654	1669.38
534.868	1633.38
535.083	1670.38
535.297	1685.38
535.511	1675.38
535.726	1649.38
535.94	1637.38
536.154	1630.38
536.369	1609.38
536.583	1597.38
536.797	1580.38
537.011	1641.38
537.225	1595.38
537.44	1607.38
537.654	1580.38
537.868	1591.38
538.082	1615.38
538.296	1602.38
538.51	1563.38
538.724	1621.38
538.938	1574.38
539.153	1551.38
539.367	1574.38
539.581	1558.38
539.795	1528.38
540.009	1555.38
540.222	1546.38
540.436	1527.38
540.65	1550.38
540.864	1531.38
541.078	1561.38
541.292	1556.38
541.506	1559.38
541.72	1510.38
541.934	1524.38
542.147	1507.38
542.361	1549.38
542.575	1532.38
542.789	1554.38
543.002	1522.38
543.216	1534.38
543.43	1521.38
543.644	1515.38
543.857	1521.38
544.071	1561.38
544.285	1527.38
544.498	1549.38
544.712	1511.38
544.925	1537.38
545.139	1551.38
545.352	1513.38
545.566	1552.38
545.779	1546.38
545.993	1537.38
546.206	1505.38
546.42	1502.38
546.633	1546.38
546.847	1538.38
547.06	1549.38
547.274	1547.38
547.487	1551.38
547.7	1547.38
547.914	1581.38
548.127	1550.38
548.34	1553.38
548.554	1534.38
548.767	1561.38
548.98	1546.38
549.193	1521.38
549.407	1548.38
549.62	1605.38
549.833	1588.38
550.046	1576.38
550.259	1539.38
550.473	1508.38
550.686	1544.38
550.899	1548.38
551.112	1500.38
551.325	1515.38
551.538	1493.38
551.751	1487.38
551.964	1500.38
552.177	1538.38
552.39	1515.38
552.603	1527.38
552.816	1548.38
553.029	1600.38
553.242	1598.38
553.455	1592.38
553.667	1620.38
553.88	1590.38
554.093	1567.38
554.306	1547.38
554.519	1486.38
554.732	1494.38
554.944	1470.38
555.157	1489.38
555.37	1436.38
555.583	1461.38
555.795	1382.38
556.008	1379.38
556.221	1343.38
556.433	1379.38
556.646	1355.38
556.859	1356.38
557.071	1347.38
557.284	1328.38
557.496	1343.38
557.709	1331.38
557.921	1345.38
558.134	1295.38
558.346	1290.38
558.559	1287.38
558.771	1331.38
558.984	1291.38
559.196	1284.38
559.409	1302.38
559.621	1274.38
559.833	1259.38
560.046	1254.38
560.258	1259.38
560.47	1244.38
560.683	1259.38
560.895	1266.38
561.107	1249.38
561.32	1266.38
561.532	1265.38
561.744	1266.38
561.956	1301.38
562.168	1297.38
562.381	1256.38
562.593	1277.38
562.805	1281.38
563.017	1289.38
563.229	1278.38
563.441	1268.38
563.653	1287.38
563.865	1298.38
564.077	1288.38
564.289	1309.38
564.501	1351.38
564.713	1339.38
564.925	1378.38
565.137	1395.38
565.349	1421.38
565.561	1461.38
565.773	1507.38
565.985	1531.38
566.197	1585.38
566.408	1623.38
566.62	1661.38
566.832	1727.38
567.044	1795.38
567.255	1782.38
567.467	1787.38
567.679	1852.38
567.891	1885.38
568.102	1833.38
568.314	1827.38
568.526	1750.38
568.737	1624.38
568.949	1532.38
569.161	1491.38
569.372	1471.38
569.584	1352.38
569.795	1351.38
570.007	1332.38
570.218	1299.38
570.43	1293.38
570.641	1260.38
570.853	1232.38
571.064	1243.38
571.276	1221.38
571.487	1197.38
571.698	1152.38
571.91	1154.38
572.121	1110.38
572.333	1116.38
572.544	1086.38
572.755	1077.38
572.966	1125.38
573.178	1050.38
573.389	1068.38
573.6	1011.38
573.811	1019.38
574.023	1005.38
574.234	1000.38
574.445	1006.38
574.656	1003.38
574.867	1003.38
575.078	977.38
575.289	989.38
575.501	1023.38
575.712	969.38
575.923	967.38
576.134	979.38
576.345	954.38
576.556	947.38
576.767	938.38
576.978	934.38
577.188	918.38
577.399	935.38
577.61	929.38
577.821	962.38
578.032	916.38
578.243	887.38
578.454	932.38
578.665	912.38
578.875	897.38
579.086	876.38
579.297	892.38
579.508	853.38
579.718	898.38
579.929	885.38
580.14	855.38
580.35	877.38
580.561	858.38
580.772	883.38
580.982	876.38
581.193	852.38
581.403	854.38
581.614	838.38
581.825	811.38
582.035	853.38
582.246	828.38
582.456	822.38
582.667	833.38
582.877	821.38
583.087	822.38
583.298	841.38
583.508	839.38
583.719	814.38
583.929	805.38
584.139	838.38
584.35	773.38
584.56	805.38
584.77	829.38
584.981	811.38
585.191	825.38
585.401	790.38
585.611	805.38
585.821	803.38
586.032	810.38
586.242	788.38
586.452	789.38
586.662	797.38
586.872	814.38
587.082	767.38
587.292	779.38
587.502	789.38
587.713	795.38
587.923	789.38
588.133	770.38
588.343	789.38
588.553	787.38
588.762	774.38
588.972	807.38
589.182	979.38
589.392	958.38
589.602	836.38
589.812	964.38
590.022	882.38
590.232	797.38
590.441	809.38
590.651	776.38
590.861	815.38
591.071	800.38
591.281	806.38
591.49	836.38
591.7	795.38
591.91	826.38
592.119	815.38
592.329	833.38
592.539	859.38
592.748	850.38
592.958	877.38
593.167	838.38
593.377	887.38
593.587	865.38
593.796	882.38
594.006	853.38
594.215	866.38
594.424	881.38
594.634	885.38
594.843	860.38
595.053	823.38
595.262	821.38
595.472	806.38
595.681	784.38
595.89	765.38
596.1	761.38
596.309	756.38
596.518	768.38
596.727	717.38
596.937	722.38
597.146	709.38
597.355	709.38
597.564	709.38
597.774	677.38
597.983	666.38
598.192	680.38
598.401	680.38
598.61	678.38
598.819	689.38
599.028	656.38
599.237	651.38
599.446	677.38
599.655	651.38
599.864	657.38
600.073	635.38
600.282	639.38
600.491	640.38
600.7	651.38
600.909	635.38
601.118	639.38
601.327	619.38
601.536	609.38
601.745	623.38
601.953	648.38
602.162	633.38
602.371	607.38
602.58	597.38
602.789	601.38
602.997	592.38
603.206	616.38
603.415	631.38
603.623	604.38
603.832	604.38
604.041	603.38
604.249	582.38
604.458	612.38
604.666	596.38
604.875	567.38
605.084	598.38
605.292	579.38
605.501	585.38
605.709	570.38
605.918	583.38
606.126	580.38
606.334	569.38
606.543	581.38
606.751	564.38
606.96	577.38
607.168	580.38
607.376	552.38
607.585	577.38
607.793	594.38
608.001	552.38
608.21	565.38
608.418	568.38
608.626	555.38
608.834	572.38
609.043	555.38
609.251	546.38
609.459	570.38
609.667	544.38
609.875	547.38
610.083	539.38
610.291	545.38
610.499	567.38
610.707	532.38
610.916	517.38
611.124	534.38
611.332	553.38
611.54	526.38
611.748	553.38
611.955	529.38
612.163	543.38
612.371	554.38
612.579	540.38
612.787	537.38
612.995	547.38
613.203	538.38
613.411	522.38
613.618	509.38
613.826	532.38
614.034	541.38
614.242	535.38
614.449	526.38
614.657	517.38
614.865	516.38
615.072	518.38
615.28	530.38
615.488	509.38
615.695	525.38
615.903	540.38
616.111	541.38
616.318	524.38
616.526	525.38
616.733	527.38
616.941	500.38
617.148	499.38
617.356	489.38
617.563	494.38
617.771	529.38
617.978	535.38
618.185	505.38
618.393	497.38
618.6	510.38
618.807	499.38
619.015	513.38
619.222	487.38
619.429	507.38
619.637	483.38
619.844	479.38
620.051	486.38
620.258	490.38
620.466	501.38
620.673	470.38
620.88	466.38
621.087	463.38
621.294	472.38
621.501	476.38
621.708	486.38
621.915	468.38
622.122	455.38
622.329	466.38
622.536	462.38
622.743	461.38
622.95	466.38
623.157	471.38
623.364	470.38
623.571	464.38
623.778	471.38
623.985	457.38
624.192	459.38
624.399	456.38
624.606	459.38
624.812	450.38
625.019	453.38
625.226	458.38
625.433	436.38
625.639	437.38
625.846	423.38
626.053	423.38
626.259	434.38
626.466	436.38
626.673	428.38
626.879	418.38
627.086	435.38
627.293	435.38
627.499	417.38
627.706	421.38
627.912	403.38
628.119	403.38
628.325	427.38
628.532	417.38
628.738	435.38
628.945	413.38
629.151	411.38
629.357	438.38
629.564	389.38
629.77	396.38
629.976	399.38
630.183	412.38
630.389	395.38
630.595	417.38
630.802	391.38
631.008	393.38
631.214	403.38
631.42	401.38
631.627	412.38
631.833	389.38
632.039	391.38
632.245	376.38
632.451	389.38
632.657	387.38
632.863	370.38
633.069	393.38
633.275	382.38
633.481	366.38
633.688	364.38
633.893	385.38
634.099	363.38
634.305	369.38
634.511	365.38
634.717	348.38
634.923	358.38
635.129	357.38
635.335	377.38
635.541	374.38
635.747	361.38
635.952	358.38
636.158	370.38
636.364	358.38
636.57	355.38
636.775	359.38
636.981	387.38
637.187	350.38
637.392	353.38
637.598	361.38
637.804	369.38
638.009	349.38
638.215	348.38
638.421	366.38
638.626	366.38
638.832	337.38
639.037	350.38
639.243	331.38
639.448	325.38
639.654	342.38
639.859	364.38
640.065	323.38
640.27	353.38
640.475	320.38
640.681	325.38
640.886	334.38
641.091	338.38
641.297	341.38
641.502	353.38
641.707	373.38
641.913	353.38
642.118	339.38
642.323	317.38
642.528	349.38
642.733	333.38
642.939	323.38
643.144	324.38
643.349	315.38
643.554	333.38
643.759	329.38
643.964	315.38
644.169	317.38
644.374	345.38
644.579	315.38
644.784	345.38
644.989	334.38
645.194	321.38
645.399	335.38
645.604	346.38
645.809	317.38
646.014	328.38
646.219	314.38
646.423	323.38
646.628	356.38
646.833	359.38
647.038	331.38
647.243	346.38
647.447	355.38
647.652	333.38
647.857	332.38
648.062	341.38
648.266	332.38
648.471	329.38
648.676	337.38
648.88	324.38
649.085	335.38
649.289	356.38
649.494	342.38
649.698	344.38
649.903	325.38
650.107	324.38
650.312	326.38
650.516	344.38
650.721	307.38
650.925	336.38
651.13	313.38
651.334	305.38
651.539	315.38
651.743	312.38
651.947	309.38
652.152	309.38
652.356	296.38
652.56	301.38
652.764	316.38
652.969	290.38
653.173	296.38
653.377	285.38
653.581	287.38
653.785	295.38
653.99	286.38
654.194	284.38
654.398	303.38
654.602	276.38
654.806	299.38
655.01	291.38
655.214	284.38
655.418	319.38
655.622	307.38
655.826	312.38
656.03	341.38
656.234	350.38
656.438	316.38
656.642	333.38
656.846	316.38
657.049	301.38
657.253	284.38
657.457	259.38
657.661	247.38
657.865	235.38
658.068	205.38
658.272	196.38
658.476	191.38
658.68	171.38
658.883	162.38
659.087	173.38
659.291	151.38
659.494	149.38
659.698	136.38
659.901	146.38
660.105	145.38
660.309	124.38
660.512	128.38
660.716	128.38
660.919	127.38
661.123	119.38
661.326	116.38
661.53	108.38
661.733	118.38
661.936	108.38
662.14	90.38
662.343	94.38
662.546	107.38
662.75	110.38
662.953	100.38
663.156	68.38
663.36	87.38
663.563	96.38
663.766	86.38
663.969	84.38
664.173	74.38
664.376	76.38
664.579	82.38
664.782	84.38
664.985	92.38
665.188	86.38
665.391	86.38
665.594	83.38
665.797	78.38
666	84.38
666.203	82.38
666.406	86.38
666.609	92.38
666.812	94.38
667.015	81.38
667.218	92.38
667.421	82.38
667.624	84.38
667.827	80.38
668.03	75.38
668.232	78.38
668.435	106.38
668.638	86.38
668.841	76.38
669.043	74.38
669.246	74.38
669.449	83.38
669.651	75.38
669.854	83.38
670.057	101.38
670.259	83.38
670.462	90.38
670.665	79.38
670.867	85.38
671.07	82.38
671.272	87.38
671.475	86.38
671.677	91.38
671.88	69.38
672.082	76.38
672.284	81.38
672.487	88.38
672.689	79.38
672.892	93.38
