Data from NiCl2@0.25M.TitratingCurve.Agarose3%dH2O.NegLispCup.LampEnergy10.LIBS07252019_HRD10591_18-25-08-573.txt Node
Date: Thu Jul 25 18:25:08 EDT 2019
User: cochatt
Spectrometer: HR+D1059
Trigger mode: 1
Integration Time (sec): 1.000000E-1
Scans to average: 1
Electric dark correction enabled: true
Nonlinearity correction enabled: false
Boxcar width: 0
XAxis mode: Wavelengths
Number of Pixels in Spectrum: 2048
>>>>>Begin Spectral Data<<<<<
223.165	-9.25
223.4	-9.25
223.635	-9.25
223.869	-16.25
224.104	-8.25
224.338	-15.25
224.573	-18.25
224.808	-18.25
225.042	-16.25
225.277	-0.25
225.511	-11.25
225.746	3.75
225.98	7.75
226.215	6.75
226.449	13.75
226.683	20.75
226.918	35.75
227.152	24.75
227.387	33.75
227.621	35.75
227.856	48.75
228.09	51.75
228.324	69.75
228.559	63.75
228.793	68.75
229.027	123.75
229.262	121.75
229.496	130.75
229.73	125.75
229.964	145.75
230.199	140.75
230.433	139.75
230.667	146.75
230.901	139.75
231.136	141.75
231.37	141.75
231.604	141.75
231.838	148.75
232.072	144.75
232.306	160.75
232.541	163.75
232.775	159.75
233.009	167.75
233.243	159.75
233.477	156.75
233.711	163.75
233.945	157.75
234.179	155.75
234.413	161.75
234.647	162.75
234.881	162.75
235.115	164.75
235.349	168.75
235.583	163.75
235.817	175.75
236.051	156.75
236.285	171.75
236.519	177.75
236.753	174.75
236.987	184.75
237.221	185.75
237.455	179.75
237.689	171.75
237.922	182.75
238.156	175.75
238.39	179.75
238.624	176.75
238.858	186.75
239.091	181.75
239.325	178.75
239.559	184.75
239.793	186.75
240.027	195.75
240.26	179.75
240.494	196.75
240.728	197.75
240.961	204.75
241.195	220.75
241.429	205.75
241.662	222.75
241.896	213.75
242.13	219.75
242.363	206.75
242.597	216.75
242.83	210.75
243.064	202.75
243.298	223.75
243.531	219.75
243.765	233.75
243.998	216.75
244.232	225.75
244.465	235.75
244.699	225.75
244.932	235.75
245.166	228.75
245.399	226.75
245.633	226.75
245.866	240.75
246.099	246.75
246.333	243.75
246.566	239.75
246.8	259.75
247.033	275.75
247.266	236.75
247.5	235.75
247.733	266.75
247.966	248.75
248.2	269.75
248.433	262.75
248.666	251.75
248.899	259.75
249.133	256.75
249.366	258.75
249.599	281.75
249.832	287.75
250.066	275.75
250.299	275.75
250.532	267.75
250.765	282.75
250.998	281.75
251.231	296.75
251.465	276.75
251.698	275.75
251.931	289.75
252.164	297.75
252.397	299.75
252.63	285.75
252.863	299.75
253.096	289.75
253.329	304.75
253.562	313.75
253.795	311.75
254.028	309.75
254.261	299.75
254.494	312.75
254.727	312.75
254.96	308.75
255.193	316.75
255.426	321.75
255.659	341.75
255.892	307.75
256.124	303.75
256.357	319.75
256.59	329.75
256.823	321.75
257.056	323.75
257.289	315.75
257.521	324.75
257.754	323.75
257.987	323.75
258.22	339.75
258.452	335.75
258.685	346.75
258.918	312.75
259.151	336.75
259.383	349.75
259.616	343.75
259.849	330.75
260.081	356.75
260.314	345.75
260.547	346.75
260.779	364.75
261.012	346.75
261.244	355.75
261.477	360.75
261.71	360.75
261.942	356.75
262.175	367.75
262.407	371.75
262.64	376.75
262.872	370.75
263.105	369.75
263.337	382.75
263.57	368.75
263.802	380.75
264.035	404.75
264.267	391.75
264.499	378.75
264.732	381.75
264.964	379.75
265.197	377.75
265.429	405.75
265.661	382.75
265.894	387.75
266.126	393.75
266.358	397.75
266.591	403.75
266.823	419.75
267.055	401.75
267.287	402.75
267.52	403.75
267.752	400.75
267.984	401.75
268.216	415.75
268.448	416.75
268.681	392.75
268.913	419.75
269.145	414.75
269.377	423.75
269.609	425.75
269.841	423.75
270.073	402.75
270.306	436.75
270.538	421.75
270.77	415.75
271.002	424.75
271.234	426.75
271.466	428.75
271.698	429.75
271.93	429.75
272.162	431.75
272.394	443.75
272.626	452.75
272.858	443.75
273.09	461.75
273.322	421.75
273.553	448.75
273.785	456.75
274.017	449.75
274.249	442.75
274.481	451.75
274.713	460.75
274.945	458.75
275.176	442.75
275.408	474.75
275.64	475.75
275.872	477.75
276.104	487.75
276.335	473.75
276.567	453.75
276.799	467.75
277.031	487.75
277.262	472.75
277.494	487.75
277.726	485.75
277.957	469.75
278.189	509.75
278.421	469.75
278.652	475.75
278.884	492.75
279.115	487.75
279.347	500.75
279.579	487.75
279.81	490.75
280.042	507.75
280.273	481.75
280.505	519.75
280.736	526.75
280.968	532.75
281.199	518.75
281.431	544.75
281.662	525.75
281.894	475.75
282.125	521.75
282.356	518.75
282.588	525.75
282.819	512.75
283.051	519.75
283.282	520.75
283.513	532.75
283.745	523.75
283.976	536.75
284.207	520.75
284.439	552.75
284.67	574.75
284.901	574.75
285.132	552.75
285.364	549.75
285.595	536.75
285.826	539.75
286.057	565.75
286.288	565.75
286.52	579.75
286.751	561.75
286.982	559.75
287.213	584.75
287.444	562.75
287.675	551.75
287.906	578.75
288.138	560.75
288.369	559.75
288.6	587.75
288.831	592.75
289.062	579.75
289.293	597.75
289.524	556.75
289.755	589.75
289.986	603.75
290.217	585.75
290.448	588.75
290.679	600.75
290.91	599.75
291.141	556.75
291.371	587.75
291.602	602.75
291.833	570.75
292.064	584.75
292.295	588.75
292.526	591.75
292.757	581.75
292.987	596.75
293.218	581.75
293.449	594.75
293.68	593.75
293.91	592.75
294.141	600.75
294.372	580.75
294.603	587.75
294.833	599.75
295.064	613.75
295.295	609.75
295.525	596.75
295.756	602.75
295.987	621.75
296.217	619.75
296.448	617.75
296.679	611.75
296.909	597.75
297.14	631.75
297.37	614.75
297.601	633.75
297.831	631.75
298.062	631.75
298.292	642.75
298.523	637.75
298.753	646.75
298.984	650.75
299.214	645.75
299.445	633.75
299.675	660.75
299.905	631.75
300.136	643.75
300.366	643.75
300.597	653.75
300.827	680.75
301.057	658.75
301.288	706.75
301.518	691.75
301.748	687.75
301.979	655.75
302.209	681.75
302.439	651.75
302.669	652.75
302.9	669.75
303.13	662.75
303.36	667.75
303.59	670.75
303.82	668.75
304.051	636.75
304.281	667.75
304.511	664.75
304.741	679.75
304.971	688.75
305.201	674.75
305.431	659.75
305.661	671.75
305.891	657.75
306.121	685.75
306.352	672.75
306.582	647.75
306.812	652.75
307.042	662.75
307.272	661.75
307.502	651.75
307.731	667.75
307.961	647.75
308.191	640.75
308.421	652.75
308.651	651.75
308.881	662.75
309.111	666.75
309.341	669.75
309.571	675.75
309.8	658.75
310.03	671.75
310.26	653.75
310.49	631.75
310.72	650.75
310.949	669.75
311.179	662.75
311.409	703.75
311.639	687.75
311.868	682.75
312.098	677.75
312.328	704.75
312.557	703.75
312.787	679.75
313.017	701.75
313.246	720.75
313.476	705.75
313.706	705.75
313.935	714.75
314.165	710.75
314.394	693.75
314.624	725.75
314.853	683.75
315.083	731.75
315.312	712.75
315.542	713.75
315.771	721.75
316.001	689.75
316.23	712.75
316.46	692.75
316.689	714.75
316.919	687.75
317.148	735.75
317.377	714.75
317.607	699.75
317.836	694.75
318.065	684.75
318.295	679.75
318.524	704.75
318.753	711.75
318.983	722.75
319.212	708.75
319.441	707.75
319.67	686.75
319.9	703.75
320.129	705.75
320.358	712.75
320.587	701.75
320.816	707.75
321.046	721.75
321.275	693.75
321.504	712.75
321.733	714.75
321.962	704.75
322.191	712.75
322.42	691.75
322.649	704.75
322.878	709.75
323.108	714.75
323.337	709.75
323.566	723.75
323.795	747.75
324.024	729.75
324.253	729.75
324.482	712.75
324.71	744.75
324.939	731.75
325.168	743.75
325.397	743.75
325.626	753.75
325.855	736.75
326.084	791.75
326.313	783.75
326.542	755.75
326.77	779.75
326.999	767.75
327.228	754.75
327.457	738.75
327.686	770.75
327.914	781.75
328.143	766.75
328.372	765.75
328.6	782.75
328.829	751.75
329.058	776.75
329.287	771.75
329.515	769.75
329.744	787.75
329.972	768.75
330.201	773.75
330.43	775.75
330.658	772.75
330.887	793.75
331.115	794.75
331.344	795.75
331.572	829.75
331.801	825.75
332.03	877.75
332.258	887.75
332.486	903.75
332.715	938.75
332.943	1013.75
333.172	1009.75
333.4	1060.75
333.629	1056.75
333.857	1060.75
334.085	1065.75
334.314	1000.75
334.542	1004.75
334.771	1000.75
334.999	934.75
335.227	980.75
335.455	975.75
335.684	940.75
335.912	949.75
336.14	935.75
336.369	962.75
336.597	932.75
336.825	937.75
337.053	941.75
337.281	936.75
337.51	898.75
337.738	880.75
337.966	867.75
338.194	862.75
338.422	863.75
338.65	858.75
338.878	834.75
339.106	837.75
339.334	840.75
339.562	843.75
339.79	816.75
340.018	785.75
340.246	795.75
340.474	791.75
340.702	818.75
340.93	833.75
341.158	807.75
341.386	816.75
341.614	800.75
341.842	801.75
342.07	789.75
342.298	797.75
342.526	799.75
342.754	788.75
342.981	786.75
343.209	839.75
343.437	845.75
343.665	894.75
343.893	982.75
344.12	1002.75
344.348	970.75
344.576	889.75
344.804	886.75
345.031	824.75
345.259	825.75
345.487	795.75
345.714	797.75
345.942	812.75
346.17	796.75
346.397	767.75
346.625	773.75
346.853	796.75
347.08	779.75
347.308	779.75
347.535	792.75
347.763	799.75
347.99	791.75
348.218	800.75
348.445	794.75
348.673	757.75
348.9	749.75
349.128	777.75
349.355	775.75
349.583	763.75
349.81	761.75
350.037	757.75
350.265	741.75
350.492	752.75
350.72	732.75
350.947	763.75
351.174	748.75
351.402	729.75
351.629	744.75
351.856	720.75
352.083	730.75
352.311	703.75
352.538	745.75
352.765	719.75
352.992	737.75
353.22	728.75
353.447	755.75
353.674	756.75
353.901	751.75
354.128	705.75
354.355	729.75
354.583	740.75
354.81	737.75
355.037	747.75
355.264	736.75
355.491	763.75
355.718	720.75
355.945	751.75
356.172	758.75
356.399	728.75
356.626	727.75
356.853	741.75
357.08	759.75
357.307	742.75
357.534	745.75
357.761	757.75
357.988	765.75
358.215	701.75
358.441	724.75
358.668	735.75
358.895	739.75
359.122	744.75
359.349	754.75
359.576	737.75
359.802	743.75
360.029	751.75
360.256	725.75
360.483	749.75
360.709	725.75
360.936	757.75
361.163	737.75
361.39	731.75
361.616	747.75
361.843	741.75
362.07	757.75
362.296	737.75
362.523	737.75
362.749	744.75
362.976	755.75
363.203	748.75
363.429	742.75
363.656	731.75
363.882	741.75
364.109	720.75
364.335	703.75
364.562	737.75
364.788	750.75
365.015	745.75
365.241	727.75
365.468	763.75
365.694	726.75
365.92	743.75
366.147	721.75
366.373	731.75
366.599	732.75
366.826	740.75
367.052	757.75
367.278	732.75
367.505	760.75
367.731	780.75
367.957	740.75
368.184	744.75
368.41	740.75
368.636	744.75
368.862	769.75
369.089	775.75
369.315	772.75
369.541	781.75
369.767	777.75
369.993	786.75
370.219	755.75
370.445	798.75
370.672	798.75
370.898	776.75
371.124	781.75
371.35	813.75
371.576	810.75
371.802	801.75
372.028	800.75
372.254	826.75
372.48	814.75
372.706	826.75
372.932	862.75
373.158	865.75
373.384	859.75
373.61	793.75
373.835	830.75
374.061	819.75
374.287	818.75
374.513	852.75
374.739	885.75
374.965	884.75
375.191	908.75
375.416	909.75
375.642	875.75
375.868	866.75
376.094	831.75
376.319	846.75
376.545	814.75
376.771	846.75
376.997	835.75
377.222	817.75
377.448	816.75
377.674	810.75
377.899	792.75
378.125	803.75
378.35	804.75
378.576	795.75
378.802	825.75
379.027	789.75
379.253	826.75
379.478	826.75
379.704	798.75
379.929	801.75
380.155	807.75
380.38	777.75
380.606	812.75
380.831	828.75
381.057	835.75
381.282	827.75
381.507	816.75
381.733	805.75
381.958	815.75
382.184	847.75
382.409	833.75
382.634	838.75
382.86	867.75
383.085	856.75
383.31	866.75
383.535	879.75
383.761	890.75
383.986	947.75
384.211	933.75
384.436	961.75
384.662	959.75
384.887	989.75
385.112	1005.75
385.337	1013.75
385.562	1003.75
385.787	995.75
386.013	1030.75
386.238	999.75
386.463	999.75
386.688	985.75
386.913	973.75
387.138	984.75
387.363	985.75
387.588	960.75
387.813	970.75
388.038	940.75
388.263	969.75
388.488	990.75
388.713	996.75
388.938	961.75
389.163	959.75
389.387	946.75
389.612	945.75
389.837	947.75
390.062	947.75
390.287	981.75
390.512	923.75
390.736	969.75
390.961	993.75
391.186	984.75
391.411	1050.75
391.636	1081.75
391.86	1101.75
392.085	1141.75
392.31	1113.75
392.534	1067.75
392.759	1047.75
392.984	1036.75
393.208	1063.75
393.433	1066.75
393.658	1064.75
393.882	1028.75
394.107	1059.75
394.331	1051.75
394.556	1079.75
394.78	1089.75
395.005	1076.75
395.229	1040.75
395.454	1109.75
395.678	1117.75
395.903	1116.75
396.127	1079.75
396.352	1035.75
396.576	1032.75
396.801	1019.75
397.025	1063.75
397.249	1057.75
397.474	1079.75
397.698	1128.75
397.922	1092.75
398.147	1099.75
398.371	1140.75
398.595	1180.75
398.82	1200.75
399.044	1301.75
399.268	1461.75
399.492	1704.75
399.717	1954.75
399.941	1920.75
400.165	1694.75
400.389	1478.75
400.613	1393.75
400.837	1301.75
401.062	1290.75
401.286	1233.75
401.51	1212.75
401.734	1233.75
401.958	1280.75
402.182	1295.75
402.406	1277.75
402.63	1306.75
402.854	1340.75
403.078	1344.75
403.302	1398.75
403.526	1411.75
403.75	1453.75
403.974	1451.75
404.198	1491.75
404.422	1508.75
404.645	1445.75
404.869	1403.75
405.093	1435.75
405.317	1368.75
405.541	1388.75
405.765	1376.75
405.988	1344.75
406.212	1344.75
406.436	1347.75
406.66	1433.75
406.883	1408.75
407.107	1542.75
407.331	1576.75
407.555	1626.75
407.778	1604.75
408.002	1596.75
408.226	1495.75
408.449	1474.75
408.673	1434.75
408.896	1425.75
409.12	1391.75
409.344	1433.75
409.567	1398.75
409.791	1419.75
410.014	1417.75
410.238	1373.75
410.461	1371.75
410.685	1371.75
410.908	1317.75
411.132	1349.75
411.355	1265.75
411.578	1325.75
411.802	1284.75
412.025	1268.75
412.249	1315.75
412.472	1317.75
412.695	1252.75
412.919	1223.75
413.142	1212.75
413.365	1247.75
413.589	1237.75
413.812	1217.75
414.035	1220.75
414.258	1249.75
414.482	1255.75
414.705	1267.75
414.928	1303.75
415.151	1250.75
415.374	1229.75
415.597	1237.75
415.821	1238.75
416.044	1201.75
416.267	1195.75
416.49	1203.75
416.713	1176.75
416.936	1235.75
417.159	1196.75
417.382	1199.75
417.605	1192.75
417.828	1205.75
418.051	1236.75
418.274	1231.75
418.497	1228.75
418.72	1251.75
418.943	1238.75
419.166	1306.75
419.389	1414.75
419.611	1371.75
419.834	1269.75
420.057	1281.75
420.28	1236.75
420.503	1240.75
420.726	1205.75
420.948	1188.75
421.171	1215.75
421.394	1194.75
421.617	1208.75
421.839	1215.75
422.062	1237.75
422.285	1206.75
422.507	1229.75
422.73	1242.75
422.953	1234.75
423.175	1283.75
423.398	1283.75
423.621	1281.75
423.843	1338.75
424.066	1331.75
424.288	1306.75
424.511	1268.75
424.733	1252.75
424.956	1267.75
425.178	1244.75
425.401	1185.75
425.623	1212.75
425.846	1180.75
426.068	1158.75
426.291	1150.75
426.513	1146.75
426.735	1140.75
426.958	1137.75
427.18	1066.75
427.402	1097.75
427.625	1110.75
427.847	1074.75
428.069	1088.75
428.292	1062.75
428.514	1060.75
428.736	1066.75
428.958	1105.75
429.181	1038.75
429.403	1030.75
429.625	1034.75
429.847	1068.75
430.069	1064.75
430.292	1056.75
430.514	1037.75
430.736	1076.75
430.958	1049.75
431.18	1055.75
431.402	1047.75
431.624	1014.75
431.846	1073.75
432.068	1087.75
432.29	1113.75
432.512	1080.75
432.734	1102.75
432.956	1064.75
433.178	1072.75
433.4	1066.75
433.622	1085.75
433.844	1080.75
434.066	1081.75
434.287	1094.75
434.509	1138.75
434.731	1193.75
434.953	1217.75
435.175	1186.75
435.397	1224.75
435.618	1137.75
435.84	1107.75
436.062	1101.75
436.284	1064.75
436.505	1066.75
436.727	1071.75
436.949	1093.75
437.17	1064.75
437.392	1048.75
437.614	1056.75
437.835	1018.75
438.057	1035.75
438.278	990.75
438.5	1007.75
438.721	1028.75
438.943	1041.75
439.165	1024.75
439.386	1044.75
439.608	1050.75
439.829	1081.75
440.05	1036.75
440.272	1063.75
440.493	1075.75
440.715	1099.75
440.936	1101.75
441.158	1122.75
441.379	1164.75
441.6	1201.75
441.822	1211.75
442.043	1227.75
442.264	1195.75
442.486	1204.75
442.707	1191.75
442.928	1173.75
443.149	1188.75
443.371	1149.75
443.592	1207.75
443.813	1184.75
444.034	1203.75
444.255	1260.75
444.476	1311.75
444.698	1441.75
444.919	1471.75
445.14	1500.75
445.361	1375.75
445.582	1216.75
445.803	1178.75
446.024	1129.75
446.245	1111.75
446.466	1093.75
446.687	1075.75
446.908	1099.75
447.129	1018.75
447.35	1004.75
447.571	1033.75
447.792	980.75
448.013	1007.75
448.234	1005.75
448.455	983.75
448.675	952.75
448.896	964.75
449.117	928.75
449.338	945.75
449.559	936.75
449.779	943.75
450	919.75
450.221	948.75
450.442	962.75
450.662	984.75
450.883	1000.75
451.104	1020.75
451.324	1003.75
451.545	994.75
451.766	1002.75
451.986	979.75
452.207	982.75
452.428	949.75
452.648	945.75
452.869	946.75
453.089	950.75
453.31	968.75
453.53	949.75
453.751	953.75
453.971	932.75
454.192	948.75
454.412	909.75
454.633	906.75
454.853	915.75
455.073	907.75
455.294	927.75
455.514	896.75
455.734	901.75
455.955	871.75
456.175	892.75
456.395	893.75
456.616	907.75
456.836	915.75
457.056	922.75
457.276	906.75
457.497	900.75
457.717	912.75
457.937	913.75
458.157	953.75
458.377	914.75
458.598	965.75
458.818	971.75
459.038	1020.75
459.258	1051.75
459.478	1080.75
459.698	1092.75
459.918	1119.75
460.138	1169.75
460.358	1243.75
460.578	1250.75
460.798	1279.75
461.018	1304.75
461.238	1256.75
461.458	1251.75
461.678	1241.75
461.898	1267.75
462.118	1254.75
462.338	1349.75
462.558	1392.75
462.777	1431.75
462.997	1579.75
463.217	1733.75
463.437	1733.75
463.657	1587.75
463.876	1495.75
464.096	1486.75
464.316	1471.75
464.536	1519.75
464.755	1440.75
464.975	1405.75
465.195	1281.75
465.414	1199.75
465.634	1141.75
465.854	1110.75
466.073	1100.75
466.293	1099.75
466.512	1049.75
466.732	1032.75
466.951	1012.75
467.171	1004.75
467.391	1017.75
467.61	1025.75
467.829	1028.75
468.049	1004.75
468.268	979.75
468.488	997.75
468.707	967.75
468.927	968.75
469.146	982.75
469.365	994.75
469.585	966.75
469.804	1029.75
470.023	1058.75
470.243	1034.75
470.462	1042.75
470.681	1047.75
470.901	1065.75
471.12	1019.75
471.339	1014.75
471.558	1032.75
471.777	994.75
471.997	983.75
472.216	952.75
472.435	1002.75
472.654	968.75
472.873	963.75
473.092	923.75
473.311	993.75
473.53	964.75
473.749	963.75
473.968	936.75
474.187	919.75
474.406	929.75
474.625	970.75
474.844	959.75
475.063	951.75
475.282	953.75
475.501	960.75
475.72	960.75
475.939	980.75
476.158	976.75
476.377	943.75
476.596	968.75
476.814	1010.75
477.033	1019.75
477.252	1036.75
477.471	1048.75
477.69	1080.75
477.908	1071.75
478.127	1132.75
478.346	1147.75
478.564	1144.75
478.783	1162.75
479.002	1153.75
479.22	1214.75
479.439	1154.75
479.658	1199.75
479.876	1194.75
480.095	1189.75
480.313	1252.75
480.532	1277.75
480.751	1295.75
480.969	1217.75
481.188	1165.75
481.406	1126.75
481.624	1136.75
481.843	1077.75
482.061	1093.75
482.28	1105.75
482.498	1075.75
482.717	1066.75
482.935	1079.75
483.153	1095.75
483.372	1079.75
483.59	1087.75
483.808	1075.75
484.027	1125.75
484.245	1096.75
484.463	1115.75
484.681	1099.75
484.9	1097.75
485.118	1091.75
485.336	1136.75
485.554	1137.75
485.772	1131.75
485.99	1145.75
486.209	1151.75
486.427	1159.75
486.645	1143.75
486.863	1130.75
487.081	1159.75
487.299	1151.75
487.517	1152.75
487.735	1131.75
487.953	1149.75
488.171	1139.75
488.389	1129.75
488.607	1132.75
488.825	1124.75
489.043	1087.75
489.261	1112.75
489.479	1155.75
489.696	1159.75
489.914	1136.75
490.132	1130.75
490.35	1129.75
490.568	1125.75
490.786	1137.75
491.003	1145.75
491.221	1163.75
491.439	1143.75
491.657	1151.75
491.874	1165.75
492.092	1188.75
492.31	1175.75
492.527	1158.75
492.745	1183.75
492.963	1169.75
493.18	1169.75
493.398	1184.75
493.615	1184.75
493.833	1185.75
494.05	1228.75
494.268	1194.75
494.485	1210.75
494.703	1215.75
494.92	1233.75
495.138	1216.75
495.355	1207.75
495.573	1202.75
495.79	1232.75
496.008	1257.75
496.225	1273.75
496.442	1274.75
496.66	1281.75
496.877	1280.75
497.094	1303.75
497.312	1322.75
497.529	1335.75
497.746	1418.75
497.963	1429.75
498.181	1494.75
498.398	1546.75
498.615	1659.75
498.832	1806.75
499.049	1955.75
499.267	2079.75
499.484	2270.75
499.701	2519.75
499.918	2808.75
500.135	3207.75
500.352	3731.75
500.569	3948.75
500.786	3797.75
501.003	3568.75
501.22	3236.75
501.437	2788.75
501.654	2432.75
501.871	2233.75
502.088	2006.75
502.305	1910.75
502.522	1823.75
502.739	1716.75
502.956	1618.75
503.172	1520.75
503.389	1482.75
503.606	1437.75
503.823	1423.75
504.04	1429.75
504.256	1435.75
504.473	1483.75
504.69	1503.75
504.907	1442.75
505.123	1362.75
505.34	1275.75
505.557	1207.75
505.773	1194.75
505.99	1171.75
506.207	1157.75
506.423	1139.75
506.64	1121.75
506.856	1095.75
507.073	1077.75
507.289	1060.75
507.506	1082.75
507.722	1087.75
507.939	1066.75
508.155	1055.75
508.372	1017.75
508.588	1014.75
508.805	1033.75
509.021	1028.75
509.238	1003.75
509.454	998.75
509.67	979.75
509.887	991.75
510.103	987.75
510.319	1000.75
510.536	985.75
510.752	959.75
510.968	994.75
511.184	939.75
511.401	985.75
511.617	992.75
511.833	976.75
512.049	960.75
512.265	985.75
512.481	1003.75
512.698	977.75
512.914	994.75
513.13	970.75
513.346	966.75
513.562	977.75
513.778	955.75
513.994	997.75
514.21	1023.75
514.426	977.75
514.642	996.75
514.858	1018.75
515.074	1011.75
515.29	989.75
515.506	1026.75
515.721	1036.75
515.937	1052.75
516.153	1070.75
516.369	1080.75
516.585	1114.75
516.801	1154.75
517.016	1232.75
517.232	1289.75
517.448	1354.75
517.664	1377.75
517.879	1412.75
518.095	1395.75
518.311	1391.75
518.527	1297.75
518.742	1255.75
518.958	1187.75
519.173	1159.75
519.389	1132.75
519.605	1093.75
519.82	1059.75
520.036	1019.75
520.251	1009.75
520.467	1002.75
520.682	980.75
520.898	993.75
521.113	948.75
521.329	952.75
521.544	954.75
521.76	948.75
521.975	932.75
522.19	912.75
522.406	937.75
522.621	943.75
522.836	911.75
523.052	916.75
523.267	938.75
523.482	930.75
523.698	891.75
523.913	889.75
524.128	903.75
524.343	902.75
524.559	873.75
524.774	893.75
524.989	899.75
525.204	895.75
525.419	884.75
525.634	905.75
525.849	858.75
526.064	875.75
526.28	896.75
526.495	913.75
526.71	888.75
526.925	892.75
527.14	910.75
527.355	874.75
527.57	860.75
527.785	873.75
527.999	906.75
528.214	880.75
528.429	883.75
528.644	896.75
528.859	893.75
529.074	892.75
529.289	895.75
529.503	900.75
529.718	868.75
529.933	868.75
530.148	883.75
530.363	866.75
530.577	871.75
530.792	869.75
531.007	860.75
531.221	876.75
531.436	871.75
531.651	868.75
531.865	865.75
532.08	880.75
532.295	873.75
532.509	864.75
532.724	889.75
532.938	893.75
533.153	879.75
533.367	884.75
533.582	866.75
533.796	876.75
534.011	870.75
534.225	843.75
534.44	872.75
534.654	848.75
534.868	880.75
535.083	829.75
535.297	853.75
535.511	844.75
535.726	817.75
535.94	829.75
536.154	811.75
536.369	840.75
536.583	809.75
536.797	811.75
537.011	802.75
537.225	796.75
537.44	807.75
537.654	819.75
537.868	795.75
538.082	791.75
538.296	803.75
538.51	793.75
538.724	798.75
538.938	789.75
539.153	798.75
539.367	806.75
539.581	782.75
539.795	768.75
540.009	768.75
540.222	773.75
540.436	805.75
540.65	776.75
540.864	795.75
541.078	792.75
541.292	798.75
541.506	805.75
541.72	794.75
541.934	789.75
542.147	771.75
542.361	792.75
542.575	759.75
542.789	773.75
543.002	788.75
543.216	754.75
543.43	788.75
543.644	786.75
543.857	766.75
544.071	781.75
544.285	776.75
544.498	783.75
544.712	791.75
544.925	774.75
545.139	795.75
545.352	791.75
545.566	789.75
545.779	821.75
545.993	803.75
546.206	801.75
546.42	815.75
546.633	821.75
546.847	786.75
547.06	804.75
547.274	791.75
547.487	805.75
547.7	827.75
547.914	801.75
548.127	819.75
548.34	825.75
548.554	807.75
548.767	812.75
548.98	804.75
549.193	792.75
549.407	830.75
549.62	838.75
549.833	856.75
550.046	829.75
550.259	804.75
550.473	801.75
550.686	806.75
550.899	799.75
551.112	787.75
551.325	762.75
551.538	769.75
551.751	785.75
551.964	776.75
552.177	812.75
552.39	803.75
552.603	844.75
552.816	855.75
553.029	864.75
553.242	873.75
553.455	910.75
553.667	885.75
553.88	890.75
554.093	851.75
554.306	819.75
554.519	818.75
554.732	808.75
554.944	764.75
555.157	755.75
555.37	769.75
555.583	770.75
555.795	743.75
556.008	728.75
556.221	703.75
556.433	686.75
556.646	717.75
556.859	687.75
557.071	716.75
557.284	685.75
557.496	709.75
557.709	710.75
557.921	667.75
558.134	645.75
558.346	681.75
558.559	671.75
558.771	664.75
558.984	678.75
559.196	682.75
559.409	642.75
559.621	657.75
559.833	648.75
560.046	629.75
560.258	652.75
560.47	641.75
560.683	648.75
560.895	647.75
561.107	658.75
561.32	639.75
561.532	647.75
561.744	657.75
561.956	649.75
562.168	637.75
562.381	649.75
562.593	642.75
562.805	652.75
563.017	670.75
563.229	662.75
563.441	688.75
563.653	661.75
563.865	682.75
564.077	678.75
564.289	682.75
564.501	694.75
564.713	689.75
564.925	694.75
565.137	720.75
565.349	720.75
565.561	740.75
565.773	753.75
565.985	826.75
566.197	892.75
566.408	928.75
566.62	1045.75
566.832	1114.75
567.044	1127.75
567.255	1115.75
567.467	1149.75
567.679	1199.75
567.891	1313.75
568.102	1376.75
568.314	1300.75
568.526	1141.75
568.737	1045.75
568.949	932.75
569.161	836.75
569.372	767.75
569.584	749.75
569.795	742.75
570.007	693.75
570.218	691.75
570.43	661.75
570.641	676.75
570.853	695.75
571.064	671.75
571.276	682.75
571.487	662.75
571.698	641.75
571.91	605.75
572.121	613.75
572.333	593.75
572.544	554.75
572.755	567.75
572.966	561.75
573.178	580.75
573.389	559.75
573.6	529.75
573.811	534.75
574.023	545.75
574.234	554.75
574.445	534.75
574.656	548.75
574.867	542.75
575.078	531.75
575.289	564.75
575.501	516.75
575.712	513.75
575.923	507.75
576.134	517.75
576.345	523.75
576.556	515.75
576.767	520.75
576.978	498.75
577.188	516.75
577.399	504.75
577.61	520.75
577.821	497.75
578.032	479.75
578.243	472.75
578.454	485.75
578.665	481.75
578.875	488.75
579.086	456.75
579.297	448.75
579.508	493.75
579.718	463.75
579.929	457.75
580.14	468.75
580.35	466.75
580.561	457.75
580.772	455.75
580.982	460.75
581.193	454.75
581.403	440.75
581.614	452.75
581.825	456.75
582.035	453.75
582.246	460.75
582.456	437.75
582.667	445.75
582.877	442.75
583.087	433.75
583.298	461.75
583.508	423.75
583.719	460.75
583.929	437.75
584.139	462.75
584.35	428.75
584.56	441.75
584.77	432.75
584.981	410.75
585.191	441.75
585.401	427.75
585.611	424.75
585.821	417.75
586.032	424.75
586.242	432.75
586.452	410.75
586.662	428.75
586.872	401.75
587.082	420.75
587.292	428.75
587.502	418.75
587.713	427.75
587.923	439.75
588.133	411.75
588.343	435.75
588.553	443.75
588.762	405.75
588.972	426.75
589.182	415.75
589.392	421.75
589.602	421.75
589.812	439.75
590.022	434.75
590.232	435.75
590.441	432.75
590.651	443.75
590.861	421.75
591.071	433.75
591.281	447.75
591.49	465.75
591.7	475.75
591.91	476.75
592.119	475.75
592.329	466.75
592.539	486.75
592.748	549.75
592.958	517.75
593.167	533.75
593.377	539.75
593.587	571.75
593.796	585.75
594.006	567.75
594.215	568.75
594.424	596.75
594.634	585.75
594.843	537.75
595.053	496.75
595.262	515.75
595.472	457.75
595.681	455.75
595.89	428.75
596.1	437.75
596.309	432.75
596.518	422.75
596.727	428.75
596.937	403.75
597.146	387.75
597.355	386.75
597.564	383.75
597.774	389.75
597.983	388.75
598.192	394.75
598.401	380.75
598.61	370.75
598.819	369.75
599.028	391.75
599.237	363.75
599.446	371.75
599.655	361.75
599.864	363.75
600.073	354.75
600.282	373.75
600.491	383.75
600.7	391.75
600.909	373.75
601.118	372.75
601.327	343.75
601.536	364.75
601.745	343.75
601.953	349.75
602.162	373.75
602.371	351.75
602.58	345.75
602.789	354.75
602.997	359.75
603.206	346.75
603.415	346.75
603.623	356.75
603.832	353.75
604.041	339.75
604.249	339.75
604.458	330.75
604.666	329.75
604.875	337.75
605.084	348.75
605.292	332.75
605.501	333.75
605.709	325.75
605.918	335.75
606.126	338.75
606.334	334.75
606.543	327.75
606.751	317.75
606.96	330.75
607.168	326.75
607.376	324.75
607.585	313.75
607.793	326.75
608.001	329.75
608.21	336.75
608.418	316.75
608.626	311.75
608.834	317.75
609.043	331.75
609.251	311.75
609.459	315.75
609.667	303.75
609.875	314.75
610.083	318.75
610.291	316.75
610.499	321.75
610.707	326.75
610.916	315.75
611.124	312.75
611.332	320.75
611.54	308.75
611.748	305.75
611.955	322.75
612.163	312.75
612.371	301.75
612.579	300.75
612.787	295.75
612.995	326.75
613.203	324.75
613.411	332.75
613.618	307.75
613.826	308.75
614.034	319.75
614.242	307.75
614.449	305.75
614.657	305.75
614.865	305.75
615.072	312.75
615.28	308.75
615.488	308.75
615.695	299.75
615.903	328.75
616.111	295.75
616.318	319.75
616.526	315.75
616.733	309.75
616.941	312.75
617.148	322.75
617.356	302.75
617.563	290.75
617.771	299.75
617.978	311.75
618.185	304.75
618.393	319.75
618.6	315.75
618.807	289.75
619.015	300.75
619.222	303.75
619.429	305.75
619.637	299.75
619.844	316.75
620.051	304.75
620.258	283.75
620.466	285.75
620.673	287.75
620.88	304.75
621.087	267.75
621.294	259.75
621.501	283.75
621.708	278.75
621.915	291.75
622.122	292.75
622.329	296.75
622.536	285.75
622.743	293.75
622.95	296.75
623.157	259.75
623.364	270.75
623.571	277.75
623.778	266.75
623.985	280.75
624.192	272.75
624.399	268.75
624.606	262.75
624.812	267.75
625.019	269.75
625.226	278.75
625.433	277.75
625.639	243.75
625.846	267.75
626.053	229.75
626.259	257.75
626.466	267.75
626.673	260.75
626.879	246.75
627.086	270.75
627.293	255.75
627.499	258.75
627.706	267.75
627.912	259.75
628.119	251.75
628.325	269.75
628.532	277.75
628.738	278.75
628.945	248.75
629.151	241.75
629.357	252.75
629.564	251.75
629.77	268.75
629.976	248.75
630.183	247.75
630.389	236.75
630.595	232.75
630.802	250.75
631.008	240.75
631.214	242.75
631.42	250.75
631.627	237.75
631.833	232.75
632.039	232.75
632.245	236.75
632.451	216.75
632.657	231.75
632.863	219.75
633.069	243.75
633.275	222.75
633.481	248.75
633.688	234.75
633.893	233.75
634.099	235.75
634.305	219.75
634.511	218.75
634.717	243.75
634.923	223.75
635.129	232.75
635.335	233.75
635.541	213.75
635.747	212.75
635.952	223.75
636.158	225.75
636.364	219.75
636.57	211.75
636.775	215.75
636.981	209.75
637.187	229.75
637.392	215.75
637.598	217.75
637.804	207.75
638.009	213.75
638.215	223.75
638.421	201.75
638.626	196.75
638.832	210.75
639.037	210.75
639.243	208.75
639.448	199.75
639.654	219.75
639.859	223.75
640.065	201.75
640.27	225.75
640.475	188.75
640.681	211.75
640.886	204.75
641.091	200.75
641.297	210.75
641.502	213.75
641.707	196.75
641.913	192.75
642.118	220.75
642.323	186.75
642.528	212.75
642.733	209.75
642.939	198.75
643.144	200.75
643.349	203.75
643.554	206.75
643.759	197.75
643.964	191.75
644.169	186.75
644.374	200.75
644.579	203.75
644.784	207.75
644.989	196.75
645.194	197.75
645.399	188.75
645.604	188.75
645.809	196.75
646.014	198.75
646.219	192.75
646.423	196.75
646.628	198.75
646.833	196.75
647.038	189.75
647.243	216.75
647.447	200.75
647.652	183.75
647.857	205.75
648.062	200.75
648.266	220.75
648.471	203.75
648.676	204.75
648.88	204.75
649.085	205.75
649.289	195.75
649.494	197.75
649.698	191.75
649.903	193.75
650.107	203.75
650.312	186.75
650.516	196.75
650.721	190.75
650.925	180.75
651.13	175.75
651.334	175.75
651.539	173.75
651.743	156.75
651.947	166.75
652.152	179.75
652.356	165.75
652.56	157.75
652.764	153.75
652.969	166.75
653.173	169.75
653.377	164.75
653.581	169.75
653.785	144.75
653.99	156.75
654.194	154.75
654.398	149.75
654.602	138.75
654.806	141.75
655.01	148.75
655.214	137.75
655.418	141.75
655.622	139.75
655.826	152.75
656.03	147.75
656.234	138.75
656.438	137.75
656.642	135.75
656.846	117.75
657.049	141.75
657.253	141.75
657.457	118.75
657.661	135.75
657.865	133.75
658.068	111.75
658.272	114.75
658.476	125.75
658.68	116.75
658.883	125.75
659.087	114.75
659.291	110.75
659.494	99.75
659.698	98.75
659.901	99.75
660.105	91.75
660.309	95.75
660.512	105.75
660.716	114.75
660.919	94.75
661.123	101.75
661.326	92.75
661.53	89.75
661.733	96.75
661.936	80.75
662.14	97.75
662.343	89.75
662.546	92.75
662.75	85.75
662.953	87.75
663.156	99.75
663.36	96.75
663.563	87.75
663.766	77.75
663.969	92.75
664.173	85.75
664.376	86.75
664.579	75.75
664.782	72.75
664.985	77.75
665.188	73.75
665.391	70.75
665.594	79.75
665.797	76.75
666	75.75
666.203	82.75
666.406	59.75
666.609	68.75
666.812	84.75
667.015	90.75
667.218	84.75
667.421	90.75
667.624	93.75
667.827	88.75
668.03	93.75
668.232	73.75
668.435	84.75
668.638	76.75
668.841	70.75
669.043	78.75
669.246	75.75
669.449	89.75
669.651	78.75
669.854	83.75
670.057	86.75
670.259	80.75
670.462	92.75
670.665	83.75
670.867	92.75
671.07	80.75
671.272	85.75
671.475	86.75
671.677	80.75
671.88	85.75
672.082	74.75
672.284	77.75
672.487	87.75
672.689	80.75
672.892	84.75
