Data from NiCl2@0.125M.TitratingCurve.Agarose3%dH2O.NegLispCup.LampEnergy10.LIBS07252019_HRD10591_18-27-36-574.txt Node
Date: Thu Jul 25 18:27:36 EDT 2019
User: cochatt
Spectrometer: HR+D1059
Trigger mode: 1
Integration Time (sec): 1.000000E-1
Scans to average: 1
Electric dark correction enabled: true
Nonlinearity correction enabled: false
Boxcar width: 0
XAxis mode: Wavelengths
Number of Pixels in Spectrum: 2048
>>>>>Begin Spectral Data<<<<<
223.165	-20.19
223.4	-20.19
223.635	-20.19
223.869	-15.19
224.104	-21.19
224.338	-13.19
224.573	-13.19
224.808	-2.19
225.042	-10.19
225.277	-5.19
225.511	-21.19
225.746	-4.19
225.98	1.81
226.215	23.81
226.449	23.81
226.683	11.81
226.918	21.81
227.152	42.81
227.387	38.81
227.621	46.81
227.856	33.81
228.09	39.81
228.324	49.81
228.559	68.81
228.793	80.81
229.027	109.81
229.262	125.81
229.496	136.81
229.73	134.81
229.964	131.81
230.199	135.81
230.433	130.81
230.667	146.81
230.901	148.81
231.136	164.81
231.37	148.81
231.604	148.81
231.838	179.81
232.072	168.81
232.306	153.81
232.541	156.81
232.775	162.81
233.009	156.81
233.243	154.81
233.477	163.81
233.711	159.81
233.945	168.81
234.179	164.81
234.413	182.81
234.647	171.81
234.881	166.81
235.115	173.81
235.349	169.81
235.583	176.81
235.817	178.81
236.051	167.81
236.285	171.81
236.519	166.81
236.753	171.81
236.987	189.81
237.221	190.81
237.455	187.81
237.689	190.81
237.922	178.81
238.156	203.81
238.39	188.81
238.624	181.81
238.858	208.81
239.091	197.81
239.325	205.81
239.559	200.81
239.793	197.81
240.027	200.81
240.26	205.81
240.494	212.81
240.728	214.81
240.961	230.81
241.195	226.81
241.429	222.81
241.662	209.81
241.896	216.81
242.13	227.81
242.363	212.81
242.597	217.81
242.83	218.81
243.064	223.81
243.298	226.81
243.531	239.81
243.765	239.81
243.998	246.81
244.232	234.81
244.465	235.81
244.699	234.81
244.932	242.81
245.166	248.81
245.399	269.81
245.633	238.81
245.866	258.81
246.099	249.81
246.333	251.81
246.566	270.81
246.8	263.81
247.033	269.81
247.266	259.81
247.5	254.81
247.733	264.81
247.966	280.81
248.2	274.81
248.433	282.81
248.666	259.81
248.899	283.81
249.133	264.81
249.366	296.81
249.599	292.81
249.832	289.81
250.066	279.81
250.299	308.81
250.532	303.81
250.765	298.81
250.998	317.81
251.231	293.81
251.465	299.81
251.698	324.81
251.931	317.81
252.164	299.81
252.397	308.81
252.63	322.81
252.863	347.81
253.096	324.81
253.329	312.81
253.562	317.81
253.795	324.81
254.028	324.81
254.261	313.81
254.494	338.81
254.727	326.81
254.96	330.81
255.193	340.81
255.426	321.81
255.659	327.81
255.892	331.81
256.124	347.81
256.357	341.81
256.59	350.81
256.823	351.81
257.056	333.81
257.289	359.81
257.521	372.81
257.754	349.81
257.987	351.81
258.22	379.81
258.452	360.81
258.685	372.81
258.918	382.81
259.151	345.81
259.383	360.81
259.616	374.81
259.849	380.81
260.081	380.81
260.314	378.81
260.547	376.81
260.779	358.81
261.012	366.81
261.244	372.81
261.477	367.81
261.71	374.81
261.942	367.81
262.175	390.81
262.407	380.81
262.64	372.81
262.872	403.81
263.105	402.81
263.337	407.81
263.57	396.81
263.802	398.81
264.035	390.81
264.267	401.81
264.499	422.81
264.732	382.81
264.964	393.81
265.197	423.81
265.429	415.81
265.661	422.81
265.894	405.81
266.126	437.81
266.358	409.81
266.591	409.81
266.823	424.81
267.055	432.81
267.287	450.81
267.52	434.81
267.752	433.81
267.984	424.81
268.216	424.81
268.448	429.81
268.681	427.81
268.913	426.81
269.145	436.81
269.377	458.81
269.609	433.81
269.841	436.81
270.073	442.81
270.306	443.81
270.538	438.81
270.77	440.81
271.002	459.81
271.234	464.81
271.466	470.81
271.698	453.81
271.93	473.81
272.162	448.81
272.394	436.81
272.626	501.81
272.858	479.81
273.09	478.81
273.322	474.81
273.553	469.81
273.785	460.81
274.017	457.81
274.249	494.81
274.481	513.81
274.713	524.81
274.945	478.81
275.176	492.81
275.408	480.81
275.64	499.81
275.872	493.81
276.104	504.81
276.335	495.81
276.567	501.81
276.799	508.81
277.031	532.81
277.262	493.81
277.494	491.81
277.726	519.81
277.957	516.81
278.189	516.81
278.421	507.81
278.652	518.81
278.884	520.81
279.115	524.81
279.347	520.81
279.579	535.81
279.81	555.81
280.042	525.81
280.273	525.81
280.505	547.81
280.736	554.81
280.968	539.81
281.199	547.81
281.431	534.81
281.662	548.81
281.894	549.81
282.125	537.81
282.356	554.81
282.588	562.81
282.819	555.81
283.051	550.81
283.282	547.81
283.513	566.81
283.745	568.81
283.976	575.81
284.207	584.81
284.439	586.81
284.67	590.81
284.901	591.81
285.132	579.81
285.364	588.81
285.595	606.81
285.826	580.81
286.057	589.81
286.288	593.81
286.52	598.81
286.751	615.81
286.982	618.81
287.213	592.81
287.444	614.81
287.675	586.81
287.906	630.81
288.138	623.81
288.369	623.81
288.6	624.81
288.831	620.81
289.062	597.81
289.293	604.81
289.524	606.81
289.755	616.81
289.986	622.81
290.217	633.81
290.448	622.81
290.679	643.81
290.91	616.81
291.141	622.81
291.371	634.81
291.602	664.81
291.833	620.81
292.064	618.81
292.295	634.81
292.526	614.81
292.757	621.81
292.987	645.81
293.218	639.81
293.449	644.81
293.68	633.81
293.91	638.81
294.141	623.81
294.372	635.81
294.603	655.81
294.833	620.81
295.064	652.81
295.295	650.81
295.525	660.81
295.756	672.81
295.987	669.81
296.217	653.81
296.448	650.81
296.679	684.81
296.909	668.81
297.14	678.81
297.37	676.81
297.601	667.81
297.831	678.81
298.062	692.81
298.292	692.81
298.523	717.81
298.753	705.81
298.984	687.81
299.214	708.81
299.445	672.81
299.675	659.81
299.905	703.81
300.136	704.81
300.366	709.81
300.597	692.81
300.827	739.81
301.057	726.81
301.288	734.81
301.518	710.81
301.748	727.81
301.979	758.81
302.209	732.81
302.439	730.81
302.669	729.81
302.9	723.81
303.13	711.81
303.36	727.81
303.59	712.81
303.82	726.81
304.051	742.81
304.281	729.81
304.511	696.81
304.741	733.81
304.971	714.81
305.201	692.81
305.431	710.81
305.661	714.81
305.891	690.81
306.121	707.81
306.352	695.81
306.582	704.81
306.812	694.81
307.042	704.81
307.272	730.81
307.502	722.81
307.731	710.81
307.961	711.81
308.191	701.81
308.421	704.81
308.651	708.81
308.881	688.81
309.111	689.81
309.341	703.81
309.571	701.81
309.8	708.81
310.03	717.81
310.26	706.81
310.49	682.81
310.72	703.81
310.949	710.81
311.179	731.81
311.409	698.81
311.639	717.81
311.868	737.81
312.098	716.81
312.328	727.81
312.557	748.81
312.787	723.81
313.017	736.81
313.246	765.81
313.476	760.81
313.706	744.81
313.935	754.81
314.165	759.81
314.394	764.81
314.624	771.81
314.853	742.81
315.083	747.81
315.312	772.81
315.542	756.81
315.771	755.81
316.001	773.81
316.23	782.81
316.46	744.81
316.689	752.81
316.919	733.81
317.148	752.81
317.377	741.81
317.607	739.81
317.836	739.81
318.065	702.81
318.295	720.81
318.524	739.81
318.753	755.81
318.983	780.81
319.212	766.81
319.441	772.81
319.67	749.81
319.9	750.81
320.129	746.81
320.358	756.81
320.587	770.81
320.816	763.81
321.046	744.81
321.275	759.81
321.504	760.81
321.733	759.81
321.962	795.81
322.191	769.81
322.42	774.81
322.649	764.81
322.878	747.81
323.108	756.81
323.337	750.81
323.566	756.81
323.795	766.81
324.024	781.81
324.253	783.81
324.482	776.81
324.71	788.81
324.939	772.81
325.168	791.81
325.397	771.81
325.626	822.81
325.855	798.81
326.084	800.81
326.313	823.81
326.542	839.81
326.77	864.81
326.999	815.81
327.228	794.81
327.457	838.81
327.686	835.81
327.914	823.81
328.143	863.81
328.372	831.81
328.6	858.81
328.829	814.81
329.058	833.81
329.287	832.81
329.515	822.81
329.744	827.81
329.972	839.81
330.201	842.81
330.43	820.81
330.658	842.81
330.887	830.81
331.115	865.81
331.344	886.81
331.572	859.81
331.801	893.81
332.03	904.81
332.258	933.81
332.486	964.81
332.715	1001.81
332.943	1036.81
333.172	1079.81
333.4	1118.81
333.629	1150.81
333.857	1178.81
334.085	1130.81
334.314	1131.81
334.542	1082.81
334.771	1061.81
334.999	1039.81
335.227	1045.81
335.455	1061.81
335.684	1017.81
335.912	1007.81
336.14	995.81
336.369	1014.81
336.597	997.81
336.825	966.81
337.053	999.81
337.281	969.81
337.51	952.81
337.738	930.81
337.966	946.81
338.194	922.81
338.422	919.81
338.65	909.81
338.878	895.81
339.106	891.81
339.334	893.81
339.562	903.81
339.79	862.81
340.018	872.81
340.246	860.81
340.474	857.81
340.702	868.81
340.93	891.81
341.158	868.81
341.386	860.81
341.614	883.81
341.842	857.81
342.07	882.81
342.298	842.81
342.526	841.81
342.754	875.81
342.981	858.81
343.209	880.81
343.437	931.81
343.665	985.81
343.893	1078.81
344.12	1092.81
344.348	1014.81
344.576	982.81
344.804	922.81
345.031	911.81
345.259	894.81
345.487	866.81
345.714	895.81
345.942	840.81
346.17	850.81
346.397	854.81
346.625	828.81
346.853	832.81
347.08	852.81
347.308	829.81
347.535	847.81
347.763	848.81
347.99	848.81
348.218	815.81
348.445	820.81
348.673	805.81
348.9	795.81
349.128	811.81
349.355	804.81
349.583	806.81
349.81	793.81
350.037	806.81
350.265	808.81
350.492	797.81
350.72	805.81
350.947	773.81
351.174	822.81
351.402	781.81
351.629	792.81
351.856	800.81
352.083	785.81
352.311	814.81
352.538	780.81
352.765	772.81
352.992	791.81
353.22	800.81
353.447	773.81
353.674	793.81
353.901	786.81
354.128	796.81
354.355	807.81
354.583	808.81
354.81	781.81
355.037	796.81
355.264	791.81
355.491	827.81
355.718	796.81
355.945	790.81
356.172	786.81
356.399	803.81
356.626	804.81
356.853	826.81
357.08	794.81
357.307	809.81
357.534	810.81
357.761	792.81
357.988	806.81
358.215	778.81
358.441	813.81
358.668	783.81
358.895	815.81
359.122	788.81
359.349	811.81
359.576	803.81
359.802	804.81
360.029	811.81
360.256	795.81
360.483	809.81
360.709	787.81
360.936	819.81
361.163	791.81
361.39	811.81
361.616	837.81
361.843	830.81
362.07	796.81
362.296	802.81
362.523	806.81
362.749	781.81
362.976	815.81
363.203	818.81
363.429	783.81
363.656	803.81
363.882	789.81
364.109	815.81
364.335	762.81
364.562	823.81
364.788	817.81
365.015	810.81
365.241	805.81
365.468	811.81
365.694	790.81
365.92	804.81
366.147	802.81
366.373	796.81
366.599	791.81
366.826	790.81
367.052	787.81
367.278	807.81
367.505	793.81
367.731	822.81
367.957	803.81
368.184	829.81
368.41	818.81
368.636	821.81
368.862	802.81
369.089	789.81
369.315	812.81
369.541	847.81
369.767	829.81
369.993	824.81
370.219	827.81
370.445	844.81
370.672	860.81
370.898	854.81
371.124	878.81
371.35	863.81
371.576	890.81
371.802	912.81
372.028	882.81
372.254	869.81
372.48	879.81
372.706	882.81
372.932	920.81
373.158	905.81
373.384	911.81
373.61	871.81
373.835	888.81
374.061	876.81
374.287	907.81
374.513	902.81
374.739	923.81
374.965	951.81
375.191	982.81
375.416	992.81
375.642	926.81
375.868	931.81
376.094	921.81
376.319	892.81
376.545	913.81
376.771	882.81
376.997	874.81
377.222	883.81
377.448	837.81
377.674	880.81
377.899	861.81
378.125	848.81
378.35	860.81
378.576	869.81
378.802	855.81
379.027	857.81
379.253	887.81
379.478	873.81
379.704	860.81
379.929	880.81
380.155	863.81
380.38	855.81
380.606	877.81
380.831	859.81
381.057	869.81
381.282	884.81
381.507	852.81
381.733	875.81
381.958	900.81
382.184	879.81
382.409	870.81
382.634	915.81
382.86	920.81
383.085	938.81
383.31	948.81
383.535	955.81
383.761	966.81
383.986	996.81
384.211	1031.81
384.436	1018.81
384.662	1053.81
384.887	1053.81
385.112	1064.81
385.337	1083.81
385.562	1046.81
385.787	1066.81
386.013	1108.81
386.238	1072.81
386.463	1094.81
386.688	1079.81
386.913	1062.81
387.138	1046.81
387.363	1058.81
387.588	1027.81
387.813	1039.81
388.038	1041.81
388.263	1056.81
388.488	1065.81
388.713	1064.81
388.938	1034.81
389.163	1026.81
389.387	1008.81
389.612	990.81
389.837	997.81
390.062	1012.81
390.287	1053.81
390.512	1045.81
390.736	1046.81
390.961	1094.81
391.186	1099.81
391.411	1104.81
391.636	1172.81
391.86	1186.81
392.085	1197.81
392.31	1203.81
392.534	1172.81
392.759	1138.81
392.984	1151.81
393.208	1123.81
393.433	1100.81
393.658	1117.81
393.882	1136.81
394.107	1139.81
394.331	1138.81
394.556	1139.81
394.78	1150.81
395.005	1148.81
395.229	1164.81
395.454	1180.81
395.678	1190.81
395.903	1218.81
396.127	1167.81
396.352	1122.81
396.576	1113.81
396.801	1099.81
397.025	1117.81
397.249	1159.81
397.474	1167.81
397.698	1191.81
397.922	1172.81
398.147	1170.81
398.371	1196.81
398.595	1246.81
398.82	1318.81
399.044	1362.81
399.268	1552.81
399.492	1865.81
399.717	2107.81
399.941	2070.81
400.165	1761.81
400.389	1574.81
400.613	1460.81
400.837	1387.81
401.062	1360.81
401.286	1362.81
401.51	1334.81
401.734	1330.81
401.958	1376.81
402.182	1418.81
402.406	1389.81
402.63	1394.81
402.854	1424.81
403.078	1444.81
403.302	1488.81
403.526	1542.81
403.75	1539.81
403.974	1581.81
404.198	1626.81
404.422	1620.81
404.645	1572.81
404.869	1519.81
405.093	1566.81
405.317	1526.81
405.541	1509.81
405.765	1479.81
405.988	1448.81
406.212	1453.81
406.436	1459.81
406.66	1500.81
406.883	1558.81
407.107	1646.81
407.331	1715.81
407.555	1752.81
407.778	1725.81
408.002	1691.81
408.226	1668.81
408.449	1576.81
408.673	1567.81
408.896	1533.81
409.12	1508.81
409.344	1543.81
409.567	1482.81
409.791	1518.81
410.014	1541.81
410.238	1484.81
410.461	1514.81
410.685	1475.81
410.908	1428.81
411.132	1420.81
411.355	1374.81
411.578	1418.81
411.802	1370.81
412.025	1401.81
412.249	1413.81
412.472	1417.81
412.695	1356.81
412.919	1357.81
413.142	1315.81
413.365	1340.81
413.589	1338.81
413.812	1347.81
414.035	1310.81
414.258	1302.81
414.482	1335.81
414.705	1352.81
414.928	1335.81
415.151	1324.81
415.374	1337.81
415.597	1312.81
415.821	1315.81
416.044	1302.81
416.267	1284.81
416.49	1318.81
416.713	1300.81
416.936	1331.81
417.159	1310.81
417.382	1302.81
417.605	1286.81
417.828	1307.81
418.051	1320.81
418.274	1322.81
418.497	1335.81
418.72	1387.81
418.943	1366.81
419.166	1420.81
419.389	1522.81
419.611	1504.81
419.834	1417.81
420.057	1396.81
420.28	1351.81
420.503	1330.81
420.726	1290.81
420.948	1289.81
421.171	1333.81
421.394	1312.81
421.617	1281.81
421.839	1342.81
422.062	1310.81
422.285	1322.81
422.507	1363.81
422.73	1357.81
422.953	1361.81
423.175	1399.81
423.398	1436.81
423.621	1419.81
423.843	1419.81
424.066	1428.81
424.288	1417.81
424.511	1402.81
424.733	1368.81
424.956	1352.81
425.178	1332.81
425.401	1357.81
425.623	1322.81
425.846	1301.81
426.068	1276.81
426.291	1271.81
426.513	1247.81
426.735	1206.81
426.958	1214.81
427.18	1196.81
427.402	1215.81
427.625	1198.81
427.847	1166.81
428.069	1149.81
428.292	1193.81
428.514	1165.81
428.736	1159.81
428.958	1144.81
429.181	1129.81
429.403	1150.81
429.625	1133.81
429.847	1113.81
430.069	1111.81
430.292	1142.81
430.514	1143.81
430.736	1142.81
430.958	1135.81
431.18	1112.81
431.402	1123.81
431.624	1148.81
431.846	1154.81
432.068	1178.81
432.29	1164.81
432.512	1152.81
432.734	1151.81
432.956	1143.81
433.178	1141.81
433.4	1163.81
433.622	1178.81
433.844	1176.81
434.066	1187.81
434.287	1190.81
434.509	1225.81
434.731	1279.81
434.953	1298.81
435.175	1316.81
435.397	1315.81
435.618	1231.81
435.84	1210.81
436.062	1158.81
436.284	1127.81
436.505	1150.81
436.727	1166.81
436.949	1157.81
437.17	1150.81
437.392	1143.81
437.614	1143.81
437.835	1076.81
438.057	1109.81
438.278	1086.81
438.5	1120.81
438.721	1128.81
438.943	1104.81
439.165	1131.81
439.386	1148.81
439.608	1142.81
439.829	1184.81
440.05	1147.81
440.272	1190.81
440.493	1202.81
440.715	1191.81
440.936	1214.81
441.158	1218.81
441.379	1276.81
441.6	1314.81
441.822	1306.81
442.043	1318.81
442.264	1315.81
442.486	1243.81
442.707	1254.81
442.928	1270.81
443.149	1294.81
443.371	1302.81
443.592	1288.81
443.813	1341.81
444.034	1300.81
444.255	1366.81
444.476	1452.81
444.698	1528.81
444.919	1627.81
445.14	1670.81
445.361	1486.81
445.582	1381.81
445.803	1272.81
446.024	1249.81
446.245	1232.81
446.466	1199.81
446.687	1163.81
446.908	1167.81
447.129	1144.81
447.35	1125.81
447.571	1126.81
447.792	1102.81
448.013	1062.81
448.234	1068.81
448.455	1084.81
448.675	1056.81
448.896	1078.81
449.117	1034.81
449.338	1059.81
449.559	1013.81
449.779	1058.81
450	1046.81
450.221	1064.81
450.442	1085.81
450.662	1082.81
450.883	1069.81
451.104	1097.81
451.324	1102.81
451.545	1067.81
451.766	1090.81
451.986	1076.81
452.207	1061.81
452.428	1078.81
452.648	1058.81
452.869	989.81
453.089	1053.81
453.31	1041.81
453.53	1045.81
453.751	1019.81
453.971	990.81
454.192	1025.81
454.412	1002.81
454.633	994.81
454.853	977.81
455.073	988.81
455.294	1004.81
455.514	985.81
455.734	986.81
455.955	986.81
456.175	994.81
456.395	937.81
456.616	967.81
456.836	976.81
457.056	990.81
457.276	967.81
457.497	1012.81
457.717	964.81
457.937	979.81
458.157	1001.81
458.377	1028.81
458.598	1032.81
458.818	1082.81
459.038	1068.81
459.258	1132.81
459.478	1155.81
459.698	1177.81
459.918	1213.81
460.138	1272.81
460.358	1328.81
460.578	1346.81
460.798	1370.81
461.018	1366.81
461.238	1378.81
461.458	1373.81
461.678	1359.81
461.898	1353.81
462.118	1364.81
462.338	1461.81
462.558	1494.81
462.777	1545.81
462.997	1728.81
463.217	1929.81
463.437	1865.81
463.657	1671.81
463.876	1602.81
464.096	1592.81
464.316	1563.81
464.536	1636.81
464.755	1564.81
464.975	1493.81
465.195	1412.81
465.414	1321.81
465.634	1216.81
465.854	1200.81
466.073	1172.81
466.293	1171.81
466.512	1125.81
466.732	1122.81
466.951	1122.81
467.171	1102.81
467.391	1107.81
467.61	1103.81
467.829	1065.81
468.049	1084.81
468.268	1028.81
468.488	1044.81
468.707	1044.81
468.927	1058.81
469.146	1057.81
469.365	1068.81
469.585	1103.81
469.804	1128.81
470.023	1096.81
470.243	1159.81
470.462	1143.81
470.681	1132.81
470.901	1142.81
471.12	1099.81
471.339	1099.81
471.558	1104.81
471.777	1062.81
471.997	1053.81
472.216	1039.81
472.435	1029.81
472.654	1027.81
472.873	1030.81
473.092	1002.81
473.311	999.81
473.53	1002.81
473.749	1007.81
473.968	1023.81
474.187	1033.81
474.406	1024.81
474.625	1030.81
474.844	998.81
475.063	1002.81
475.282	1001.81
475.501	1037.81
475.72	1044.81
475.939	1061.81
476.158	1063.81
476.377	1063.81
476.596	1048.81
476.814	1078.81
477.033	1064.81
477.252	1094.81
477.471	1116.81
477.69	1148.81
477.908	1160.81
478.127	1224.81
478.346	1245.81
478.564	1235.81
478.783	1260.81
479.002	1296.81
479.22	1296.81
479.439	1266.81
479.658	1268.81
479.876	1303.81
480.095	1283.81
480.313	1371.81
480.532	1421.81
480.751	1379.81
480.969	1334.81
481.188	1290.81
481.406	1222.81
481.624	1180.81
481.843	1164.81
482.061	1184.81
482.28	1150.81
482.498	1153.81
482.717	1162.81
482.935	1174.81
483.153	1135.81
483.372	1147.81
483.59	1148.81
483.808	1145.81
484.027	1158.81
484.245	1141.81
484.463	1196.81
484.681	1195.81
484.9	1172.81
485.118	1224.81
485.336	1208.81
485.554	1218.81
485.772	1212.81
485.99	1222.81
486.209	1217.81
486.427	1231.81
486.645	1210.81
486.863	1216.81
487.081	1218.81
487.299	1187.81
487.517	1195.81
487.735	1189.81
487.953	1206.81
488.171	1220.81
488.389	1197.81
488.607	1202.81
488.825	1191.81
489.043	1210.81
489.261	1189.81
489.479	1197.81
489.696	1214.81
489.914	1204.81
490.132	1202.81
490.35	1210.81
490.568	1204.81
490.786	1244.81
491.003	1206.81
491.221	1227.81
491.439	1197.81
491.657	1206.81
491.874	1234.81
492.092	1229.81
492.31	1220.81
492.527	1243.81
492.745	1221.81
492.963	1259.81
493.18	1246.81
493.398	1258.81
493.615	1248.81
493.833	1284.81
494.05	1254.81
494.268	1277.81
494.485	1302.81
494.703	1300.81
494.92	1268.81
495.138	1264.81
495.355	1311.81
495.573	1276.81
495.79	1277.81
496.008	1320.81
496.225	1292.81
496.442	1343.81
496.66	1310.81
496.877	1336.81
497.094	1372.81
497.312	1422.81
497.529	1414.81
497.746	1496.81
497.963	1478.81
498.181	1556.81
498.398	1625.81
498.615	1748.81
498.832	1845.81
499.049	1991.81
499.267	2166.81
499.484	2427.81
499.701	2672.81
499.918	2949.81
500.135	3373.81
500.352	3992.81
500.569	4154.81
500.786	4050.81
501.003	3712.81
501.22	3323.81
501.437	2920.81
501.654	2546.81
501.871	2324.81
502.088	2091.81
502.305	1972.81
502.522	1876.81
502.739	1795.81
502.956	1684.81
503.172	1607.81
503.389	1583.81
503.606	1501.81
503.823	1468.81
504.04	1492.81
504.256	1500.81
504.473	1529.81
504.69	1576.81
504.907	1566.81
505.123	1455.81
505.34	1341.81
505.557	1238.81
505.773	1230.81
505.99	1214.81
506.207	1198.81
506.423	1172.81
506.64	1172.81
506.856	1123.81
507.073	1135.81
507.289	1131.81
507.506	1146.81
507.722	1130.81
507.939	1067.81
508.155	1093.81
508.372	1071.81
508.588	1077.81
508.805	1074.81
509.021	1053.81
509.238	1046.81
509.454	1054.81
509.67	1067.81
509.887	1038.81
510.103	1040.81
510.319	1000.81
510.536	1019.81
510.752	989.81
510.968	1026.81
511.184	1030.81
511.401	1025.81
511.617	1001.81
511.833	990.81
512.049	1030.81
512.265	994.81
512.481	1016.81
512.698	1010.81
512.914	1003.81
513.13	996.81
513.346	1029.81
513.562	1048.81
513.778	1007.81
513.994	1026.81
514.21	1023.81
514.426	1008.81
514.642	1042.81
514.858	1047.81
515.074	1072.81
515.29	1062.81
515.506	1047.81
515.721	1092.81
515.937	1099.81
516.153	1140.81
516.369	1148.81
516.585	1166.81
516.801	1223.81
517.016	1286.81
517.232	1345.81
517.448	1439.81
517.664	1509.81
517.879	1477.81
518.095	1452.81
518.311	1454.81
518.527	1387.81
518.742	1301.81
518.958	1234.81
519.173	1214.81
519.389	1203.81
519.605	1154.81
519.82	1101.81
520.036	1080.81
520.251	1058.81
520.467	1037.81
520.682	1028.81
520.898	1023.81
521.113	985.81
521.329	1018.81
521.544	1001.81
521.76	1014.81
521.975	1006.81
522.19	961.81
522.406	971.81
522.621	988.81
522.836	950.81
523.052	966.81
523.267	954.81
523.482	958.81
523.698	950.81
523.913	929.81
524.128	940.81
524.343	938.81
524.559	965.81
524.774	933.81
524.989	933.81
525.204	946.81
525.419	912.81
525.634	930.81
525.849	936.81
526.064	916.81
526.28	914.81
526.495	926.81
526.71	923.81
526.925	934.81
527.14	926.81
527.355	907.81
527.57	910.81
527.785	906.81
527.999	910.81
528.214	918.81
528.429	928.81
528.644	947.81
528.859	918.81
529.074	936.81
529.289	925.81
529.503	914.81
529.718	929.81
529.933	890.81
530.148	906.81
530.363	915.81
530.577	919.81
530.792	885.81
531.007	908.81
531.221	930.81
531.436	911.81
531.651	927.81
531.865	938.81
532.08	925.81
532.295	938.81
532.509	933.81
532.724	912.81
532.938	904.81
533.153	915.81
533.367	918.81
533.582	924.81
533.796	927.81
534.011	919.81
534.225	934.81
534.44	899.81
534.654	896.81
534.868	888.81
535.083	883.81
535.297	874.81
535.511	876.81
535.726	879.81
535.94	862.81
536.154	871.81
536.369	871.81
536.583	837.81
536.797	866.81
537.011	850.81
537.225	838.81
537.44	853.81
537.654	886.81
537.868	852.81
538.082	837.81
538.296	848.81
538.51	846.81
538.724	827.81
538.938	820.81
539.153	840.81
539.367	849.81
539.581	826.81
539.795	811.81
540.009	825.81
540.222	806.81
540.436	802.81
540.65	801.81
540.864	820.81
541.078	836.81
541.292	818.81
541.506	820.81
541.72	820.81
541.934	825.81
542.147	809.81
542.361	831.81
542.575	822.81
542.789	808.81
543.002	815.81
543.216	791.81
543.43	793.81
543.644	806.81
543.857	815.81
544.071	813.81
544.285	811.81
544.498	826.81
544.712	809.81
544.925	829.81
545.139	832.81
545.352	842.81
545.566	872.81
545.779	854.81
545.993	868.81
546.206	866.81
546.42	838.81
546.633	856.81
546.847	846.81
547.06	824.81
547.274	852.81
547.487	856.81
547.7	856.81
547.914	844.81
548.127	876.81
548.34	863.81
548.554	822.81
548.767	860.81
548.98	836.81
549.193	883.81
549.407	892.81
549.62	871.81
549.833	884.81
550.046	838.81
550.259	861.81
550.473	855.81
550.686	829.81
550.899	849.81
551.112	806.81
551.325	828.81
551.538	832.81
551.751	827.81
551.964	821.81
552.177	831.81
552.39	861.81
552.603	893.81
552.816	924.81
553.029	916.81
553.242	930.81
553.455	930.81
553.667	948.81
553.88	925.81
554.093	906.81
554.306	878.81
554.519	863.81
554.732	812.81
554.944	822.81
555.157	811.81
555.37	802.81
555.583	823.81
555.795	767.81
556.008	766.81
556.221	773.81
556.433	766.81
556.646	733.81
556.859	720.81
557.071	719.81
557.284	704.81
557.496	743.81
557.709	724.81
557.921	715.81
558.134	719.81
558.346	702.81
558.559	703.81
558.771	725.81
558.984	711.81
559.196	697.81
559.409	685.81
559.621	692.81
559.833	680.81
560.046	690.81
560.258	687.81
560.47	684.81
560.683	706.81
560.895	697.81
561.107	686.81
561.32	701.81
561.532	699.81
561.744	680.81
561.956	702.81
562.168	695.81
562.381	682.81
562.593	696.81
562.805	669.81
563.017	688.81
563.229	686.81
563.441	703.81
563.653	706.81
563.865	704.81
564.077	719.81
564.289	709.81
564.501	731.81
564.713	725.81
564.925	743.81
565.137	740.81
565.349	784.81
565.561	802.81
565.773	837.81
565.985	836.81
566.197	916.81
566.408	958.81
566.62	1069.81
566.832	1162.81
567.044	1204.81
567.255	1148.81
567.467	1190.81
567.679	1268.81
567.891	1395.81
568.102	1442.81
568.314	1341.81
568.526	1186.81
568.737	1054.81
568.949	977.81
569.161	885.81
569.372	829.81
569.584	804.81
569.795	756.81
570.007	744.81
570.218	729.81
570.43	720.81
570.641	722.81
570.853	696.81
571.064	695.81
571.276	738.81
571.487	710.81
571.698	665.81
571.91	636.81
572.121	650.81
572.333	622.81
572.544	600.81
572.755	594.81
572.966	577.81
573.178	595.81
573.389	580.81
573.6	577.81
573.811	584.81
574.023	568.81
574.234	571.81
574.445	561.81
574.656	568.81
574.867	582.81
575.078	543.81
575.289	568.81
575.501	552.81
575.712	539.81
575.923	539.81
576.134	528.81
576.345	543.81
576.556	546.81
576.767	551.81
576.978	532.81
577.188	511.81
577.399	512.81
577.61	527.81
577.821	528.81
578.032	500.81
578.243	502.81
578.454	526.81
578.665	514.81
578.875	502.81
579.086	504.81
579.297	495.81
579.508	501.81
579.718	514.81
579.929	488.81
580.14	491.81
580.35	478.81
580.561	491.81
580.772	499.81
580.982	479.81
581.193	477.81
581.403	466.81
581.614	468.81
581.825	475.81
582.035	478.81
582.246	482.81
582.456	462.81
582.667	483.81
582.877	461.81
583.087	463.81
583.298	476.81
583.508	462.81
583.719	453.81
583.929	469.81
584.139	444.81
584.35	469.81
584.56	450.81
584.77	468.81
584.981	453.81
585.191	456.81
585.401	450.81
585.611	465.81
585.821	435.81
586.032	458.81
586.242	466.81
586.452	454.81
586.662	428.81
586.872	461.81
587.082	444.81
587.292	448.81
587.502	448.81
587.713	454.81
587.923	463.81
588.133	467.81
588.343	461.81
588.553	465.81
588.762	431.81
588.972	462.81
589.182	452.81
589.392	470.81
589.602	472.81
589.812	454.81
590.022	464.81
590.232	454.81
590.441	487.81
590.651	447.81
590.861	469.81
591.071	458.81
591.281	466.81
591.49	480.81
591.7	492.81
591.91	493.81
592.119	493.81
592.329	482.81
592.539	521.81
592.748	531.81
592.958	560.81
593.167	588.81
593.377	596.81
593.587	598.81
593.796	587.81
594.006	624.81
594.215	616.81
594.424	599.81
594.634	604.81
594.843	562.81
595.053	538.81
595.262	498.81
595.472	513.81
595.681	503.81
595.89	487.81
596.1	465.81
596.309	454.81
596.518	454.81
596.727	451.81
596.937	424.81
597.146	410.81
597.355	441.81
597.564	414.81
597.774	391.81
597.983	406.81
598.192	388.81
598.401	398.81
598.61	394.81
598.819	397.81
599.028	383.81
599.237	380.81
599.446	384.81
599.655	399.81
599.864	367.81
600.073	394.81
600.282	390.81
600.491	350.81
600.7	399.81
600.909	378.81
601.118	368.81
601.327	361.81
601.536	371.81
601.745	359.81
601.953	373.81
602.162	364.81
602.371	374.81
602.58	376.81
602.789	366.81
602.997	365.81
603.206	357.81
603.415	364.81
603.623	362.81
603.832	360.81
604.041	362.81
604.249	352.81
604.458	366.81
604.666	345.81
604.875	356.81
605.084	357.81
605.292	347.81
605.501	338.81
605.709	361.81
605.918	347.81
606.126	341.81
606.334	382.81
606.543	350.81
606.751	350.81
606.96	345.81
607.168	355.81
607.376	329.81
607.585	350.81
607.793	351.81
608.001	354.81
608.21	350.81
608.418	335.81
608.626	334.81
608.834	330.81
609.043	335.81
609.251	325.81
609.459	349.81
609.667	335.81
609.875	358.81
610.083	341.81
610.291	330.81
610.499	335.81
610.707	350.81
610.916	325.81
611.124	324.81
611.332	332.81
611.54	346.81
611.748	327.81
611.955	309.81
612.163	316.81
612.371	338.81
612.579	342.81
612.787	344.81
612.995	328.81
613.203	323.81
613.411	325.81
613.618	334.81
613.826	328.81
614.034	315.81
614.242	302.81
614.449	330.81
614.657	340.81
614.865	339.81
615.072	332.81
615.28	318.81
615.488	325.81
615.695	318.81
615.903	333.81
616.111	347.81
616.318	326.81
616.526	329.81
616.733	328.81
616.941	329.81
617.148	330.81
617.356	332.81
617.563	344.81
617.771	334.81
617.978	311.81
618.185	328.81
618.393	328.81
618.6	307.81
618.807	318.81
619.015	330.81
619.222	322.81
619.429	296.81
619.637	314.81
619.844	324.81
620.051	329.81
620.258	298.81
620.466	298.81
620.673	291.81
620.88	311.81
621.087	299.81
621.294	320.81
621.501	291.81
621.708	306.81
621.915	304.81
622.122	290.81
622.329	302.81
622.536	310.81
622.743	319.81
622.95	289.81
623.157	285.81
623.364	295.81
623.571	287.81
623.778	286.81
623.985	280.81
624.192	288.81
624.399	285.81
624.606	302.81
624.812	290.81
625.019	283.81
625.226	286.81
625.433	289.81
625.639	286.81
625.846	276.81
626.053	295.81
626.259	270.81
626.466	274.81
626.673	262.81
626.879	250.81
627.086	292.81
627.293	276.81
627.499	272.81
627.706	260.81
627.912	276.81
628.119	267.81
628.325	278.81
628.532	240.81
628.738	277.81
628.945	266.81
629.151	273.81
629.357	250.81
629.564	246.81
629.77	262.81
629.976	256.81
630.183	266.81
630.389	253.81
630.595	268.81
630.802	246.81
631.008	240.81
631.214	258.81
631.42	253.81
631.627	254.81
631.833	249.81
632.039	249.81
632.245	245.81
632.451	240.81
632.657	244.81
632.863	251.81
633.069	254.81
633.275	245.81
633.481	248.81
633.688	247.81
633.893	254.81
634.099	243.81
634.305	249.81
634.511	219.81
634.717	230.81
634.923	229.81
635.129	234.81
635.335	233.81
635.541	248.81
635.747	237.81
635.952	240.81
636.158	235.81
636.364	239.81
636.57	248.81
636.775	231.81
636.981	226.81
637.187	250.81
637.392	223.81
637.598	237.81
637.804	232.81
638.009	234.81
638.215	236.81
638.421	228.81
638.626	238.81
638.832	225.81
639.037	214.81
639.243	230.81
639.448	219.81
639.654	215.81
639.859	216.81
640.065	224.81
640.27	217.81
640.475	219.81
640.681	223.81
640.886	216.81
641.091	215.81
641.297	216.81
641.502	207.81
641.707	223.81
641.913	216.81
642.118	221.81
642.323	220.81
642.528	207.81
642.733	218.81
642.939	223.81
643.144	195.81
643.349	219.81
643.554	215.81
643.759	231.81
643.964	225.81
644.169	204.81
644.374	226.81
644.579	228.81
644.784	205.81
644.989	220.81
645.194	216.81
645.399	211.81
645.604	209.81
645.809	209.81
646.014	206.81
646.219	204.81
646.423	204.81
646.628	219.81
646.833	221.81
647.038	222.81
647.243	216.81
647.447	210.81
647.652	208.81
647.857	210.81
648.062	232.81
648.266	223.81
648.471	222.81
648.676	242.81
648.88	216.81
649.085	223.81
649.289	235.81
649.494	234.81
649.698	210.81
649.903	205.81
650.107	206.81
650.312	211.81
650.516	194.81
650.721	209.81
650.925	192.81
651.13	207.81
651.334	191.81
651.539	194.81
651.743	205.81
651.947	182.81
652.152	194.81
652.356	191.81
652.56	182.81
652.764	182.81
652.969	171.81
653.173	190.81
653.377	166.81
653.581	183.81
653.785	159.81
653.99	177.81
654.194	155.81
654.398	186.81
654.602	169.81
654.806	166.81
655.01	155.81
655.214	176.81
655.418	152.81
655.622	152.81
655.826	144.81
656.03	176.81
656.234	174.81
656.438	160.81
656.642	161.81
656.846	165.81
657.049	127.81
657.253	144.81
657.457	138.81
657.661	125.81
657.865	140.81
658.068	130.81
658.272	130.81
658.476	129.81
658.68	126.81
658.883	117.81
659.087	96.81
659.291	118.81
659.494	108.81
659.698	102.81
659.901	111.81
660.105	115.81
660.309	102.81
660.512	109.81
660.716	109.81
660.919	103.81
661.123	100.81
661.326	121.81
661.53	105.81
661.733	103.81
661.936	104.81
662.14	89.81
662.343	96.81
662.546	99.81
662.75	80.81
662.953	109.81
663.156	82.81
663.36	88.81
663.563	92.81
663.766	95.81
663.969	94.81
664.173	100.81
664.376	79.81
664.579	94.81
664.782	90.81
664.985	90.81
665.188	82.81
665.391	90.81
665.594	88.81
665.797	88.81
666	85.81
666.203	88.81
666.406	99.81
666.609	89.81
666.812	60.81
667.015	84.81
667.218	95.81
667.421	93.81
667.624	90.81
667.827	61.81
668.03	87.81
668.232	90.81
668.435	88.81
668.638	89.81
668.841	75.81
669.043	84.81
669.246	84.81
669.449	87.81
669.651	88.81
669.854	79.81
670.057	85.81
670.259	84.81
670.462	81.81
670.665	82.81
670.867	90.81
671.07	93.81
671.272	93.81
671.475	84.81
671.677	85.81
671.88	76.81
672.082	101.81
672.284	80.81
672.487	83.81
672.689	87.81
672.892	103.81
