Data from NiCl2@0.0625M.TitratingCurve.Agarose3%dH2O.NegLispCup.LampEnergy10.LIBS07252019_HRD10591_18-34-20-577.txt Node
Date: Thu Jul 25 18:34:20 EDT 2019
User: cochatt
Spectrometer: HR+D1059
Trigger mode: 1
Integration Time (sec): 1.000000E-1
Scans to average: 1
Electric dark correction enabled: true
Nonlinearity correction enabled: false
Boxcar width: 0
XAxis mode: Wavelengths
Number of Pixels in Spectrum: 2048
>>>>>Begin Spectral Data<<<<<
223.165	-22.06
223.4	-22.06
223.635	-22.06
223.869	-32.06
224.104	-2.06
224.338	-0.06
224.573	-18.06
224.808	-5.06
225.042	-15.06
225.277	-2.06
225.511	-6.06
225.746	12.94
225.98	5.94
226.215	1.94
226.449	5.94
226.683	20.94
226.918	21.94
227.152	32.94
227.387	23.94
227.621	50.94
227.856	33.94
228.09	45.94
228.324	41.94
228.559	50.94
228.793	78.94
229.027	131.94
229.262	145.94
229.496	168.94
229.73	130.94
229.964	163.94
230.199	174.94
230.433	167.94
230.667	169.94
230.901	169.94
231.136	189.94
231.37	186.94
231.604	179.94
231.838	187.94
232.072	176.94
232.306	195.94
232.541	178.94
232.775	183.94
233.009	194.94
233.243	200.94
233.477	192.94
233.711	186.94
233.945	207.94
234.179	193.94
234.413	209.94
234.647	199.94
234.881	208.94
235.115	202.94
235.349	214.94
235.583	221.94
235.817	202.94
236.051	208.94
236.285	208.94
236.519	222.94
236.753	225.94
236.987	227.94
237.221	225.94
237.455	214.94
237.689	225.94
237.922	231.94
238.156	239.94
238.39	238.94
238.624	232.94
238.858	242.94
239.091	251.94
239.325	259.94
239.559	268.94
239.793	245.94
240.027	268.94
240.26	272.94
240.494	283.94
240.728	258.94
240.961	259.94
241.195	273.94
241.429	273.94
241.662	274.94
241.896	260.94
242.13	281.94
242.363	273.94
242.597	297.94
242.83	293.94
243.064	277.94
243.298	303.94
243.531	309.94
243.765	309.94
243.998	321.94
244.232	295.94
244.465	319.94
244.699	329.94
244.932	311.94
245.166	330.94
245.399	327.94
245.633	330.94
245.866	336.94
246.099	328.94
246.333	347.94
246.566	332.94
246.8	344.94
247.033	339.94
247.266	350.94
247.5	353.94
247.733	353.94
247.966	371.94
248.2	376.94
248.433	358.94
248.666	354.94
248.899	357.94
249.133	381.94
249.366	382.94
249.599	368.94
249.832	379.94
250.066	377.94
250.299	389.94
250.532	367.94
250.765	373.94
250.998	396.94
251.231	391.94
251.465	394.94
251.698	410.94
251.931	413.94
252.164	420.94
252.397	425.94
252.63	426.94
252.863	389.94
253.096	426.94
253.329	407.94
253.562	422.94
253.795	425.94
254.028	433.94
254.261	437.94
254.494	438.94
254.727	433.94
254.96	427.94
255.193	442.94
255.426	430.94
255.659	450.94
255.892	455.94
256.124	467.94
256.357	445.94
256.59	438.94
256.823	462.94
257.056	474.94
257.289	469.94
257.521	474.94
257.754	467.94
257.987	478.94
258.22	453.94
258.452	464.94
258.685	479.94
258.918	481.94
259.151	487.94
259.383	496.94
259.616	494.94
259.849	501.94
260.081	466.94
260.314	503.94
260.547	518.94
260.779	495.94
261.012	522.94
261.244	507.94
261.477	507.94
261.71	526.94
261.942	502.94
262.175	537.94
262.407	515.94
262.64	553.94
262.872	512.94
263.105	534.94
263.337	527.94
263.57	541.94
263.802	537.94
264.035	538.94
264.267	551.94
264.499	554.94
264.732	548.94
264.964	562.94
265.197	568.94
265.429	542.94
265.661	574.94
265.894	535.94
266.126	565.94
266.358	584.94
266.591	569.94
266.823	570.94
267.055	571.94
267.287	595.94
267.52	590.94
267.752	588.94
267.984	570.94
268.216	573.94
268.448	595.94
268.681	603.94
268.913	619.94
269.145	605.94
269.377	579.94
269.609	597.94
269.841	599.94
270.073	616.94
270.306	628.94
270.538	632.94
270.77	592.94
271.002	623.94
271.234	639.94
271.466	664.94
271.698	632.94
271.93	625.94
272.162	643.94
272.394	632.94
272.626	621.94
272.858	631.94
273.09	644.94
273.322	644.94
273.553	681.94
273.785	677.94
274.017	640.94
274.249	670.94
274.481	669.94
274.713	639.94
274.945	672.94
275.176	679.94
275.408	674.94
275.64	682.94
275.872	693.94
276.104	686.94
276.335	682.94
276.567	677.94
276.799	695.94
277.031	705.94
277.262	687.94
277.494	710.94
277.726	721.94
277.957	719.94
278.189	735.94
278.421	713.94
278.652	738.94
278.884	724.94
279.115	737.94
279.347	715.94
279.579	711.94
279.81	725.94
280.042	696.94
280.273	735.94
280.505	733.94
280.736	733.94
280.968	750.94
281.199	743.94
281.431	752.94
281.662	765.94
281.894	763.94
282.125	768.94
282.356	781.94
282.588	784.94
282.819	750.94
283.051	770.94
283.282	758.94
283.513	780.94
283.745	788.94
283.976	809.94
284.207	784.94
284.439	793.94
284.67	777.94
284.901	798.94
285.132	816.94
285.364	811.94
285.595	804.94
285.826	806.94
286.057	805.94
286.288	840.94
286.52	787.94
286.751	819.94
286.982	824.94
287.213	819.94
287.444	835.94
287.675	850.94
287.906	830.94
288.138	809.94
288.369	850.94
288.6	847.94
288.831	833.94
289.062	858.94
289.293	842.94
289.524	869.94
289.755	866.94
289.986	851.94
290.217	847.94
290.448	847.94
290.679	855.94
290.91	878.94
291.141	852.94
291.371	871.94
291.602	859.94
291.833	859.94
292.064	864.94
292.295	893.94
292.526	874.94
292.757	842.94
292.987	856.94
293.218	843.94
293.449	870.94
293.68	882.94
293.91	865.94
294.141	833.94
294.372	841.94
294.603	870.94
294.833	893.94
295.064	901.94
295.295	892.94
295.525	859.94
295.756	899.94
295.987	853.94
296.217	891.94
296.448	866.94
296.679	889.94
296.909	863.94
297.14	918.94
297.37	929.94
297.601	917.94
297.831	945.94
298.062	906.94
298.292	932.94
298.523	935.94
298.753	954.94
298.984	919.94
299.214	926.94
299.445	957.94
299.675	948.94
299.905	949.94
300.136	931.94
300.366	943.94
300.597	958.94
300.827	966.94
301.057	954.94
301.288	977.94
301.518	951.94
301.748	981.94
301.979	974.94
302.209	1007.94
302.439	984.94
302.669	971.94
302.9	968.94
303.13	998.94
303.36	976.94
303.59	962.94
303.82	982.94
304.051	982.94
304.281	1008.94
304.511	981.94
304.741	975.94
304.971	990.94
305.201	979.94
305.431	971.94
305.661	981.94
305.891	965.94
306.121	939.94
306.352	964.94
306.582	958.94
306.812	974.94
307.042	975.94
307.272	966.94
307.502	963.94
307.731	979.94
307.961	971.94
308.191	975.94
308.421	981.94
308.651	957.94
308.881	953.94
309.111	982.94
309.341	981.94
309.571	983.94
309.8	993.94
310.03	979.94
310.26	967.94
310.49	969.94
310.72	991.94
310.949	988.94
311.179	966.94
311.409	985.94
311.639	991.94
311.868	999.94
312.098	1019.94
312.328	1009.94
312.557	1045.94
312.787	1012.94
313.017	1017.94
313.246	1019.94
313.476	1035.94
313.706	1036.94
313.935	1063.94
314.165	1082.94
314.394	1036.94
314.624	1063.94
314.853	1038.94
315.083	1034.94
315.312	1047.94
315.542	1047.94
315.771	1029.94
316.001	1029.94
316.23	1055.94
316.46	1018.94
316.689	1031.94
316.919	1019.94
317.148	1047.94
317.377	1029.94
317.607	1030.94
317.836	1025.94
318.065	1039.94
318.295	1063.94
318.524	1071.94
318.753	1039.94
318.983	1027.94
319.212	1021.94
319.441	1039.94
319.67	1032.94
319.9	1064.94
320.129	1075.94
320.358	1035.94
320.587	1050.94
320.816	1031.94
321.046	1029.94
321.275	1053.94
321.504	1040.94
321.733	1038.94
321.962	1062.94
322.191	1050.94
322.42	1035.94
322.649	1033.94
322.878	1055.94
323.108	1039.94
323.337	1077.94
323.566	1065.94
323.795	1085.94
324.024	1090.94
324.253	1055.94
324.482	1067.94
324.71	1074.94
324.939	1071.94
325.168	1093.94
325.397	1100.94
325.626	1098.94
325.855	1094.94
326.084	1093.94
326.313	1128.94
326.542	1123.94
326.77	1168.94
326.999	1136.94
327.228	1117.94
327.457	1110.94
327.686	1123.94
327.914	1135.94
328.143	1138.94
328.372	1115.94
328.6	1087.94
328.829	1138.94
329.058	1124.94
329.287	1157.94
329.515	1153.94
329.744	1150.94
329.972	1161.94
330.201	1165.94
330.43	1211.94
330.658	1171.94
330.887	1178.94
331.115	1197.94
331.344	1217.94
331.572	1178.94
331.801	1250.94
332.03	1232.94
332.258	1259.94
332.486	1265.94
332.715	1275.94
332.943	1354.94
333.172	1366.94
333.4	1422.94
333.629	1438.94
333.857	1436.94
334.085	1429.94
334.314	1431.94
334.542	1452.94
334.771	1472.94
334.999	1384.94
335.227	1438.94
335.455	1390.94
335.684	1409.94
335.912	1358.94
336.14	1403.94
336.369	1378.94
336.597	1377.94
336.825	1371.94
337.053	1344.94
337.281	1342.94
337.51	1306.94
337.738	1283.94
337.966	1297.94
338.194	1246.94
338.422	1245.94
338.65	1261.94
338.878	1259.94
339.106	1264.94
339.334	1262.94
339.562	1240.94
339.79	1205.94
340.018	1217.94
340.246	1208.94
340.474	1189.94
340.702	1185.94
340.93	1202.94
341.158	1205.94
341.386	1167.94
341.614	1224.94
341.842	1176.94
342.07	1201.94
342.298	1130.94
342.526	1142.94
342.754	1169.94
342.981	1208.94
343.209	1222.94
343.437	1266.94
343.665	1337.94
343.893	1345.94
344.12	1407.94
344.348	1367.94
344.576	1356.94
344.804	1322.94
345.031	1253.94
345.259	1221.94
345.487	1190.94
345.714	1215.94
345.942	1162.94
346.17	1182.94
346.397	1170.94
346.625	1153.94
346.853	1149.94
347.08	1158.94
347.308	1133.94
347.535	1175.94
347.763	1148.94
347.99	1141.94
348.218	1125.94
348.445	1151.94
348.673	1165.94
348.9	1144.94
349.128	1158.94
349.355	1116.94
349.583	1091.94
349.81	1141.94
350.037	1110.94
350.265	1133.94
350.492	1114.94
350.72	1128.94
350.947	1110.94
351.174	1102.94
351.402	1094.94
351.629	1120.94
351.856	1103.94
352.083	1081.94
352.311	1121.94
352.538	1109.94
352.765	1095.94
352.992	1123.94
353.22	1125.94
353.447	1114.94
353.674	1084.94
353.901	1089.94
354.128	1084.94
354.355	1107.94
354.583	1095.94
354.81	1089.94
355.037	1119.94
355.264	1105.94
355.491	1085.94
355.718	1119.94
355.945	1104.94
356.172	1084.94
356.399	1093.94
356.626	1128.94
356.853	1113.94
357.08	1099.94
357.307	1108.94
357.534	1124.94
357.761	1109.94
357.988	1111.94
358.215	1103.94
358.441	1101.94
358.668	1111.94
358.895	1130.94
359.122	1073.94
359.349	1108.94
359.576	1103.94
359.802	1114.94
360.029	1087.94
360.256	1103.94
360.483	1111.94
360.709	1117.94
360.936	1099.94
361.163	1094.94
361.39	1095.94
361.616	1118.94
361.843	1075.94
362.07	1117.94
362.296	1121.94
362.523	1118.94
362.749	1083.94
362.976	1116.94
363.203	1101.94
363.429	1108.94
363.656	1121.94
363.882	1126.94
364.109	1094.94
364.335	1097.94
364.562	1099.94
364.788	1138.94
365.015	1087.94
365.241	1099.94
365.468	1078.94
365.694	1114.94
365.92	1119.94
366.147	1122.94
366.373	1098.94
366.599	1122.94
366.826	1100.94
367.052	1110.94
367.278	1114.94
367.505	1127.94
367.731	1164.94
367.957	1132.94
368.184	1110.94
368.41	1125.94
368.636	1124.94
368.862	1142.94
369.089	1106.94
369.315	1159.94
369.541	1145.94
369.767	1143.94
369.993	1123.94
370.219	1151.94
370.445	1169.94
370.672	1176.94
370.898	1184.94
371.124	1199.94
371.35	1177.94
371.576	1187.94
371.802	1204.94
372.028	1198.94
372.254	1221.94
372.48	1220.94
372.706	1205.94
372.932	1244.94
373.158	1254.94
373.384	1223.94
373.61	1239.94
373.835	1232.94
374.061	1207.94
374.287	1232.94
374.513	1205.94
374.739	1244.94
374.965	1339.94
375.191	1283.94
375.416	1343.94
375.642	1277.94
375.868	1271.94
376.094	1277.94
376.319	1255.94
376.545	1235.94
376.771	1185.94
376.997	1221.94
377.222	1185.94
377.448	1187.94
377.674	1225.94
377.899	1197.94
378.125	1175.94
378.35	1191.94
378.576	1187.94
378.802	1235.94
379.027	1222.94
379.253	1175.94
379.478	1179.94
379.704	1205.94
379.929	1182.94
380.155	1203.94
380.38	1168.94
380.606	1165.94
380.831	1154.94
381.057	1213.94
381.282	1233.94
381.507	1177.94
381.733	1258.94
381.958	1234.94
382.184	1217.94
382.409	1244.94
382.634	1252.94
382.86	1246.94
383.085	1294.94
383.31	1283.94
383.535	1317.94
383.761	1321.94
383.986	1342.94
384.211	1331.94
384.436	1357.94
384.662	1373.94
384.887	1381.94
385.112	1359.94
385.337	1387.94
385.562	1404.94
385.787	1407.94
386.013	1439.94
386.238	1426.94
386.463	1425.94
386.688	1447.94
386.913	1401.94
387.138	1413.94
387.363	1455.94
387.588	1433.94
387.813	1441.94
388.038	1428.94
388.263	1390.94
388.488	1461.94
388.713	1422.94
388.938	1413.94
389.163	1429.94
389.387	1434.94
389.612	1406.94
389.837	1414.94
390.062	1383.94
390.287	1430.94
390.512	1425.94
390.736	1433.94
390.961	1446.94
391.186	1434.94
391.411	1518.94
391.636	1530.94
391.86	1594.94
392.085	1600.94
392.31	1575.94
392.534	1561.94
392.759	1564.94
392.984	1505.94
393.208	1567.94
393.433	1493.94
393.658	1477.94
393.882	1512.94
394.107	1521.94
394.331	1507.94
394.556	1522.94
394.78	1537.94
395.005	1518.94
395.229	1556.94
395.454	1596.94
395.678	1626.94
395.903	1569.94
396.127	1585.94
396.352	1532.94
396.576	1534.94
396.801	1504.94
397.025	1571.94
397.249	1567.94
397.474	1626.94
397.698	1619.94
397.922	1652.94
398.147	1642.94
398.371	1679.94
398.595	1692.94
398.82	1753.94
399.044	1846.94
399.268	2011.94
399.492	2236.94
399.717	2433.94
399.941	2450.94
400.165	2278.94
400.389	2101.94
400.613	1949.94
400.837	1889.94
401.062	1805.94
401.286	1821.94
401.51	1785.94
401.734	1789.94
401.958	1802.94
402.182	1822.94
402.406	1817.94
402.63	1819.94
402.854	1874.94
403.078	1842.94
403.302	1872.94
403.526	1895.94
403.75	1898.94
403.974	1934.94
404.198	1949.94
404.422	1972.94
404.645	1913.94
404.869	1892.94
405.093	1944.94
405.317	1921.94
405.541	1875.94
405.765	1914.94
405.988	1887.94
406.212	1970.94
406.436	1939.94
406.66	2000.94
406.883	2008.94
407.107	2090.94
407.331	2183.94
407.555	2247.94
407.778	2237.94
408.002	2194.94
408.226	2133.94
408.449	2109.94
408.673	2062.94
408.896	2022.94
409.12	1985.94
409.344	1982.94
409.567	1958.94
409.791	1992.94
410.014	1934.94
410.238	1931.94
410.461	1926.94
410.685	1949.94
410.908	1887.94
411.132	1917.94
411.355	1843.94
411.578	1875.94
411.802	1842.94
412.025	1856.94
412.249	1878.94
412.472	1889.94
412.695	1846.94
412.919	1839.94
413.142	1791.94
413.365	1793.94
413.589	1823.94
413.812	1775.94
414.035	1739.94
414.258	1816.94
414.482	1744.94
414.705	1797.94
414.928	1798.94
415.151	1774.94
415.374	1749.94
415.597	1778.94
415.821	1764.94
416.044	1720.94
416.267	1694.94
416.49	1696.94
416.713	1748.94
416.936	1726.94
417.159	1680.94
417.382	1706.94
417.605	1700.94
417.828	1675.94
418.051	1733.94
418.274	1713.94
418.497	1683.94
418.72	1739.94
418.943	1762.94
419.166	1819.94
419.389	1916.94
419.611	1921.94
419.834	1825.94
420.057	1781.94
420.28	1740.94
420.503	1696.94
420.726	1715.94
420.948	1691.94
421.171	1689.94
421.394	1727.94
421.617	1675.94
421.839	1709.94
422.062	1685.94
422.285	1678.94
422.507	1784.94
422.73	1723.94
422.953	1739.94
423.175	1740.94
423.398	1771.94
423.621	1732.94
423.843	1766.94
424.066	1727.94
424.288	1765.94
424.511	1722.94
424.733	1745.94
424.956	1711.94
425.178	1733.94
425.401	1746.94
425.623	1715.94
425.846	1678.94
426.068	1671.94
426.291	1594.94
426.513	1644.94
426.735	1638.94
426.958	1637.94
427.18	1600.94
427.402	1601.94
427.625	1566.94
427.847	1581.94
428.069	1563.94
428.292	1591.94
428.514	1573.94
428.736	1562.94
428.958	1577.94
429.181	1542.94
429.403	1528.94
429.625	1525.94
429.847	1550.94
430.069	1552.94
430.292	1565.94
430.514	1489.94
430.736	1543.94
430.958	1543.94
431.18	1546.94
431.402	1581.94
431.624	1558.94
431.846	1555.94
432.068	1606.94
432.29	1641.94
432.512	1574.94
432.734	1619.94
432.956	1579.94
433.178	1556.94
433.4	1584.94
433.622	1607.94
433.844	1628.94
434.066	1598.94
434.287	1675.94
434.509	1659.94
434.731	1678.94
434.953	1746.94
435.175	1728.94
435.397	1714.94
435.618	1649.94
435.84	1629.94
436.062	1586.94
436.284	1586.94
436.505	1534.94
436.727	1592.94
436.949	1594.94
437.17	1574.94
437.392	1522.94
437.614	1534.94
437.835	1511.94
438.057	1491.94
438.278	1455.94
438.5	1494.94
438.721	1442.94
438.943	1489.94
439.165	1462.94
439.386	1518.94
439.608	1561.94
439.829	1542.94
440.05	1543.94
440.272	1548.94
440.493	1549.94
440.715	1561.94
440.936	1608.94
441.158	1619.94
441.379	1647.94
441.6	1697.94
441.822	1707.94
442.043	1667.94
442.264	1646.94
442.486	1652.94
442.707	1691.94
442.928	1654.94
443.149	1670.94
443.371	1664.94
443.592	1705.94
443.813	1669.94
444.034	1675.94
444.255	1743.94
444.476	1767.94
444.698	1888.94
444.919	1912.94
445.14	2018.94
445.361	1922.94
445.582	1776.94
445.803	1659.94
446.024	1608.94
446.245	1605.94
446.466	1574.94
446.687	1541.94
446.908	1596.94
447.129	1490.94
447.35	1465.94
447.571	1466.94
447.792	1461.94
448.013	1459.94
448.234	1425.94
448.455	1419.94
448.675	1416.94
448.896	1435.94
449.117	1374.94
449.338	1396.94
449.559	1378.94
449.779	1375.94
450	1370.94
450.221	1353.94
450.442	1412.94
450.662	1375.94
450.883	1374.94
451.104	1424.94
451.324	1383.94
451.545	1361.94
451.766	1353.94
451.986	1386.94
452.207	1401.94
452.428	1385.94
452.648	1381.94
452.869	1348.94
453.089	1328.94
453.31	1338.94
453.53	1355.94
453.751	1330.94
453.971	1316.94
454.192	1323.94
454.412	1327.94
454.633	1318.94
454.853	1326.94
455.073	1309.94
455.294	1298.94
455.514	1286.94
455.734	1319.94
455.955	1283.94
456.175	1292.94
456.395	1285.94
456.616	1277.94
456.836	1293.94
457.056	1267.94
457.276	1282.94
457.497	1289.94
457.717	1333.94
457.937	1327.94
458.157	1348.94
458.377	1351.94
458.598	1395.94
458.818	1400.94
459.038	1434.94
459.258	1495.94
459.478	1524.94
459.698	1561.94
459.918	1567.94
460.138	1651.94
460.358	1701.94
460.578	1706.94
460.798	1721.94
461.018	1757.94
461.238	1746.94
461.458	1753.94
461.678	1752.94
461.898	1793.94
462.118	1751.94
462.338	1863.94
462.558	1902.94
462.777	1977.94
462.997	2089.94
463.217	2237.94
463.437	2210.94
463.657	2089.94
463.876	2027.94
464.096	2005.94
464.316	2002.94
464.536	2055.94
464.755	1967.94
464.975	1912.94
465.195	1786.94
465.414	1731.94
465.634	1669.94
465.854	1613.94
466.073	1569.94
466.293	1523.94
466.512	1479.94
466.732	1476.94
466.951	1489.94
467.171	1464.94
467.391	1443.94
467.61	1443.94
467.829	1408.94
468.049	1422.94
468.268	1412.94
468.488	1395.94
468.707	1391.94
468.927	1414.94
469.146	1394.94
469.365	1427.94
469.585	1428.94
469.804	1439.94
470.023	1497.94
470.243	1463.94
470.462	1480.94
470.681	1507.94
470.901	1545.94
471.12	1505.94
471.339	1439.94
471.558	1469.94
471.777	1428.94
471.997	1417.94
472.216	1404.94
472.435	1433.94
472.654	1392.94
472.873	1400.94
473.092	1369.94
473.311	1409.94
473.53	1414.94
473.749	1394.94
473.968	1385.94
474.187	1399.94
474.406	1382.94
474.625	1440.94
474.844	1407.94
475.063	1417.94
475.282	1437.94
475.501	1383.94
475.72	1456.94
475.939	1459.94
476.158	1451.94
476.377	1473.94
476.596	1445.94
476.814	1481.94
477.033	1526.94
477.252	1513.94
477.471	1539.94
477.69	1586.94
477.908	1621.94
478.127	1638.94
478.346	1645.94
478.564	1661.94
478.783	1755.94
479.002	1702.94
479.22	1764.94
479.439	1752.94
479.658	1732.94
479.876	1778.94
480.095	1801.94
480.313	1825.94
480.532	1844.94
480.751	1858.94
480.969	1810.94
481.188	1776.94
481.406	1743.94
481.624	1758.94
481.843	1675.94
482.061	1681.94
482.28	1698.94
482.498	1695.94
482.717	1732.94
482.935	1730.94
483.153	1734.94
483.372	1732.94
483.59	1747.94
483.808	1690.94
484.027	1722.94
484.245	1763.94
484.463	1827.94
484.681	1834.94
484.9	1814.94
485.118	1839.94
485.336	1832.94
485.554	1888.94
485.772	1904.94
485.99	1877.94
486.209	1890.94
486.427	1871.94
486.645	1877.94
486.863	1853.94
487.081	1837.94
487.299	1876.94
487.517	1830.94
487.735	1825.94
487.953	1813.94
488.171	1862.94
488.389	1820.94
488.607	1790.94
488.825	1776.94
489.043	1743.94
489.261	1799.94
489.479	1753.94
489.696	1776.94
489.914	1773.94
490.132	1804.94
490.35	1753.94
490.568	1750.94
490.786	1756.94
491.003	1728.94
491.221	1784.94
491.439	1763.94
491.657	1766.94
491.874	1752.94
492.092	1729.94
492.31	1744.94
492.527	1714.94
492.745	1731.94
492.963	1789.94
493.18	1759.94
493.398	1774.94
493.615	1770.94
493.833	1821.94
494.05	1744.94
494.268	1794.94
494.485	1789.94
494.703	1777.94
494.92	1792.94
495.138	1813.94
495.355	1818.94
495.573	1817.94
495.79	1813.94
496.008	1833.94
496.225	1851.94
496.442	1864.94
496.66	1865.94
496.877	1887.94
497.094	1922.94
497.312	1966.94
497.529	1997.94
497.746	2034.94
497.963	2050.94
498.181	2164.94
498.398	2261.94
498.615	2362.94
498.832	2525.94
499.049	2651.94
499.267	2819.94
499.484	3078.94
499.701	3318.94
499.918	3545.94
500.135	3965.94
500.352	4315.94
500.569	4506.94
500.786	4469.94
501.003	4239.94
501.22	3958.94
501.437	3601.94
501.654	3234.94
501.871	2965.94
502.088	2793.94
502.305	2646.94
502.522	2472.94
502.739	2383.94
502.956	2275.94
503.172	2226.94
503.389	2115.94
503.606	2036.94
503.823	2011.94
504.04	2002.94
504.256	2024.94
504.473	2035.94
504.69	2020.94
504.907	1989.94
505.123	1900.94
505.34	1810.94
505.557	1737.94
505.773	1689.94
505.99	1656.94
506.207	1659.94
506.423	1573.94
506.64	1567.94
506.856	1571.94
507.073	1557.94
507.289	1526.94
507.506	1561.94
507.722	1519.94
507.939	1514.94
508.155	1440.94
508.372	1445.94
508.588	1463.94
508.805	1489.94
509.021	1456.94
509.238	1442.94
509.454	1440.94
509.67	1439.94
509.887	1429.94
510.103	1439.94
510.319	1432.94
510.536	1429.94
510.752	1388.94
510.968	1403.94
511.184	1405.94
511.401	1430.94
511.617	1403.94
511.833	1357.94
512.049	1376.94
512.265	1427.94
512.481	1371.94
512.698	1374.94
512.914	1368.94
513.13	1380.94
513.346	1367.94
513.562	1385.94
513.778	1377.94
513.994	1408.94
514.21	1377.94
514.426	1433.94
514.642	1387.94
514.858	1418.94
515.074	1447.94
515.29	1449.94
515.506	1440.94
515.721	1456.94
515.937	1495.94
516.153	1493.94
516.369	1566.94
516.585	1568.94
516.801	1620.94
517.016	1691.94
517.232	1728.94
517.448	1792.94
517.664	1861.94
517.879	1830.94
518.095	1811.94
518.311	1828.94
518.527	1732.94
518.742	1705.94
518.958	1594.94
519.173	1578.94
519.389	1553.94
519.605	1509.94
519.82	1489.94
520.036	1444.94
520.251	1387.94
520.467	1432.94
520.682	1399.94
520.898	1407.94
521.113	1376.94
521.329	1365.94
521.544	1325.94
521.76	1348.94
521.975	1283.94
522.19	1345.94
522.406	1290.94
522.621	1299.94
522.836	1322.94
523.052	1282.94
523.267	1260.94
523.482	1281.94
523.698	1278.94
523.913	1293.94
524.128	1267.94
524.343	1270.94
524.559	1270.94
524.774	1253.94
524.989	1251.94
525.204	1259.94
525.419	1248.94
525.634	1206.94
525.849	1217.94
526.064	1234.94
526.28	1219.94
526.495	1236.94
526.71	1241.94
526.925	1236.94
527.14	1234.94
527.355	1232.94
527.57	1249.94
527.785	1214.94
527.999	1198.94
528.214	1239.94
528.429	1235.94
528.644	1238.94
528.859	1240.94
529.074	1188.94
529.289	1210.94
529.503	1247.94
529.718	1217.94
529.933	1213.94
530.148	1211.94
530.363	1199.94
530.577	1207.94
530.792	1216.94
531.007	1215.94
531.221	1233.94
531.436	1239.94
531.651	1211.94
531.865	1230.94
532.08	1230.94
532.295	1222.94
532.509	1183.94
532.724	1222.94
532.938	1226.94
533.153	1200.94
533.367	1211.94
533.582	1221.94
533.796	1201.94
534.011	1223.94
534.225	1159.94
534.44	1193.94
534.654	1185.94
534.868	1218.94
535.083	1175.94
535.297	1162.94
535.511	1191.94
535.726	1167.94
535.94	1141.94
536.154	1116.94
536.369	1143.94
536.583	1125.94
536.797	1116.94
537.011	1133.94
537.225	1150.94
537.44	1115.94
537.654	1143.94
537.868	1139.94
538.082	1113.94
538.296	1105.94
538.51	1108.94
538.724	1106.94
538.938	1113.94
539.153	1107.94
539.367	1092.94
539.581	1099.94
539.795	1092.94
540.009	1110.94
540.222	1117.94
540.436	1074.94
540.65	1084.94
540.864	1068.94
541.078	1065.94
541.292	1058.94
541.506	1080.94
541.72	1069.94
541.934	1088.94
542.147	1086.94
542.361	1067.94
542.575	1069.94
542.789	1039.94
543.002	1049.94
543.216	1051.94
543.43	1073.94
543.644	1073.94
543.857	1042.94
544.071	1059.94
544.285	1103.94
544.498	1067.94
544.712	1082.94
544.925	1073.94
545.139	1101.94
545.352	1067.94
545.566	1069.94
545.779	1094.94
545.993	1077.94
546.206	1093.94
546.42	1042.94
546.633	1071.94
546.847	1107.94
547.06	1073.94
547.274	1091.94
547.487	1064.94
547.7	1079.94
547.914	1078.94
548.127	1117.94
548.34	1071.94
548.554	1094.94
548.767	1112.94
548.98	1070.94
549.193	1086.94
549.407	1107.94
549.62	1123.94
549.833	1106.94
550.046	1099.94
550.259	1101.94
550.473	1082.94
550.686	1082.94
550.899	1072.94
551.112	1077.94
551.325	1061.94
551.538	1091.94
551.751	1060.94
551.964	1088.94
552.177	1074.94
552.39	1107.94
552.603	1131.94
552.816	1163.94
553.029	1144.94
553.242	1197.94
553.455	1191.94
553.667	1179.94
553.88	1154.94
554.093	1139.94
554.306	1102.94
554.519	1085.94
554.732	1099.94
554.944	1046.94
555.157	1025.94
555.37	1034.94
555.583	1006.94
555.795	977.94
556.008	1001.94
556.221	964.94
556.433	962.94
556.646	971.94
556.859	956.94
557.071	947.94
557.284	947.94
557.496	925.94
557.709	951.94
557.921	922.94
558.134	923.94
558.346	921.94
558.559	919.94
558.771	931.94
558.984	913.94
559.196	889.94
559.409	886.94
559.621	895.94
559.833	898.94
560.046	905.94
560.258	872.94
560.47	901.94
560.683	913.94
560.895	866.94
561.107	873.94
561.32	922.94
561.532	900.94
561.744	897.94
561.956	902.94
562.168	898.94
562.381	896.94
562.593	898.94
562.805	891.94
563.017	903.94
563.229	887.94
563.441	924.94
563.653	909.94
563.865	926.94
564.077	935.94
564.289	962.94
564.501	939.94
564.713	935.94
564.925	989.94
565.137	990.94
565.349	1024.94
565.561	1018.94
565.773	1089.94
565.985	1110.94
566.197	1161.94
566.408	1202.94
566.62	1313.94
566.832	1380.94
567.044	1396.94
567.255	1399.94
567.467	1430.94
567.679	1480.94
567.891	1538.94
568.102	1562.94
568.314	1505.94
568.526	1410.94
568.737	1284.94
568.949	1205.94
569.161	1143.94
569.372	1080.94
569.584	1043.94
569.795	996.94
570.007	958.94
570.218	951.94
570.43	922.94
570.641	929.94
570.853	902.94
571.064	914.94
571.276	907.94
571.487	900.94
571.698	855.94
571.91	840.94
572.121	821.94
572.333	819.94
572.544	773.94
572.755	779.94
572.966	783.94
573.178	779.94
573.389	757.94
573.6	752.94
573.811	728.94
574.023	728.94
574.234	737.94
574.445	742.94
574.656	710.94
574.867	753.94
575.078	727.94
575.289	733.94
575.501	722.94
575.712	711.94
575.923	689.94
576.134	695.94
576.345	690.94
576.556	705.94
576.767	677.94
576.978	686.94
577.188	696.94
577.399	670.94
577.61	667.94
577.821	650.94
578.032	655.94
578.243	682.94
578.454	649.94
578.665	647.94
578.875	627.94
579.086	624.94
579.297	656.94
579.508	650.94
579.718	629.94
579.929	635.94
580.14	619.94
580.35	619.94
580.561	630.94
580.772	623.94
580.982	619.94
581.193	615.94
581.403	604.94
581.614	597.94
581.825	623.94
582.035	618.94
582.246	593.94
582.456	596.94
582.667	616.94
582.877	624.94
583.087	617.94
583.298	613.94
583.508	621.94
583.719	598.94
583.929	587.94
584.139	605.94
584.35	592.94
584.56	597.94
584.77	588.94
584.981	599.94
585.191	603.94
585.401	576.94
585.611	588.94
585.821	595.94
586.032	615.94
586.242	586.94
586.452	588.94
586.662	570.94
586.872	589.94
587.082	575.94
587.292	580.94
587.502	587.94
587.713	591.94
587.923	578.94
588.133	589.94
588.343	573.94
588.553	588.94
588.762	582.94
588.972	576.94
589.182	578.94
589.392	576.94
589.602	574.94
589.812	599.94
590.022	608.94
590.232	600.94
590.441	589.94
590.651	600.94
590.861	563.94
591.071	573.94
591.281	617.94
591.49	623.94
591.7	615.94
591.91	645.94
592.119	592.94
592.329	633.94
592.539	645.94
592.748	643.94
592.958	675.94
593.167	681.94
593.377	690.94
593.587	725.94
593.796	719.94
594.006	697.94
594.215	711.94
594.424	694.94
594.634	686.94
594.843	651.94
595.053	649.94
595.262	651.94
595.472	588.94
595.681	591.94
595.89	611.94
596.1	586.94
596.309	583.94
596.518	550.94
596.727	546.94
596.937	527.94
597.146	510.94
597.355	551.94
597.564	524.94
597.774	515.94
597.983	527.94
598.192	500.94
598.401	527.94
598.61	512.94
598.819	506.94
599.028	482.94
599.237	486.94
599.446	500.94
599.655	490.94
599.864	481.94
600.073	508.94
600.282	487.94
600.491	497.94
600.7	497.94
600.909	465.94
601.118	476.94
601.327	475.94
601.536	456.94
601.745	470.94
601.953	483.94
602.162	469.94
602.371	457.94
602.58	460.94
602.789	461.94
602.997	447.94
603.206	461.94
603.415	453.94
603.623	440.94
603.832	434.94
604.041	467.94
604.249	433.94
604.458	440.94
604.666	445.94
604.875	440.94
605.084	438.94
605.292	446.94
605.501	457.94
605.709	454.94
605.918	429.94
606.126	439.94
606.334	426.94
606.543	443.94
606.751	437.94
606.96	447.94
607.168	425.94
607.376	405.94
607.585	417.94
607.793	418.94
608.001	433.94
608.21	416.94
608.418	429.94
608.626	435.94
608.834	431.94
609.043	421.94
609.251	434.94
609.459	421.94
609.667	416.94
609.875	419.94
610.083	419.94
610.291	406.94
610.499	413.94
610.707	423.94
610.916	420.94
611.124	418.94
611.332	414.94
611.54	394.94
611.748	395.94
611.955	408.94
612.163	399.94
612.371	397.94
612.579	395.94
612.787	421.94
612.995	415.94
613.203	394.94
613.411	407.94
613.618	395.94
613.826	427.94
614.034	407.94
614.242	392.94
614.449	402.94
614.657	394.94
614.865	391.94
615.072	398.94
615.28	396.94
615.488	408.94
615.695	399.94
615.903	390.94
616.111	431.94
616.318	411.94
616.526	409.94
616.733	417.94
616.941	395.94
617.148	398.94
617.356	404.94
617.563	388.94
617.771	422.94
617.978	397.94
618.185	391.94
618.393	383.94
618.6	400.94
618.807	392.94
619.015	396.94
619.222	377.94
619.429	383.94
619.637	388.94
619.844	395.94
620.051	381.94
620.258	398.94
620.466	381.94
620.673	368.94
620.88	372.94
621.087	363.94
621.294	378.94
621.501	359.94
621.708	345.94
621.915	377.94
622.122	366.94
622.329	381.94
622.536	374.94
622.743	381.94
622.95	365.94
623.157	355.94
623.364	357.94
623.571	345.94
623.778	370.94
623.985	355.94
624.192	349.94
624.399	359.94
624.606	365.94
624.812	356.94
625.019	359.94
625.226	347.94
625.433	353.94
625.639	343.94
625.846	338.94
626.053	334.94
626.259	346.94
626.466	330.94
626.673	343.94
626.879	350.94
627.086	326.94
627.293	331.94
627.499	313.94
627.706	323.94
627.912	330.94
628.119	346.94
628.325	340.94
628.532	314.94
628.738	331.94
628.945	350.94
629.151	344.94
629.357	325.94
629.564	327.94
629.77	319.94
629.976	307.94
630.183	307.94
630.389	319.94
630.595	333.94
630.802	320.94
631.008	307.94
631.214	309.94
631.42	323.94
631.627	320.94
631.833	309.94
632.039	306.94
632.245	302.94
632.451	314.94
632.657	308.94
632.863	295.94
633.069	292.94
633.275	298.94
633.481	288.94
633.688	295.94
633.893	281.94
634.099	301.94
634.305	292.94
634.511	301.94
634.717	307.94
634.923	288.94
635.129	307.94
635.335	287.94
635.541	290.94
635.747	324.94
635.952	302.94
636.158	303.94
636.364	306.94
636.57	268.94
636.775	295.94
636.981	290.94
637.187	279.94
637.392	297.94
637.598	285.94
637.804	291.94
638.009	294.94
638.215	289.94
638.421	268.94
638.626	286.94
638.832	282.94
639.037	273.94
639.243	280.94
639.448	283.94
639.654	278.94
639.859	278.94
640.065	285.94
640.27	280.94
640.475	270.94
640.681	281.94
640.886	273.94
641.091	279.94
641.297	279.94
641.502	272.94
641.707	238.94
641.913	237.94
642.118	262.94
642.323	285.94
642.528	273.94
642.733	281.94
642.939	273.94
643.144	274.94
643.349	279.94
643.554	269.94
643.759	277.94
643.964	261.94
644.169	268.94
644.374	266.94
644.579	277.94
644.784	285.94
644.989	288.94
645.194	263.94
645.399	261.94
645.604	270.94
645.809	265.94
646.014	240.94
646.219	266.94
646.423	274.94
646.628	281.94
646.833	282.94
647.038	280.94
647.243	265.94
647.447	282.94
647.652	286.94
647.857	291.94
648.062	306.94
648.266	313.94
648.471	315.94
648.676	301.94
648.88	302.94
649.085	323.94
649.289	296.94
649.494	296.94
649.698	289.94
649.903	287.94
650.107	287.94
650.312	288.94
650.516	245.94
650.721	275.94
650.925	250.94
651.13	269.94
651.334	277.94
651.539	257.94
651.743	258.94
651.947	272.94
652.152	239.94
652.356	254.94
652.56	265.94
652.764	264.94
652.969	267.94
653.173	249.94
653.377	251.94
653.581	260.94
653.785	263.94
653.99	261.94
654.194	262.94
654.398	278.94
654.602	279.94
654.806	269.94
655.01	274.94
655.214	292.94
655.418	297.94
655.622	332.94
655.826	341.94
656.03	337.94
656.234	361.94
656.438	394.94
656.642	414.94
656.846	375.94
657.049	330.94
657.253	294.94
657.457	271.94
657.661	241.94
657.865	210.94
658.068	187.94
658.272	189.94
658.476	179.94
658.68	184.94
658.883	175.94
659.087	143.94
659.291	150.94
659.494	140.94
659.698	146.94
659.901	118.94
660.105	134.94
660.309	117.94
660.512	112.94
660.716	125.94
660.919	115.94
661.123	98.94
661.326	103.94
661.53	110.94
661.733	97.94
661.936	95.94
662.14	88.94
662.343	88.94
662.546	91.94
662.75	98.94
662.953	85.94
663.156	80.94
663.36	83.94
663.563	88.94
663.766	82.94
663.969	86.94
664.173	82.94
664.376	91.94
664.579	76.94
664.782	76.94
664.985	88.94
665.188	75.94
665.391	78.94
665.594	68.94
665.797	75.94
666	74.94
666.203	78.94
666.406	89.94
666.609	66.94
666.812	85.94
667.015	77.94
667.218	79.94
667.421	95.94
667.624	90.94
667.827	84.94
668.03	81.94
668.232	79.94
668.435	82.94
668.638	67.94
668.841	77.94
669.043	76.94
669.246	95.94
669.449	79.94
669.651	79.94
669.854	73.94
670.057	62.94
670.259	71.94
670.462	82.94
670.665	88.94
670.867	95.94
671.07	83.94
671.272	85.94
671.475	95.94
671.677	80.94
671.88	86.94
672.082	73.94
672.284	74.94
672.487	79.94
672.689	69.94
672.892	69.94
