Data from NiCl2@0.125M.TitratingCurve.Agarose3%dH2O.NegLispCup.LampEnergy10.LIBS07252019_HRD10591_18-30-21-575.txt Node
Date: Thu Jul 25 18:30:21 EDT 2019
User: cochatt
Spectrometer: HR+D1059
Trigger mode: 1
Integration Time (sec): 1.000000E-1
Scans to average: 1
Electric dark correction enabled: true
Nonlinearity correction enabled: false
Boxcar width: 0
XAxis mode: Wavelengths
Number of Pixels in Spectrum: 2048
>>>>>Begin Spectral Data<<<<<
223.165	1.06
223.4	1.06
223.635	1.06
223.869	-24.94
224.104	-18.94
224.338	-15.94
224.573	-29.94
224.808	-19.94
225.042	-2.94
225.277	-7.94
225.511	7.06
225.746	4.06
225.98	7.06
226.215	-0.94
226.449	8.06
226.683	27.06
226.918	34.06
227.152	33.06
227.387	45.06
227.621	35.06
227.856	28.06
228.09	45.06
228.324	50.06
228.559	40.06
228.793	62.06
229.027	103.06
229.262	104.06
229.496	115.06
229.73	115.06
229.964	122.06
230.199	111.06
230.433	120.06
230.667	142.06
230.901	124.06
231.136	128.06
231.37	133.06
231.604	138.06
231.838	136.06
232.072	142.06
232.306	139.06
232.541	139.06
232.775	147.06
233.009	133.06
233.243	139.06
233.477	161.06
233.711	147.06
233.945	140.06
234.179	142.06
234.413	134.06
234.647	146.06
234.881	135.06
235.115	138.06
235.349	153.06
235.583	148.06
235.817	130.06
236.051	137.06
236.285	150.06
236.519	148.06
236.753	154.06
236.987	140.06
237.221	157.06
237.455	148.06
237.689	154.06
237.922	144.06
238.156	169.06
238.39	162.06
238.624	161.06
238.858	158.06
239.091	156.06
239.325	161.06
239.559	184.06
239.793	172.06
240.027	173.06
240.26	163.06
240.494	178.06
240.728	171.06
240.961	158.06
241.195	165.06
241.429	163.06
241.662	171.06
241.896	167.06
242.13	174.06
242.363	178.06
242.597	177.06
242.83	195.06
243.064	174.06
243.298	191.06
243.531	206.06
243.765	192.06
243.998	206.06
244.232	184.06
244.465	197.06
244.699	205.06
244.932	200.06
245.166	194.06
245.399	225.06
245.633	210.06
245.866	195.06
246.099	200.06
246.333	206.06
246.566	204.06
246.8	218.06
247.033	220.06
247.266	210.06
247.5	230.06
247.733	223.06
247.966	219.06
248.2	209.06
248.433	230.06
248.666	245.06
248.899	228.06
249.133	219.06
249.366	225.06
249.599	213.06
249.832	226.06
250.066	248.06
250.299	229.06
250.532	228.06
250.765	250.06
250.998	217.06
251.231	234.06
251.465	236.06
251.698	246.06
251.931	249.06
252.164	243.06
252.397	250.06
252.63	270.06
252.863	236.06
253.096	213.06
253.329	262.06
253.562	254.06
253.795	271.06
254.028	258.06
254.261	269.06
254.494	264.06
254.727	273.06
254.96	270.06
255.193	274.06
255.426	271.06
255.659	283.06
255.892	289.06
256.124	278.06
256.357	269.06
256.59	275.06
256.823	264.06
257.056	275.06
257.289	266.06
257.521	277.06
257.754	276.06
257.987	290.06
258.22	286.06
258.452	275.06
258.685	284.06
258.918	295.06
259.151	293.06
259.383	288.06
259.616	292.06
259.849	300.06
260.081	283.06
260.314	292.06
260.547	290.06
260.779	281.06
261.012	312.06
261.244	304.06
261.477	314.06
261.71	301.06
261.942	303.06
262.175	290.06
262.407	301.06
262.64	304.06
262.872	300.06
263.105	316.06
263.337	326.06
263.57	321.06
263.802	310.06
264.035	319.06
264.267	329.06
264.499	330.06
264.732	331.06
264.964	334.06
265.197	329.06
265.429	334.06
265.661	340.06
265.894	328.06
266.126	326.06
266.358	323.06
266.591	332.06
266.823	337.06
267.055	346.06
267.287	335.06
267.52	333.06
267.752	340.06
267.984	349.06
268.216	348.06
268.448	348.06
268.681	338.06
268.913	372.06
269.145	376.06
269.377	365.06
269.609	354.06
269.841	334.06
270.073	362.06
270.306	344.06
270.538	350.06
270.77	350.06
271.002	341.06
271.234	350.06
271.466	352.06
271.698	368.06
271.93	368.06
272.162	367.06
272.394	384.06
272.626	350.06
272.858	370.06
273.09	386.06
273.322	370.06
273.553	384.06
273.785	385.06
274.017	336.06
274.249	375.06
274.481	378.06
274.713	367.06
274.945	384.06
275.176	386.06
275.408	376.06
275.64	376.06
275.872	391.06
276.104	371.06
276.335	383.06
276.567	387.06
276.799	376.06
277.031	377.06
277.262	379.06
277.494	398.06
277.726	398.06
277.957	410.06
278.189	399.06
278.421	390.06
278.652	386.06
278.884	405.06
279.115	404.06
279.347	425.06
279.579	430.06
279.81	416.06
280.042	404.06
280.273	404.06
280.505	391.06
280.736	395.06
280.968	418.06
281.199	438.06
281.431	425.06
281.662	445.06
281.894	436.06
282.125	423.06
282.356	424.06
282.588	433.06
282.819	440.06
283.051	439.06
283.282	447.06
283.513	431.06
283.745	435.06
283.976	440.06
284.207	440.06
284.439	448.06
284.67	480.06
284.901	447.06
285.132	452.06
285.364	455.06
285.595	458.06
285.826	450.06
286.057	453.06
286.288	468.06
286.52	458.06
286.751	455.06
286.982	442.06
287.213	458.06
287.444	449.06
287.675	462.06
287.906	483.06
288.138	498.06
288.369	481.06
288.6	477.06
288.831	481.06
289.062	471.06
289.293	476.06
289.524	475.06
289.755	489.06
289.986	499.06
290.217	476.06
290.448	489.06
290.679	499.06
290.91	492.06
291.141	461.06
291.371	485.06
291.602	483.06
291.833	478.06
292.064	462.06
292.295	480.06
292.526	476.06
292.757	490.06
292.987	488.06
293.218	474.06
293.449	484.06
293.68	482.06
293.91	513.06
294.141	489.06
294.372	492.06
294.603	498.06
294.833	511.06
295.064	515.06
295.295	533.06
295.525	506.06
295.756	510.06
295.987	508.06
296.217	509.06
296.448	512.06
296.679	510.06
296.909	508.06
297.14	513.06
297.37	528.06
297.601	487.06
297.831	537.06
298.062	527.06
298.292	548.06
298.523	549.06
298.753	572.06
298.984	552.06
299.214	552.06
299.445	546.06
299.675	518.06
299.905	546.06
300.136	533.06
300.366	537.06
300.597	561.06
300.827	546.06
301.057	584.06
301.288	553.06
301.518	572.06
301.748	556.06
301.979	563.06
302.209	581.06
302.439	565.06
302.669	556.06
302.9	534.06
303.13	547.06
303.36	569.06
303.59	546.06
303.82	557.06
304.051	540.06
304.281	548.06
304.511	560.06
304.741	553.06
304.971	538.06
305.201	540.06
305.431	538.06
305.661	560.06
305.891	494.06
306.121	548.06
306.352	540.06
306.582	559.06
306.812	544.06
307.042	534.06
307.272	529.06
307.502	530.06
307.731	549.06
307.961	565.06
308.191	541.06
308.421	534.06
308.651	520.06
308.881	537.06
309.111	536.06
309.341	532.06
309.571	523.06
309.8	535.06
310.03	542.06
310.26	538.06
310.49	543.06
310.72	526.06
310.949	537.06
311.179	533.06
311.409	539.06
311.639	550.06
311.868	551.06
312.098	560.06
312.328	568.06
312.557	570.06
312.787	539.06
313.017	572.06
313.246	559.06
313.476	563.06
313.706	562.06
313.935	590.06
314.165	590.06
314.394	580.06
314.624	580.06
314.853	580.06
315.083	557.06
315.312	566.06
315.542	574.06
315.771	573.06
316.001	557.06
316.23	581.06
316.46	564.06
316.689	570.06
316.919	548.06
317.148	567.06
317.377	541.06
317.607	570.06
317.836	551.06
318.065	561.06
318.295	574.06
318.524	572.06
318.753	558.06
318.983	532.06
319.212	548.06
319.441	541.06
319.67	546.06
319.9	546.06
320.129	547.06
320.358	570.06
320.587	567.06
320.816	558.06
321.046	568.06
321.275	569.06
321.504	566.06
321.733	566.06
321.962	559.06
322.191	575.06
322.42	600.06
322.649	579.06
322.878	561.06
323.108	570.06
323.337	578.06
323.566	577.06
323.795	561.06
324.024	600.06
324.253	572.06
324.482	600.06
324.71	584.06
324.939	569.06
325.168	572.06
325.397	576.06
325.626	606.06
325.855	615.06
326.084	627.06
326.313	631.06
326.542	624.06
326.77	621.06
326.999	599.06
327.228	576.06
327.457	615.06
327.686	600.06
327.914	639.06
328.143	606.06
328.372	595.06
328.6	604.06
328.829	600.06
329.058	603.06
329.287	608.06
329.515	638.06
329.744	603.06
329.972	602.06
330.201	625.06
330.43	637.06
330.658	635.06
330.887	635.06
331.115	626.06
331.344	646.06
331.572	634.06
331.801	686.06
332.03	649.06
332.258	668.06
332.486	713.06
332.715	723.06
332.943	776.06
333.172	757.06
333.4	829.06
333.629	839.06
333.857	844.06
334.085	850.06
334.314	847.06
334.542	806.06
334.771	792.06
334.999	766.06
335.227	732.06
335.455	766.06
335.684	743.06
335.912	751.06
336.14	747.06
336.369	723.06
336.597	764.06
336.825	754.06
337.053	753.06
337.281	733.06
337.51	698.06
337.738	696.06
337.966	688.06
338.194	701.06
338.422	662.06
338.65	663.06
338.878	670.06
339.106	665.06
339.334	677.06
339.562	669.06
339.79	632.06
340.018	636.06
340.246	628.06
340.474	631.06
340.702	627.06
340.93	636.06
341.158	622.06
341.386	621.06
341.614	631.06
341.842	638.06
342.07	633.06
342.298	637.06
342.526	628.06
342.754	640.06
342.981	645.06
343.209	657.06
343.437	644.06
343.665	717.06
343.893	754.06
344.12	802.06
344.348	791.06
344.576	727.06
344.804	679.06
345.031	661.06
345.259	671.06
345.487	642.06
345.714	618.06
345.942	620.06
346.17	624.06
346.397	631.06
346.625	639.06
346.853	620.06
347.08	609.06
347.308	627.06
347.535	648.06
347.763	659.06
347.99	661.06
348.218	672.06
348.445	637.06
348.673	618.06
348.9	640.06
349.128	651.06
349.355	592.06
349.583	601.06
349.81	614.06
350.037	604.06
350.265	590.06
350.492	611.06
350.72	612.06
350.947	613.06
351.174	604.06
351.402	609.06
351.629	605.06
351.856	590.06
352.083	608.06
352.311	615.06
352.538	570.06
352.765	626.06
352.992	605.06
353.22	599.06
353.447	585.06
353.674	581.06
353.901	595.06
354.128	594.06
354.355	578.06
354.583	590.06
354.81	612.06
355.037	616.06
355.264	604.06
355.491	595.06
355.718	607.06
355.945	591.06
356.172	590.06
356.399	601.06
356.626	589.06
356.853	608.06
357.08	597.06
357.307	607.06
357.534	590.06
357.761	609.06
357.988	592.06
358.215	606.06
358.441	587.06
358.668	596.06
358.895	601.06
359.122	587.06
359.349	590.06
359.576	604.06
359.802	586.06
360.029	581.06
360.256	627.06
360.483	593.06
360.709	611.06
360.936	622.06
361.163	611.06
361.39	590.06
361.616	613.06
361.843	590.06
362.07	608.06
362.296	597.06
362.523	603.06
362.749	608.06
362.976	588.06
363.203	607.06
363.429	606.06
363.656	603.06
363.882	602.06
364.109	594.06
364.335	604.06
364.562	612.06
364.788	567.06
365.015	606.06
365.241	567.06
365.468	594.06
365.694	591.06
365.92	588.06
366.147	592.06
366.373	592.06
366.599	594.06
366.826	600.06
367.052	601.06
367.278	607.06
367.505	597.06
367.731	586.06
367.957	597.06
368.184	589.06
368.41	592.06
368.636	589.06
368.862	632.06
369.089	613.06
369.315	605.06
369.541	600.06
369.767	624.06
369.993	638.06
370.219	624.06
370.445	630.06
370.672	634.06
370.898	640.06
371.124	628.06
371.35	642.06
371.576	628.06
371.802	676.06
372.028	670.06
372.254	638.06
372.48	655.06
372.706	650.06
372.932	678.06
373.158	684.06
373.384	660.06
373.61	673.06
373.835	652.06
374.061	670.06
374.287	657.06
374.513	662.06
374.739	704.06
374.965	710.06
375.191	725.06
375.416	718.06
375.642	697.06
375.868	688.06
376.094	685.06
376.319	688.06
376.545	674.06
376.771	654.06
376.997	676.06
377.222	658.06
377.448	648.06
377.674	662.06
377.899	656.06
378.125	624.06
378.35	629.06
378.576	660.06
378.802	646.06
379.027	618.06
379.253	663.06
379.478	620.06
379.704	645.06
379.929	638.06
380.155	637.06
380.38	634.06
380.606	632.06
380.831	636.06
381.057	632.06
381.282	629.06
381.507	638.06
381.733	669.06
381.958	667.06
382.184	676.06
382.409	681.06
382.634	688.06
382.86	708.06
383.085	698.06
383.31	717.06
383.535	742.06
383.761	714.06
383.986	748.06
384.211	744.06
384.436	783.06
384.662	762.06
384.887	791.06
385.112	784.06
385.337	755.06
385.562	796.06
385.787	762.06
386.013	807.06
386.238	795.06
386.463	787.06
386.688	800.06
386.913	783.06
387.138	787.06
387.363	782.06
387.588	758.06
387.813	777.06
388.038	766.06
388.263	765.06
388.488	769.06
388.713	784.06
388.938	760.06
389.163	741.06
389.387	758.06
389.612	774.06
389.837	760.06
390.062	757.06
390.287	756.06
390.512	744.06
390.736	762.06
390.961	774.06
391.186	763.06
391.411	818.06
391.636	836.06
391.86	869.06
392.085	909.06
392.31	872.06
392.534	872.06
392.759	842.06
392.984	822.06
393.208	819.06
393.433	836.06
393.658	858.06
393.882	810.06
394.107	840.06
394.331	838.06
394.556	834.06
394.78	845.06
395.005	848.06
395.229	808.06
395.454	840.06
395.678	875.06
395.903	868.06
396.127	859.06
396.352	837.06
396.576	830.06
396.801	805.06
397.025	818.06
397.249	842.06
397.474	857.06
397.698	867.06
397.922	862.06
398.147	862.06
398.371	873.06
398.595	895.06
398.82	948.06
399.044	1024.06
399.268	1145.06
399.492	1301.06
399.717	1522.06
399.941	1534.06
400.165	1330.06
400.389	1194.06
400.613	1081.06
400.837	1040.06
401.062	1010.06
401.286	997.06
401.51	956.06
401.734	970.06
401.958	1012.06
402.182	991.06
402.406	1024.06
402.63	1030.06
402.854	1057.06
403.078	1073.06
403.302	1098.06
403.526	1102.06
403.75	1146.06
403.974	1173.06
404.198	1135.06
404.422	1137.06
404.645	1144.06
404.869	1147.06
405.093	1144.06
405.317	1097.06
405.541	1124.06
405.765	1070.06
405.988	1095.06
406.212	1092.06
406.436	1098.06
406.66	1096.06
406.883	1126.06
407.107	1194.06
407.331	1240.06
407.555	1282.06
407.778	1276.06
408.002	1279.06
408.226	1183.06
408.449	1182.06
408.673	1118.06
408.896	1094.06
409.12	1090.06
409.344	1131.06
409.567	1099.06
409.791	1165.06
410.014	1144.06
410.238	1122.06
410.461	1128.06
410.685	1087.06
410.908	1074.06
411.132	1014.06
411.355	1041.06
411.578	1004.06
411.802	1004.06
412.025	1002.06
412.249	1057.06
412.472	1059.06
412.695	1010.06
412.919	963.06
413.142	976.06
413.365	961.06
413.589	980.06
413.812	961.06
414.035	948.06
414.258	968.06
414.482	960.06
414.705	999.06
414.928	1030.06
415.151	984.06
415.374	1015.06
415.597	998.06
415.821	958.06
416.044	972.06
416.267	934.06
416.49	965.06
416.713	954.06
416.936	978.06
417.159	970.06
417.382	936.06
417.605	946.06
417.828	941.06
418.051	980.06
418.274	973.06
418.497	983.06
418.72	1006.06
418.943	1002.06
419.166	1060.06
419.389	1160.06
419.611	1106.06
419.834	1048.06
420.057	1012.06
420.28	1010.06
420.503	972.06
420.726	1006.06
420.948	978.06
421.171	966.06
421.394	991.06
421.617	967.06
421.839	980.06
422.062	972.06
422.285	982.06
422.507	1014.06
422.73	1012.06
422.953	1015.06
423.175	1020.06
423.398	1050.06
423.621	1049.06
423.843	1058.06
424.066	1069.06
424.288	1067.06
424.511	1024.06
424.733	1023.06
424.956	1018.06
425.178	995.06
425.401	1012.06
425.623	976.06
425.846	943.06
426.068	961.06
426.291	912.06
426.513	918.06
426.735	893.06
426.958	926.06
427.18	901.06
427.402	867.06
427.625	888.06
427.847	872.06
428.069	878.06
428.292	852.06
428.514	888.06
428.736	856.06
428.958	906.06
429.181	847.06
429.403	865.06
429.625	861.06
429.847	844.06
430.069	869.06
430.292	850.06
430.514	835.06
430.736	848.06
430.958	868.06
431.18	848.06
431.402	857.06
431.624	862.06
431.846	894.06
432.068	892.06
432.29	856.06
432.512	856.06
432.734	872.06
432.956	879.06
433.178	871.06
433.4	876.06
433.622	881.06
433.844	897.06
434.066	893.06
434.287	898.06
434.509	925.06
434.731	961.06
434.953	992.06
435.175	1014.06
435.397	991.06
435.618	932.06
435.84	906.06
436.062	907.06
436.284	888.06
436.505	879.06
436.727	898.06
436.949	905.06
437.17	855.06
437.392	870.06
437.614	863.06
437.835	832.06
438.057	820.06
438.278	836.06
438.5	809.06
438.721	807.06
438.943	838.06
439.165	821.06
439.386	847.06
439.608	867.06
439.829	859.06
440.05	872.06
440.272	884.06
440.493	888.06
440.715	902.06
440.936	912.06
441.158	922.06
441.379	952.06
441.6	1013.06
441.822	1016.06
442.043	1000.06
442.264	1026.06
442.486	972.06
442.707	960.06
442.928	980.06
443.149	970.06
443.371	952.06
443.592	978.06
443.813	975.06
444.034	960.06
444.255	1029.06
444.476	1090.06
444.698	1150.06
444.919	1205.06
445.14	1306.06
445.361	1155.06
445.582	1018.06
445.803	978.06
446.024	936.06
446.245	927.06
446.466	933.06
446.687	886.06
446.908	904.06
447.129	874.06
447.35	851.06
447.571	871.06
447.792	824.06
448.013	825.06
448.234	830.06
448.455	843.06
448.675	818.06
448.896	821.06
449.117	815.06
449.338	824.06
449.559	818.06
449.779	794.06
450	800.06
450.221	788.06
450.442	839.06
450.662	810.06
450.883	856.06
451.104	848.06
451.324	852.06
451.545	841.06
451.766	842.06
451.986	822.06
452.207	819.06
452.428	823.06
452.648	856.06
452.869	813.06
453.089	794.06
453.31	799.06
453.53	770.06
453.751	825.06
453.971	803.06
454.192	812.06
454.412	780.06
454.633	796.06
454.853	768.06
455.073	774.06
455.294	757.06
455.514	772.06
455.734	757.06
455.955	767.06
456.175	762.06
456.395	773.06
456.616	737.06
456.836	766.06
457.056	724.06
457.276	743.06
457.497	740.06
457.717	754.06
457.937	769.06
458.157	750.06
458.377	790.06
458.598	789.06
458.818	804.06
459.038	840.06
459.258	862.06
459.478	886.06
459.698	934.06
459.918	915.06
460.138	972.06
460.358	1068.06
460.578	1046.06
460.798	1087.06
461.018	1085.06
461.238	1038.06
461.458	1041.06
461.678	1029.06
461.898	1049.06
462.118	1057.06
462.338	1123.06
462.558	1124.06
462.777	1194.06
462.997	1273.06
463.217	1412.06
463.437	1472.06
463.657	1328.06
463.876	1237.06
464.096	1258.06
464.316	1237.06
464.536	1266.06
464.755	1192.06
464.975	1149.06
465.195	1097.06
465.414	1027.06
465.634	960.06
465.854	922.06
466.073	915.06
466.293	887.06
466.512	866.06
466.732	853.06
466.951	895.06
467.171	861.06
467.391	869.06
467.61	854.06
467.829	824.06
468.049	827.06
468.268	800.06
468.488	815.06
468.707	816.06
468.927	796.06
469.146	793.06
469.365	814.06
469.585	818.06
469.804	876.06
470.023	877.06
470.243	879.06
470.462	878.06
470.681	900.06
470.901	878.06
471.12	856.06
471.339	872.06
471.558	840.06
471.777	818.06
471.997	835.06
472.216	822.06
472.435	829.06
472.654	830.06
472.873	797.06
473.092	781.06
473.311	796.06
473.53	795.06
473.749	777.06
473.968	776.06
474.187	796.06
474.406	799.06
474.625	798.06
474.844	802.06
475.063	803.06
475.282	807.06
475.501	823.06
475.72	839.06
475.939	799.06
476.158	806.06
476.377	832.06
476.596	834.06
476.814	841.06
477.033	846.06
477.252	862.06
477.471	845.06
477.69	902.06
477.908	910.06
478.127	918.06
478.346	933.06
478.564	962.06
478.783	966.06
479.002	1026.06
479.22	1001.06
479.439	1006.06
479.658	982.06
479.876	991.06
480.095	1001.06
480.313	1061.06
480.532	1102.06
480.751	1088.06
480.969	1031.06
481.188	989.06
481.406	946.06
481.624	936.06
481.843	931.06
482.061	935.06
482.28	916.06
482.498	928.06
482.717	899.06
482.935	887.06
483.153	898.06
483.372	919.06
483.59	906.06
483.808	902.06
484.027	901.06
484.245	914.06
484.463	921.06
484.681	957.06
484.9	952.06
485.118	949.06
485.336	950.06
485.554	961.06
485.772	972.06
485.99	987.06
486.209	986.06
486.427	984.06
486.645	994.06
486.863	966.06
487.081	970.06
487.299	939.06
487.517	953.06
487.735	912.06
487.953	940.06
488.171	947.06
488.389	944.06
488.607	937.06
488.825	948.06
489.043	919.06
489.261	932.06
489.479	953.06
489.696	950.06
489.914	946.06
490.132	967.06
490.35	956.06
490.568	985.06
490.786	956.06
491.003	958.06
491.221	964.06
491.439	944.06
491.657	941.06
491.874	921.06
492.092	951.06
492.31	952.06
492.527	975.06
492.745	974.06
492.963	968.06
493.18	996.06
493.398	983.06
493.615	982.06
493.833	988.06
494.05	980.06
494.268	1015.06
494.485	1029.06
494.703	1006.06
494.92	1006.06
495.138	985.06
495.355	994.06
495.573	971.06
495.79	999.06
496.008	999.06
496.225	1014.06
496.442	1011.06
496.66	1042.06
496.877	1056.06
497.094	1082.06
497.312	1068.06
497.529	1109.06
497.746	1146.06
497.963	1140.06
498.181	1203.06
498.398	1237.06
498.615	1319.06
498.832	1396.06
499.049	1525.06
499.267	1651.06
499.484	1798.06
499.701	2008.06
499.918	2254.06
500.135	2628.06
500.352	3014.06
500.569	3221.06
500.786	3209.06
501.003	2950.06
501.22	2589.06
501.437	2294.06
501.654	1948.06
501.871	1778.06
502.088	1614.06
502.305	1492.06
502.522	1433.06
502.739	1394.06
502.956	1291.06
503.172	1240.06
503.389	1187.06
503.606	1169.06
503.823	1134.06
504.04	1121.06
504.256	1160.06
504.473	1166.06
504.69	1244.06
504.907	1178.06
505.123	1150.06
505.34	1052.06
505.557	1030.06
505.773	1012.06
505.99	979.06
506.207	917.06
506.423	905.06
506.64	936.06
506.856	932.06
507.073	891.06
507.289	888.06
507.506	873.06
507.722	877.06
507.939	883.06
508.155	859.06
508.372	866.06
508.588	866.06
508.805	832.06
509.021	852.06
509.238	836.06
509.454	805.06
509.67	808.06
509.887	810.06
510.103	818.06
510.319	802.06
510.536	815.06
510.752	805.06
510.968	839.06
511.184	812.06
511.401	820.06
511.617	838.06
511.833	840.06
512.049	840.06
512.265	845.06
512.481	814.06
512.698	802.06
512.914	841.06
513.13	812.06
513.346	807.06
513.562	825.06
513.778	822.06
513.994	819.06
514.21	831.06
514.426	820.06
514.642	786.06
514.858	829.06
515.074	825.06
515.29	849.06
515.506	850.06
515.721	850.06
515.937	836.06
516.153	898.06
516.369	924.06
516.585	908.06
516.801	966.06
517.016	1020.06
517.232	1076.06
517.448	1112.06
517.664	1166.06
517.879	1178.06
518.095	1204.06
518.311	1112.06
518.527	1095.06
518.742	1025.06
518.958	1013.06
519.173	936.06
519.389	925.06
519.605	882.06
519.82	855.06
520.036	868.06
520.251	837.06
520.467	823.06
520.682	798.06
520.898	822.06
521.113	817.06
521.329	810.06
521.544	812.06
521.76	810.06
521.975	797.06
522.19	794.06
522.406	779.06
522.621	770.06
522.836	764.06
523.052	756.06
523.267	736.06
523.482	758.06
523.698	750.06
523.913	767.06
524.128	765.06
524.343	762.06
524.559	774.06
524.774	771.06
524.989	758.06
525.204	757.06
525.419	726.06
525.634	727.06
525.849	745.06
526.064	753.06
526.28	740.06
526.495	721.06
526.71	735.06
526.925	729.06
527.14	736.06
527.355	719.06
527.57	733.06
527.785	746.06
527.999	742.06
528.214	713.06
528.429	720.06
528.644	725.06
528.859	734.06
529.074	714.06
529.289	735.06
529.503	725.06
529.718	722.06
529.933	730.06
530.148	728.06
530.363	733.06
530.577	733.06
530.792	733.06
531.007	761.06
531.221	746.06
531.436	741.06
531.651	740.06
531.865	732.06
532.08	737.06
532.295	735.06
532.509	727.06
532.724	758.06
532.938	729.06
533.153	741.06
533.367	745.06
533.582	723.06
533.796	720.06
534.011	720.06
534.225	751.06
534.44	742.06
534.654	741.06
534.868	711.06
535.083	724.06
535.297	729.06
535.511	720.06
535.726	725.06
535.94	706.06
536.154	713.06
536.369	701.06
536.583	701.06
536.797	717.06
537.011	673.06
537.225	701.06
537.44	677.06
537.654	670.06
537.868	688.06
538.082	669.06
538.296	690.06
538.51	662.06
538.724	679.06
538.938	660.06
539.153	666.06
539.367	677.06
539.581	653.06
539.795	664.06
540.009	693.06
540.222	673.06
540.436	686.06
540.65	664.06
540.864	666.06
541.078	675.06
541.292	684.06
541.506	665.06
541.72	658.06
541.934	696.06
542.147	674.06
542.361	672.06
542.575	660.06
542.789	651.06
543.002	644.06
543.216	664.06
543.43	633.06
543.644	655.06
543.857	638.06
544.071	640.06
544.285	650.06
544.498	655.06
544.712	652.06
544.925	648.06
545.139	662.06
545.352	673.06
545.566	664.06
545.779	662.06
545.993	705.06
546.206	686.06
546.42	677.06
546.633	660.06
546.847	681.06
547.06	686.06
547.274	654.06
547.487	661.06
547.7	657.06
547.914	682.06
548.127	713.06
548.34	688.06
548.554	687.06
548.767	678.06
548.98	684.06
549.193	676.06
549.407	689.06
549.62	693.06
549.833	696.06
550.046	706.06
550.259	669.06
550.473	678.06
550.686	655.06
550.899	663.06
551.112	657.06
551.325	660.06
551.538	654.06
551.751	668.06
551.964	647.06
552.177	677.06
552.39	680.06
552.603	691.06
552.816	698.06
553.029	728.06
553.242	731.06
553.455	740.06
553.667	747.06
553.88	754.06
554.093	719.06
554.306	693.06
554.519	724.06
554.732	679.06
554.944	648.06
555.157	666.06
555.37	620.06
555.583	639.06
555.795	605.06
556.008	604.06
556.221	614.06
556.433	628.06
556.646	591.06
556.859	599.06
557.071	613.06
557.284	586.06
557.496	582.06
557.709	561.06
557.921	591.06
558.134	569.06
558.346	581.06
558.559	569.06
558.771	566.06
558.984	570.06
559.196	568.06
559.409	548.06
559.621	556.06
559.833	573.06
560.046	562.06
560.258	556.06
560.47	558.06
560.683	564.06
560.895	578.06
561.107	560.06
561.32	556.06
561.532	579.06
561.744	552.06
561.956	556.06
562.168	560.06
562.381	571.06
562.593	541.06
562.805	583.06
563.017	566.06
563.229	558.06
563.441	567.06
563.653	584.06
563.865	560.06
564.077	576.06
564.289	573.06
564.501	586.06
564.713	593.06
564.925	610.06
565.137	624.06
565.349	638.06
565.561	636.06
565.773	668.06
565.985	709.06
566.197	712.06
566.408	768.06
566.62	848.06
566.832	901.06
567.044	960.06
567.255	952.06
567.467	975.06
567.679	1014.06
567.891	1136.06
568.102	1144.06
568.314	1092.06
568.526	965.06
568.737	892.06
568.949	791.06
569.161	733.06
569.372	696.06
569.584	641.06
569.795	600.06
570.007	614.06
570.218	579.06
570.43	584.06
570.641	574.06
570.853	593.06
571.064	584.06
571.276	596.06
571.487	563.06
571.698	558.06
571.91	562.06
572.121	513.06
572.333	522.06
572.544	498.06
572.755	482.06
572.966	493.06
573.178	510.06
573.389	488.06
573.6	466.06
573.811	470.06
574.023	471.06
574.234	476.06
574.445	474.06
574.656	477.06
574.867	477.06
575.078	474.06
575.289	474.06
575.501	450.06
575.712	467.06
575.923	448.06
576.134	457.06
576.345	431.06
576.556	468.06
576.767	453.06
576.978	442.06
577.188	439.06
577.399	466.06
577.61	432.06
577.821	449.06
578.032	414.06
578.243	421.06
578.454	408.06
578.665	415.06
578.875	437.06
579.086	424.06
579.297	423.06
579.508	430.06
579.718	418.06
579.929	392.06
580.14	407.06
580.35	418.06
580.561	420.06
580.772	421.06
580.982	406.06
581.193	401.06
581.403	433.06
581.614	395.06
581.825	392.06
582.035	414.06
582.246	376.06
582.456	384.06
582.667	397.06
582.877	397.06
583.087	407.06
583.298	408.06
583.508	382.06
583.719	402.06
583.929	398.06
584.139	378.06
584.35	395.06
584.56	399.06
584.77	381.06
584.981	377.06
585.191	405.06
585.401	380.06
585.611	381.06
585.821	379.06
586.032	383.06
586.242	387.06
586.452	380.06
586.662	388.06
586.872	382.06
587.082	382.06
587.292	392.06
587.502	389.06
587.713	385.06
587.923	380.06
588.133	370.06
588.343	394.06
588.553	375.06
588.762	384.06
588.972	401.06
589.182	386.06
589.392	402.06
589.602	406.06
589.812	382.06
590.022	390.06
590.232	374.06
590.441	371.06
590.651	388.06
590.861	386.06
591.071	395.06
591.281	392.06
591.49	388.06
591.7	422.06
591.91	408.06
592.119	404.06
592.329	416.06
592.539	428.06
592.748	442.06
592.958	465.06
593.167	467.06
593.377	481.06
593.587	480.06
593.796	483.06
594.006	501.06
594.215	536.06
594.424	486.06
594.634	494.06
594.843	447.06
595.053	444.06
595.262	426.06
595.472	414.06
595.681	412.06
595.89	406.06
596.1	374.06
596.309	395.06
596.518	388.06
596.727	369.06
596.937	375.06
597.146	355.06
597.355	370.06
597.564	351.06
597.774	344.06
597.983	334.06
598.192	356.06
598.401	337.06
598.61	337.06
598.819	326.06
599.028	330.06
599.237	333.06
599.446	333.06
599.655	309.06
599.864	335.06
600.073	337.06
600.282	335.06
600.491	316.06
600.7	326.06
600.909	336.06
601.118	331.06
601.327	315.06
601.536	326.06
601.745	343.06
601.953	330.06
602.162	335.06
602.371	316.06
602.58	325.06
602.789	326.06
602.997	306.06
603.206	314.06
603.415	332.06
603.623	309.06
603.832	306.06
604.041	300.06
604.249	316.06
604.458	310.06
604.666	296.06
604.875	289.06
605.084	290.06
605.292	294.06
605.501	289.06
605.709	298.06
605.918	312.06
606.126	300.06
606.334	291.06
606.543	310.06
606.751	293.06
606.96	312.06
607.168	292.06
607.376	293.06
607.585	289.06
607.793	312.06
608.001	295.06
608.21	272.06
608.418	289.06
608.626	295.06
608.834	277.06
609.043	295.06
609.251	277.06
609.459	291.06
609.667	293.06
609.875	293.06
610.083	288.06
610.291	290.06
610.499	291.06
610.707	292.06
610.916	311.06
611.124	272.06
611.332	277.06
611.54	288.06
611.748	275.06
611.955	285.06
612.163	280.06
612.371	297.06
612.579	294.06
612.787	270.06
612.995	284.06
613.203	289.06
613.411	285.06
613.618	285.06
613.826	265.06
614.034	271.06
614.242	278.06
614.449	289.06
614.657	277.06
614.865	286.06
615.072	279.06
615.28	264.06
615.488	271.06
615.695	297.06
615.903	292.06
616.111	281.06
616.318	305.06
616.526	313.06
616.733	291.06
616.941	290.06
617.148	281.06
617.356	292.06
617.563	287.06
617.771	285.06
617.978	284.06
618.185	268.06
618.393	298.06
618.6	280.06
618.807	273.06
619.015	274.06
619.222	272.06
619.429	276.06
619.637	277.06
619.844	273.06
620.051	278.06
620.258	276.06
620.466	261.06
620.673	255.06
620.88	256.06
621.087	285.06
621.294	258.06
621.501	234.06
621.708	254.06
621.915	258.06
622.122	254.06
622.329	263.06
622.536	250.06
622.743	253.06
622.95	248.06
623.157	226.06
623.364	249.06
623.571	244.06
623.778	245.06
623.985	242.06
624.192	246.06
624.399	233.06
624.606	248.06
624.812	266.06
625.019	267.06
625.226	238.06
625.433	251.06
625.639	269.06
625.846	229.06
626.053	234.06
626.259	255.06
626.466	232.06
626.673	234.06
626.879	238.06
627.086	238.06
627.293	244.06
627.499	239.06
627.706	237.06
627.912	225.06
628.119	242.06
628.325	240.06
628.532	236.06
628.738	234.06
628.945	236.06
629.151	232.06
629.357	213.06
629.564	233.06
629.77	225.06
629.976	214.06
630.183	226.06
630.389	217.06
630.595	230.06
630.802	222.06
631.008	200.06
631.214	214.06
631.42	232.06
631.627	226.06
631.833	209.06
632.039	225.06
632.245	215.06
632.451	209.06
632.657	196.06
632.863	212.06
633.069	222.06
633.275	227.06
633.481	217.06
633.688	212.06
633.893	233.06
634.099	222.06
634.305	226.06
634.511	215.06
634.717	213.06
634.923	208.06
635.129	190.06
635.335	220.06
635.541	194.06
635.747	212.06
635.952	211.06
636.158	211.06
636.364	190.06
636.57	200.06
636.775	210.06
636.981	204.06
637.187	204.06
637.392	200.06
637.598	202.06
637.804	217.06
638.009	197.06
638.215	213.06
638.421	204.06
638.626	199.06
638.832	213.06
639.037	200.06
639.243	194.06
639.448	188.06
639.654	210.06
639.859	195.06
640.065	200.06
640.27	199.06
640.475	193.06
640.681	191.06
640.886	201.06
641.091	191.06
641.297	182.06
641.502	187.06
641.707	192.06
641.913	192.06
642.118	194.06
642.323	188.06
642.528	195.06
642.733	185.06
642.939	182.06
643.144	185.06
643.349	175.06
643.554	194.06
643.759	182.06
643.964	188.06
644.169	192.06
644.374	189.06
644.579	193.06
644.784	186.06
644.989	181.06
645.194	191.06
645.399	193.06
645.604	187.06
645.809	181.06
646.014	177.06
646.219	191.06
646.423	184.06
646.628	184.06
646.833	177.06
647.038	206.06
647.243	204.06
647.447	206.06
647.652	202.06
647.857	198.06
648.062	206.06
648.266	194.06
648.471	197.06
648.676	195.06
648.88	206.06
649.085	176.06
649.289	185.06
649.494	189.06
649.698	206.06
649.903	194.06
650.107	193.06
650.312	182.06
650.516	172.06
650.721	172.06
650.925	198.06
651.13	174.06
651.334	176.06
651.539	165.06
651.743	164.06
651.947	156.06
652.152	171.06
652.356	166.06
652.56	163.06
652.764	147.06
652.969	151.06
653.173	153.06
653.377	145.06
653.581	159.06
653.785	154.06
653.99	165.06
654.194	153.06
654.398	156.06
654.602	148.06
654.806	138.06
655.01	155.06
655.214	148.06
655.418	148.06
655.622	132.06
655.826	139.06
656.03	130.06
656.234	141.06
656.438	148.06
656.642	136.06
656.846	142.06
657.049	138.06
657.253	134.06
657.457	133.06
657.661	125.06
657.865	141.06
658.068	113.06
658.272	121.06
658.476	106.06
658.68	112.06
658.883	130.06
659.087	109.06
659.291	105.06
659.494	109.06
659.698	88.06
659.901	82.06
660.105	87.06
660.309	90.06
660.512	91.06
660.716	84.06
660.919	88.06
661.123	89.06
661.326	97.06
661.53	85.06
661.733	86.06
661.936	96.06
662.14	82.06
662.343	97.06
662.546	85.06
662.75	80.06
662.953	88.06
663.156	82.06
663.36	84.06
663.563	63.06
663.766	78.06
663.969	74.06
664.173	84.06
664.376	92.06
664.579	79.06
664.782	65.06
664.985	89.06
665.188	70.06
665.391	72.06
665.594	69.06
665.797	77.06
666	71.06
666.203	81.06
666.406	89.06
666.609	71.06
666.812	74.06
667.015	85.06
667.218	82.06
667.421	81.06
667.624	66.06
667.827	76.06
668.03	76.06
668.232	76.06
668.435	78.06
668.638	73.06
668.841	80.06
669.043	71.06
669.246	90.06
669.449	88.06
669.651	78.06
669.854	96.06
670.057	71.06
670.259	77.06
670.462	81.06
670.665	75.06
670.867	66.06
671.07	79.06
671.272	92.06
671.475	76.06
671.677	84.06
671.88	93.06
672.082	90.06
672.284	78.06
672.487	78.06
672.689	82.06
672.892	89.06
