Data from NiCl2@0.125M.TitratingCurve.Agarose3%dH2O.NegLispCup.LampEnergy10.LIBS07252019_HRD10591_18-28-38-574.txt Node
Date: Thu Jul 25 18:28:38 EDT 2019
User: cochatt
Spectrometer: HR+D1059
Trigger mode: 1
Integration Time (sec): 1.000000E-1
Scans to average: 1
Electric dark correction enabled: true
Nonlinearity correction enabled: false
Boxcar width: 0
XAxis mode: Wavelengths
Number of Pixels in Spectrum: 2048
>>>>>Begin Spectral Data<<<<<
223.165	-20.56
223.4	-20.56
223.635	-20.56
223.869	-12.56
224.104	-30.56
224.338	-8.56
224.573	-14.56
224.808	-12.56
225.042	-7.56
225.277	3.44
225.511	-7.56
225.746	2.44
225.98	6.44
226.215	15.44
226.449	27.44
226.683	11.44
226.918	21.44
227.152	26.44
227.387	32.44
227.621	42.44
227.856	26.44
228.09	27.44
228.324	52.44
228.559	49.44
228.793	78.44
229.027	111.44
229.262	111.44
229.496	117.44
229.73	133.44
229.964	142.44
230.199	114.44
230.433	127.44
230.667	136.44
230.901	142.44
231.136	151.44
231.37	141.44
231.604	149.44
231.838	142.44
232.072	145.44
232.306	143.44
232.541	158.44
232.775	169.44
233.009	155.44
233.243	158.44
233.477	143.44
233.711	151.44
233.945	162.44
234.179	157.44
234.413	150.44
234.647	150.44
234.881	155.44
235.115	156.44
235.349	152.44
235.583	158.44
235.817	162.44
236.051	160.44
236.285	166.44
236.519	174.44
236.753	154.44
236.987	172.44
237.221	172.44
237.455	166.44
237.689	179.44
237.922	178.44
238.156	190.44
238.39	164.44
238.624	171.44
238.858	180.44
239.091	187.44
239.325	198.44
239.559	186.44
239.793	170.44
240.027	179.44
240.26	158.44
240.494	196.44
240.728	187.44
240.961	193.44
241.195	184.44
241.429	195.44
241.662	199.44
241.896	211.44
242.13	226.44
242.363	193.44
242.597	210.44
242.83	210.44
243.064	208.44
243.298	196.44
243.531	210.44
243.765	205.44
243.998	217.44
244.232	237.44
244.465	236.44
244.699	223.44
244.932	226.44
245.166	232.44
245.399	224.44
245.633	232.44
245.866	241.44
246.099	232.44
246.333	246.44
246.566	253.44
246.8	236.44
247.033	250.44
247.266	241.44
247.5	240.44
247.733	247.44
247.966	243.44
248.2	246.44
248.433	270.44
248.666	250.44
248.899	265.44
249.133	250.44
249.366	243.44
249.599	261.44
249.832	271.44
250.066	258.44
250.299	288.44
250.532	268.44
250.765	267.44
250.998	266.44
251.231	277.44
251.465	285.44
251.698	274.44
251.931	292.44
252.164	301.44
252.397	294.44
252.63	292.44
252.863	306.44
253.096	290.44
253.329	285.44
253.562	288.44
253.795	311.44
254.028	285.44
254.261	290.44
254.494	297.44
254.727	305.44
254.96	307.44
255.193	309.44
255.426	308.44
255.659	289.44
255.892	302.44
256.124	293.44
256.357	298.44
256.59	312.44
256.823	310.44
257.056	335.44
257.289	309.44
257.521	311.44
257.754	331.44
257.987	321.44
258.22	337.44
258.452	319.44
258.685	341.44
258.918	334.44
259.151	334.44
259.383	327.44
259.616	334.44
259.849	352.44
260.081	338.44
260.314	353.44
260.547	338.44
260.779	330.44
261.012	355.44
261.244	350.44
261.477	353.44
261.71	350.44
261.942	350.44
262.175	334.44
262.407	358.44
262.64	345.44
262.872	355.44
263.105	351.44
263.337	350.44
263.57	370.44
263.802	371.44
264.035	375.44
264.267	364.44
264.499	354.44
264.732	357.44
264.964	377.44
265.197	359.44
265.429	383.44
265.661	381.44
265.894	369.44
266.126	381.44
266.358	385.44
266.591	380.44
266.823	370.44
267.055	389.44
267.287	382.44
267.52	397.44
267.752	383.44
267.984	409.44
268.216	407.44
268.448	407.44
268.681	395.44
268.913	382.44
269.145	396.44
269.377	425.44
269.609	390.44
269.841	402.44
270.073	385.44
270.306	425.44
270.538	412.44
270.77	409.44
271.002	399.44
271.234	408.44
271.466	405.44
271.698	414.44
271.93	423.44
272.162	423.44
272.394	421.44
272.626	449.44
272.858	422.44
273.09	450.44
273.322	433.44
273.553	421.44
273.785	441.44
274.017	441.44
274.249	435.44
274.481	424.44
274.713	421.44
274.945	449.44
275.176	457.44
275.408	461.44
275.64	452.44
275.872	437.44
276.104	479.44
276.335	457.44
276.567	446.44
276.799	436.44
277.031	457.44
277.262	437.44
277.494	466.44
277.726	457.44
277.957	458.44
278.189	462.44
278.421	452.44
278.652	477.44
278.884	446.44
279.115	485.44
279.347	515.44
279.579	465.44
279.81	477.44
280.042	456.44
280.273	499.44
280.505	487.44
280.736	473.44
280.968	465.44
281.199	491.44
281.431	510.44
281.662	495.44
281.894	512.44
282.125	509.44
282.356	504.44
282.588	513.44
282.819	517.44
283.051	535.44
283.282	491.44
283.513	493.44
283.745	513.44
283.976	509.44
284.207	502.44
284.439	527.44
284.67	509.44
284.901	523.44
285.132	521.44
285.364	536.44
285.595	517.44
285.826	521.44
286.057	545.44
286.288	525.44
286.52	530.44
286.751	537.44
286.982	535.44
287.213	533.44
287.444	556.44
287.675	556.44
287.906	542.44
288.138	545.44
288.369	545.44
288.6	572.44
288.831	555.44
289.062	562.44
289.293	550.44
289.524	550.44
289.755	546.44
289.986	573.44
290.217	548.44
290.448	553.44
290.679	525.44
290.91	530.44
291.141	559.44
291.371	582.44
291.602	579.44
291.833	555.44
292.064	568.44
292.295	561.44
292.526	579.44
292.757	556.44
292.987	557.44
293.218	580.44
293.449	577.44
293.68	543.44
293.91	565.44
294.141	575.44
294.372	582.44
294.603	570.44
294.833	573.44
295.064	578.44
295.295	599.44
295.525	591.44
295.756	600.44
295.987	565.44
296.217	607.44
296.448	594.44
296.679	582.44
296.909	602.44
297.14	600.44
297.37	602.44
297.601	613.44
297.831	622.44
298.062	627.44
298.292	631.44
298.523	638.44
298.753	650.44
298.984	616.44
299.214	641.44
299.445	627.44
299.675	621.44
299.905	629.44
300.136	627.44
300.366	625.44
300.597	642.44
300.827	629.44
301.057	643.44
301.288	665.44
301.518	646.44
301.748	671.44
301.979	653.44
302.209	649.44
302.439	659.44
302.669	663.44
302.9	638.44
303.13	643.44
303.36	637.44
303.59	645.44
303.82	627.44
304.051	647.44
304.281	670.44
304.511	642.44
304.741	656.44
304.971	636.44
305.201	650.44
305.431	654.44
305.661	648.44
305.891	616.44
306.121	620.44
306.352	638.44
306.582	617.44
306.812	639.44
307.042	627.44
307.272	620.44
307.502	623.44
307.731	613.44
307.961	617.44
308.191	638.44
308.421	626.44
308.651	627.44
308.881	610.44
309.111	633.44
309.341	611.44
309.571	629.44
309.8	659.44
310.03	623.44
310.26	633.44
310.49	639.44
310.72	637.44
310.949	654.44
311.179	647.44
311.409	643.44
311.639	644.44
311.868	642.44
312.098	666.44
312.328	646.44
312.557	664.44
312.787	663.44
313.017	655.44
313.246	667.44
313.476	669.44
313.706	679.44
313.935	676.44
314.165	696.44
314.394	671.44
314.624	685.44
314.853	638.44
315.083	678.44
315.312	679.44
315.542	658.44
315.771	686.44
316.001	662.44
316.23	662.44
316.46	654.44
316.689	644.44
316.919	656.44
317.148	655.44
317.377	651.44
317.607	673.44
317.836	645.44
318.065	641.44
318.295	670.44
318.524	679.44
318.753	647.44
318.983	639.44
319.212	634.44
319.441	659.44
319.67	637.44
319.9	638.44
320.129	645.44
320.358	652.44
320.587	633.44
320.816	659.44
321.046	638.44
321.275	640.44
321.504	633.44
321.733	669.44
321.962	668.44
322.191	648.44
322.42	663.44
322.649	649.44
322.878	665.44
323.108	660.44
323.337	676.44
323.566	674.44
323.795	682.44
324.024	685.44
324.253	646.44
324.482	681.44
324.71	679.44
324.939	675.44
325.168	691.44
325.397	686.44
325.626	707.44
325.855	694.44
326.084	722.44
326.313	725.44
326.542	743.44
326.77	740.44
326.999	714.44
327.228	716.44
327.457	731.44
327.686	699.44
327.914	728.44
328.143	747.44
328.372	733.44
328.6	709.44
328.829	724.44
329.058	735.44
329.287	721.44
329.515	733.44
329.744	734.44
329.972	736.44
330.201	760.44
330.43	755.44
330.658	727.44
330.887	743.44
331.115	747.44
331.344	769.44
331.572	777.44
331.801	750.44
332.03	806.44
332.258	827.44
332.486	824.44
332.715	842.44
332.943	872.44
333.172	909.44
333.4	936.44
333.629	958.44
333.857	993.44
334.085	942.44
334.314	952.44
334.542	939.44
334.771	948.44
334.999	904.44
335.227	901.44
335.455	895.44
335.684	868.44
335.912	890.44
336.14	871.44
336.369	863.44
336.597	903.44
336.825	840.44
337.053	872.44
337.281	862.44
337.51	841.44
337.738	838.44
337.966	801.44
338.194	781.44
338.422	787.44
338.65	792.44
338.878	748.44
339.106	779.44
339.334	793.44
339.562	785.44
339.79	754.44
340.018	757.44
340.246	760.44
340.474	742.44
340.702	760.44
340.93	783.44
341.158	760.44
341.386	777.44
341.614	790.44
341.842	758.44
342.07	754.44
342.298	739.44
342.526	727.44
342.754	728.44
342.981	740.44
343.209	759.44
343.437	799.44
343.665	835.44
343.893	908.44
344.12	945.44
344.348	901.44
344.576	892.44
344.804	834.44
345.031	797.44
345.259	789.44
345.487	766.44
345.714	769.44
345.942	753.44
346.17	760.44
346.397	729.44
346.625	757.44
346.853	731.44
347.08	739.44
347.308	730.44
347.535	719.44
347.763	765.44
347.99	734.44
348.218	751.44
348.445	742.44
348.673	742.44
348.9	735.44
349.128	741.44
349.355	713.44
349.583	730.44
349.81	709.44
350.037	695.44
350.265	683.44
350.492	689.44
350.72	703.44
350.947	703.44
351.174	701.44
351.402	691.44
351.629	693.44
351.856	709.44
352.083	693.44
352.311	711.44
352.538	717.44
352.765	697.44
352.992	719.44
353.22	694.44
353.447	691.44
353.674	701.44
353.901	667.44
354.128	677.44
354.355	691.44
354.583	718.44
354.81	693.44
355.037	703.44
355.264	681.44
355.491	721.44
355.718	688.44
355.945	725.44
356.172	714.44
356.399	718.44
356.626	716.44
356.853	711.44
357.08	687.44
357.307	703.44
357.534	704.44
357.761	725.44
357.988	709.44
358.215	694.44
358.441	709.44
358.668	701.44
358.895	695.44
359.122	699.44
359.349	695.44
359.576	702.44
359.802	714.44
360.029	730.44
360.256	729.44
360.483	683.44
360.709	683.44
360.936	702.44
361.163	705.44
361.39	697.44
361.616	714.44
361.843	693.44
362.07	721.44
362.296	706.44
362.523	685.44
362.749	710.44
362.976	709.44
363.203	712.44
363.429	714.44
363.656	687.44
363.882	691.44
364.109	675.44
364.335	699.44
364.562	691.44
364.788	717.44
365.015	695.44
365.241	691.44
365.468	715.44
365.694	702.44
365.92	701.44
366.147	712.44
366.373	719.44
366.599	722.44
366.826	697.44
367.052	674.44
367.278	689.44
367.505	708.44
367.731	706.44
367.957	720.44
368.184	713.44
368.41	700.44
368.636	720.44
368.862	732.44
369.089	704.44
369.315	711.44
369.541	700.44
369.767	737.44
369.993	744.44
370.219	709.44
370.445	755.44
370.672	750.44
370.898	762.44
371.124	754.44
371.35	766.44
371.576	778.44
371.802	778.44
372.028	748.44
372.254	749.44
372.48	793.44
372.706	787.44
372.932	789.44
373.158	800.44
373.384	804.44
373.61	769.44
373.835	774.44
374.061	750.44
374.287	771.44
374.513	807.44
374.739	795.44
374.965	820.44
375.191	863.44
375.416	863.44
375.642	814.44
375.868	813.44
376.094	815.44
376.319	787.44
376.545	782.44
376.771	771.44
376.997	773.44
377.222	759.44
377.448	776.44
377.674	781.44
377.899	781.44
378.125	757.44
378.35	750.44
378.576	765.44
378.802	741.44
379.027	761.44
379.253	759.44
379.478	779.44
379.704	750.44
379.929	775.44
380.155	773.44
380.38	756.44
380.606	757.44
380.831	746.44
381.057	795.44
381.282	779.44
381.507	765.44
381.733	756.44
381.958	784.44
382.184	779.44
382.409	780.44
382.634	820.44
382.86	811.44
383.085	810.44
383.31	805.44
383.535	842.44
383.761	822.44
383.986	846.44
384.211	897.44
384.436	881.44
384.662	896.44
384.887	937.44
385.112	917.44
385.337	914.44
385.562	919.44
385.787	939.44
386.013	946.44
386.238	947.44
386.463	927.44
386.688	936.44
386.913	905.44
387.138	929.44
387.363	909.44
387.588	929.44
387.813	929.44
388.038	912.44
388.263	908.44
388.488	925.44
388.713	929.44
388.938	889.44
389.163	901.44
389.387	915.44
389.612	894.44
389.837	891.44
390.062	866.44
390.287	893.44
390.512	897.44
390.736	905.44
390.961	906.44
391.186	935.44
391.411	957.44
391.636	990.44
391.86	1019.44
392.085	1045.44
392.31	1045.44
392.534	1014.44
392.759	1005.44
392.984	974.44
393.208	975.44
393.433	971.44
393.658	985.44
393.882	966.44
394.107	975.44
394.331	967.44
394.556	996.44
394.78	998.44
395.005	998.44
395.229	1000.44
395.454	1015.44
395.678	1031.44
395.903	1054.44
396.127	1043.44
396.352	1006.44
396.576	990.44
396.801	985.44
397.025	977.44
397.249	985.44
397.474	1038.44
397.698	1037.44
397.922	1075.44
398.147	1068.44
398.371	1047.44
398.595	1075.44
398.82	1147.44
399.044	1214.44
399.268	1345.44
399.492	1543.44
399.717	1724.44
399.941	1758.44
400.165	1589.44
400.389	1415.44
400.613	1337.44
400.837	1246.44
401.062	1175.44
401.286	1165.44
401.51	1137.44
401.734	1163.44
401.958	1208.44
402.182	1218.44
402.406	1185.44
402.63	1185.44
402.854	1223.44
403.078	1239.44
403.302	1288.44
403.526	1291.44
403.75	1311.44
403.974	1366.44
404.198	1382.44
404.422	1369.44
404.645	1350.44
404.869	1322.44
405.093	1349.44
405.317	1317.44
405.541	1290.44
405.765	1287.44
405.988	1276.44
406.212	1283.44
406.436	1281.44
406.66	1288.44
406.883	1331.44
407.107	1399.44
407.331	1452.44
407.555	1523.44
407.778	1479.44
408.002	1442.44
408.226	1420.44
408.449	1394.44
408.673	1348.44
408.896	1303.44
409.12	1302.44
409.344	1306.44
409.567	1326.44
409.791	1353.44
410.014	1300.44
410.238	1262.44
410.461	1319.44
410.685	1266.44
410.908	1269.44
411.132	1228.44
411.355	1186.44
411.578	1217.44
411.802	1232.44
412.025	1207.44
412.249	1239.44
412.472	1212.44
412.695	1195.44
412.919	1137.44
413.142	1175.44
413.365	1173.44
413.589	1180.44
413.812	1138.44
414.035	1133.44
414.258	1153.44
414.482	1151.44
414.705	1158.44
414.928	1147.44
415.151	1150.44
415.374	1176.44
415.597	1190.44
415.821	1141.44
416.044	1112.44
416.267	1111.44
416.49	1150.44
416.713	1129.44
416.936	1109.44
417.159	1134.44
417.382	1135.44
417.605	1116.44
417.828	1149.44
418.051	1152.44
418.274	1150.44
418.497	1166.44
418.72	1190.44
418.943	1160.44
419.166	1259.44
419.389	1333.44
419.611	1287.44
419.834	1256.44
420.057	1191.44
420.28	1199.44
420.503	1166.44
420.726	1131.44
420.948	1138.44
421.171	1181.44
421.394	1129.44
421.617	1109.44
421.839	1154.44
422.062	1156.44
422.285	1126.44
422.507	1196.44
422.73	1185.44
422.953	1197.44
423.175	1215.44
423.398	1247.44
423.621	1220.44
423.843	1237.44
424.066	1237.44
424.288	1219.44
424.511	1224.44
424.733	1205.44
424.956	1181.44
425.178	1201.44
425.401	1177.44
425.623	1169.44
425.846	1126.44
426.068	1124.44
426.291	1118.44
426.513	1087.44
426.735	1081.44
426.958	1060.44
427.18	1025.44
427.402	1061.44
427.625	1056.44
427.847	1035.44
428.069	1057.44
428.292	1062.44
428.514	1037.44
428.736	1020.44
428.958	1028.44
429.181	1001.44
429.403	1017.44
429.625	1014.44
429.847	1026.44
430.069	1006.44
430.292	1013.44
430.514	974.44
430.736	997.44
430.958	1027.44
431.18	1021.44
431.402	1031.44
431.624	1028.44
431.846	1032.44
432.068	1034.44
432.29	1058.44
432.512	1039.44
432.734	1057.44
432.956	1070.44
433.178	1060.44
433.4	1048.44
433.622	1064.44
433.844	1070.44
434.066	1067.44
434.287	1081.44
434.509	1093.44
434.731	1129.44
434.953	1160.44
435.175	1183.44
435.397	1161.44
435.618	1076.44
435.84	1097.44
436.062	1045.44
436.284	1063.44
436.505	1046.44
436.727	1081.44
436.949	1049.44
437.17	1036.44
437.392	1037.44
437.614	1006.44
437.835	984.44
438.057	1028.44
438.278	982.44
438.5	974.44
438.721	1017.44
438.943	1023.44
439.165	990.44
439.386	1009.44
439.608	1061.44
439.829	1041.44
440.05	1015.44
440.272	1029.44
440.493	1070.44
440.715	1063.44
440.936	1097.44
441.158	1098.44
441.379	1105.44
441.6	1195.44
441.822	1205.44
442.043	1189.44
442.264	1159.44
442.486	1160.44
442.707	1185.44
442.928	1150.44
443.149	1147.44
443.371	1138.44
443.592	1133.44
443.813	1139.44
444.034	1173.44
444.255	1216.44
444.476	1270.44
444.698	1355.44
444.919	1385.44
445.14	1543.44
445.361	1356.44
445.582	1228.44
445.803	1150.44
446.024	1130.44
446.245	1110.44
446.466	1055.44
446.687	1059.44
446.908	1062.44
447.129	1049.44
447.35	1006.44
447.571	1037.44
447.792	985.44
448.013	975.44
448.234	947.44
448.455	974.44
448.675	985.44
448.896	984.44
449.117	966.44
449.338	947.44
449.559	953.44
449.779	949.44
450	952.44
450.221	962.44
450.442	982.44
450.662	968.44
450.883	992.44
451.104	981.44
451.324	983.44
451.545	1013.44
451.766	968.44
451.986	957.44
452.207	965.44
452.428	955.44
452.648	963.44
452.869	932.44
453.089	929.44
453.31	946.44
453.53	915.44
453.751	939.44
453.971	927.44
454.192	930.44
454.412	894.44
454.633	922.44
454.853	909.44
455.073	886.44
455.294	915.44
455.514	902.44
455.734	901.44
455.955	898.44
456.175	882.44
456.395	893.44
456.616	915.44
456.836	905.44
457.056	926.44
457.276	874.44
457.497	906.44
457.717	922.44
457.937	896.44
458.157	879.44
458.377	931.44
458.598	947.44
458.818	965.44
459.038	972.44
459.258	1025.44
459.478	1063.44
459.698	1090.44
459.918	1108.44
460.138	1170.44
460.358	1218.44
460.578	1229.44
460.798	1258.44
461.018	1285.44
461.238	1271.44
461.458	1213.44
461.678	1243.44
461.898	1234.44
462.118	1277.44
462.338	1340.44
462.558	1335.44
462.777	1443.44
462.997	1523.44
463.217	1685.44
463.437	1718.44
463.657	1524.44
463.876	1467.44
464.096	1475.44
464.316	1440.44
464.536	1439.44
464.755	1428.44
464.975	1383.44
465.195	1273.44
465.414	1195.44
465.634	1120.44
465.854	1097.44
466.073	1093.44
466.293	1062.44
466.512	1025.44
466.732	1009.44
466.951	991.44
467.171	1001.44
467.391	1034.44
467.61	1004.44
467.829	1002.44
468.049	987.44
468.268	970.44
468.488	935.44
468.707	971.44
468.927	965.44
469.146	949.44
469.365	933.44
469.585	973.44
469.804	969.44
470.023	1018.44
470.243	1010.44
470.462	1025.44
470.681	1036.44
470.901	1054.44
471.12	1029.44
471.339	1032.44
471.558	982.44
471.777	998.44
471.997	975.44
472.216	974.44
472.435	967.44
472.654	955.44
472.873	931.44
473.092	951.44
473.311	959.44
473.53	953.44
473.749	969.44
473.968	921.44
474.187	924.44
474.406	938.44
474.625	935.44
474.844	942.44
475.063	938.44
475.282	937.44
475.501	970.44
475.72	907.44
475.939	944.44
476.158	969.44
476.377	970.44
476.596	969.44
476.814	989.44
477.033	996.44
477.252	990.44
477.471	1009.44
477.69	1056.44
477.908	1072.44
478.127	1104.44
478.346	1137.44
478.564	1146.44
478.783	1147.44
479.002	1178.44
479.22	1168.44
479.439	1163.44
479.658	1151.44
479.876	1185.44
480.095	1190.44
480.313	1276.44
480.532	1268.44
480.751	1247.44
480.969	1217.44
481.188	1183.44
481.406	1125.44
481.624	1148.44
481.843	1093.44
482.061	1088.44
482.28	1085.44
482.498	1075.44
482.717	1083.44
482.935	1072.44
483.153	1060.44
483.372	1069.44
483.59	1052.44
483.808	1082.44
484.027	1062.44
484.245	1087.44
484.463	1084.44
484.681	1098.44
484.9	1087.44
485.118	1114.44
485.336	1126.44
485.554	1134.44
485.772	1162.44
485.99	1138.44
486.209	1127.44
486.427	1134.44
486.645	1150.44
486.863	1148.44
487.081	1157.44
487.299	1163.44
487.517	1139.44
487.735	1123.44
487.953	1157.44
488.171	1153.44
488.389	1135.44
488.607	1151.44
488.825	1124.44
489.043	1092.44
489.261	1104.44
489.479	1133.44
489.696	1116.44
489.914	1155.44
490.132	1145.44
490.35	1140.44
490.568	1080.44
490.786	1112.44
491.003	1144.44
491.221	1149.44
491.439	1175.44
491.657	1151.44
491.874	1163.44
492.092	1130.44
492.31	1139.44
492.527	1155.44
492.745	1158.44
492.963	1167.44
493.18	1169.44
493.398	1185.44
493.615	1174.44
493.833	1157.44
494.05	1176.44
494.268	1192.44
494.485	1183.44
494.703	1193.44
494.92	1192.44
495.138	1177.44
495.355	1204.44
495.573	1239.44
495.79	1198.44
496.008	1201.44
496.225	1229.44
496.442	1202.44
496.66	1275.44
496.877	1269.44
497.094	1248.44
497.312	1280.44
497.529	1315.44
497.746	1320.44
497.963	1409.44
498.181	1409.44
498.398	1493.44
498.615	1613.44
498.832	1709.44
499.049	1815.44
499.267	1992.44
499.484	2163.44
499.701	2438.44
499.918	2698.44
500.135	3058.44
500.352	3467.44
500.569	3627.44
500.786	3564.44
501.003	3388.44
501.22	2952.44
501.437	2725.44
501.654	2348.44
501.871	2109.44
502.088	1981.44
502.305	1867.44
502.522	1739.44
502.739	1633.44
502.956	1545.44
503.172	1495.44
503.389	1461.44
503.606	1415.44
503.823	1386.44
504.04	1370.44
504.256	1356.44
504.473	1421.44
504.69	1419.44
504.907	1402.44
505.123	1343.44
505.34	1262.44
505.557	1179.44
505.773	1188.44
505.99	1140.44
506.207	1100.44
506.423	1121.44
506.64	1067.44
506.856	1081.44
507.073	1060.44
507.289	1061.44
507.506	1051.44
507.722	1064.44
507.939	1049.44
508.155	1041.44
508.372	1012.44
508.588	1025.44
508.805	1009.44
509.021	997.44
509.238	985.44
509.454	969.44
509.67	991.44
509.887	975.44
510.103	964.44
510.319	1010.44
510.536	982.44
510.752	953.44
510.968	973.44
511.184	956.44
511.401	972.44
511.617	949.44
511.833	954.44
512.049	940.44
512.265	959.44
512.481	951.44
512.698	991.44
512.914	966.44
513.13	989.44
513.346	956.44
513.562	947.44
513.778	963.44
513.994	989.44
514.21	949.44
514.426	965.44
514.642	1000.44
514.858	992.44
515.074	1006.44
515.29	992.44
515.506	993.44
515.721	1052.44
515.937	1005.44
516.153	1057.44
516.369	1070.44
516.585	1081.44
516.801	1166.44
517.016	1196.44
517.232	1250.44
517.448	1312.44
517.664	1333.44
517.879	1339.44
518.095	1333.44
518.311	1304.44
518.527	1245.44
518.742	1230.44
518.958	1148.44
519.173	1111.44
519.389	1108.44
519.605	1042.44
519.82	1042.44
520.036	1060.44
520.251	981.44
520.467	981.44
520.682	959.44
520.898	978.44
521.113	966.44
521.329	951.44
521.544	935.44
521.76	930.44
521.975	955.44
522.19	903.44
522.406	899.44
522.621	919.44
522.836	923.44
523.052	892.44
523.267	921.44
523.482	876.44
523.698	931.44
523.913	913.44
524.128	894.44
524.343	887.44
524.559	877.44
524.774	892.44
524.989	880.44
525.204	871.44
525.419	881.44
525.634	881.44
525.849	864.44
526.064	897.44
526.28	878.44
526.495	861.44
526.71	885.44
526.925	867.44
527.14	852.44
527.355	865.44
527.57	883.44
527.785	857.44
527.999	899.44
528.214	879.44
528.429	858.44
528.644	866.44
528.859	865.44
529.074	877.44
529.289	863.44
529.503	901.44
529.718	883.44
529.933	861.44
530.148	847.44
530.363	843.44
530.577	880.44
530.792	862.44
531.007	853.44
531.221	875.44
531.436	890.44
531.651	895.44
531.865	873.44
532.08	869.44
532.295	845.44
532.509	866.44
532.724	864.44
532.938	856.44
533.153	860.44
533.367	853.44
533.582	844.44
533.796	875.44
534.011	882.44
534.225	851.44
534.44	856.44
534.654	845.44
534.868	857.44
535.083	834.44
535.297	855.44
535.511	849.44
535.726	842.44
535.94	842.44
536.154	844.44
536.369	827.44
536.583	826.44
536.797	831.44
537.011	821.44
537.225	819.44
537.44	789.44
537.654	799.44
537.868	773.44
538.082	803.44
538.296	795.44
538.51	801.44
538.724	767.44
538.938	782.44
539.153	777.44
539.367	798.44
539.581	789.44
539.795	797.44
540.009	797.44
540.222	782.44
540.436	780.44
540.65	779.44
540.864	774.44
541.078	795.44
541.292	783.44
541.506	794.44
541.72	795.44
541.934	782.44
542.147	806.44
542.361	785.44
542.575	788.44
542.789	783.44
543.002	774.44
543.216	790.44
543.43	791.44
543.644	773.44
543.857	751.44
544.071	780.44
544.285	772.44
544.498	764.44
544.712	772.44
544.925	773.44
545.139	804.44
545.352	778.44
545.566	815.44
545.779	801.44
545.993	823.44
546.206	802.44
546.42	828.44
546.633	809.44
546.847	796.44
547.06	797.44
547.274	773.44
547.487	763.44
547.7	790.44
547.914	796.44
548.127	832.44
548.34	829.44
548.554	808.44
548.767	812.44
548.98	797.44
549.193	787.44
549.407	794.44
549.62	834.44
549.833	834.44
550.046	823.44
550.259	801.44
550.473	805.44
550.686	807.44
550.899	802.44
551.112	786.44
551.325	759.44
551.538	773.44
551.751	765.44
551.964	789.44
552.177	748.44
552.39	811.44
552.603	828.44
552.816	831.44
553.029	847.44
553.242	898.44
553.455	901.44
553.667	908.44
553.88	901.44
554.093	854.44
554.306	837.44
554.519	817.44
554.732	804.44
554.944	773.44
555.157	772.44
555.37	767.44
555.583	742.44
555.795	727.44
556.008	717.44
556.221	736.44
556.433	716.44
556.646	696.44
556.859	691.44
557.071	709.44
557.284	703.44
557.496	694.44
557.709	688.44
557.921	697.44
558.134	687.44
558.346	683.44
558.559	694.44
558.771	667.44
558.984	665.44
559.196	664.44
559.409	665.44
559.621	668.44
559.833	655.44
560.046	681.44
560.258	679.44
560.47	662.44
560.683	663.44
560.895	672.44
561.107	653.44
561.32	646.44
561.532	649.44
561.744	645.44
561.956	647.44
562.168	672.44
562.381	669.44
562.593	673.44
562.805	676.44
563.017	673.44
563.229	671.44
563.441	675.44
563.653	677.44
563.865	684.44
564.077	668.44
564.289	666.44
564.501	699.44
564.713	708.44
564.925	714.44
565.137	724.44
565.349	742.44
565.561	798.44
565.773	800.44
565.985	822.44
566.197	899.44
566.408	957.44
566.62	1019.44
566.832	1054.44
567.044	1100.44
567.255	1084.44
567.467	1146.44
567.679	1185.44
567.891	1287.44
568.102	1313.44
568.314	1230.44
568.526	1115.44
568.737	1045.44
568.949	964.44
569.161	885.44
569.372	791.44
569.584	774.44
569.795	750.44
570.007	739.44
570.218	714.44
570.43	706.44
570.641	690.44
570.853	703.44
571.064	701.44
571.276	707.44
571.487	679.44
571.698	655.44
571.91	636.44
572.121	617.44
572.333	600.44
572.544	579.44
572.755	594.44
572.966	585.44
573.178	584.44
573.389	565.44
573.6	574.44
573.811	560.44
574.023	565.44
574.234	563.44
574.445	566.44
574.656	569.44
574.867	565.44
575.078	561.44
575.289	550.44
575.501	554.44
575.712	543.44
575.923	520.44
576.134	504.44
576.345	527.44
576.556	513.44
576.767	538.44
576.978	527.44
577.188	535.44
577.399	524.44
577.61	510.44
577.821	505.44
578.032	528.44
578.243	500.44
578.454	486.44
578.665	484.44
578.875	492.44
579.086	479.44
579.297	495.44
579.508	501.44
579.718	479.44
579.929	476.44
580.14	480.44
580.35	483.44
580.561	480.44
580.772	493.44
580.982	484.44
581.193	459.44
581.403	474.44
581.614	463.44
581.825	463.44
582.035	468.44
582.246	462.44
582.456	457.44
582.667	493.44
582.877	466.44
583.087	456.44
583.298	448.44
583.508	441.44
583.719	446.44
583.929	464.44
584.139	455.44
584.35	453.44
584.56	453.44
584.77	467.44
584.981	435.44
585.191	453.44
585.401	462.44
585.611	458.44
585.821	455.44
586.032	458.44
586.242	458.44
586.452	444.44
586.662	430.44
586.872	425.44
587.082	447.44
587.292	407.44
587.502	449.44
587.713	431.44
587.923	451.44
588.133	451.44
588.343	441.44
588.553	451.44
588.762	434.44
588.972	444.44
589.182	471.44
589.392	452.44
589.602	439.44
589.812	445.44
590.022	464.44
590.232	445.44
590.441	459.44
590.651	445.44
590.861	441.44
591.071	434.44
591.281	470.44
591.49	462.44
591.7	481.44
591.91	464.44
592.119	484.44
592.329	517.44
592.539	503.44
592.748	511.44
592.958	559.44
593.167	578.44
593.377	569.44
593.587	577.44
593.796	563.44
594.006	564.44
594.215	586.44
594.424	583.44
594.634	568.44
594.843	540.44
595.053	525.44
595.262	498.44
595.472	485.44
595.681	476.44
595.89	461.44
596.1	442.44
596.309	441.44
596.518	419.44
596.727	405.44
596.937	419.44
597.146	421.44
597.355	423.44
597.564	400.44
597.774	410.44
597.983	405.44
598.192	397.44
598.401	392.44
598.61	386.44
598.819	413.44
599.028	387.44
599.237	373.44
599.446	383.44
599.655	392.44
599.864	375.44
600.073	375.44
600.282	379.44
600.491	391.44
600.7	372.44
600.909	385.44
601.118	381.44
601.327	358.44
601.536	380.44
601.745	377.44
601.953	379.44
602.162	387.44
602.371	366.44
602.58	358.44
602.789	371.44
602.997	363.44
603.206	356.44
603.415	364.44
603.623	353.44
603.832	356.44
604.041	347.44
604.249	362.44
604.458	351.44
604.666	346.44
604.875	350.44
605.084	361.44
605.292	336.44
605.501	375.44
605.709	359.44
605.918	338.44
606.126	348.44
606.334	345.44
606.543	340.44
606.751	339.44
606.96	337.44
607.168	342.44
607.376	350.44
607.585	323.44
607.793	344.44
608.001	333.44
608.21	341.44
608.418	349.44
608.626	339.44
608.834	327.44
609.043	338.44
609.251	331.44
609.459	340.44
609.667	334.44
609.875	339.44
610.083	337.44
610.291	346.44
610.499	327.44
610.707	332.44
610.916	333.44
611.124	325.44
611.332	317.44
611.54	345.44
611.748	341.44
611.955	335.44
612.163	354.44
612.371	342.44
612.579	346.44
612.787	324.44
612.995	326.44
613.203	333.44
613.411	334.44
613.618	327.44
613.826	311.44
614.034	343.44
614.242	314.44
614.449	338.44
614.657	325.44
614.865	315.44
615.072	311.44
615.28	319.44
615.488	332.44
615.695	321.44
615.903	321.44
616.111	332.44
616.318	339.44
616.526	335.44
616.733	325.44
616.941	310.44
617.148	324.44
617.356	312.44
617.563	340.44
617.771	330.44
617.978	328.44
618.185	325.44
618.393	312.44
618.6	324.44
618.807	308.44
619.015	333.44
619.222	315.44
619.429	327.44
619.637	317.44
619.844	297.44
620.051	327.44
620.258	332.44
620.466	309.44
620.673	290.44
620.88	296.44
621.087	293.44
621.294	307.44
621.501	307.44
621.708	287.44
621.915	307.44
622.122	313.44
622.329	289.44
622.536	296.44
622.743	286.44
622.95	303.44
623.157	291.44
623.364	294.44
623.571	301.44
623.778	275.44
623.985	276.44
624.192	289.44
624.399	289.44
624.606	299.44
624.812	290.44
625.019	278.44
625.226	294.44
625.433	281.44
625.639	276.44
625.846	274.44
626.053	288.44
626.259	287.44
626.466	279.44
626.673	269.44
626.879	249.44
627.086	268.44
627.293	277.44
627.499	258.44
627.706	274.44
627.912	278.44
628.119	275.44
628.325	272.44
628.532	267.44
628.738	266.44
628.945	279.44
629.151	262.44
629.357	266.44
629.564	272.44
629.77	262.44
629.976	249.44
630.183	255.44
630.389	257.44
630.595	270.44
630.802	254.44
631.008	253.44
631.214	253.44
631.42	256.44
631.627	244.44
631.833	250.44
632.039	261.44
632.245	251.44
632.451	240.44
632.657	247.44
632.863	256.44
633.069	266.44
633.275	244.44
633.481	233.44
633.688	242.44
633.893	246.44
634.099	244.44
634.305	246.44
634.511	237.44
634.717	249.44
634.923	248.44
635.129	231.44
635.335	241.44
635.541	236.44
635.747	251.44
635.952	236.44
636.158	243.44
636.364	221.44
636.57	242.44
636.775	253.44
636.981	239.44
637.187	243.44
637.392	223.44
637.598	226.44
637.804	238.44
638.009	222.44
638.215	227.44
638.421	230.44
638.626	235.44
638.832	216.44
639.037	226.44
639.243	221.44
639.448	220.44
639.654	240.44
639.859	216.44
640.065	213.44
640.27	228.44
640.475	216.44
640.681	219.44
640.886	227.44
641.091	216.44
641.297	204.44
641.502	217.44
641.707	233.44
641.913	221.44
642.118	194.44
642.323	213.44
642.528	209.44
642.733	222.44
642.939	220.44
643.144	211.44
643.349	206.44
643.554	222.44
643.759	200.44
643.964	208.44
644.169	227.44
644.374	205.44
644.579	213.44
644.784	214.44
644.989	213.44
645.194	208.44
645.399	199.44
645.604	210.44
645.809	207.44
646.014	227.44
646.219	214.44
646.423	201.44
646.628	209.44
646.833	217.44
647.038	210.44
647.243	204.44
647.447	202.44
647.652	229.44
647.857	221.44
648.062	202.44
648.266	201.44
648.471	235.44
648.676	234.44
648.88	234.44
649.085	232.44
649.289	210.44
649.494	210.44
649.698	202.44
649.903	199.44
650.107	202.44
650.312	193.44
650.516	189.44
650.721	210.44
650.925	193.44
651.13	177.44
651.334	195.44
651.539	182.44
651.743	184.44
651.947	187.44
652.152	198.44
652.356	191.44
652.56	181.44
652.764	175.44
652.969	193.44
653.173	181.44
653.377	185.44
653.581	177.44
653.785	172.44
653.99	169.44
654.194	174.44
654.398	163.44
654.602	171.44
654.806	150.44
655.01	158.44
655.214	171.44
655.418	143.44
655.622	146.44
655.826	163.44
656.03	161.44
656.234	156.44
656.438	135.44
656.642	138.44
656.846	152.44
657.049	153.44
657.253	141.44
657.457	136.44
657.661	128.44
657.865	122.44
658.068	128.44
658.272	145.44
658.476	115.44
658.68	98.44
658.883	115.44
659.087	107.44
659.291	111.44
659.494	116.44
659.698	118.44
659.901	102.44
660.105	105.44
660.309	103.44
660.512	110.44
660.716	106.44
660.919	118.44
661.123	101.44
661.326	100.44
661.53	85.44
661.733	94.44
661.936	89.44
662.14	98.44
662.343	95.44
662.546	77.44
662.75	92.44
662.953	97.44
663.156	93.44
663.36	85.44
663.563	84.44
663.766	87.44
663.969	80.44
664.173	90.44
664.376	104.44
664.579	83.44
664.782	67.44
664.985	81.44
665.188	87.44
665.391	84.44
665.594	78.44
665.797	81.44
666	74.44
666.203	85.44
666.406	69.44
666.609	82.44
666.812	85.44
667.015	84.44
667.218	75.44
667.421	92.44
667.624	85.44
667.827	85.44
668.03	79.44
668.232	96.44
668.435	91.44
668.638	84.44
668.841	74.44
669.043	88.44
669.246	99.44
669.449	80.44
669.651	66.44
669.854	75.44
670.057	73.44
670.259	82.44
670.462	89.44
670.665	83.44
670.867	85.44
671.07	73.44
671.272	96.44
671.475	76.44
671.677	74.44
671.88	83.44
672.082	76.44
672.284	81.44
672.487	80.44
672.689	84.44
672.892	72.44
