Data from NiCl2@0.125M.TitratingCurve.Agarose3%dH2O.NegLispCup.LampEnergy10.LIBS07252019_HRD10591_18-27-17-574.txt Node
Date: Thu Jul 25 18:27:17 EDT 2019
User: cochatt
Spectrometer: HR+D1059
Trigger mode: 1
Integration Time (sec): 1.000000E-1
Scans to average: 1
Electric dark correction enabled: true
Nonlinearity correction enabled: false
Boxcar width: 0
XAxis mode: Wavelengths
Number of Pixels in Spectrum: 2048
>>>>>Begin Spectral Data<<<<<
223.165	-15.25
223.4	-15.25
223.635	-15.25
223.869	-6.25
224.104	-17.25
224.338	-17.25
224.573	-0.25
224.808	-11.25
225.042	-21.25
225.277	-8.25
225.511	-22.25
225.746	8.75
225.98	-0.25
226.215	12.75
226.449	19.75
226.683	31.75
226.918	24.75
227.152	21.75
227.387	37.75
227.621	46.75
227.856	49.75
228.09	45.75
228.324	43.75
228.559	51.75
228.793	79.75
229.027	121.75
229.262	123.75
229.496	131.75
229.73	135.75
229.964	144.75
230.199	139.75
230.433	165.75
230.667	169.75
230.901	145.75
231.136	171.75
231.37	167.75
231.604	157.75
231.838	175.75
232.072	177.75
232.306	166.75
232.541	173.75
232.775	162.75
233.009	181.75
233.243	177.75
233.477	174.75
233.711	179.75
233.945	182.75
234.179	179.75
234.413	183.75
234.647	171.75
234.881	173.75
235.115	174.75
235.349	167.75
235.583	183.75
235.817	189.75
236.051	174.75
236.285	183.75
236.519	184.75
236.753	185.75
236.987	199.75
237.221	199.75
237.455	184.75
237.689	203.75
237.922	199.75
238.156	206.75
238.39	196.75
238.624	204.75
238.858	201.75
239.091	210.75
239.325	219.75
239.559	215.75
239.793	208.75
240.027	230.75
240.26	218.75
240.494	222.75
240.728	220.75
240.961	215.75
241.195	226.75
241.429	224.75
241.662	237.75
241.896	238.75
242.13	239.75
242.363	238.75
242.597	228.75
242.83	249.75
243.064	246.75
243.298	261.75
243.531	250.75
243.765	253.75
243.998	241.75
244.232	267.75
244.465	257.75
244.699	263.75
244.932	276.75
245.166	279.75
245.399	261.75
245.633	267.75
245.866	285.75
246.099	275.75
246.333	276.75
246.566	286.75
246.8	282.75
247.033	274.75
247.266	278.75
247.5	296.75
247.733	297.75
247.966	286.75
248.2	284.75
248.433	298.75
248.666	300.75
248.899	299.75
249.133	291.75
249.366	310.75
249.599	300.75
249.832	297.75
250.066	316.75
250.299	309.75
250.532	329.75
250.765	307.75
250.998	337.75
251.231	330.75
251.465	333.75
251.698	340.75
251.931	331.75
252.164	317.75
252.397	323.75
252.63	334.75
252.863	332.75
253.096	330.75
253.329	362.75
253.562	353.75
253.795	350.75
254.028	347.75
254.261	337.75
254.494	340.75
254.727	358.75
254.96	344.75
255.193	381.75
255.426	363.75
255.659	359.75
255.892	356.75
256.124	351.75
256.357	365.75
256.59	372.75
256.823	377.75
257.056	368.75
257.289	377.75
257.521	372.75
257.754	380.75
257.987	377.75
258.22	367.75
258.452	385.75
258.685	400.75
258.918	388.75
259.151	387.75
259.383	403.75
259.616	402.75
259.849	386.75
260.081	419.75
260.314	415.75
260.547	407.75
260.779	410.75
261.012	423.75
261.244	430.75
261.477	395.75
261.71	415.75
261.942	429.75
262.175	404.75
262.407	443.75
262.64	417.75
262.872	427.75
263.105	422.75
263.337	433.75
263.57	419.75
263.802	430.75
264.035	453.75
264.267	438.75
264.499	445.75
264.732	434.75
264.964	424.75
265.197	439.75
265.429	425.75
265.661	442.75
265.894	447.75
266.126	442.75
266.358	444.75
266.591	445.75
266.823	445.75
267.055	468.75
267.287	479.75
267.52	466.75
267.752	455.75
267.984	460.75
268.216	469.75
268.448	467.75
268.681	475.75
268.913	455.75
269.145	469.75
269.377	479.75
269.609	462.75
269.841	472.75
270.073	487.75
270.306	444.75
270.538	476.75
270.77	473.75
271.002	494.75
271.234	494.75
271.466	487.75
271.698	491.75
271.93	486.75
272.162	513.75
272.394	506.75
272.626	504.75
272.858	507.75
273.09	507.75
273.322	521.75
273.553	500.75
273.785	519.75
274.017	525.75
274.249	519.75
274.481	515.75
274.713	541.75
274.945	533.75
275.176	537.75
275.408	535.75
275.64	539.75
275.872	522.75
276.104	537.75
276.335	528.75
276.567	539.75
276.799	536.75
277.031	554.75
277.262	539.75
277.494	562.75
277.726	542.75
277.957	569.75
278.189	568.75
278.421	545.75
278.652	557.75
278.884	549.75
279.115	566.75
279.347	562.75
279.579	566.75
279.81	567.75
280.042	586.75
280.273	579.75
280.505	593.75
280.736	583.75
280.968	593.75
281.199	590.75
281.431	580.75
281.662	585.75
281.894	588.75
282.125	632.75
282.356	614.75
282.588	605.75
282.819	628.75
283.051	606.75
283.282	601.75
283.513	625.75
283.745	610.75
283.976	614.75
284.207	627.75
284.439	594.75
284.67	615.75
284.901	632.75
285.132	636.75
285.364	652.75
285.595	637.75
285.826	645.75
286.057	609.75
286.288	641.75
286.52	639.75
286.751	642.75
286.982	642.75
287.213	655.75
287.444	646.75
287.675	666.75
287.906	663.75
288.138	658.75
288.369	679.75
288.6	661.75
288.831	671.75
289.062	666.75
289.293	662.75
289.524	647.75
289.755	672.75
289.986	675.75
290.217	701.75
290.448	686.75
290.679	649.75
290.91	686.75
291.141	675.75
291.371	682.75
291.602	683.75
291.833	698.75
292.064	684.75
292.295	699.75
292.526	682.75
292.757	669.75
292.987	641.75
293.218	681.75
293.449	678.75
293.68	673.75
293.91	698.75
294.141	701.75
294.372	684.75
294.603	666.75
294.833	665.75
295.064	685.75
295.295	683.75
295.525	697.75
295.756	703.75
295.987	682.75
296.217	718.75
296.448	726.75
296.679	719.75
296.909	678.75
297.14	699.75
297.37	728.75
297.601	722.75
297.831	719.75
298.062	713.75
298.292	733.75
298.523	747.75
298.753	744.75
298.984	742.75
299.214	742.75
299.445	759.75
299.675	738.75
299.905	740.75
300.136	744.75
300.366	735.75
300.597	747.75
300.827	751.75
301.057	810.75
301.288	801.75
301.518	783.75
301.748	784.75
301.979	801.75
302.209	801.75
302.439	801.75
302.669	787.75
302.9	750.75
303.13	774.75
303.36	779.75
303.59	773.75
303.82	768.75
304.051	786.75
304.281	767.75
304.511	765.75
304.741	778.75
304.971	784.75
305.201	757.75
305.431	782.75
305.661	795.75
305.891	753.75
306.121	738.75
306.352	757.75
306.582	780.75
306.812	758.75
307.042	741.75
307.272	760.75
307.502	775.75
307.731	761.75
307.961	751.75
308.191	735.75
308.421	758.75
308.651	737.75
308.881	739.75
309.111	752.75
309.341	757.75
309.571	767.75
309.8	754.75
310.03	765.75
310.26	769.75
310.49	745.75
310.72	773.75
310.949	745.75
311.179	791.75
311.409	750.75
311.639	776.75
311.868	789.75
312.098	763.75
312.328	795.75
312.557	786.75
312.787	791.75
313.017	827.75
313.246	827.75
313.476	794.75
313.706	807.75
313.935	843.75
314.165	825.75
314.394	814.75
314.624	823.75
314.853	831.75
315.083	801.75
315.312	815.75
315.542	815.75
315.771	797.75
316.001	803.75
316.23	788.75
316.46	810.75
316.689	822.75
316.919	797.75
317.148	814.75
317.377	795.75
317.607	778.75
317.836	789.75
318.065	805.75
318.295	765.75
318.524	787.75
318.753	796.75
318.983	810.75
319.212	799.75
319.441	810.75
319.67	781.75
319.9	798.75
320.129	791.75
320.358	822.75
320.587	805.75
320.816	798.75
321.046	801.75
321.275	799.75
321.504	814.75
321.733	815.75
321.962	814.75
322.191	835.75
322.42	793.75
322.649	804.75
322.878	821.75
323.108	828.75
323.337	836.75
323.566	834.75
323.795	839.75
324.024	858.75
324.253	844.75
324.482	838.75
324.71	842.75
324.939	862.75
325.168	839.75
325.397	847.75
325.626	869.75
325.855	862.75
326.084	891.75
326.313	901.75
326.542	865.75
326.77	911.75
326.999	899.75
327.228	847.75
327.457	881.75
327.686	883.75
327.914	887.75
328.143	883.75
328.372	876.75
328.6	874.75
328.829	873.75
329.058	889.75
329.287	885.75
329.515	897.75
329.744	909.75
329.972	884.75
330.201	907.75
330.43	891.75
330.658	878.75
330.887	936.75
331.115	903.75
331.344	928.75
331.572	933.75
331.801	982.75
332.03	975.75
332.258	1004.75
332.486	1017.75
332.715	1069.75
332.943	1103.75
333.172	1160.75
333.4	1198.75
333.629	1224.75
333.857	1223.75
334.085	1209.75
334.314	1172.75
334.542	1164.75
334.771	1122.75
334.999	1109.75
335.227	1141.75
335.455	1139.75
335.684	1112.75
335.912	1071.75
336.14	1092.75
336.369	1068.75
336.597	1089.75
336.825	1083.75
337.053	1057.75
337.281	1081.75
337.51	1045.75
337.738	1006.75
337.966	985.75
338.194	997.75
338.422	971.75
338.65	937.75
338.878	965.75
339.106	963.75
339.334	936.75
339.562	965.75
339.79	916.75
340.018	966.75
340.246	919.75
340.474	917.75
340.702	938.75
340.93	942.75
341.158	956.75
341.386	935.75
341.614	931.75
341.842	935.75
342.07	905.75
342.298	876.75
342.526	889.75
342.754	917.75
342.981	908.75
343.209	965.75
343.437	996.75
343.665	1057.75
343.893	1143.75
344.12	1174.75
344.348	1085.75
344.576	1030.75
344.804	1006.75
345.031	954.75
345.259	929.75
345.487	927.75
345.714	931.75
345.942	920.75
346.17	919.75
346.397	907.75
346.625	897.75
346.853	875.75
347.08	909.75
347.308	909.75
347.535	892.75
347.763	875.75
347.99	906.75
348.218	897.75
348.445	880.75
348.673	882.75
348.9	889.75
349.128	866.75
349.355	893.75
349.583	877.75
349.81	862.75
350.037	847.75
350.265	884.75
350.492	871.75
350.72	860.75
350.947	864.75
351.174	857.75
351.402	874.75
351.629	875.75
351.856	856.75
352.083	857.75
352.311	827.75
352.538	835.75
352.765	839.75
352.992	866.75
353.22	855.75
353.447	846.75
353.674	817.75
353.901	846.75
354.128	838.75
354.355	829.75
354.583	849.75
354.81	859.75
355.037	841.75
355.264	825.75
355.491	858.75
355.718	856.75
355.945	878.75
356.172	881.75
356.399	846.75
356.626	843.75
356.853	862.75
357.08	870.75
357.307	876.75
357.534	851.75
357.761	858.75
357.988	874.75
358.215	852.75
358.441	860.75
358.668	844.75
358.895	811.75
359.122	855.75
359.349	863.75
359.576	875.75
359.802	864.75
360.029	850.75
360.256	850.75
360.483	879.75
360.709	848.75
360.936	868.75
361.163	856.75
361.39	841.75
361.616	842.75
361.843	868.75
362.07	871.75
362.296	894.75
362.523	837.75
362.749	863.75
362.976	851.75
363.203	860.75
363.429	850.75
363.656	834.75
363.882	843.75
364.109	877.75
364.335	867.75
364.562	861.75
364.788	827.75
365.015	843.75
365.241	851.75
365.468	835.75
365.694	857.75
365.92	854.75
366.147	859.75
366.373	851.75
366.599	861.75
366.826	844.75
367.052	872.75
367.278	838.75
367.505	878.75
367.731	875.75
367.957	877.75
368.184	844.75
368.41	893.75
368.636	871.75
368.862	860.75
369.089	873.75
369.315	883.75
369.541	840.75
369.767	889.75
369.993	903.75
370.219	887.75
370.445	920.75
370.672	895.75
370.898	897.75
371.124	920.75
371.35	921.75
371.576	941.75
371.802	965.75
372.028	950.75
372.254	948.75
372.48	945.75
372.706	968.75
372.932	986.75
373.158	978.75
373.384	930.75
373.61	938.75
373.835	914.75
374.061	911.75
374.287	955.75
374.513	947.75
374.739	984.75
374.965	1018.75
375.191	1035.75
375.416	1047.75
375.642	1014.75
375.868	973.75
376.094	965.75
376.319	969.75
376.545	927.75
376.771	945.75
376.997	932.75
377.222	956.75
377.448	931.75
377.674	924.75
377.899	927.75
378.125	901.75
378.35	907.75
378.576	896.75
378.802	946.75
379.027	931.75
379.253	911.75
379.478	911.75
379.704	915.75
379.929	934.75
380.155	895.75
380.38	903.75
380.606	887.75
380.831	917.75
381.057	945.75
381.282	921.75
381.507	950.75
381.733	937.75
381.958	958.75
382.184	959.75
382.409	950.75
382.634	1003.75
382.86	981.75
383.085	1017.75
383.31	1021.75
383.535	1037.75
383.761	1023.75
383.986	1063.75
384.211	1082.75
384.436	1097.75
384.662	1097.75
384.887	1155.75
385.112	1126.75
385.337	1123.75
385.562	1093.75
385.787	1131.75
386.013	1159.75
386.238	1135.75
386.463	1092.75
386.688	1129.75
386.913	1130.75
387.138	1108.75
387.363	1113.75
387.588	1101.75
387.813	1086.75
388.038	1073.75
388.263	1102.75
388.488	1115.75
388.713	1094.75
388.938	1096.75
389.163	1110.75
389.387	1083.75
389.612	1092.75
389.837	1091.75
390.062	1082.75
390.287	1093.75
390.512	1105.75
390.736	1081.75
390.961	1142.75
391.186	1129.75
391.411	1175.75
391.636	1207.75
391.86	1275.75
392.085	1298.75
392.31	1285.75
392.534	1247.75
392.759	1220.75
392.984	1198.75
393.208	1189.75
393.433	1191.75
393.658	1202.75
393.882	1190.75
394.107	1178.75
394.331	1224.75
394.556	1184.75
394.78	1219.75
395.005	1205.75
395.229	1189.75
395.454	1246.75
395.678	1268.75
395.903	1279.75
396.127	1249.75
396.352	1208.75
396.576	1199.75
396.801	1173.75
397.025	1226.75
397.249	1229.75
397.474	1251.75
397.698	1279.75
397.922	1284.75
398.147	1211.75
398.371	1281.75
398.595	1312.75
398.82	1389.75
399.044	1531.75
399.268	1655.75
399.492	1978.75
399.717	2232.75
399.941	2216.75
400.165	1917.75
400.389	1668.75
400.613	1584.75
400.837	1513.75
401.062	1423.75
401.286	1415.75
401.51	1410.75
401.734	1421.75
401.958	1424.75
402.182	1449.75
402.406	1482.75
402.63	1481.75
402.854	1518.75
403.078	1560.75
403.302	1581.75
403.526	1631.75
403.75	1680.75
403.974	1691.75
404.198	1655.75
404.422	1708.75
404.645	1678.75
404.869	1617.75
405.093	1595.75
405.317	1606.75
405.541	1593.75
405.765	1556.75
405.988	1542.75
406.212	1580.75
406.436	1578.75
406.66	1634.75
406.883	1615.75
407.107	1724.75
407.331	1816.75
407.555	1875.75
407.778	1835.75
408.002	1781.75
408.226	1714.75
408.449	1694.75
408.673	1663.75
408.896	1589.75
409.12	1590.75
409.344	1603.75
409.567	1635.75
409.791	1630.75
410.014	1572.75
410.238	1575.75
410.461	1590.75
410.685	1543.75
410.908	1525.75
411.132	1480.75
411.355	1467.75
411.578	1481.75
411.802	1491.75
412.025	1459.75
412.249	1465.75
412.472	1487.75
412.695	1450.75
412.919	1435.75
413.142	1418.75
413.365	1392.75
413.589	1425.75
413.812	1380.75
414.035	1381.75
414.258	1399.75
414.482	1423.75
414.705	1472.75
414.928	1475.75
415.151	1430.75
415.374	1421.75
415.597	1431.75
415.821	1386.75
416.044	1383.75
416.267	1345.75
416.49	1357.75
416.713	1355.75
416.936	1409.75
417.159	1389.75
417.382	1387.75
417.605	1373.75
417.828	1377.75
418.051	1436.75
418.274	1411.75
418.497	1413.75
418.72	1427.75
418.943	1410.75
419.166	1499.75
419.389	1627.75
419.611	1585.75
419.834	1549.75
420.057	1499.75
420.28	1461.75
420.503	1393.75
420.726	1401.75
420.948	1404.75
421.171	1404.75
421.394	1394.75
421.617	1412.75
421.839	1407.75
422.062	1395.75
422.285	1391.75
422.507	1413.75
422.73	1399.75
422.953	1454.75
423.175	1461.75
423.398	1481.75
423.621	1484.75
423.843	1506.75
424.066	1528.75
424.288	1490.75
424.511	1482.75
424.733	1457.75
424.956	1447.75
425.178	1439.75
425.401	1431.75
425.623	1402.75
425.846	1364.75
426.068	1344.75
426.291	1331.75
426.513	1342.75
426.735	1299.75
426.958	1301.75
427.18	1284.75
427.402	1271.75
427.625	1293.75
427.847	1262.75
428.069	1259.75
428.292	1263.75
428.514	1226.75
428.736	1232.75
428.958	1243.75
429.181	1191.75
429.403	1197.75
429.625	1195.75
429.847	1201.75
430.069	1201.75
430.292	1194.75
430.514	1207.75
430.736	1211.75
430.958	1193.75
431.18	1180.75
431.402	1190.75
431.624	1226.75
431.846	1234.75
432.068	1227.75
432.29	1262.75
432.512	1277.75
432.734	1229.75
432.956	1242.75
433.178	1220.75
433.4	1230.75
433.622	1237.75
433.844	1250.75
434.066	1259.75
434.287	1234.75
434.509	1295.75
434.731	1351.75
434.953	1409.75
435.175	1397.75
435.397	1379.75
435.618	1303.75
435.84	1289.75
436.062	1253.75
436.284	1241.75
436.505	1221.75
436.727	1230.75
436.949	1246.75
437.17	1232.75
437.392	1192.75
437.614	1226.75
437.835	1154.75
438.057	1198.75
438.278	1185.75
438.5	1183.75
438.721	1153.75
438.943	1213.75
439.165	1199.75
439.386	1214.75
439.608	1225.75
439.829	1221.75
440.05	1235.75
440.272	1260.75
440.493	1247.75
440.715	1241.75
440.936	1291.75
441.158	1303.75
441.379	1367.75
441.6	1394.75
441.822	1417.75
442.043	1383.75
442.264	1380.75
442.486	1340.75
442.707	1376.75
442.928	1362.75
443.149	1351.75
443.371	1346.75
443.592	1377.75
443.813	1379.75
444.034	1381.75
444.255	1450.75
444.476	1511.75
444.698	1650.75
444.919	1715.75
445.14	1782.75
445.361	1581.75
445.582	1465.75
445.803	1361.75
446.024	1310.75
446.245	1303.75
446.466	1276.75
446.687	1256.75
446.908	1284.75
447.129	1253.75
447.35	1232.75
447.571	1228.75
447.792	1177.75
448.013	1153.75
448.234	1133.75
448.455	1151.75
448.675	1132.75
448.896	1131.75
449.117	1120.75
449.338	1112.75
449.559	1126.75
449.779	1091.75
450	1076.75
450.221	1123.75
450.442	1091.75
450.662	1124.75
450.883	1127.75
451.104	1173.75
451.324	1153.75
451.545	1111.75
451.766	1133.75
451.986	1126.75
452.207	1130.75
452.428	1146.75
452.648	1115.75
452.869	1112.75
453.089	1093.75
453.31	1107.75
453.53	1088.75
453.751	1087.75
453.971	1065.75
454.192	1077.75
454.412	1061.75
454.633	1074.75
454.853	1081.75
455.073	1089.75
455.294	1089.75
455.514	1037.75
455.734	1025.75
455.955	1016.75
456.175	1012.75
456.395	1065.75
456.616	1036.75
456.836	1030.75
457.056	1038.75
457.276	1029.75
457.497	1038.75
457.717	1014.75
457.937	1060.75
458.157	1051.75
458.377	1062.75
458.598	1108.75
458.818	1120.75
459.038	1138.75
459.258	1181.75
459.478	1252.75
459.698	1253.75
459.918	1294.75
460.138	1358.75
460.358	1429.75
460.578	1453.75
460.798	1458.75
461.018	1486.75
461.238	1484.75
461.458	1427.75
461.678	1401.75
461.898	1439.75
462.118	1449.75
462.338	1537.75
462.558	1604.75
462.777	1700.75
462.997	1801.75
463.217	1964.75
463.437	1958.75
463.657	1813.75
463.876	1720.75
464.096	1702.75
464.316	1713.75
464.536	1682.75
464.755	1628.75
464.975	1602.75
465.195	1537.75
465.414	1388.75
465.634	1341.75
465.854	1273.75
466.073	1247.75
466.293	1261.75
466.512	1203.75
466.732	1205.75
466.951	1189.75
467.171	1179.75
467.391	1176.75
467.61	1127.75
467.829	1153.75
468.049	1141.75
468.268	1089.75
468.488	1162.75
468.707	1090.75
468.927	1133.75
469.146	1117.75
469.365	1150.75
469.585	1132.75
469.804	1154.75
470.023	1213.75
470.243	1175.75
470.462	1213.75
470.681	1237.75
470.901	1225.75
471.12	1175.75
471.339	1166.75
471.558	1159.75
471.777	1159.75
471.997	1165.75
472.216	1145.75
472.435	1111.75
472.654	1093.75
472.873	1083.75
473.092	1112.75
473.311	1083.75
473.53	1089.75
473.749	1060.75
473.968	1074.75
474.187	1085.75
474.406	1079.75
474.625	1073.75
474.844	1110.75
475.063	1087.75
475.282	1106.75
475.501	1096.75
475.72	1107.75
475.939	1142.75
476.158	1157.75
476.377	1115.75
476.596	1112.75
476.814	1118.75
477.033	1133.75
477.252	1174.75
477.471	1182.75
477.69	1198.75
477.908	1257.75
478.127	1301.75
478.346	1333.75
478.564	1340.75
478.783	1342.75
479.002	1377.75
479.22	1339.75
479.439	1372.75
479.658	1360.75
479.876	1373.75
480.095	1374.75
480.313	1459.75
480.532	1495.75
480.751	1471.75
480.969	1414.75
481.188	1376.75
481.406	1294.75
481.624	1281.75
481.843	1263.75
482.061	1303.75
482.28	1239.75
482.498	1258.75
482.717	1194.75
482.935	1244.75
483.153	1228.75
483.372	1233.75
483.59	1242.75
483.808	1225.75
484.027	1242.75
484.245	1255.75
484.463	1272.75
484.681	1283.75
484.9	1265.75
485.118	1288.75
485.336	1321.75
485.554	1292.75
485.772	1320.75
485.99	1308.75
486.209	1322.75
486.427	1278.75
486.645	1347.75
486.863	1333.75
487.081	1321.75
487.299	1303.75
487.517	1305.75
487.735	1337.75
487.953	1310.75
488.171	1295.75
488.389	1308.75
488.607	1287.75
488.825	1279.75
489.043	1288.75
489.261	1287.75
489.479	1318.75
489.696	1277.75
489.914	1317.75
490.132	1291.75
490.35	1306.75
490.568	1319.75
490.786	1345.75
491.003	1303.75
491.221	1335.75
491.439	1314.75
491.657	1308.75
491.874	1309.75
492.092	1330.75
492.31	1344.75
492.527	1372.75
492.745	1379.75
492.963	1373.75
493.18	1368.75
493.398	1345.75
493.615	1325.75
493.833	1380.75
494.05	1386.75
494.268	1412.75
494.485	1390.75
494.703	1369.75
494.92	1365.75
495.138	1409.75
495.355	1381.75
495.573	1387.75
495.79	1399.75
496.008	1381.75
496.225	1413.75
496.442	1415.75
496.66	1405.75
496.877	1413.75
497.094	1462.75
497.312	1531.75
497.529	1494.75
497.746	1566.75
497.963	1638.75
498.181	1645.75
498.398	1755.75
498.615	1834.75
498.832	1981.75
499.049	2129.75
499.267	2376.75
499.484	2575.75
499.701	2835.75
499.918	3159.75
500.135	3680.75
500.352	4205.75
500.569	4356.75
500.786	4331.75
501.003	3939.75
501.22	3545.75
501.437	3098.75
501.654	2767.75
501.871	2467.75
502.088	2280.75
502.305	2121.75
502.522	1964.75
502.739	1927.75
502.956	1835.75
503.172	1769.75
503.389	1679.75
503.606	1620.75
503.823	1551.75
504.04	1580.75
504.256	1605.75
504.473	1620.75
504.69	1676.75
504.907	1652.75
505.123	1486.75
505.34	1430.75
505.557	1326.75
505.773	1363.75
505.99	1309.75
506.207	1279.75
506.423	1261.75
506.64	1227.75
506.856	1234.75
507.073	1238.75
507.289	1229.75
507.506	1222.75
507.722	1198.75
507.939	1173.75
508.155	1163.75
508.372	1149.75
508.588	1170.75
508.805	1146.75
509.021	1149.75
509.238	1155.75
509.454	1137.75
509.67	1098.75
509.887	1108.75
510.103	1101.75
510.319	1077.75
510.536	1089.75
510.752	1077.75
510.968	1094.75
511.184	1071.75
511.401	1117.75
511.617	1096.75
511.833	1053.75
512.049	1089.75
512.265	1112.75
512.481	1091.75
512.698	1113.75
512.914	1083.75
513.13	1118.75
513.346	1083.75
513.562	1102.75
513.778	1117.75
513.994	1086.75
514.21	1120.75
514.426	1125.75
514.642	1127.75
514.858	1138.75
515.074	1165.75
515.29	1111.75
515.506	1142.75
515.721	1176.75
515.937	1167.75
516.153	1180.75
516.369	1241.75
516.585	1247.75
516.801	1317.75
517.016	1364.75
517.232	1419.75
517.448	1529.75
517.664	1525.75
517.879	1575.75
518.095	1563.75
518.311	1537.75
518.527	1455.75
518.742	1409.75
518.958	1375.75
519.173	1295.75
519.389	1259.75
519.605	1236.75
519.82	1175.75
520.036	1190.75
520.251	1126.75
520.467	1127.75
520.682	1096.75
520.898	1105.75
521.113	1084.75
521.329	1107.75
521.544	1062.75
521.76	1069.75
521.975	1032.75
522.19	1045.75
522.406	1063.75
522.621	1049.75
522.836	1052.75
523.052	1049.75
523.267	1015.75
523.482	1004.75
523.698	1005.75
523.913	1006.75
524.128	1010.75
524.343	1030.75
524.559	1033.75
524.774	986.75
524.989	1004.75
525.204	993.75
525.419	1001.75
525.634	976.75
525.849	993.75
526.064	1011.75
526.28	993.75
526.495	995.75
526.71	991.75
526.925	1013.75
527.14	993.75
527.355	1006.75
527.57	1003.75
527.785	978.75
527.999	961.75
528.214	1009.75
528.429	996.75
528.644	980.75
528.859	989.75
529.074	969.75
529.289	989.75
529.503	1025.75
529.718	1000.75
529.933	979.75
530.148	967.75
530.363	981.75
530.577	974.75
530.792	955.75
531.007	946.75
531.221	967.75
531.436	990.75
531.651	985.75
531.865	979.75
532.08	984.75
532.295	1009.75
532.509	989.75
532.724	969.75
532.938	967.75
533.153	976.75
533.367	989.75
533.582	966.75
533.796	981.75
534.011	965.75
534.225	976.75
534.44	965.75
534.654	956.75
534.868	938.75
535.083	950.75
535.297	939.75
535.511	947.75
535.726	964.75
535.94	933.75
536.154	934.75
536.369	939.75
536.583	907.75
536.797	903.75
537.011	904.75
537.225	901.75
537.44	925.75
537.654	920.75
537.868	906.75
538.082	890.75
538.296	882.75
538.51	895.75
538.724	931.75
538.938	902.75
539.153	877.75
539.367	873.75
539.581	917.75
539.795	847.75
540.009	865.75
540.222	899.75
540.436	888.75
540.65	863.75
540.864	882.75
541.078	886.75
541.292	918.75
541.506	860.75
541.72	883.75
541.934	876.75
542.147	917.75
542.361	891.75
542.575	876.75
542.789	853.75
543.002	883.75
543.216	872.75
543.43	862.75
543.644	867.75
543.857	871.75
544.071	885.75
544.285	857.75
544.498	878.75
544.712	847.75
544.925	884.75
545.139	901.75
545.352	916.75
545.566	903.75
545.779	918.75
545.993	919.75
546.206	921.75
546.42	906.75
546.633	905.75
546.847	902.75
547.06	900.75
547.274	888.75
547.487	865.75
547.7	903.75
547.914	893.75
548.127	922.75
548.34	902.75
548.554	894.75
548.767	905.75
548.98	901.75
549.193	928.75
549.407	914.75
549.62	944.75
549.833	957.75
550.046	953.75
550.259	940.75
550.473	898.75
550.686	904.75
550.899	891.75
551.112	870.75
551.325	890.75
551.538	865.75
551.751	855.75
551.964	891.75
552.177	881.75
552.39	907.75
552.603	956.75
552.816	961.75
553.029	990.75
553.242	1021.75
553.455	1015.75
553.667	981.75
553.88	995.75
554.093	965.75
554.306	914.75
554.519	924.75
554.732	908.75
554.944	892.75
555.157	887.75
555.37	893.75
555.583	853.75
555.795	841.75
556.008	819.75
556.221	827.75
556.433	784.75
556.646	765.75
556.859	810.75
557.071	798.75
557.284	797.75
557.496	777.75
557.709	750.75
557.921	749.75
558.134	759.75
558.346	763.75
558.559	741.75
558.771	751.75
558.984	750.75
559.196	746.75
559.409	746.75
559.621	745.75
559.833	724.75
560.046	744.75
560.258	749.75
560.47	733.75
560.683	755.75
560.895	727.75
561.107	708.75
561.32	714.75
561.532	749.75
561.744	743.75
561.956	718.75
562.168	739.75
562.381	738.75
562.593	732.75
562.805	735.75
563.017	741.75
563.229	748.75
563.441	735.75
563.653	750.75
563.865	750.75
564.077	762.75
564.289	761.75
564.501	794.75
564.713	794.75
564.925	800.75
565.137	801.75
565.349	826.75
565.561	827.75
565.773	887.75
565.985	945.75
566.197	966.75
566.408	1062.75
566.62	1153.75
566.832	1262.75
567.044	1251.75
567.255	1262.75
567.467	1294.75
567.679	1373.75
567.891	1485.75
568.102	1509.75
568.314	1413.75
568.526	1294.75
568.737	1134.75
568.949	1060.75
569.161	963.75
569.372	890.75
569.584	830.75
569.795	831.75
570.007	789.75
570.218	753.75
570.43	777.75
570.641	742.75
570.853	742.75
571.064	783.75
571.276	779.75
571.487	751.75
571.698	715.75
571.91	685.75
572.121	668.75
572.333	681.75
572.544	664.75
572.755	645.75
572.966	636.75
573.178	619.75
573.389	614.75
573.6	632.75
573.811	603.75
574.023	623.75
574.234	619.75
574.445	618.75
574.656	581.75
574.867	620.75
575.078	615.75
575.289	619.75
575.501	610.75
575.712	587.75
575.923	578.75
576.134	571.75
576.345	585.75
576.556	563.75
576.767	557.75
576.978	543.75
577.188	570.75
577.399	569.75
577.61	574.75
577.821	563.75
578.032	522.75
578.243	541.75
578.454	547.75
578.665	550.75
578.875	542.75
579.086	538.75
579.297	540.75
579.508	538.75
579.718	534.75
579.929	541.75
580.14	514.75
580.35	516.75
580.561	518.75
580.772	546.75
580.982	521.75
581.193	523.75
581.403	545.75
581.614	515.75
581.825	501.75
582.035	481.75
582.246	504.75
582.456	523.75
582.667	515.75
582.877	520.75
583.087	490.75
583.298	488.75
583.508	520.75
583.719	511.75
583.929	514.75
584.139	476.75
584.35	513.75
584.56	483.75
584.77	513.75
584.981	485.75
585.191	470.75
585.401	467.75
585.611	495.75
585.821	486.75
586.032	477.75
586.242	503.75
586.452	477.75
586.662	495.75
586.872	488.75
587.082	506.75
587.292	474.75
587.502	467.75
587.713	473.75
587.923	491.75
588.133	474.75
588.343	470.75
588.553	469.75
588.762	444.75
588.972	481.75
589.182	497.75
589.392	499.75
589.602	498.75
589.812	483.75
590.022	495.75
590.232	491.75
590.441	492.75
590.651	488.75
590.861	495.75
591.071	501.75
591.281	476.75
591.49	509.75
591.7	507.75
591.91	517.75
592.119	538.75
592.329	531.75
592.539	551.75
592.748	583.75
592.958	598.75
593.167	610.75
593.377	596.75
593.587	609.75
593.796	614.75
594.006	634.75
594.215	639.75
594.424	650.75
594.634	620.75
594.843	587.75
595.053	568.75
595.262	565.75
595.472	523.75
595.681	491.75
595.89	509.75
596.1	494.75
596.309	477.75
596.518	484.75
596.727	467.75
596.937	453.75
597.146	453.75
597.355	447.75
597.564	445.75
597.774	436.75
597.983	435.75
598.192	418.75
598.401	419.75
598.61	414.75
598.819	414.75
599.028	417.75
599.237	407.75
599.446	393.75
599.655	417.75
599.864	408.75
600.073	405.75
600.282	385.75
600.491	431.75
600.7	400.75
600.909	417.75
601.118	397.75
601.327	402.75
601.536	398.75
601.745	408.75
601.953	388.75
602.162	393.75
602.371	385.75
602.58	378.75
602.789	391.75
602.997	388.75
603.206	397.75
603.415	370.75
603.623	377.75
603.832	375.75
604.041	381.75
604.249	396.75
604.458	371.75
604.666	373.75
604.875	375.75
605.084	361.75
605.292	379.75
605.501	381.75
605.709	373.75
605.918	372.75
606.126	384.75
606.334	354.75
606.543	377.75
606.751	356.75
606.96	387.75
607.168	381.75
607.376	360.75
607.585	363.75
607.793	361.75
608.001	363.75
608.21	349.75
608.418	364.75
608.626	360.75
608.834	371.75
609.043	375.75
609.251	361.75
609.459	364.75
609.667	370.75
609.875	340.75
610.083	360.75
610.291	373.75
610.499	354.75
610.707	353.75
610.916	345.75
611.124	353.75
611.332	369.75
611.54	365.75
611.748	382.75
611.955	352.75
612.163	347.75
612.371	344.75
612.579	341.75
612.787	355.75
612.995	337.75
613.203	346.75
613.411	349.75
613.618	351.75
613.826	332.75
614.034	334.75
614.242	345.75
614.449	321.75
614.657	336.75
614.865	332.75
615.072	347.75
615.28	332.75
615.488	358.75
615.695	346.75
615.903	339.75
616.111	340.75
616.318	354.75
616.526	345.75
616.733	363.75
616.941	346.75
617.148	349.75
617.356	346.75
617.563	339.75
617.771	356.75
617.978	353.75
618.185	346.75
618.393	346.75
618.6	345.75
618.807	332.75
619.015	333.75
619.222	332.75
619.429	326.75
619.637	331.75
619.844	330.75
620.051	323.75
620.258	332.75
620.466	335.75
620.673	316.75
620.88	333.75
621.087	309.75
621.294	317.75
621.501	315.75
621.708	331.75
621.915	322.75
622.122	323.75
622.329	331.75
622.536	326.75
622.743	307.75
622.95	313.75
623.157	297.75
623.364	297.75
623.571	313.75
623.778	317.75
623.985	301.75
624.192	297.75
624.399	315.75
624.606	301.75
624.812	296.75
625.019	279.75
625.226	307.75
625.433	294.75
625.639	285.75
625.846	287.75
626.053	287.75
626.259	285.75
626.466	280.75
626.673	287.75
626.879	271.75
627.086	294.75
627.293	293.75
627.499	293.75
627.706	298.75
627.912	300.75
628.119	277.75
628.325	284.75
628.532	287.75
628.738	285.75
628.945	290.75
629.151	281.75
629.357	275.75
629.564	271.75
629.77	268.75
629.976	262.75
630.183	262.75
630.389	267.75
630.595	258.75
630.802	269.75
631.008	267.75
631.214	265.75
631.42	266.75
631.627	260.75
631.833	259.75
632.039	251.75
632.245	270.75
632.451	243.75
632.657	278.75
632.863	263.75
633.069	254.75
633.275	249.75
633.481	265.75
633.688	250.75
633.893	236.75
634.099	250.75
634.305	265.75
634.511	253.75
634.717	245.75
634.923	254.75
635.129	259.75
635.335	267.75
635.541	257.75
635.747	261.75
635.952	273.75
636.158	248.75
636.364	239.75
636.57	250.75
636.775	253.75
636.981	254.75
637.187	243.75
637.392	245.75
637.598	249.75
637.804	231.75
638.009	260.75
638.215	259.75
638.421	233.75
638.626	243.75
638.832	229.75
639.037	238.75
639.243	235.75
639.448	225.75
639.654	237.75
639.859	252.75
640.065	211.75
640.27	251.75
640.475	219.75
640.681	243.75
640.886	228.75
641.091	228.75
641.297	220.75
641.502	234.75
641.707	221.75
641.913	231.75
642.118	230.75
642.323	217.75
642.528	230.75
642.733	217.75
642.939	243.75
643.144	221.75
643.349	213.75
643.554	207.75
643.759	231.75
643.964	224.75
644.169	228.75
644.374	222.75
644.579	226.75
644.784	200.75
644.989	210.75
645.194	233.75
645.399	212.75
645.604	220.75
645.809	214.75
646.014	227.75
646.219	229.75
646.423	229.75
646.628	203.75
646.833	217.75
647.038	186.75
647.243	225.75
647.447	229.75
647.652	232.75
647.857	229.75
648.062	236.75
648.266	206.75
648.471	233.75
648.676	218.75
648.88	239.75
649.085	246.75
649.289	213.75
649.494	214.75
649.698	211.75
649.903	198.75
650.107	207.75
650.312	220.75
650.516	212.75
650.721	204.75
650.925	194.75
651.13	195.75
651.334	209.75
651.539	194.75
651.743	194.75
651.947	185.75
652.152	197.75
652.356	182.75
652.56	197.75
652.764	173.75
652.969	183.75
653.173	187.75
653.377	185.75
653.581	171.75
653.785	170.75
653.99	160.75
654.194	167.75
654.398	174.75
654.602	169.75
654.806	161.75
655.01	179.75
655.214	177.75
655.418	170.75
655.622	180.75
655.826	169.75
656.03	161.75
656.234	157.75
656.438	161.75
656.642	152.75
656.846	154.75
657.049	164.75
657.253	170.75
657.457	150.75
657.661	140.75
657.865	131.75
658.068	113.75
658.272	128.75
658.476	123.75
658.68	118.75
658.883	122.75
659.087	115.75
659.291	115.75
659.494	105.75
659.698	109.75
659.901	113.75
660.105	106.75
660.309	109.75
660.512	98.75
660.716	99.75
660.919	97.75
661.123	105.75
661.326	91.75
661.53	95.75
661.733	91.75
661.936	93.75
662.14	108.75
662.343	103.75
662.546	75.75
662.75	98.75
662.953	88.75
663.156	79.75
663.36	87.75
663.563	98.75
663.766	86.75
663.969	91.75
664.173	69.75
664.376	74.75
664.579	76.75
664.782	76.75
664.985	87.75
665.188	86.75
665.391	73.75
665.594	78.75
665.797	79.75
666	86.75
666.203	79.75
666.406	78.75
666.609	70.75
666.812	91.75
667.015	70.75
667.218	82.75
667.421	92.75
667.624	86.75
667.827	81.75
668.03	83.75
668.232	85.75
668.435	87.75
668.638	88.75
668.841	86.75
669.043	72.75
669.246	87.75
669.449	79.75
669.651	79.75
669.854	77.75
670.057	74.75
670.259	78.75
670.462	80.75
670.665	67.75
670.867	74.75
671.07	92.75
671.272	91.75
671.475	105.75
671.677	88.75
671.88	93.75
672.082	85.75
672.284	75.75
672.487	71.75
672.689	85.75
672.892	70.75
