Data from NiCl2@0.0625M.TitratingCurve.Agarose3%dH2O.NegLispCup.LampEnergy10.LIBS07252019_HRD10591_18-35-15-577.txt Node
Date: Thu Jul 25 18:35:15 EDT 2019
User: cochatt
Spectrometer: HR+D1059
Trigger mode: 1
Integration Time (sec): 1.000000E-1
Scans to average: 1
Electric dark correction enabled: true
Nonlinearity correction enabled: false
Boxcar width: 0
XAxis mode: Wavelengths
Number of Pixels in Spectrum: 2048
>>>>>Begin Spectral Data<<<<<
223.165	-21.38
223.4	-21.38
223.635	-21.38
223.869	-13.38
224.104	-28.38
224.338	-14.38
224.573	-9.38
224.808	3.62
225.042	-12.38
225.277	-1.38
225.511	4.62
225.746	-5.38
225.98	2.62
226.215	5.62
226.449	17.62
226.683	14.62
226.918	35.62
227.152	21.62
227.387	23.62
227.621	43.62
227.856	46.62
228.09	40.62
228.324	43.62
228.559	47.62
228.793	76.62
229.027	148.62
229.262	150.62
229.496	150.62
229.73	143.62
229.964	171.62
230.199	162.62
230.433	163.62
230.667	167.62
230.901	176.62
231.136	177.62
231.37	182.62
231.604	172.62
231.838	184.62
232.072	212.62
232.306	196.62
232.541	203.62
232.775	211.62
233.009	197.62
233.243	199.62
233.477	199.62
233.711	208.62
233.945	203.62
234.179	186.62
234.413	186.62
234.647	210.62
234.881	204.62
235.115	202.62
235.349	207.62
235.583	209.62
235.817	199.62
236.051	213.62
236.285	203.62
236.519	203.62
236.753	208.62
236.987	207.62
237.221	214.62
237.455	220.62
237.689	236.62
237.922	223.62
238.156	233.62
238.39	239.62
238.624	232.62
238.858	236.62
239.091	239.62
239.325	255.62
239.559	260.62
239.793	243.62
240.027	253.62
240.26	244.62
240.494	254.62
240.728	273.62
240.961	254.62
241.195	260.62
241.429	279.62
241.662	279.62
241.896	273.62
242.13	292.62
242.363	295.62
242.597	287.62
242.83	290.62
243.064	321.62
243.298	281.62
243.531	302.62
243.765	298.62
243.998	327.62
244.232	322.62
244.465	311.62
244.699	329.62
244.932	315.62
245.166	324.62
245.399	347.62
245.633	357.62
245.866	324.62
246.099	327.62
246.333	336.62
246.566	345.62
246.8	329.62
247.033	330.62
247.266	340.62
247.5	351.62
247.733	363.62
247.966	363.62
248.2	362.62
248.433	367.62
248.666	374.62
248.899	376.62
249.133	366.62
249.366	372.62
249.599	379.62
249.832	362.62
250.066	390.62
250.299	364.62
250.532	389.62
250.765	398.62
250.998	396.62
251.231	396.62
251.465	407.62
251.698	410.62
251.931	430.62
252.164	414.62
252.397	421.62
252.63	433.62
252.863	417.62
253.096	426.62
253.329	422.62
253.562	420.62
253.795	416.62
254.028	439.62
254.261	440.62
254.494	422.62
254.727	430.62
254.96	445.62
255.193	414.62
255.426	432.62
255.659	441.62
255.892	459.62
256.124	471.62
256.357	460.62
256.59	445.62
256.823	466.62
257.056	459.62
257.289	464.62
257.521	447.62
257.754	462.62
257.987	463.62
258.22	461.62
258.452	482.62
258.685	481.62
258.918	479.62
259.151	484.62
259.383	498.62
259.616	492.62
259.849	479.62
260.081	506.62
260.314	486.62
260.547	489.62
260.779	533.62
261.012	504.62
261.244	516.62
261.477	510.62
261.71	510.62
261.942	508.62
262.175	532.62
262.407	512.62
262.64	514.62
262.872	517.62
263.105	548.62
263.337	526.62
263.57	536.62
263.802	539.62
264.035	548.62
264.267	539.62
264.499	559.62
264.732	553.62
264.964	554.62
265.197	560.62
265.429	556.62
265.661	549.62
265.894	576.62
266.126	551.62
266.358	564.62
266.591	559.62
266.823	587.62
267.055	575.62
267.287	599.62
267.52	588.62
267.752	581.62
267.984	589.62
268.216	565.62
268.448	584.62
268.681	618.62
268.913	596.62
269.145	596.62
269.377	611.62
269.609	611.62
269.841	615.62
270.073	610.62
270.306	629.62
270.538	632.62
270.77	627.62
271.002	633.62
271.234	628.62
271.466	619.62
271.698	624.62
271.93	634.62
272.162	616.62
272.394	638.62
272.626	626.62
272.858	628.62
273.09	633.62
273.322	635.62
273.553	654.62
273.785	652.62
274.017	644.62
274.249	663.62
274.481	660.62
274.713	673.62
274.945	702.62
275.176	676.62
275.408	662.62
275.64	693.62
275.872	669.62
276.104	700.62
276.335	692.62
276.567	686.62
276.799	672.62
277.031	694.62
277.262	692.62
277.494	689.62
277.726	698.62
277.957	692.62
278.189	727.62
278.421	704.62
278.652	714.62
278.884	713.62
279.115	722.62
279.347	725.62
279.579	733.62
279.81	723.62
280.042	736.62
280.273	746.62
280.505	731.62
280.736	758.62
280.968	746.62
281.199	739.62
281.431	752.62
281.662	750.62
281.894	743.62
282.125	740.62
282.356	770.62
282.588	764.62
282.819	766.62
283.051	789.62
283.282	760.62
283.513	780.62
283.745	801.62
283.976	789.62
284.207	796.62
284.439	790.62
284.67	777.62
284.901	770.62
285.132	809.62
285.364	809.62
285.595	793.62
285.826	818.62
286.057	824.62
286.288	799.62
286.52	839.62
286.751	838.62
286.982	816.62
287.213	833.62
287.444	838.62
287.675	840.62
287.906	783.62
288.138	827.62
288.369	866.62
288.6	849.62
288.831	851.62
289.062	875.62
289.293	837.62
289.524	870.62
289.755	865.62
289.986	853.62
290.217	847.62
290.448	854.62
290.679	869.62
290.91	846.62
291.141	836.62
291.371	859.62
291.602	878.62
291.833	850.62
292.064	869.62
292.295	841.62
292.526	869.62
292.757	854.62
292.987	849.62
293.218	835.62
293.449	870.62
293.68	864.62
293.91	867.62
294.141	874.62
294.372	864.62
294.603	874.62
294.833	875.62
295.064	873.62
295.295	890.62
295.525	872.62
295.756	871.62
295.987	903.62
296.217	870.62
296.448	886.62
296.679	908.62
296.909	883.62
297.14	898.62
297.37	895.62
297.601	911.62
297.831	906.62
298.062	930.62
298.292	909.62
298.523	950.62
298.753	962.62
298.984	936.62
299.214	956.62
299.445	946.62
299.675	947.62
299.905	934.62
300.136	939.62
300.366	946.62
300.597	956.62
300.827	955.62
301.057	982.62
301.288	982.62
301.518	968.62
301.748	1001.62
301.979	991.62
302.209	1012.62
302.439	987.62
302.669	972.62
302.9	996.62
303.13	976.62
303.36	995.62
303.59	993.62
303.82	962.62
304.051	1022.62
304.281	988.62
304.511	986.62
304.741	995.62
304.971	982.62
305.201	963.62
305.431	988.62
305.661	1000.62
305.891	962.62
306.121	981.62
306.352	980.62
306.582	968.62
306.812	975.62
307.042	976.62
307.272	999.62
307.502	971.62
307.731	991.62
307.961	969.62
308.191	986.62
308.421	966.62
308.651	966.62
308.881	947.62
309.111	926.62
309.341	950.62
309.571	996.62
309.8	974.62
310.03	987.62
310.26	968.62
310.49	971.62
310.72	962.62
310.949	1003.62
311.179	1017.62
311.409	1006.62
311.639	1002.62
311.868	1016.62
312.098	999.62
312.328	1003.62
312.557	1034.62
312.787	999.62
313.017	1024.62
313.246	1032.62
313.476	1039.62
313.706	1033.62
313.935	1073.62
314.165	1062.62
314.394	1080.62
314.624	1071.62
314.853	1067.62
315.083	1079.62
315.312	1053.62
315.542	1073.62
315.771	1058.62
316.001	1065.62
316.23	1029.62
316.46	1050.62
316.689	1059.62
316.919	1047.62
317.148	1061.62
317.377	1042.62
317.607	1063.62
317.836	1047.62
318.065	1035.62
318.295	1069.62
318.524	1051.62
318.753	1034.62
318.983	1034.62
319.212	1027.62
319.441	1045.62
319.67	1050.62
319.9	1040.62
320.129	1068.62
320.358	1062.62
320.587	1039.62
320.816	1033.62
321.046	1062.62
321.275	1004.62
321.504	1027.62
321.733	1032.62
321.962	1052.62
322.191	1067.62
322.42	1046.62
322.649	1039.62
322.878	1051.62
323.108	1064.62
323.337	1065.62
323.566	1085.62
323.795	1084.62
324.024	1077.62
324.253	1070.62
324.482	1063.62
324.71	1107.62
324.939	1112.62
325.168	1085.62
325.397	1082.62
325.626	1099.62
325.855	1148.62
326.084	1136.62
326.313	1142.62
326.542	1148.62
326.77	1174.62
326.999	1142.62
327.228	1139.62
327.457	1149.62
327.686	1132.62
327.914	1144.62
328.143	1119.62
328.372	1136.62
328.6	1135.62
328.829	1127.62
329.058	1163.62
329.287	1143.62
329.515	1157.62
329.744	1152.62
329.972	1168.62
330.201	1166.62
330.43	1188.62
330.658	1177.62
330.887	1202.62
331.115	1190.62
331.344	1178.62
331.572	1194.62
331.801	1255.62
332.03	1241.62
332.258	1241.62
332.486	1259.62
332.715	1297.62
332.943	1316.62
333.172	1375.62
333.4	1408.62
333.629	1460.62
333.857	1484.62
334.085	1484.62
334.314	1477.62
334.542	1424.62
334.771	1446.62
334.999	1418.62
335.227	1453.62
335.455	1435.62
335.684	1435.62
335.912	1394.62
336.14	1397.62
336.369	1396.62
336.597	1405.62
336.825	1406.62
337.053	1386.62
337.281	1359.62
337.51	1315.62
337.738	1326.62
337.966	1296.62
338.194	1273.62
338.422	1253.62
338.65	1250.62
338.878	1250.62
339.106	1240.62
339.334	1257.62
339.562	1264.62
339.79	1214.62
340.018	1217.62
340.246	1200.62
340.474	1198.62
340.702	1173.62
340.93	1205.62
341.158	1203.62
341.386	1226.62
341.614	1206.62
341.842	1217.62
342.07	1204.62
342.298	1176.62
342.526	1183.62
342.754	1211.62
342.981	1204.62
343.209	1236.62
343.437	1280.62
343.665	1324.62
343.893	1375.62
344.12	1430.62
344.348	1370.62
344.576	1394.62
344.804	1363.62
345.031	1237.62
345.259	1218.62
345.487	1246.62
345.714	1203.62
345.942	1154.62
346.17	1185.62
346.397	1172.62
346.625	1174.62
346.853	1146.62
347.08	1152.62
347.308	1150.62
347.535	1168.62
347.763	1168.62
347.99	1142.62
348.218	1138.62
348.445	1158.62
348.673	1103.62
348.9	1152.62
349.128	1157.62
349.355	1139.62
349.583	1128.62
349.81	1139.62
350.037	1094.62
350.265	1111.62
350.492	1137.62
350.72	1120.62
350.947	1115.62
351.174	1129.62
351.402	1123.62
351.629	1120.62
351.856	1120.62
352.083	1115.62
352.311	1132.62
352.538	1102.62
352.765	1103.62
352.992	1086.62
353.22	1077.62
353.447	1096.62
353.674	1089.62
353.901	1091.62
354.128	1095.62
354.355	1088.62
354.583	1111.62
354.81	1089.62
355.037	1094.62
355.264	1121.62
355.491	1106.62
355.718	1121.62
355.945	1105.62
356.172	1102.62
356.399	1098.62
356.626	1115.62
356.853	1118.62
357.08	1114.62
357.307	1120.62
357.534	1116.62
357.761	1120.62
357.988	1118.62
358.215	1119.62
358.441	1110.62
358.668	1097.62
358.895	1125.62
359.122	1117.62
359.349	1124.62
359.576	1134.62
359.802	1092.62
360.029	1110.62
360.256	1113.62
360.483	1118.62
360.709	1123.62
360.936	1129.62
361.163	1107.62
361.39	1111.62
361.616	1096.62
361.843	1112.62
362.07	1113.62
362.296	1121.62
362.523	1111.62
362.749	1104.62
362.976	1131.62
363.203	1098.62
363.429	1094.62
363.656	1101.62
363.882	1136.62
364.109	1112.62
364.335	1130.62
364.562	1136.62
364.788	1109.62
365.015	1091.62
365.241	1120.62
365.468	1102.62
365.694	1104.62
365.92	1108.62
366.147	1125.62
366.373	1135.62
366.599	1133.62
366.826	1106.62
367.052	1098.62
367.278	1112.62
367.505	1093.62
367.731	1130.62
367.957	1113.62
368.184	1118.62
368.41	1146.62
368.636	1149.62
368.862	1137.62
369.089	1162.62
369.315	1132.62
369.541	1147.62
369.767	1182.62
369.993	1189.62
370.219	1175.62
370.445	1181.62
370.672	1195.62
370.898	1176.62
371.124	1179.62
371.35	1205.62
371.576	1190.62
371.802	1254.62
372.028	1208.62
372.254	1226.62
372.48	1225.62
372.706	1239.62
372.932	1245.62
373.158	1223.62
373.384	1220.62
373.61	1210.62
373.835	1204.62
374.061	1208.62
374.287	1234.62
374.513	1211.62
374.739	1294.62
374.965	1294.62
375.191	1311.62
375.416	1347.62
375.642	1274.62
375.868	1259.62
376.094	1225.62
376.319	1232.62
376.545	1191.62
376.771	1195.62
376.997	1229.62
377.222	1206.62
377.448	1184.62
377.674	1186.62
377.899	1192.62
378.125	1189.62
378.35	1191.62
378.576	1182.62
378.802	1178.62
379.027	1174.62
379.253	1178.62
379.478	1186.62
379.704	1191.62
379.929	1178.62
380.155	1185.62
380.38	1172.62
380.606	1173.62
380.831	1184.62
381.057	1176.62
381.282	1174.62
381.507	1203.62
381.733	1206.62
381.958	1212.62
382.184	1249.62
382.409	1251.62
382.634	1222.62
382.86	1246.62
383.085	1251.62
383.31	1254.62
383.535	1298.62
383.761	1323.62
383.986	1307.62
384.211	1350.62
384.436	1371.62
384.662	1377.62
384.887	1402.62
385.112	1398.62
385.337	1417.62
385.562	1376.62
385.787	1451.62
386.013	1404.62
386.238	1445.62
386.463	1412.62
386.688	1449.62
386.913	1440.62
387.138	1418.62
387.363	1439.62
387.588	1428.62
387.813	1438.62
388.038	1412.62
388.263	1449.62
388.488	1449.62
388.713	1411.62
388.938	1410.62
389.163	1408.62
389.387	1430.62
389.612	1399.62
389.837	1430.62
390.062	1407.62
390.287	1423.62
390.512	1441.62
390.736	1465.62
390.961	1439.62
391.186	1475.62
391.411	1499.62
391.636	1525.62
391.86	1595.62
392.085	1580.62
392.31	1579.62
392.534	1552.62
392.759	1548.62
392.984	1515.62
393.208	1510.62
393.433	1510.62
393.658	1540.62
393.882	1496.62
394.107	1504.62
394.331	1553.62
394.556	1531.62
394.78	1549.62
395.005	1528.62
395.229	1538.62
395.454	1539.62
395.678	1583.62
395.903	1639.62
396.127	1636.62
396.352	1560.62
396.576	1525.62
396.801	1546.62
397.025	1533.62
397.249	1575.62
397.474	1621.62
397.698	1630.62
397.922	1621.62
398.147	1668.62
398.371	1642.62
398.595	1712.62
398.82	1767.62
399.044	1879.62
399.268	2008.62
399.492	2247.62
399.717	2460.62
399.941	2498.62
400.165	2305.62
400.389	2129.62
400.613	1999.62
400.837	1920.62
401.062	1842.62
401.286	1823.62
401.51	1782.62
401.734	1750.62
401.958	1806.62
402.182	1798.62
402.406	1833.62
402.63	1800.62
402.854	1819.62
403.078	1894.62
403.302	1933.62
403.526	1936.62
403.75	1890.62
403.974	1928.62
404.198	1960.62
404.422	1960.62
404.645	1948.62
404.869	1924.62
405.093	1961.62
405.317	1916.62
405.541	1922.62
405.765	1893.62
405.988	1946.62
406.212	1926.62
406.436	1920.62
406.66	1967.62
406.883	2004.62
407.107	2118.62
407.331	2176.62
407.555	2245.62
407.778	2244.62
408.002	2176.62
408.226	2142.62
408.449	2124.62
408.673	2034.62
408.896	1975.62
409.12	1974.62
409.344	2004.62
409.567	1990.62
409.791	1994.62
410.014	1967.62
410.238	1936.62
410.461	1950.62
410.685	1942.62
410.908	1892.62
411.132	1890.62
411.355	1854.62
411.578	1879.62
411.802	1836.62
412.025	1860.62
412.249	1883.62
412.472	1867.62
412.695	1842.62
412.919	1809.62
413.142	1790.62
413.365	1812.62
413.589	1841.62
413.812	1763.62
414.035	1778.62
414.258	1787.62
414.482	1778.62
414.705	1816.62
414.928	1833.62
415.151	1796.62
415.374	1793.62
415.597	1780.62
415.821	1728.62
416.044	1740.62
416.267	1689.62
416.49	1722.62
416.713	1719.62
416.936	1723.62
417.159	1702.62
417.382	1722.62
417.605	1649.62
417.828	1666.62
418.051	1698.62
418.274	1736.62
418.497	1700.62
418.72	1722.62
418.943	1750.62
419.166	1890.62
419.389	2026.62
419.611	1950.62
419.834	1849.62
420.057	1781.62
420.28	1744.62
420.503	1699.62
420.726	1698.62
420.948	1738.62
421.171	1739.62
421.394	1744.62
421.617	1717.62
421.839	1703.62
422.062	1709.62
422.285	1710.62
422.507	1742.62
422.73	1746.62
422.953	1737.62
423.175	1746.62
423.398	1737.62
423.621	1766.62
423.843	1798.62
424.066	1778.62
424.288	1771.62
424.511	1750.62
424.733	1755.62
424.956	1744.62
425.178	1742.62
425.401	1715.62
425.623	1727.62
425.846	1658.62
426.068	1664.62
426.291	1646.62
426.513	1676.62
426.735	1617.62
426.958	1618.62
427.18	1587.62
427.402	1593.62
427.625	1594.62
427.847	1544.62
428.069	1588.62
428.292	1598.62
428.514	1582.62
428.736	1566.62
428.958	1577.62
429.181	1482.62
429.403	1531.62
429.625	1504.62
429.847	1531.62
430.069	1525.62
430.292	1546.62
430.514	1511.62
430.736	1536.62
430.958	1567.62
431.18	1542.62
431.402	1595.62
431.624	1556.62
431.846	1578.62
432.068	1610.62
432.29	1593.62
432.512	1559.62
432.734	1598.62
432.956	1584.62
433.178	1580.62
433.4	1598.62
433.622	1596.62
433.844	1637.62
434.066	1602.62
434.287	1650.62
434.509	1680.62
434.731	1688.62
434.953	1721.62
435.175	1747.62
435.397	1755.62
435.618	1676.62
435.84	1623.62
436.062	1598.62
436.284	1558.62
436.505	1553.62
436.727	1559.62
436.949	1572.62
437.17	1580.62
437.392	1562.62
437.614	1570.62
437.835	1487.62
438.057	1493.62
438.278	1468.62
438.5	1474.62
438.721	1494.62
438.943	1552.62
439.165	1466.62
439.386	1499.62
439.608	1507.62
439.829	1515.62
440.05	1556.62
440.272	1525.62
440.493	1522.62
440.715	1604.62
440.936	1606.62
441.158	1623.62
441.379	1632.62
441.6	1714.62
441.822	1687.62
442.043	1722.62
442.264	1659.62
442.486	1662.62
442.707	1660.62
442.928	1666.62
443.149	1688.62
443.371	1656.62
443.592	1694.62
443.813	1663.62
444.034	1699.62
444.255	1764.62
444.476	1824.62
444.698	1854.62
444.919	1921.62
445.14	2046.62
445.361	1844.62
445.582	1778.62
445.803	1682.62
446.024	1618.62
446.245	1597.62
446.466	1602.62
446.687	1572.62
446.908	1543.62
447.129	1536.62
447.35	1475.62
447.571	1478.62
447.792	1468.62
448.013	1469.62
448.234	1447.62
448.455	1434.62
448.675	1434.62
448.896	1415.62
449.117	1381.62
449.338	1374.62
449.559	1381.62
449.779	1381.62
450	1369.62
450.221	1382.62
450.442	1413.62
450.662	1415.62
450.883	1405.62
451.104	1406.62
451.324	1387.62
451.545	1398.62
451.766	1385.62
451.986	1377.62
452.207	1356.62
452.428	1410.62
452.648	1354.62
452.869	1353.62
453.089	1322.62
453.31	1356.62
453.53	1360.62
453.751	1327.62
453.971	1346.62
454.192	1327.62
454.412	1298.62
454.633	1306.62
454.853	1353.62
455.073	1314.62
455.294	1332.62
455.514	1271.62
455.734	1314.62
455.955	1292.62
456.175	1309.62
456.395	1311.62
456.616	1295.62
456.836	1348.62
457.056	1336.62
457.276	1334.62
457.497	1348.62
457.717	1349.62
457.937	1338.62
458.157	1306.62
458.377	1349.62
458.598	1403.62
458.818	1412.62
459.038	1434.62
459.258	1517.62
459.478	1524.62
459.698	1592.62
459.918	1586.62
460.138	1623.62
460.358	1681.62
460.578	1735.62
460.798	1751.62
461.018	1729.62
461.238	1760.62
461.458	1756.62
461.678	1768.62
461.898	1786.62
462.118	1822.62
462.338	1849.62
462.558	1916.62
462.777	1944.62
462.997	2096.62
463.217	2203.62
463.437	2234.62
463.657	2107.62
463.876	2010.62
464.096	2055.62
464.316	1997.62
464.536	2011.62
464.755	1931.62
464.975	1900.62
465.195	1852.62
465.414	1751.62
465.634	1640.62
465.854	1578.62
466.073	1574.62
466.293	1563.62
466.512	1491.62
466.732	1473.62
466.951	1478.62
467.171	1472.62
467.391	1479.62
467.61	1452.62
467.829	1460.62
468.049	1474.62
468.268	1439.62
468.488	1404.62
468.707	1419.62
468.927	1406.62
469.146	1430.62
469.365	1399.62
469.585	1427.62
469.804	1439.62
470.023	1511.62
470.243	1464.62
470.462	1515.62
470.681	1475.62
470.901	1482.62
471.12	1466.62
471.339	1448.62
471.558	1493.62
471.777	1430.62
471.997	1451.62
472.216	1428.62
472.435	1407.62
472.654	1401.62
472.873	1407.62
473.092	1437.62
473.311	1427.62
473.53	1395.62
473.749	1399.62
473.968	1398.62
474.187	1361.62
474.406	1383.62
474.625	1406.62
474.844	1377.62
475.063	1383.62
475.282	1403.62
475.501	1390.62
475.72	1401.62
475.939	1419.62
476.158	1466.62
476.377	1464.62
476.596	1483.62
476.814	1489.62
477.033	1506.62
477.252	1524.62
477.471	1552.62
477.69	1586.62
477.908	1624.62
478.127	1626.62
478.346	1655.62
478.564	1707.62
478.783	1713.62
479.002	1764.62
479.22	1783.62
479.439	1777.62
479.658	1710.62
479.876	1755.62
480.095	1733.62
480.313	1840.62
480.532	1866.62
480.751	1879.62
480.969	1816.62
481.188	1752.62
481.406	1741.62
481.624	1707.62
481.843	1735.62
482.061	1710.62
482.28	1664.62
482.498	1714.62
482.717	1698.62
482.935	1739.62
483.153	1720.62
483.372	1720.62
483.59	1735.62
483.808	1739.62
484.027	1763.62
484.245	1770.62
484.463	1747.62
484.681	1798.62
484.9	1796.62
485.118	1848.62
485.336	1844.62
485.554	1843.62
485.772	1849.62
485.99	1854.62
486.209	1844.62
486.427	1813.62
486.645	1868.62
486.863	1894.62
487.081	1849.62
487.299	1873.62
487.517	1818.62
487.735	1842.62
487.953	1800.62
488.171	1840.62
488.389	1792.62
488.607	1802.62
488.825	1732.62
489.043	1771.62
489.261	1781.62
489.479	1746.62
489.696	1770.62
489.914	1753.62
490.132	1780.62
490.35	1752.62
490.568	1770.62
490.786	1770.62
491.003	1743.62
491.221	1772.62
491.439	1744.62
491.657	1754.62
491.874	1732.62
492.092	1721.62
492.31	1744.62
492.527	1750.62
492.745	1762.62
492.963	1759.62
493.18	1733.62
493.398	1769.62
493.615	1750.62
493.833	1764.62
494.05	1789.62
494.268	1798.62
494.485	1830.62
494.703	1822.62
494.92	1802.62
495.138	1801.62
495.355	1805.62
495.573	1784.62
495.79	1802.62
496.008	1829.62
496.225	1866.62
496.442	1856.62
496.66	1845.62
496.877	1874.62
497.094	1938.62
497.312	1971.62
497.529	2015.62
497.746	2030.62
497.963	2126.62
498.181	2148.62
498.398	2281.62
498.615	2419.62
498.832	2488.62
499.049	2684.62
499.267	2864.62
499.484	3078.62
499.701	3352.62
499.918	3651.62
500.135	3964.62
500.352	4388.62
500.569	4480.62
500.786	4411.62
501.003	4253.62
501.22	3921.62
501.437	3582.62
501.654	3254.62
501.871	3018.62
502.088	2790.62
502.305	2650.62
502.522	2537.62
502.739	2393.62
502.956	2313.62
503.172	2249.62
503.389	2148.62
503.606	2102.62
503.823	2027.62
504.04	2054.62
504.256	2034.62
504.473	2053.62
504.69	2038.62
504.907	1957.62
505.123	1889.62
505.34	1842.62
505.557	1775.62
505.773	1742.62
505.99	1654.62
506.207	1659.62
506.423	1632.62
506.64	1612.62
506.856	1552.62
507.073	1576.62
507.289	1550.62
507.506	1547.62
507.722	1544.62
507.939	1521.62
508.155	1488.62
508.372	1538.62
508.588	1474.62
508.805	1467.62
509.021	1480.62
509.238	1463.62
509.454	1460.62
509.67	1464.62
509.887	1411.62
510.103	1428.62
510.319	1374.62
510.536	1367.62
510.752	1404.62
510.968	1368.62
511.184	1374.62
511.401	1432.62
511.617	1436.62
511.833	1390.62
512.049	1404.62
512.265	1362.62
512.481	1359.62
512.698	1399.62
512.914	1384.62
513.13	1415.62
513.346	1396.62
513.562	1366.62
513.778	1385.62
513.994	1404.62
514.21	1433.62
514.426	1412.62
514.642	1418.62
514.858	1418.62
515.074	1434.62
515.29	1458.62
515.506	1472.62
515.721	1502.62
515.937	1485.62
516.153	1520.62
516.369	1528.62
516.585	1613.62
516.801	1622.62
517.016	1657.62
517.232	1707.62
517.448	1774.62
517.664	1790.62
517.879	1813.62
518.095	1804.62
518.311	1810.62
518.527	1764.62
518.742	1715.62
518.958	1627.62
519.173	1632.62
519.389	1563.62
519.605	1517.62
519.82	1522.62
520.036	1470.62
520.251	1423.62
520.467	1373.62
520.682	1413.62
520.898	1397.62
521.113	1374.62
521.329	1391.62
521.544	1346.62
521.76	1328.62
521.975	1331.62
522.19	1355.62
522.406	1363.62
522.621	1315.62
522.836	1292.62
523.052	1307.62
523.267	1292.62
523.482	1321.62
523.698	1296.62
523.913	1281.62
524.128	1286.62
524.343	1253.62
524.559	1263.62
524.774	1275.62
524.989	1256.62
525.204	1255.62
525.419	1264.62
525.634	1244.62
525.849	1256.62
526.064	1243.62
526.28	1242.62
526.495	1248.62
526.71	1249.62
526.925	1241.62
527.14	1231.62
527.355	1235.62
527.57	1212.62
527.785	1242.62
527.999	1237.62
528.214	1225.62
528.429	1220.62
528.644	1243.62
528.859	1230.62
529.074	1209.62
529.289	1242.62
529.503	1222.62
529.718	1251.62
529.933	1177.62
530.148	1209.62
530.363	1235.62
530.577	1191.62
530.792	1238.62
531.007	1198.62
531.221	1195.62
531.436	1246.62
531.651	1225.62
531.865	1228.62
532.08	1184.62
532.295	1199.62
532.509	1219.62
532.724	1235.62
532.938	1216.62
533.153	1233.62
533.367	1213.62
533.582	1200.62
533.796	1218.62
534.011	1214.62
534.225	1206.62
534.44	1187.62
534.654	1183.62
534.868	1149.62
535.083	1174.62
535.297	1180.62
535.511	1160.62
535.726	1161.62
535.94	1187.62
536.154	1143.62
536.369	1158.62
536.583	1135.62
536.797	1140.62
537.011	1139.62
537.225	1111.62
537.44	1128.62
537.654	1116.62
537.868	1117.62
538.082	1117.62
538.296	1104.62
538.51	1118.62
538.724	1139.62
538.938	1078.62
539.153	1119.62
539.367	1084.62
539.581	1120.62
539.795	1065.62
540.009	1104.62
540.222	1085.62
540.436	1072.62
540.65	1061.62
540.864	1076.62
541.078	1070.62
541.292	1055.62
541.506	1066.62
541.72	1082.62
541.934	1099.62
542.147	1093.62
542.361	1075.62
542.575	1046.62
542.789	1042.62
543.002	1079.62
543.216	1065.62
543.43	1095.62
543.644	1090.62
543.857	1063.62
544.071	1065.62
544.285	1082.62
544.498	1049.62
544.712	1073.62
544.925	1088.62
545.139	1081.62
545.352	1062.62
545.566	1076.62
545.779	1074.62
545.993	1096.62
546.206	1056.62
546.42	1099.62
546.633	1084.62
546.847	1042.62
547.06	1094.62
547.274	1076.62
547.487	1082.62
547.7	1070.62
547.914	1085.62
548.127	1125.62
548.34	1108.62
548.554	1131.62
548.767	1093.62
548.98	1126.62
549.193	1097.62
549.407	1128.62
549.62	1108.62
549.833	1119.62
550.046	1105.62
550.259	1105.62
550.473	1110.62
550.686	1059.62
550.899	1078.62
551.112	1079.62
551.325	1090.62
551.538	1069.62
551.751	1056.62
551.964	1073.62
552.177	1102.62
552.39	1091.62
552.603	1126.62
552.816	1146.62
553.029	1141.62
553.242	1180.62
553.455	1187.62
553.667	1144.62
553.88	1142.62
554.093	1120.62
554.306	1122.62
554.519	1100.62
554.732	1104.62
554.944	1065.62
555.157	1032.62
555.37	1054.62
555.583	999.62
555.795	956.62
556.008	974.62
556.221	978.62
556.433	969.62
556.646	962.62
556.859	964.62
557.071	948.62
557.284	940.62
557.496	928.62
557.709	939.62
557.921	937.62
558.134	951.62
558.346	927.62
558.559	937.62
558.771	935.62
558.984	936.62
559.196	892.62
559.409	912.62
559.621	902.62
559.833	890.62
560.046	916.62
560.258	900.62
560.47	912.62
560.683	906.62
560.895	875.62
561.107	868.62
561.32	905.62
561.532	907.62
561.744	904.62
561.956	928.62
562.168	902.62
562.381	897.62
562.593	906.62
562.805	907.62
563.017	896.62
563.229	886.62
563.441	902.62
563.653	948.62
563.865	938.62
564.077	958.62
564.289	942.62
564.501	959.62
564.713	958.62
564.925	987.62
565.137	1009.62
565.349	1018.62
565.561	1008.62
565.773	1063.62
565.985	1106.62
566.197	1143.62
566.408	1245.62
566.62	1318.62
566.832	1368.62
567.044	1436.62
567.255	1382.62
567.467	1437.62
567.679	1486.62
567.891	1567.62
568.102	1591.62
568.314	1481.62
568.526	1402.62
568.737	1301.62
568.949	1229.62
569.161	1148.62
569.372	1069.62
569.584	1054.62
569.795	1011.62
570.007	958.62
570.218	936.62
570.43	950.62
570.641	903.62
570.853	889.62
571.064	944.62
571.276	927.62
571.487	897.62
571.698	873.62
571.91	842.62
572.121	874.62
572.333	821.62
572.544	778.62
572.755	795.62
572.966	769.62
573.178	784.62
573.389	746.62
573.6	758.62
573.811	754.62
574.023	758.62
574.234	734.62
574.445	714.62
574.656	741.62
574.867	734.62
575.078	721.62
575.289	715.62
575.501	747.62
575.712	704.62
575.923	699.62
576.134	720.62
576.345	716.62
576.556	710.62
576.767	688.62
576.978	691.62
577.188	696.62
577.399	663.62
577.61	695.62
577.821	674.62
578.032	672.62
578.243	650.62
578.454	654.62
578.665	676.62
578.875	650.62
579.086	649.62
579.297	635.62
579.508	662.62
579.718	658.62
579.929	633.62
580.14	625.62
580.35	626.62
580.561	643.62
580.772	617.62
580.982	664.62
581.193	626.62
581.403	630.62
581.614	630.62
581.825	622.62
582.035	604.62
582.246	611.62
582.456	628.62
582.667	609.62
582.877	644.62
583.087	591.62
583.298	592.62
583.508	609.62
583.719	614.62
583.929	605.62
584.139	615.62
584.35	591.62
584.56	600.62
584.77	594.62
584.981	596.62
585.191	593.62
585.401	584.62
585.611	583.62
585.821	570.62
586.032	588.62
586.242	598.62
586.452	582.62
586.662	594.62
586.872	598.62
587.082	606.62
587.292	587.62
587.502	606.62
587.713	588.62
587.923	617.62
588.133	588.62
588.343	593.62
588.553	582.62
588.762	581.62
588.972	580.62
589.182	594.62
589.392	598.62
589.602	578.62
589.812	633.62
590.022	566.62
590.232	588.62
590.441	578.62
590.651	604.62
590.861	592.62
591.071	607.62
591.281	601.62
591.49	625.62
591.7	622.62
591.91	621.62
592.119	615.62
592.329	630.62
592.539	658.62
592.748	650.62
592.958	684.62
593.167	679.62
593.377	713.62
593.587	723.62
593.796	703.62
594.006	696.62
594.215	697.62
594.424	696.62
594.634	707.62
594.843	696.62
595.053	654.62
595.262	647.62
595.472	616.62
595.681	611.62
595.89	600.62
596.1	571.62
596.309	588.62
596.518	570.62
596.727	566.62
596.937	536.62
597.146	522.62
597.355	531.62
597.564	515.62
597.774	542.62
597.983	525.62
598.192	525.62
598.401	498.62
598.61	481.62
598.819	513.62
599.028	516.62
599.237	511.62
599.446	498.62
599.655	510.62
599.864	497.62
600.073	502.62
600.282	472.62
600.491	511.62
600.7	492.62
600.909	490.62
601.118	460.62
601.327	457.62
601.536	464.62
601.745	471.62
601.953	480.62
602.162	464.62
602.371	473.62
602.58	455.62
602.789	463.62
602.997	455.62
603.206	460.62
603.415	463.62
603.623	478.62
603.832	454.62
604.041	482.62
604.249	479.62
604.458	453.62
604.666	452.62
604.875	419.62
605.084	434.62
605.292	432.62
605.501	446.62
605.709	455.62
605.918	415.62
606.126	440.62
606.334	435.62
606.543	434.62
606.751	443.62
606.96	409.62
607.168	410.62
607.376	409.62
607.585	430.62
607.793	431.62
608.001	452.62
608.21	424.62
608.418	427.62
608.626	431.62
608.834	421.62
609.043	411.62
609.251	443.62
609.459	430.62
609.667	431.62
609.875	418.62
610.083	420.62
610.291	424.62
610.499	422.62
610.707	418.62
610.916	417.62
611.124	428.62
611.332	419.62
611.54	412.62
611.748	400.62
611.955	415.62
612.163	400.62
612.371	407.62
612.579	404.62
612.787	413.62
612.995	404.62
613.203	434.62
613.411	397.62
613.618	406.62
613.826	417.62
614.034	414.62
614.242	399.62
614.449	401.62
614.657	400.62
614.865	420.62
615.072	404.62
615.28	403.62
615.488	389.62
615.695	395.62
615.903	391.62
616.111	414.62
616.318	424.62
616.526	416.62
616.733	419.62
616.941	409.62
617.148	404.62
617.356	403.62
617.563	419.62
617.771	415.62
617.978	397.62
618.185	412.62
618.393	396.62
618.6	390.62
618.807	402.62
619.015	402.62
619.222	416.62
619.429	384.62
619.637	404.62
619.844	393.62
620.051	375.62
620.258	400.62
620.466	370.62
620.673	377.62
620.88	372.62
621.087	395.62
621.294	358.62
621.501	376.62
621.708	388.62
621.915	366.62
622.122	358.62
622.329	365.62
622.536	391.62
622.743	388.62
622.95	374.62
623.157	388.62
623.364	357.62
623.571	349.62
623.778	362.62
623.985	374.62
624.192	350.62
624.399	347.62
624.606	330.62
624.812	342.62
625.019	363.62
625.226	338.62
625.433	348.62
625.639	338.62
625.846	348.62
626.053	349.62
626.259	338.62
626.466	362.62
626.673	340.62
626.879	338.62
627.086	338.62
627.293	331.62
627.499	332.62
627.706	357.62
627.912	362.62
628.119	325.62
628.325	354.62
628.532	345.62
628.738	321.62
628.945	323.62
629.151	342.62
629.357	329.62
629.564	328.62
629.77	327.62
629.976	320.62
630.183	318.62
630.389	298.62
630.595	313.62
630.802	299.62
631.008	323.62
631.214	311.62
631.42	309.62
631.627	322.62
631.833	314.62
632.039	299.62
632.245	324.62
632.451	314.62
632.657	295.62
632.863	325.62
633.069	309.62
633.275	309.62
633.481	309.62
633.688	279.62
633.893	304.62
634.099	321.62
634.305	318.62
634.511	279.62
634.717	293.62
634.923	298.62
635.129	305.62
635.335	298.62
635.541	283.62
635.747	290.62
635.952	293.62
636.158	287.62
636.364	296.62
636.57	295.62
636.775	295.62
636.981	303.62
637.187	298.62
637.392	282.62
637.598	290.62
637.804	283.62
638.009	285.62
638.215	268.62
638.421	286.62
638.626	268.62
638.832	276.62
639.037	282.62
639.243	250.62
639.448	280.62
639.654	283.62
639.859	293.62
640.065	288.62
640.27	287.62
640.475	262.62
640.681	282.62
640.886	268.62
641.091	272.62
641.297	266.62
641.502	252.62
641.707	249.62
641.913	275.62
642.118	270.62
642.323	261.62
642.528	279.62
642.733	260.62
642.939	281.62
643.144	273.62
643.349	283.62
643.554	272.62
643.759	263.62
643.964	268.62
644.169	267.62
644.374	278.62
644.579	276.62
644.784	272.62
644.989	279.62
645.194	247.62
645.399	265.62
645.604	283.62
645.809	282.62
646.014	286.62
646.219	292.62
646.423	274.62
646.628	274.62
646.833	266.62
647.038	297.62
647.243	270.62
647.447	280.62
647.652	286.62
647.857	288.62
648.062	297.62
648.266	294.62
648.471	311.62
648.676	291.62
648.88	287.62
649.085	280.62
649.289	318.62
649.494	277.62
649.698	273.62
649.903	275.62
650.107	282.62
650.312	280.62
650.516	267.62
650.721	250.62
650.925	275.62
651.13	270.62
651.334	267.62
651.539	250.62
651.743	258.62
651.947	260.62
652.152	250.62
652.356	249.62
652.56	248.62
652.764	260.62
652.969	254.62
653.173	267.62
653.377	256.62
653.581	251.62
653.785	235.62
653.99	251.62
654.194	251.62
654.398	246.62
654.602	276.62
654.806	275.62
655.01	275.62
655.214	295.62
655.418	287.62
655.622	291.62
655.826	293.62
656.03	330.62
656.234	348.62
656.438	376.62
656.642	375.62
656.846	359.62
657.049	307.62
657.253	275.62
657.457	277.62
657.661	238.62
657.865	230.62
658.068	194.62
658.272	185.62
658.476	172.62
658.68	175.62
658.883	138.62
659.087	154.62
659.291	146.62
659.494	146.62
659.698	128.62
659.901	124.62
660.105	122.62
660.309	111.62
660.512	113.62
660.716	113.62
660.919	112.62
661.123	101.62
661.326	92.62
661.53	105.62
661.733	103.62
661.936	100.62
662.14	94.62
662.343	93.62
662.546	86.62
662.75	107.62
662.953	95.62
663.156	87.62
663.36	83.62
663.563	78.62
663.766	76.62
663.969	78.62
664.173	81.62
664.376	94.62
664.579	79.62
664.782	71.62
664.985	92.62
665.188	88.62
665.391	94.62
665.594	85.62
665.797	85.62
666	83.62
666.203	80.62
666.406	66.62
666.609	71.62
666.812	76.62
667.015	72.62
667.218	73.62
667.421	94.62
667.624	93.62
667.827	90.62
668.03	81.62
668.232	82.62
668.435	83.62
668.638	78.62
668.841	82.62
669.043	86.62
669.246	79.62
669.449	86.62
669.651	84.62
669.854	87.62
670.057	83.62
670.259	81.62
670.462	84.62
670.665	76.62
670.867	87.62
671.07	85.62
671.272	82.62
671.475	85.62
671.677	71.62
671.88	76.62
672.082	81.62
672.284	79.62
672.487	87.62
672.689	74.62
672.892	94.62
