Data from NiCl2@0.125M.TitratingCurve.Agarose3%dH2O.NegLispCup.LampEnergy10.LIBS07252019_HRD10591_18-30-08-575.txt Node
Date: Thu Jul 25 18:30:08 EDT 2019
User: cochatt
Spectrometer: HR+D1059
Trigger mode: 1
Integration Time (sec): 1.000000E-1
Scans to average: 1
Electric dark correction enabled: true
Nonlinearity correction enabled: false
Boxcar width: 0
XAxis mode: Wavelengths
Number of Pixels in Spectrum: 2048
>>>>>Begin Spectral Data<<<<<
223.165	-12.62
223.4	-12.62
223.635	-12.62
223.869	-17.62
224.104	-15.62
224.338	-17.62
224.573	-15.62
224.808	-7.62
225.042	-0.62
225.277	-10.62
225.511	-4.62
225.746	11.38
225.98	4.38
226.215	4.38
226.449	16.38
226.683	18.38
226.918	20.38
227.152	27.38
227.387	50.38
227.621	46.38
227.856	43.38
228.09	46.38
228.324	45.38
228.559	57.38
228.793	62.38
229.027	111.38
229.262	114.38
229.496	116.38
229.73	135.38
229.964	116.38
230.199	140.38
230.433	152.38
230.667	128.38
230.901	145.38
231.136	140.38
231.37	167.38
231.604	136.38
231.838	162.38
232.072	157.38
232.306	166.38
232.541	159.38
232.775	156.38
233.009	146.38
233.243	146.38
233.477	148.38
233.711	168.38
233.945	154.38
234.179	153.38
234.413	154.38
234.647	158.38
234.881	155.38
235.115	146.38
235.349	139.38
235.583	167.38
235.817	168.38
236.051	157.38
236.285	156.38
236.519	169.38
236.753	159.38
236.987	174.38
237.221	166.38
237.455	154.38
237.689	167.38
237.922	167.38
238.156	177.38
238.39	169.38
238.624	175.38
238.858	174.38
239.091	187.38
239.325	184.38
239.559	182.38
239.793	198.38
240.027	184.38
240.26	180.38
240.494	192.38
240.728	193.38
240.961	184.38
241.195	177.38
241.429	192.38
241.662	200.38
241.896	186.38
242.13	203.38
242.363	226.38
242.597	198.38
242.83	218.38
243.064	225.38
243.298	214.38
243.531	210.38
243.765	217.38
243.998	216.38
244.232	219.38
244.465	218.38
244.699	222.38
244.932	225.38
245.166	227.38
245.399	224.38
245.633	233.38
245.866	240.38
246.099	222.38
246.333	243.38
246.566	248.38
246.8	241.38
247.033	234.38
247.266	250.38
247.5	235.38
247.733	239.38
247.966	234.38
248.2	253.38
248.433	250.38
248.666	248.38
248.899	260.38
249.133	260.38
249.366	259.38
249.599	258.38
249.832	270.38
250.066	276.38
250.299	255.38
250.532	272.38
250.765	262.38
250.998	262.38
251.231	275.38
251.465	280.38
251.698	289.38
251.931	271.38
252.164	262.38
252.397	278.38
252.63	275.38
252.863	294.38
253.096	274.38
253.329	279.38
253.562	284.38
253.795	297.38
254.028	285.38
254.261	291.38
254.494	297.38
254.727	307.38
254.96	295.38
255.193	298.38
255.426	292.38
255.659	303.38
255.892	303.38
256.124	304.38
256.357	303.38
256.59	314.38
256.823	310.38
257.056	323.38
257.289	314.38
257.521	325.38
257.754	308.38
257.987	320.38
258.22	331.38
258.452	319.38
258.685	323.38
258.918	320.38
259.151	311.38
259.383	332.38
259.616	339.38
259.849	329.38
260.081	335.38
260.314	326.38
260.547	327.38
260.779	342.38
261.012	343.38
261.244	328.38
261.477	351.38
261.71	351.38
261.942	340.38
262.175	337.38
262.407	339.38
262.64	354.38
262.872	357.38
263.105	332.38
263.337	343.38
263.57	351.38
263.802	347.38
264.035	376.38
264.267	372.38
264.499	369.38
264.732	371.38
264.964	381.38
265.197	383.38
265.429	361.38
265.661	380.38
265.894	388.38
266.126	382.38
266.358	377.38
266.591	394.38
266.823	400.38
267.055	367.38
267.287	388.38
267.52	364.38
267.752	370.38
267.984	382.38
268.216	399.38
268.448	393.38
268.681	400.38
268.913	393.38
269.145	410.38
269.377	395.38
269.609	397.38
269.841	387.38
270.073	395.38
270.306	408.38
270.538	375.38
270.77	383.38
271.002	395.38
271.234	395.38
271.466	395.38
271.698	400.38
271.93	418.38
272.162	433.38
272.394	403.38
272.626	406.38
272.858	413.38
273.09	412.38
273.322	426.38
273.553	428.38
273.785	421.38
274.017	408.38
274.249	448.38
274.481	436.38
274.713	410.38
274.945	432.38
275.176	445.38
275.408	425.38
275.64	436.38
275.872	431.38
276.104	447.38
276.335	428.38
276.567	423.38
276.799	433.38
277.031	434.38
277.262	480.38
277.494	454.38
277.726	451.38
277.957	464.38
278.189	458.38
278.421	452.38
278.652	459.38
278.884	457.38
279.115	436.38
279.347	466.38
279.579	485.38
279.81	468.38
280.042	472.38
280.273	467.38
280.505	489.38
280.736	464.38
280.968	483.38
281.199	491.38
281.431	474.38
281.662	481.38
281.894	499.38
282.125	489.38
282.356	510.38
282.588	523.38
282.819	509.38
283.051	492.38
283.282	494.38
283.513	485.38
283.745	499.38
283.976	511.38
284.207	516.38
284.439	479.38
284.67	484.38
284.901	489.38
285.132	490.38
285.364	488.38
285.595	501.38
285.826	498.38
286.057	524.38
286.288	537.38
286.52	528.38
286.751	529.38
286.982	525.38
287.213	524.38
287.444	526.38
287.675	553.38
287.906	536.38
288.138	563.38
288.369	539.38
288.6	537.38
288.831	522.38
289.062	534.38
289.293	544.38
289.524	532.38
289.755	546.38
289.986	547.38
290.217	558.38
290.448	544.38
290.679	524.38
290.91	559.38
291.141	551.38
291.371	559.38
291.602	554.38
291.833	555.38
292.064	578.38
292.295	539.38
292.526	551.38
292.757	560.38
292.987	555.38
293.218	547.38
293.449	600.38
293.68	587.38
293.91	565.38
294.141	560.38
294.372	566.38
294.603	561.38
294.833	574.38
295.064	562.38
295.295	574.38
295.525	573.38
295.756	586.38
295.987	563.38
296.217	580.38
296.448	583.38
296.679	593.38
296.909	574.38
297.14	588.38
297.37	613.38
297.601	598.38
297.831	595.38
298.062	613.38
298.292	615.38
298.523	600.38
298.753	593.38
298.984	604.38
299.214	619.38
299.445	580.38
299.675	606.38
299.905	601.38
300.136	614.38
300.366	610.38
300.597	640.38
300.827	628.38
301.057	617.38
301.288	632.38
301.518	651.38
301.748	642.38
301.979	658.38
302.209	635.38
302.439	641.38
302.669	630.38
302.9	645.38
303.13	628.38
303.36	614.38
303.59	626.38
303.82	644.38
304.051	654.38
304.281	611.38
304.511	609.38
304.741	643.38
304.971	603.38
305.201	619.38
305.431	620.38
305.661	626.38
305.891	592.38
306.121	606.38
306.352	602.38
306.582	630.38
306.812	577.38
307.042	618.38
307.272	592.38
307.502	611.38
307.731	590.38
307.961	610.38
308.191	616.38
308.421	618.38
308.651	617.38
308.881	595.38
309.111	614.38
309.341	616.38
309.571	606.38
309.8	630.38
310.03	609.38
310.26	614.38
310.49	638.38
310.72	619.38
310.949	622.38
311.179	617.38
311.409	622.38
311.639	608.38
311.868	620.38
312.098	641.38
312.328	634.38
312.557	629.38
312.787	640.38
313.017	648.38
313.246	622.38
313.476	663.38
313.706	660.38
313.935	657.38
314.165	681.38
314.394	663.38
314.624	636.38
314.853	658.38
315.083	648.38
315.312	653.38
315.542	663.38
315.771	622.38
316.001	615.38
316.23	632.38
316.46	634.38
316.689	639.38
316.919	648.38
317.148	641.38
317.377	627.38
317.607	633.38
317.836	636.38
318.065	633.38
318.295	636.38
318.524	633.38
318.753	630.38
318.983	621.38
319.212	639.38
319.441	649.38
319.67	629.38
319.9	610.38
320.129	626.38
320.358	623.38
320.587	627.38
320.816	644.38
321.046	634.38
321.275	643.38
321.504	635.38
321.733	629.38
321.962	653.38
322.191	648.38
322.42	642.38
322.649	648.38
322.878	634.38
323.108	667.38
323.337	670.38
323.566	627.38
323.795	662.38
324.024	656.38
324.253	658.38
324.482	656.38
324.71	652.38
324.939	648.38
325.168	674.38
325.397	681.38
325.626	657.38
325.855	708.38
326.084	686.38
326.313	672.38
326.542	698.38
326.77	724.38
326.999	704.38
327.228	672.38
327.457	668.38
327.686	671.38
327.914	691.38
328.143	698.38
328.372	696.38
328.6	673.38
328.829	696.38
329.058	712.38
329.287	683.38
329.515	696.38
329.744	701.38
329.972	732.38
330.201	697.38
330.43	707.38
330.658	734.38
330.887	711.38
331.115	725.38
331.344	727.38
331.572	729.38
331.801	731.38
332.03	771.38
332.258	758.38
332.486	807.38
332.715	844.38
332.943	893.38
333.172	891.38
333.4	928.38
333.629	983.38
333.857	963.38
334.085	952.38
334.314	937.38
334.542	910.38
334.771	894.38
334.999	867.38
335.227	879.38
335.455	882.38
335.684	862.38
335.912	847.38
336.14	862.38
336.369	857.38
336.597	852.38
336.825	836.38
337.053	866.38
337.281	815.38
337.51	807.38
337.738	803.38
337.966	780.38
338.194	759.38
338.422	731.38
338.65	740.38
338.878	733.38
339.106	770.38
339.334	759.38
339.562	712.38
339.79	717.38
340.018	722.38
340.246	746.38
340.474	702.38
340.702	716.38
340.93	739.38
341.158	742.38
341.386	746.38
341.614	740.38
341.842	714.38
342.07	712.38
342.298	687.38
342.526	727.38
342.754	713.38
342.981	689.38
343.209	739.38
343.437	757.38
343.665	789.38
343.893	884.38
344.12	912.38
344.348	864.38
344.576	815.38
344.804	788.38
345.031	731.38
345.259	743.38
345.487	720.38
345.714	738.38
345.942	730.38
346.17	728.38
346.397	713.38
346.625	703.38
346.853	682.38
347.08	698.38
347.308	711.38
347.535	719.38
347.763	725.38
347.99	704.38
348.218	769.38
348.445	722.38
348.673	709.38
348.9	685.38
349.128	690.38
349.355	688.38
349.583	693.38
349.81	681.38
350.037	661.38
350.265	657.38
350.492	669.38
350.72	688.38
350.947	682.38
351.174	674.38
351.402	693.38
351.629	671.38
351.856	671.38
352.083	666.38
352.311	670.38
352.538	684.38
352.765	674.38
352.992	686.38
353.22	676.38
353.447	666.38
353.674	670.38
353.901	659.38
354.128	664.38
354.355	651.38
354.583	666.38
354.81	672.38
355.037	682.38
355.264	679.38
355.491	683.38
355.718	697.38
355.945	699.38
356.172	695.38
356.399	663.38
356.626	689.38
356.853	674.38
357.08	660.38
357.307	651.38
357.534	680.38
357.761	711.38
357.988	671.38
358.215	664.38
358.441	658.38
358.668	679.38
358.895	688.38
359.122	683.38
359.349	661.38
359.576	676.38
359.802	683.38
360.029	660.38
360.256	668.38
360.483	660.38
360.709	697.38
360.936	681.38
361.163	667.38
361.39	667.38
361.616	666.38
361.843	677.38
362.07	672.38
362.296	675.38
362.523	682.38
362.749	687.38
362.976	679.38
363.203	644.38
363.429	664.38
363.656	680.38
363.882	673.38
364.109	692.38
364.335	647.38
364.562	665.38
364.788	666.38
365.015	686.38
365.241	659.38
365.468	670.38
365.694	657.38
365.92	667.38
366.147	672.38
366.373	674.38
366.599	678.38
366.826	681.38
367.052	656.38
367.278	680.38
367.505	656.38
367.731	656.38
367.957	687.38
368.184	663.38
368.41	667.38
368.636	670.38
368.862	694.38
369.089	681.38
369.315	690.38
369.541	681.38
369.767	683.38
369.993	689.38
370.219	686.38
370.445	694.38
370.672	744.38
370.898	728.38
371.124	735.38
371.35	720.38
371.576	728.38
371.802	734.38
372.028	717.38
372.254	710.38
372.48	742.38
372.706	748.38
372.932	757.38
373.158	762.38
373.384	741.38
373.61	756.38
373.835	723.38
374.061	731.38
374.287	740.38
374.513	745.38
374.739	767.38
374.965	817.38
375.191	832.38
375.416	834.38
375.642	779.38
375.868	786.38
376.094	774.38
376.319	754.38
376.545	764.38
376.771	749.38
376.997	740.38
377.222	712.38
377.448	714.38
377.674	750.38
377.899	720.38
378.125	733.38
378.35	731.38
378.576	729.38
378.802	735.38
379.027	709.38
379.253	742.38
379.478	730.38
379.704	708.38
379.929	702.38
380.155	697.38
380.38	715.38
380.606	734.38
380.831	720.38
381.057	755.38
381.282	731.38
381.507	748.38
381.733	729.38
381.958	718.38
382.184	728.38
382.409	750.38
382.634	751.38
382.86	770.38
383.085	760.38
383.31	782.38
383.535	816.38
383.761	829.38
383.986	847.38
384.211	829.38
384.436	869.38
384.662	880.38
384.887	891.38
385.112	877.38
385.337	902.38
385.562	882.38
385.787	902.38
386.013	900.38
386.238	890.38
386.463	867.38
386.688	894.38
386.913	887.38
387.138	883.38
387.363	847.38
387.588	885.38
387.813	864.38
388.038	880.38
388.263	864.38
388.488	867.38
388.713	839.38
388.938	853.38
389.163	859.38
389.387	855.38
389.612	849.38
389.837	867.38
390.062	874.38
390.287	852.38
390.512	848.38
390.736	875.38
390.961	868.38
391.186	888.38
391.411	924.38
391.636	941.38
391.86	953.38
392.085	990.38
392.31	999.38
392.534	969.38
392.759	948.38
392.984	924.38
393.208	948.38
393.433	926.38
393.658	920.38
393.882	936.38
394.107	998.38
394.331	948.38
394.556	946.38
394.78	952.38
395.005	960.38
395.229	949.38
395.454	968.38
395.678	993.38
395.903	977.38
396.127	968.38
396.352	939.38
396.576	914.38
396.801	914.38
397.025	906.38
397.249	958.38
397.474	958.38
397.698	968.38
397.922	999.38
398.147	963.38
398.371	1010.38
398.595	1034.38
398.82	1037.38
399.044	1155.38
399.268	1275.38
399.492	1484.38
399.717	1742.38
399.941	1732.38
400.165	1520.38
400.389	1362.38
400.613	1240.38
400.837	1132.38
401.062	1147.38
401.286	1107.38
401.51	1110.38
401.734	1080.38
401.958	1109.38
402.182	1112.38
402.406	1128.38
402.63	1124.38
402.854	1173.38
403.078	1200.38
403.302	1196.38
403.526	1276.38
403.75	1259.38
403.974	1293.38
404.198	1299.38
404.422	1299.38
404.645	1304.38
404.869	1268.38
405.093	1290.38
405.317	1236.38
405.541	1234.38
405.765	1228.38
405.988	1218.38
406.212	1166.38
406.436	1220.38
406.66	1246.38
406.883	1264.38
407.107	1335.38
407.331	1393.38
407.555	1445.38
407.778	1470.38
408.002	1410.38
408.226	1357.38
408.449	1307.38
408.673	1262.38
408.896	1244.38
409.12	1246.38
409.344	1270.38
409.567	1264.38
409.791	1313.38
410.014	1278.38
410.238	1268.38
410.461	1257.38
410.685	1221.38
410.908	1186.38
411.132	1168.38
411.355	1163.38
411.578	1168.38
411.802	1145.38
412.025	1148.38
412.249	1181.38
412.472	1186.38
412.695	1135.38
412.919	1078.38
413.142	1110.38
413.365	1114.38
413.589	1141.38
413.812	1096.38
414.035	1074.38
414.258	1112.38
414.482	1114.38
414.705	1112.38
414.928	1130.38
415.151	1114.38
415.374	1095.38
415.597	1093.38
415.821	1081.38
416.044	1077.38
416.267	1096.38
416.49	1048.38
416.713	1084.38
416.936	1097.38
417.159	1105.38
417.382	1100.38
417.605	1114.38
417.828	1086.38
418.051	1110.38
418.274	1108.38
418.497	1088.38
418.72	1109.38
418.943	1150.38
419.166	1214.38
419.389	1290.38
419.611	1255.38
419.834	1180.38
420.057	1151.38
420.28	1116.38
420.503	1094.38
420.726	1075.38
420.948	1048.38
421.171	1086.38
421.394	1129.38
421.617	1090.38
421.839	1110.38
422.062	1104.38
422.285	1119.38
422.507	1087.38
422.73	1128.38
422.953	1150.38
423.175	1139.38
423.398	1188.38
423.621	1166.38
423.843	1184.38
424.066	1219.38
424.288	1181.38
424.511	1185.38
424.733	1175.38
424.956	1116.38
425.178	1148.38
425.401	1123.38
425.623	1108.38
425.846	1063.38
426.068	1079.38
426.291	1057.38
426.513	1017.38
426.735	1015.38
426.958	1021.38
427.18	982.38
427.402	1029.38
427.625	994.38
427.847	972.38
428.069	966.38
428.292	995.38
428.514	975.38
428.736	955.38
428.958	986.38
429.181	952.38
429.403	945.38
429.625	934.38
429.847	940.38
430.069	978.38
430.292	950.38
430.514	922.38
430.736	943.38
430.958	948.38
431.18	953.38
431.402	988.38
431.624	963.38
431.846	987.38
432.068	1032.38
432.29	1012.38
432.512	972.38
432.734	1001.38
432.956	968.38
433.178	983.38
433.4	989.38
433.622	1031.38
433.844	962.38
434.066	973.38
434.287	1008.38
434.509	1013.38
434.731	1073.38
434.953	1115.38
435.175	1118.38
435.397	1102.38
435.618	1036.38
435.84	1040.38
436.062	994.38
436.284	979.38
436.505	976.38
436.727	1012.38
436.949	1001.38
437.17	971.38
437.392	971.38
437.614	950.38
437.835	927.38
438.057	963.38
438.278	943.38
438.5	942.38
438.721	927.38
438.943	962.38
439.165	970.38
439.386	975.38
439.608	977.38
439.829	966.38
440.05	993.38
440.272	988.38
440.493	991.38
440.715	1006.38
440.936	1024.38
441.158	1027.38
441.379	1049.38
441.6	1139.38
441.822	1112.38
442.043	1136.38
442.264	1128.38
442.486	1086.38
442.707	1080.38
442.928	1088.38
443.149	1134.38
443.371	1112.38
443.592	1101.38
443.813	1117.38
444.034	1132.38
444.255	1184.38
444.476	1231.38
444.698	1289.38
444.919	1364.38
445.14	1489.38
445.361	1298.38
445.582	1162.38
445.803	1096.38
446.024	1043.38
446.245	1059.38
446.466	1032.38
446.687	980.38
446.908	1007.38
447.129	978.38
447.35	979.38
447.571	957.38
447.792	935.38
448.013	959.38
448.234	900.38
448.455	908.38
448.675	904.38
448.896	910.38
449.117	864.38
449.338	915.38
449.559	896.38
449.779	874.38
450	884.38
450.221	896.38
450.442	932.38
450.662	911.38
450.883	936.38
451.104	961.38
451.324	926.38
451.545	945.38
451.766	943.38
451.986	949.38
452.207	919.38
452.428	920.38
452.648	923.38
452.869	912.38
453.089	898.38
453.31	914.38
453.53	888.38
453.751	907.38
453.971	891.38
454.192	886.38
454.412	879.38
454.633	886.38
454.853	874.38
455.073	868.38
455.294	886.38
455.514	853.38
455.734	856.38
455.955	835.38
456.175	850.38
456.395	870.38
456.616	851.38
456.836	863.38
457.056	849.38
457.276	824.38
457.497	851.38
457.717	839.38
457.937	832.38
458.157	845.38
458.377	864.38
458.598	882.38
458.818	903.38
459.038	946.38
459.258	952.38
459.478	998.38
459.698	993.38
459.918	1035.38
460.138	1090.38
460.358	1169.38
460.578	1178.38
460.798	1202.38
461.018	1211.38
461.238	1167.38
461.458	1155.38
461.678	1152.38
461.898	1205.38
462.118	1159.38
462.338	1287.38
462.558	1277.38
462.777	1305.38
462.997	1468.38
463.217	1609.38
463.437	1649.38
463.657	1487.38
463.876	1378.38
464.096	1385.38
464.316	1361.38
464.536	1410.38
464.755	1359.38
464.975	1284.38
465.195	1240.38
465.414	1115.38
465.634	1076.38
465.854	1046.38
466.073	1034.38
466.293	983.38
466.512	966.38
466.732	960.38
466.951	952.38
467.171	935.38
467.391	970.38
467.61	931.38
467.829	964.38
468.049	934.38
468.268	950.38
468.488	925.38
468.707	889.38
468.927	897.38
469.146	911.38
469.365	916.38
469.585	929.38
469.804	949.38
470.023	992.38
470.243	975.38
470.462	991.38
470.681	995.38
470.901	986.38
471.12	987.38
471.339	955.38
471.558	938.38
471.777	921.38
471.997	906.38
472.216	944.38
472.435	886.38
472.654	889.38
472.873	850.38
473.092	888.38
473.311	885.38
473.53	865.38
473.749	881.38
473.968	854.38
474.187	856.38
474.406	895.38
474.625	886.38
474.844	912.38
475.063	850.38
475.282	890.38
475.501	888.38
475.72	916.38
475.939	897.38
476.158	913.38
476.377	907.38
476.596	934.38
476.814	916.38
477.033	930.38
477.252	945.38
477.471	968.38
477.69	976.38
477.908	1014.38
478.127	1030.38
478.346	1043.38
478.564	1063.38
478.783	1083.38
479.002	1113.38
479.22	1111.38
479.439	1074.38
479.658	1096.38
479.876	1089.38
480.095	1086.38
480.313	1154.38
480.532	1223.38
480.751	1200.38
480.969	1172.38
481.188	1081.38
481.406	1022.38
481.624	1022.38
481.843	1039.38
482.061	1019.38
482.28	997.38
482.498	979.38
482.717	1004.38
482.935	991.38
483.153	978.38
483.372	978.38
483.59	1011.38
483.808	1024.38
484.027	1009.38
484.245	1016.38
484.463	1035.38
484.681	1013.38
484.9	995.38
485.118	1038.38
485.336	1050.38
485.554	1059.38
485.772	1066.38
485.99	1089.38
486.209	1081.38
486.427	1082.38
486.645	1087.38
486.863	1072.38
487.081	1042.38
487.299	1053.38
487.517	1056.38
487.735	1070.38
487.953	1061.38
488.171	1084.38
488.389	1028.38
488.607	1044.38
488.825	1024.38
489.043	1027.38
489.261	1043.38
489.479	1034.38
489.696	1066.38
489.914	1018.38
490.132	1072.38
490.35	1072.38
490.568	1025.38
490.786	1050.38
491.003	1056.38
491.221	1067.38
491.439	1070.38
491.657	1086.38
491.874	1078.38
492.092	1059.38
492.31	1056.38
492.527	1061.38
492.745	1070.38
492.963	1075.38
493.18	1075.38
493.398	1080.38
493.615	1113.38
493.833	1114.38
494.05	1096.38
494.268	1138.38
494.485	1146.38
494.703	1085.38
494.92	1147.38
495.138	1121.38
495.355	1117.38
495.573	1140.38
495.79	1106.38
496.008	1138.38
496.225	1105.38
496.442	1136.38
496.66	1175.38
496.877	1154.38
497.094	1160.38
497.312	1169.38
497.529	1230.38
497.746	1254.38
497.963	1291.38
498.181	1295.38
498.398	1346.38
498.615	1492.38
498.832	1574.38
499.049	1686.38
499.267	1850.38
499.484	2017.38
499.701	2300.38
499.918	2502.38
500.135	2920.38
500.352	3406.38
500.569	3638.38
500.786	3540.38
501.003	3317.38
501.22	2901.38
501.437	2502.38
501.654	2233.38
501.871	1961.38
502.088	1769.38
502.305	1637.38
502.522	1583.38
502.739	1579.38
502.956	1467.38
503.172	1370.38
503.389	1316.38
503.606	1304.38
503.823	1251.38
504.04	1242.38
504.256	1275.38
504.473	1336.38
504.69	1375.38
504.907	1338.38
505.123	1228.38
505.34	1174.38
505.557	1101.38
505.773	1064.38
505.99	1078.38
506.207	1059.38
506.423	1030.38
506.64	1031.38
506.856	1014.38
507.073	1016.38
507.289	988.38
507.506	988.38
507.722	990.38
507.939	977.38
508.155	945.38
508.372	942.38
508.588	944.38
508.805	921.38
509.021	925.38
509.238	929.38
509.454	924.38
509.67	934.38
509.887	891.38
510.103	927.38
510.319	902.38
510.536	923.38
510.752	911.38
510.968	918.38
511.184	912.38
511.401	910.38
511.617	889.38
511.833	905.38
512.049	849.38
512.265	910.38
512.481	908.38
512.698	908.38
512.914	888.38
513.13	884.38
513.346	905.38
513.562	932.38
513.778	894.38
513.994	912.38
514.21	891.38
514.426	913.38
514.642	932.38
514.858	940.38
515.074	911.38
515.29	954.38
515.506	946.38
515.721	972.38
515.937	973.38
516.153	1007.38
516.369	1002.38
516.585	1030.38
516.801	1087.38
517.016	1112.38
517.232	1168.38
517.448	1236.38
517.664	1283.38
517.879	1279.38
518.095	1291.38
518.311	1219.38
518.527	1200.38
518.742	1162.38
518.958	1116.38
519.173	1057.38
519.389	1041.38
519.605	1002.38
519.82	979.38
520.036	946.38
520.251	948.38
520.467	913.38
520.682	902.38
520.898	909.38
521.113	885.38
521.329	896.38
521.544	867.38
521.76	878.38
521.975	880.38
522.19	876.38
522.406	852.38
522.621	866.38
522.836	825.38
523.052	878.38
523.267	870.38
523.482	835.38
523.698	846.38
523.913	836.38
524.128	856.38
524.343	849.38
524.559	834.38
524.774	851.38
524.989	832.38
525.204	831.38
525.419	817.38
525.634	821.38
525.849	828.38
526.064	803.38
526.28	809.38
526.495	829.38
526.71	832.38
526.925	834.38
527.14	836.38
527.355	807.38
527.57	819.38
527.785	833.38
527.999	816.38
528.214	812.38
528.429	822.38
528.644	835.38
528.859	833.38
529.074	834.38
529.289	806.38
529.503	839.38
529.718	824.38
529.933	811.38
530.148	824.38
530.363	796.38
530.577	827.38
530.792	811.38
531.007	818.38
531.221	819.38
531.436	809.38
531.651	788.38
531.865	841.38
532.08	818.38
532.295	833.38
532.509	818.38
532.724	807.38
532.938	822.38
533.153	827.38
533.367	813.38
533.582	803.38
533.796	807.38
534.011	827.38
534.225	808.38
534.44	813.38
534.654	818.38
534.868	784.38
535.083	781.38
535.297	800.38
535.511	791.38
535.726	807.38
535.94	780.38
536.154	787.38
536.369	756.38
536.583	766.38
536.797	771.38
537.011	761.38
537.225	747.38
537.44	770.38
537.654	780.38
537.868	750.38
538.082	735.38
538.296	754.38
538.51	735.38
538.724	756.38
538.938	746.38
539.153	750.38
539.367	754.38
539.581	713.38
539.795	715.38
540.009	738.38
540.222	748.38
540.436	730.38
540.65	712.38
540.864	728.38
541.078	734.38
541.292	728.38
541.506	723.38
541.72	750.38
541.934	704.38
542.147	719.38
542.361	717.38
542.575	717.38
542.789	693.38
543.002	711.38
543.216	718.38
543.43	702.38
543.644	746.38
543.857	699.38
544.071	710.38
544.285	693.38
544.498	740.38
544.712	734.38
544.925	736.38
545.139	763.38
545.352	734.38
545.566	740.38
545.779	771.38
545.993	770.38
546.206	756.38
546.42	734.38
546.633	746.38
546.847	760.38
547.06	735.38
547.274	742.38
547.487	742.38
547.7	747.38
547.914	741.38
548.127	729.38
548.34	762.38
548.554	764.38
548.767	766.38
548.98	727.38
549.193	754.38
549.407	779.38
549.62	772.38
549.833	772.38
550.046	761.38
550.259	764.38
550.473	742.38
550.686	711.38
550.899	733.38
551.112	729.38
551.325	719.38
551.538	707.38
551.751	743.38
551.964	739.38
552.177	726.38
552.39	728.38
552.603	758.38
552.816	780.38
553.029	806.38
553.242	808.38
553.455	811.38
553.667	843.38
553.88	825.38
554.093	790.38
554.306	766.38
554.519	759.38
554.732	759.38
554.944	718.38
555.157	710.38
555.37	698.38
555.583	691.38
555.795	686.38
556.008	684.38
556.221	688.38
556.433	653.38
556.646	645.38
556.859	629.38
557.071	635.38
557.284	634.38
557.496	629.38
557.709	636.38
557.921	620.38
558.134	644.38
558.346	626.38
558.559	627.38
558.771	601.38
558.984	630.38
559.196	628.38
559.409	633.38
559.621	603.38
559.833	634.38
560.046	622.38
560.258	615.38
560.47	606.38
560.683	610.38
560.895	626.38
561.107	606.38
561.32	602.38
561.532	611.38
561.744	603.38
561.956	610.38
562.168	606.38
562.381	607.38
562.593	619.38
562.805	636.38
563.017	621.38
563.229	606.38
563.441	620.38
563.653	639.38
563.865	638.38
564.077	639.38
564.289	636.38
564.501	653.38
564.713	660.38
564.925	657.38
565.137	686.38
565.349	674.38
565.561	714.38
565.773	722.38
565.985	734.38
566.197	793.38
566.408	863.38
566.62	930.38
566.832	1022.38
567.044	1027.38
567.255	1040.38
567.467	1055.38
567.679	1103.38
567.891	1195.38
568.102	1286.38
568.314	1200.38
568.526	1066.38
568.737	946.38
568.949	885.38
569.161	801.38
569.372	751.38
569.584	722.38
569.795	667.38
570.007	642.38
570.218	642.38
570.43	639.38
570.641	640.38
570.853	631.38
571.064	638.38
571.276	666.38
571.487	645.38
571.698	614.38
571.91	583.38
572.121	570.38
572.333	553.38
572.544	540.38
572.755	568.38
572.966	517.38
573.178	543.38
573.389	529.38
573.6	525.38
573.811	519.38
574.023	526.38
574.234	534.38
574.445	518.38
574.656	512.38
574.867	531.38
575.078	530.38
575.289	511.38
575.501	492.38
575.712	486.38
575.923	490.38
576.134	503.38
576.345	494.38
576.556	510.38
576.767	482.38
576.978	486.38
577.188	495.38
577.399	484.38
577.61	459.38
577.821	472.38
578.032	473.38
578.243	450.38
578.454	468.38
578.665	464.38
578.875	460.38
579.086	464.38
579.297	448.38
579.508	449.38
579.718	464.38
579.929	454.38
580.14	458.38
580.35	447.38
580.561	466.38
580.772	442.38
580.982	437.38
581.193	456.38
581.403	451.38
581.614	433.38
581.825	451.38
582.035	449.38
582.246	438.38
582.456	435.38
582.667	416.38
582.877	430.38
583.087	417.38
583.298	427.38
583.508	430.38
583.719	428.38
583.929	464.38
584.139	432.38
584.35	407.38
584.56	420.38
584.77	423.38
584.981	424.38
585.191	411.38
585.401	425.38
585.611	425.38
585.821	441.38
586.032	429.38
586.242	423.38
586.452	397.38
586.662	414.38
586.872	418.38
587.082	417.38
587.292	423.38
587.502	409.38
587.713	420.38
587.923	444.38
588.133	417.38
588.343	428.38
588.553	416.38
588.762	399.38
588.972	403.38
589.182	418.38
589.392	403.38
589.602	407.38
589.812	412.38
590.022	416.38
590.232	413.38
590.441	404.38
590.651	425.38
590.861	409.38
591.071	427.38
591.281	436.38
591.49	435.38
591.7	421.38
591.91	423.38
592.119	431.38
592.329	472.38
592.539	471.38
592.748	482.38
592.958	521.38
593.167	545.38
593.377	562.38
593.587	551.38
593.796	566.38
594.006	540.38
594.215	555.38
594.424	545.38
594.634	543.38
594.843	497.38
595.053	502.38
595.262	467.38
595.472	433.38
595.681	473.38
595.89	418.38
596.1	427.38
596.309	404.38
596.518	420.38
596.727	388.38
596.937	406.38
597.146	384.38
597.355	375.38
597.564	378.38
597.774	370.38
597.983	369.38
598.192	367.38
598.401	380.38
598.61	358.38
598.819	366.38
599.028	378.38
599.237	371.38
599.446	370.38
599.655	369.38
599.864	356.38
600.073	375.38
600.282	362.38
600.491	350.38
600.7	356.38
600.909	347.38
601.118	358.38
601.327	357.38
601.536	364.38
601.745	348.38
601.953	345.38
602.162	366.38
602.371	329.38
602.58	337.38
602.789	338.38
602.997	343.38
603.206	344.38
603.415	333.38
603.623	356.38
603.832	328.38
604.041	332.38
604.249	331.38
604.458	350.38
604.666	311.38
604.875	320.38
605.084	331.38
605.292	345.38
605.501	327.38
605.709	318.38
605.918	312.38
606.126	331.38
606.334	328.38
606.543	345.38
606.751	341.38
606.96	314.38
607.168	329.38
607.376	324.38
607.585	310.38
607.793	329.38
608.001	307.38
608.21	320.38
608.418	300.38
608.626	304.38
608.834	319.38
609.043	321.38
609.251	304.38
609.459	326.38
609.667	308.38
609.875	308.38
610.083	326.38
610.291	313.38
610.499	287.38
610.707	311.38
610.916	320.38
611.124	315.38
611.332	289.38
611.54	318.38
611.748	302.38
611.955	300.38
612.163	291.38
612.371	308.38
612.579	298.38
612.787	302.38
612.995	310.38
613.203	300.38
613.411	297.38
613.618	288.38
613.826	292.38
614.034	304.38
614.242	290.38
614.449	282.38
614.657	316.38
614.865	294.38
615.072	295.38
615.28	295.38
615.488	299.38
615.695	286.38
615.903	304.38
616.111	296.38
616.318	312.38
616.526	300.38
616.733	295.38
616.941	303.38
617.148	297.38
617.356	292.38
617.563	332.38
617.771	308.38
617.978	298.38
618.185	288.38
618.393	312.38
618.6	291.38
618.807	280.38
619.015	303.38
619.222	302.38
619.429	294.38
619.637	278.38
619.844	292.38
620.051	299.38
620.258	283.38
620.466	287.38
620.673	260.38
620.88	274.38
621.087	292.38
621.294	274.38
621.501	263.38
621.708	266.38
621.915	287.38
622.122	285.38
622.329	278.38
622.536	279.38
622.743	268.38
622.95	268.38
623.157	267.38
623.364	279.38
623.571	267.38
623.778	278.38
623.985	259.38
624.192	264.38
624.399	272.38
624.606	265.38
624.812	260.38
625.019	272.38
625.226	255.38
625.433	260.38
625.639	265.38
625.846	249.38
626.053	267.38
626.259	247.38
626.466	268.38
626.673	248.38
626.879	254.38
627.086	277.38
627.293	255.38
627.499	255.38
627.706	251.38
627.912	240.38
628.119	235.38
628.325	251.38
628.532	241.38
628.738	243.38
628.945	263.38
629.151	246.38
629.357	255.38
629.564	240.38
629.77	242.38
629.976	238.38
630.183	220.38
630.389	233.38
630.595	225.38
630.802	247.38
631.008	241.38
631.214	229.38
631.42	218.38
631.627	235.38
631.833	246.38
632.039	224.38
632.245	226.38
632.451	234.38
632.657	213.38
632.863	224.38
633.069	202.38
633.275	223.38
633.481	218.38
633.688	224.38
633.893	242.38
634.099	227.38
634.305	227.38
634.511	211.38
634.717	217.38
634.923	227.38
635.129	216.38
635.335	210.38
635.541	203.38
635.747	222.38
635.952	217.38
636.158	214.38
636.364	224.38
636.57	212.38
636.775	233.38
636.981	227.38
637.187	222.38
637.392	209.38
637.598	217.38
637.804	203.38
638.009	201.38
638.215	202.38
638.421	195.38
638.626	206.38
638.832	212.38
639.037	194.38
639.243	206.38
639.448	215.38
639.654	202.38
639.859	203.38
640.065	204.38
640.27	210.38
640.475	190.38
640.681	196.38
640.886	212.38
641.091	207.38
641.297	190.38
641.502	196.38
641.707	195.38
641.913	199.38
642.118	209.38
642.323	191.38
642.528	204.38
642.733	185.38
642.939	201.38
643.144	195.38
643.349	196.38
643.554	195.38
643.759	199.38
643.964	196.38
644.169	199.38
644.374	187.38
644.579	194.38
644.784	199.38
644.989	199.38
645.194	185.38
645.399	193.38
645.604	194.38
645.809	194.38
646.014	179.38
646.219	199.38
646.423	186.38
646.628	179.38
646.833	202.38
647.038	201.38
647.243	196.38
647.447	191.38
647.652	205.38
647.857	208.38
648.062	207.38
648.266	214.38
648.471	194.38
648.676	220.38
648.88	214.38
649.085	209.38
649.289	208.38
649.494	196.38
649.698	196.38
649.903	180.38
650.107	212.38
650.312	182.38
650.516	192.38
650.721	189.38
650.925	185.38
651.13	165.38
651.334	182.38
651.539	176.38
651.743	170.38
651.947	169.38
652.152	180.38
652.356	151.38
652.56	184.38
652.764	155.38
652.969	158.38
653.173	164.38
653.377	166.38
653.581	150.38
653.785	148.38
653.99	141.38
654.194	136.38
654.398	170.38
654.602	140.38
654.806	149.38
655.01	128.38
655.214	155.38
655.418	135.38
655.622	139.38
655.826	133.38
656.03	162.38
656.234	144.38
656.438	132.38
656.642	127.38
656.846	131.38
657.049	131.38
657.253	140.38
657.457	118.38
657.661	117.38
657.865	123.38
658.068	122.38
658.272	117.38
658.476	109.38
658.68	105.38
658.883	115.38
659.087	88.38
659.291	111.38
659.494	95.38
659.698	108.38
659.901	100.38
660.105	85.38
660.309	85.38
660.512	93.38
660.716	100.38
660.919	99.38
661.123	95.38
661.326	71.38
661.53	95.38
661.733	91.38
661.936	85.38
662.14	92.38
662.343	82.38
662.546	79.38
662.75	75.38
662.953	90.38
663.156	83.38
663.36	72.38
663.563	82.38
663.766	70.38
663.969	85.38
664.173	87.38
664.376	79.38
664.579	87.38
664.782	87.38
664.985	85.38
665.188	73.38
665.391	85.38
665.594	75.38
665.797	76.38
666	80.38
666.203	82.38
666.406	72.38
666.609	75.38
666.812	84.38
667.015	91.38
667.218	65.38
667.421	78.38
667.624	77.38
667.827	68.38
668.03	82.38
668.232	82.38
668.435	64.38
668.638	76.38
668.841	80.38
669.043	81.38
669.246	80.38
669.449	95.38
669.651	79.38
669.854	84.38
670.057	97.38
670.259	76.38
670.462	76.38
670.665	62.38
670.867	86.38
671.07	101.38
671.272	75.38
671.475	68.38
671.677	77.38
671.88	88.38
672.082	72.38
672.284	78.38
672.487	79.38
672.689	75.38
672.892	88.38
