Data from NiCl2@0.5M.TitratingCurve.Agarose3%dH2O.NegLispCup.LampEnergy10.LIBS07252019_HRD10591_18-19-17-571.txt Node
Date: Thu Jul 25 18:19:17 EDT 2019
User: cochatt
Spectrometer: HR+D1059
Trigger mode: 1
Integration Time (sec): 1.000000E-1
Scans to average: 1
Electric dark correction enabled: true
Nonlinearity correction enabled: false
Boxcar width: 0
XAxis mode: Wavelengths
Number of Pixels in Spectrum: 2048
>>>>>Begin Spectral Data<<<<<
223.165	-13.31
223.4	-13.31
223.635	-13.31
223.869	-14.31
224.104	-15.31
224.338	-26.31
224.573	-21.31
224.808	-9.31
225.042	7.69
225.277	-4.31
225.511	-6.31
225.746	1.69
225.98	-5.31
226.215	9.69
226.449	27.69
226.683	24.69
226.918	21.69
227.152	22.69
227.387	37.69
227.621	39.69
227.856	53.69
228.09	52.69
228.324	58.69
228.559	63.69
228.793	85.69
229.027	93.69
229.262	94.69
229.496	94.69
229.73	105.69
229.964	116.69
230.199	114.69
230.433	118.69
230.667	109.69
230.901	122.69
231.136	138.69
231.37	124.69
231.604	125.69
231.838	141.69
232.072	143.69
232.306	138.69
232.541	132.69
232.775	141.69
233.009	130.69
233.243	141.69
233.477	129.69
233.711	137.69
233.945	142.69
234.179	126.69
234.413	142.69
234.647	129.69
234.881	127.69
235.115	156.69
235.349	151.69
235.583	134.69
235.817	126.69
236.051	155.69
236.285	139.69
236.519	145.69
236.753	140.69
236.987	144.69
237.221	141.69
237.455	136.69
237.689	135.69
237.922	144.69
238.156	151.69
238.39	133.69
238.624	136.69
238.858	146.69
239.091	140.69
239.325	153.69
239.559	148.69
239.793	160.69
240.027	152.69
240.26	160.69
240.494	151.69
240.728	160.69
240.961	151.69
241.195	153.69
241.429	146.69
241.662	168.69
241.896	161.69
242.13	160.69
242.363	152.69
242.597	157.69
242.83	164.69
243.064	152.69
243.298	155.69
243.531	177.69
243.765	169.69
243.998	181.69
244.232	163.69
244.465	154.69
244.699	171.69
244.932	168.69
245.166	181.69
245.399	178.69
245.633	159.69
245.866	184.69
246.099	182.69
246.333	179.69
246.566	177.69
246.8	173.69
247.033	171.69
247.266	188.69
247.5	179.69
247.733	182.69
247.966	198.69
248.2	164.69
248.433	187.69
248.666	206.69
248.899	201.69
249.133	209.69
249.366	210.69
249.599	204.69
249.832	204.69
250.066	194.69
250.299	204.69
250.532	207.69
250.765	212.69
250.998	217.69
251.231	220.69
251.465	208.69
251.698	206.69
251.931	207.69
252.164	201.69
252.397	205.69
252.63	219.69
252.863	224.69
253.096	245.69
253.329	235.69
253.562	233.69
253.795	234.69
254.028	220.69
254.261	233.69
254.494	227.69
254.727	235.69
254.96	232.69
255.193	219.69
255.426	231.69
255.659	212.69
255.892	246.69
256.124	218.69
256.357	244.69
256.59	234.69
256.823	225.69
257.056	240.69
257.289	242.69
257.521	257.69
257.754	238.69
257.987	238.69
258.22	231.69
258.452	248.69
258.685	237.69
258.918	242.69
259.151	244.69
259.383	245.69
259.616	236.69
259.849	258.69
260.081	235.69
260.314	246.69
260.547	239.69
260.779	245.69
261.012	264.69
261.244	249.69
261.477	266.69
261.71	268.69
261.942	278.69
262.175	276.69
262.407	267.69
262.64	245.69
262.872	273.69
263.105	280.69
263.337	270.69
263.57	265.69
263.802	288.69
264.035	268.69
264.267	271.69
264.499	289.69
264.732	280.69
264.964	279.69
265.197	270.69
265.429	281.69
265.661	278.69
265.894	286.69
266.126	286.69
266.358	283.69
266.591	270.69
266.823	299.69
267.055	278.69
267.287	276.69
267.52	287.69
267.752	287.69
267.984	304.69
268.216	276.69
268.448	292.69
268.681	290.69
268.913	288.69
269.145	299.69
269.377	313.69
269.609	305.69
269.841	295.69
270.073	297.69
270.306	291.69
270.538	312.69
270.77	302.69
271.002	287.69
271.234	302.69
271.466	322.69
271.698	317.69
271.93	333.69
272.162	313.69
272.394	318.69
272.626	308.69
272.858	308.69
273.09	331.69
273.322	315.69
273.553	339.69
273.785	329.69
274.017	326.69
274.249	336.69
274.481	320.69
274.713	332.69
274.945	335.69
275.176	322.69
275.408	322.69
275.64	336.69
275.872	340.69
276.104	330.69
276.335	334.69
276.567	347.69
276.799	328.69
277.031	350.69
277.262	338.69
277.494	331.69
277.726	350.69
277.957	355.69
278.189	350.69
278.421	361.69
278.652	347.69
278.884	353.69
279.115	350.69
279.347	352.69
279.579	364.69
279.81	356.69
280.042	357.69
280.273	386.69
280.505	363.69
280.736	342.69
280.968	346.69
281.199	351.69
281.431	372.69
281.662	371.69
281.894	359.69
282.125	369.69
282.356	376.69
282.588	372.69
282.819	376.69
283.051	386.69
283.282	372.69
283.513	365.69
283.745	386.69
283.976	378.69
284.207	382.69
284.439	390.69
284.67	381.69
284.901	374.69
285.132	377.69
285.364	402.69
285.595	395.69
285.826	379.69
286.057	404.69
286.288	381.69
286.52	399.69
286.751	400.69
286.982	414.69
287.213	402.69
287.444	389.69
287.675	389.69
287.906	404.69
288.138	396.69
288.369	414.69
288.6	382.69
288.831	413.69
289.062	411.69
289.293	410.69
289.524	406.69
289.755	398.69
289.986	413.69
290.217	396.69
290.448	408.69
290.679	420.69
290.91	413.69
291.141	441.69
291.371	428.69
291.602	418.69
291.833	389.69
292.064	394.69
292.295	429.69
292.526	429.69
292.757	421.69
292.987	424.69
293.218	421.69
293.449	433.69
293.68	432.69
293.91	436.69
294.141	423.69
294.372	410.69
294.603	398.69
294.833	413.69
295.064	436.69
295.295	442.69
295.525	418.69
295.756	425.69
295.987	423.69
296.217	446.69
296.448	420.69
296.679	456.69
296.909	428.69
297.14	446.69
297.37	436.69
297.601	436.69
297.831	452.69
298.062	453.69
298.292	466.69
298.523	467.69
298.753	451.69
298.984	468.69
299.214	464.69
299.445	463.69
299.675	466.69
299.905	456.69
300.136	473.69
300.366	478.69
300.597	465.69
300.827	462.69
301.057	464.69
301.288	498.69
301.518	484.69
301.748	468.69
301.979	469.69
302.209	494.69
302.439	489.69
302.669	489.69
302.9	458.69
303.13	462.69
303.36	484.69
303.59	482.69
303.82	468.69
304.051	477.69
304.281	485.69
304.511	469.69
304.741	486.69
304.971	482.69
305.201	494.69
305.431	524.69
305.661	504.69
305.891	486.69
306.121	482.69
306.352	474.69
306.582	481.69
306.812	482.69
307.042	461.69
307.272	475.69
307.502	478.69
307.731	463.69
307.961	477.69
308.191	475.69
308.421	485.69
308.651	475.69
308.881	451.69
309.111	489.69
309.341	466.69
309.571	481.69
309.8	466.69
310.03	472.69
310.26	510.69
310.49	501.69
310.72	499.69
310.949	488.69
311.179	483.69
311.409	509.69
311.639	500.69
311.868	487.69
312.098	505.69
312.328	516.69
312.557	501.69
312.787	501.69
313.017	506.69
313.246	510.69
313.476	509.69
313.706	519.69
313.935	536.69
314.165	502.69
314.394	510.69
314.624	491.69
314.853	492.69
315.083	539.69
315.312	498.69
315.542	500.69
315.771	493.69
316.001	514.69
316.23	506.69
316.46	509.69
316.689	517.69
316.919	512.69
317.148	514.69
317.377	499.69
317.607	488.69
317.836	510.69
318.065	530.69
318.295	496.69
318.524	517.69
318.753	513.69
318.983	514.69
319.212	487.69
319.441	526.69
319.67	524.69
319.9	516.69
320.129	492.69
320.358	517.69
320.587	513.69
320.816	513.69
321.046	525.69
321.275	502.69
321.504	524.69
321.733	511.69
321.962	518.69
322.191	513.69
322.42	540.69
322.649	540.69
322.878	532.69
323.108	534.69
323.337	530.69
323.566	534.69
323.795	524.69
324.024	511.69
324.253	531.69
324.482	561.69
324.71	538.69
324.939	528.69
325.168	537.69
325.397	529.69
325.626	540.69
325.855	554.69
326.084	575.69
326.313	583.69
326.542	553.69
326.77	569.69
326.999	554.69
327.228	576.69
327.457	548.69
327.686	553.69
327.914	574.69
328.143	564.69
328.372	551.69
328.6	561.69
328.829	568.69
329.058	557.69
329.287	564.69
329.515	555.69
329.744	558.69
329.972	569.69
330.201	562.69
330.43	565.69
330.658	580.69
330.887	576.69
331.115	574.69
331.344	589.69
331.572	564.69
331.801	601.69
332.03	581.69
332.258	610.69
332.486	621.69
332.715	628.69
332.943	632.69
333.172	665.69
333.4	650.69
333.629	675.69
333.857	670.69
334.085	693.69
334.314	684.69
334.542	683.69
334.771	658.69
334.999	672.69
335.227	667.69
335.455	672.69
335.684	672.69
335.912	666.69
336.14	674.69
336.369	651.69
336.597	668.69
336.825	663.69
337.053	681.69
337.281	670.69
337.51	654.69
337.738	634.69
337.966	648.69
338.194	646.69
338.422	641.69
338.65	625.69
338.878	595.69
339.106	629.69
339.334	638.69
339.562	630.69
339.79	589.69
340.018	570.69
340.246	594.69
340.474	585.69
340.702	588.69
340.93	594.69
341.158	603.69
341.386	612.69
341.614	644.69
341.842	638.69
342.07	586.69
342.298	599.69
342.526	602.69
342.754	596.69
342.981	580.69
343.209	600.69
343.437	637.69
343.665	650.69
343.893	665.69
344.12	667.69
344.348	664.69
344.576	633.69
344.804	637.69
345.031	637.69
345.259	631.69
345.487	621.69
345.714	628.69
345.942	608.69
346.17	630.69
346.397	598.69
346.625	574.69
346.853	590.69
347.08	573.69
347.308	577.69
347.535	563.69
347.763	582.69
347.99	564.69
348.218	581.69
348.445	590.69
348.673	582.69
348.9	552.69
349.128	546.69
349.355	562.69
349.583	585.69
349.81	557.69
350.037	555.69
350.265	547.69
350.492	564.69
350.72	552.69
350.947	557.69
351.174	568.69
351.402	573.69
351.629	588.69
351.856	578.69
352.083	581.69
352.311	558.69
352.538	600.69
352.765	608.69
352.992	537.69
353.22	527.69
353.447	550.69
353.674	537.69
353.901	536.69
354.128	528.69
354.355	525.69
354.583	526.69
354.81	525.69
355.037	535.69
355.264	541.69
355.491	524.69
355.718	541.69
355.945	548.69
356.172	537.69
356.399	522.69
356.626	546.69
356.853	582.69
357.08	540.69
357.307	536.69
357.534	549.69
357.761	549.69
357.988	546.69
358.215	537.69
358.441	550.69
358.668	516.69
358.895	540.69
359.122	534.69
359.349	548.69
359.576	538.69
359.802	536.69
360.029	550.69
360.256	533.69
360.483	552.69
360.709	530.69
360.936	536.69
361.163	545.69
361.39	526.69
361.616	541.69
361.843	552.69
362.07	576.69
362.296	593.69
362.523	534.69
362.749	551.69
362.976	520.69
363.203	530.69
363.429	519.69
363.656	522.69
363.882	528.69
364.109	526.69
364.335	523.69
364.562	510.69
364.788	510.69
365.015	519.69
365.241	538.69
365.468	548.69
365.694	545.69
365.92	516.69
366.147	535.69
366.373	522.69
366.599	526.69
366.826	545.69
367.052	526.69
367.278	520.69
367.505	525.69
367.731	519.69
367.957	531.69
368.184	518.69
368.41	509.69
368.636	546.69
368.862	528.69
369.089	539.69
369.315	540.69
369.541	538.69
369.767	555.69
369.993	534.69
370.219	537.69
370.445	536.69
370.672	553.69
370.898	527.69
371.124	562.69
371.35	576.69
371.576	556.69
371.802	562.69
372.028	575.69
372.254	571.69
372.48	548.69
372.706	582.69
372.932	547.69
373.158	554.69
373.384	550.69
373.61	561.69
373.835	574.69
374.061	578.69
374.287	582.69
374.513	577.69
374.739	597.69
374.965	610.69
375.191	595.69
375.416	599.69
375.642	577.69
375.868	599.69
376.094	576.69
376.319	565.69
376.545	536.69
376.771	562.69
376.997	562.69
377.222	571.69
377.448	569.69
377.674	553.69
377.899	562.69
378.125	537.69
378.35	530.69
378.576	534.69
378.802	542.69
379.027	552.69
379.253	560.69
379.478	519.69
379.704	553.69
379.929	549.69
380.155	529.69
380.38	542.69
380.606	548.69
380.831	548.69
381.057	577.69
381.282	555.69
381.507	566.69
381.733	564.69
381.958	568.69
382.184	554.69
382.409	568.69
382.634	572.69
382.86	560.69
383.085	554.69
383.31	576.69
383.535	581.69
383.761	602.69
383.986	597.69
384.211	617.69
384.436	633.69
384.662	595.69
384.887	612.69
385.112	620.69
385.337	608.69
385.562	653.69
385.787	649.69
386.013	661.69
386.238	645.69
386.463	655.69
386.688	642.69
386.913	617.69
387.138	632.69
387.363	640.69
387.588	638.69
387.813	646.69
388.038	626.69
388.263	626.69
388.488	649.69
388.713	628.69
388.938	632.69
389.163	635.69
389.387	634.69
389.612	641.69
389.837	653.69
390.062	633.69
390.287	629.69
390.512	653.69
390.736	648.69
390.961	642.69
391.186	660.69
391.411	656.69
391.636	696.69
391.86	692.69
392.085	701.69
392.31	683.69
392.534	701.69
392.759	680.69
392.984	691.69
393.208	670.69
393.433	661.69
393.658	692.69
393.882	662.69
394.107	673.69
394.331	681.69
394.556	661.69
394.78	662.69
395.005	690.69
395.229	704.69
395.454	700.69
395.678	716.69
395.903	683.69
396.127	697.69
396.352	726.69
396.576	709.69
396.801	669.69
397.025	702.69
397.249	704.69
397.474	689.69
397.698	719.69
397.922	742.69
398.147	728.69
398.371	735.69
398.595	756.69
398.82	791.69
399.044	835.69
399.268	869.69
399.492	939.69
399.717	1024.69
399.941	1004.69
400.165	973.69
400.389	920.69
400.613	864.69
400.837	828.69
401.062	816.69
401.286	803.69
401.51	796.69
401.734	803.69
401.958	797.69
402.182	791.69
402.406	790.69
402.63	800.69
402.854	827.69
403.078	781.69
403.302	839.69
403.526	828.69
403.75	824.69
403.974	859.69
404.198	819.69
404.422	822.69
404.645	852.69
404.869	838.69
405.093	865.69
405.317	846.69
405.541	864.69
405.765	847.69
405.988	857.69
406.212	860.69
406.436	847.69
406.66	877.69
406.883	911.69
407.107	893.69
407.331	930.69
407.555	941.69
407.778	937.69
408.002	935.69
408.226	939.69
408.449	953.69
408.673	898.69
408.896	923.69
409.12	901.69
409.344	910.69
409.567	862.69
409.791	869.69
410.014	900.69
410.238	872.69
410.461	866.69
410.685	830.69
410.908	840.69
411.132	830.69
411.355	852.69
411.578	847.69
411.802	843.69
412.025	848.69
412.249	874.69
412.472	856.69
412.695	831.69
412.919	812.69
413.142	841.69
413.365	820.69
413.589	839.69
413.812	811.69
414.035	788.69
414.258	796.69
414.482	796.69
414.705	822.69
414.928	807.69
415.151	822.69
415.374	781.69
415.597	790.69
415.821	785.69
416.044	790.69
416.267	793.69
416.49	781.69
416.713	798.69
416.936	791.69
417.159	805.69
417.382	770.69
417.605	780.69
417.828	790.69
418.051	803.69
418.274	781.69
418.497	778.69
418.72	803.69
418.943	814.69
419.166	844.69
419.389	895.69
419.611	881.69
419.834	838.69
420.057	829.69
420.28	824.69
420.503	765.69
420.726	788.69
420.948	769.69
421.171	758.69
421.394	802.69
421.617	787.69
421.839	789.69
422.062	793.69
422.285	788.69
422.507	814.69
422.73	800.69
422.953	793.69
423.175	792.69
423.398	808.69
423.621	821.69
423.843	836.69
424.066	839.69
424.288	816.69
424.511	800.69
424.733	821.69
424.956	818.69
425.178	819.69
425.401	800.69
425.623	803.69
425.846	781.69
426.068	793.69
426.291	768.69
426.513	774.69
426.735	800.69
426.958	783.69
427.18	741.69
427.402	745.69
427.625	791.69
427.847	720.69
428.069	748.69
428.292	752.69
428.514	747.69
428.736	762.69
428.958	779.69
429.181	745.69
429.403	725.69
429.625	742.69
429.847	748.69
430.069	761.69
430.292	769.69
430.514	721.69
430.736	772.69
430.958	760.69
431.18	748.69
431.402	760.69
431.624	750.69
431.846	758.69
432.068	763.69
432.29	756.69
432.512	741.69
432.734	742.69
432.956	776.69
433.178	808.69
433.4	756.69
433.622	779.69
433.844	771.69
434.066	788.69
434.287	782.69
434.509	796.69
434.731	808.69
434.953	828.69
435.175	813.69
435.397	820.69
435.618	784.69
435.84	779.69
436.062	779.69
436.284	786.69
436.505	746.69
436.727	767.69
436.949	730.69
437.17	766.69
437.392	739.69
437.614	758.69
437.835	743.69
438.057	730.69
438.278	768.69
438.5	741.69
438.721	732.69
438.943	751.69
439.165	730.69
439.386	755.69
439.608	773.69
439.829	759.69
440.05	772.69
440.272	796.69
440.493	796.69
440.715	795.69
440.936	806.69
441.158	814.69
441.379	798.69
441.6	854.69
441.822	860.69
442.043	843.69
442.264	832.69
442.486	813.69
442.707	851.69
442.928	843.69
443.149	847.69
443.371	817.69
443.592	851.69
443.813	846.69
444.034	870.69
444.255	884.69
444.476	886.69
444.698	906.69
444.919	952.69
445.14	1004.69
445.361	920.69
445.582	860.69
445.803	845.69
446.024	836.69
446.245	827.69
446.466	798.69
446.687	782.69
446.908	806.69
447.129	781.69
447.35	742.69
447.571	750.69
447.792	770.69
448.013	740.69
448.234	774.69
448.455	739.69
448.675	731.69
448.896	726.69
449.117	709.69
449.338	720.69
449.559	729.69
449.779	718.69
450	698.69
450.221	740.69
450.442	728.69
450.662	742.69
450.883	739.69
451.104	746.69
451.324	739.69
451.545	746.69
451.766	698.69
451.986	710.69
452.207	707.69
452.428	713.69
452.648	699.69
452.869	712.69
453.089	711.69
453.31	715.69
453.53	701.69
453.751	714.69
453.971	685.69
454.192	696.69
454.412	714.69
454.633	679.69
454.853	666.69
455.073	692.69
455.294	678.69
455.514	663.69
455.734	701.69
455.955	677.69
456.175	688.69
456.395	657.69
456.616	683.69
456.836	649.69
457.056	700.69
457.276	698.69
457.497	702.69
457.717	712.69
457.937	682.69
458.157	696.69
458.377	701.69
458.598	703.69
458.818	726.69
459.038	759.69
459.258	764.69
459.478	777.69
459.698	820.69
459.918	851.69
460.138	840.69
460.358	863.69
460.578	862.69
460.798	878.69
461.018	900.69
461.238	874.69
461.458	889.69
461.678	884.69
461.898	886.69
462.118	885.69
462.338	927.69
462.558	975.69
462.777	978.69
462.997	1039.69
463.217	1051.69
463.437	1101.69
463.657	1074.69
463.876	1022.69
464.096	1020.69
464.316	973.69
464.536	964.69
464.755	959.69
464.975	950.69
465.195	893.69
465.414	877.69
465.634	824.69
465.854	812.69
466.073	848.69
466.293	820.69
466.512	781.69
466.732	789.69
466.951	800.69
467.171	777.69
467.391	762.69
467.61	748.69
467.829	749.69
468.049	785.69
468.268	733.69
468.488	750.69
468.707	733.69
468.927	754.69
469.146	762.69
469.365	766.69
469.585	755.69
469.804	752.69
470.023	771.69
470.243	760.69
470.462	792.69
470.681	788.69
470.901	804.69
471.12	775.69
471.339	758.69
471.558	764.69
471.777	787.69
471.997	740.69
472.216	762.69
472.435	721.69
472.654	767.69
472.873	728.69
473.092	744.69
473.311	733.69
473.53	734.69
473.749	716.69
473.968	738.69
474.187	739.69
474.406	746.69
474.625	765.69
474.844	742.69
475.063	743.69
475.282	770.69
475.501	749.69
475.72	729.69
475.939	723.69
476.158	737.69
476.377	778.69
476.596	770.69
476.814	778.69
477.033	745.69
477.252	777.69
477.471	789.69
477.69	829.69
477.908	831.69
478.127	814.69
478.346	840.69
478.564	836.69
478.783	892.69
479.002	877.69
479.22	898.69
479.439	895.69
479.658	906.69
479.876	899.69
480.095	869.69
480.313	944.69
480.532	940.69
480.751	917.69
480.969	895.69
481.188	885.69
481.406	866.69
481.624	833.69
481.843	869.69
482.061	832.69
482.28	845.69
482.498	844.69
482.717	838.69
482.935	828.69
483.153	865.69
483.372	855.69
483.59	883.69
483.808	854.69
484.027	850.69
484.245	862.69
484.463	862.69
484.681	890.69
484.9	855.69
485.118	894.69
485.336	871.69
485.554	866.69
485.772	882.69
485.99	873.69
486.209	882.69
486.427	872.69
486.645	899.69
486.863	885.69
487.081	898.69
487.299	872.69
487.517	867.69
487.735	892.69
487.953	904.69
488.171	907.69
488.389	893.69
488.607	886.69
488.825	876.69
489.043	872.69
489.261	868.69
489.479	881.69
489.696	891.69
489.914	891.69
490.132	882.69
490.35	900.69
490.568	890.69
490.786	901.69
491.003	904.69
491.221	889.69
491.439	881.69
491.657	915.69
491.874	939.69
492.092	944.69
492.31	926.69
492.527	936.69
492.745	948.69
492.963	911.69
493.18	917.69
493.398	931.69
493.615	946.69
493.833	935.69
494.05	956.69
494.268	975.69
494.485	965.69
494.703	984.69
494.92	938.69
495.138	961.69
495.355	967.69
495.573	948.69
495.79	953.69
496.008	1000.69
496.225	999.69
496.442	969.69
496.66	1030.69
496.877	1016.69
497.094	1022.69
497.312	1027.69
497.529	1087.69
497.746	1101.69
497.963	1063.69
498.181	1129.69
498.398	1181.69
498.615	1244.69
498.832	1292.69
499.049	1334.69
499.267	1449.69
499.484	1521.69
499.701	1618.69
499.918	1754.69
500.135	1909.69
500.352	1995.69
500.569	2076.69
500.786	2076.69
501.003	1966.69
501.22	1859.69
501.437	1744.69
501.654	1609.69
501.871	1493.69
502.088	1437.69
502.305	1377.69
502.522	1302.69
502.739	1246.69
502.956	1210.69
503.172	1160.69
503.389	1130.69
503.606	1134.69
503.823	1074.69
504.04	1055.69
504.256	1062.69
504.473	1067.69
504.69	1035.69
504.907	1057.69
505.123	995.69
505.34	957.69
505.557	946.69
505.773	932.69
505.99	893.69
506.207	901.69
506.423	874.69
506.64	888.69
506.856	840.69
507.073	849.69
507.289	849.69
507.506	825.69
507.722	831.69
507.939	849.69
508.155	806.69
508.372	859.69
508.588	816.69
508.805	774.69
509.021	788.69
509.238	791.69
509.454	774.69
509.67	790.69
509.887	759.69
510.103	772.69
510.319	748.69
510.536	767.69
510.752	773.69
510.968	751.69
511.184	761.69
511.401	773.69
511.617	745.69
511.833	742.69
512.049	746.69
512.265	766.69
512.481	730.69
512.698	760.69
512.914	754.69
513.13	764.69
513.346	746.69
513.562	748.69
513.778	750.69
513.994	748.69
514.21	755.69
514.426	782.69
514.642	770.69
514.858	799.69
515.074	790.69
515.29	760.69
515.506	780.69
515.721	802.69
515.937	803.69
516.153	804.69
516.369	829.69
516.585	825.69
516.801	868.69
517.016	869.69
517.232	916.69
517.448	905.69
517.664	947.69
517.879	937.69
518.095	933.69
518.311	913.69
518.527	898.69
518.742	882.69
518.958	834.69
519.173	846.69
519.389	829.69
519.605	821.69
519.82	794.69
520.036	789.69
520.251	778.69
520.467	760.69
520.682	765.69
520.898	752.69
521.113	736.69
521.329	728.69
521.544	741.69
521.76	734.69
521.975	714.69
522.19	722.69
522.406	689.69
522.621	730.69
522.836	690.69
523.052	706.69
523.267	690.69
523.482	704.69
523.698	692.69
523.913	718.69
524.128	699.69
524.343	693.69
524.559	698.69
524.774	705.69
524.989	685.69
525.204	676.69
525.419	676.69
525.634	700.69
525.849	690.69
526.064	675.69
526.28	676.69
526.495	694.69
526.71	688.69
526.925	678.69
527.14	690.69
527.355	669.69
527.57	678.69
527.785	665.69
527.999	696.69
528.214	664.69
528.429	674.69
528.644	675.69
528.859	683.69
529.074	680.69
529.289	684.69
529.503	695.69
529.718	688.69
529.933	674.69
530.148	670.69
530.363	691.69
530.577	652.69
530.792	672.69
531.007	660.69
531.221	691.69
531.436	655.69
531.651	658.69
531.865	664.69
532.08	652.69
532.295	645.69
532.509	674.69
532.724	684.69
532.938	628.69
533.153	640.69
533.367	675.69
533.582	669.69
533.796	669.69
534.011	663.69
534.225	652.69
534.44	635.69
534.654	644.69
534.868	638.69
535.083	638.69
535.297	642.69
535.511	627.69
535.726	626.69
535.94	646.69
536.154	632.69
536.369	622.69
536.583	634.69
536.797	622.69
537.011	635.69
537.225	618.69
537.44	596.69
537.654	624.69
537.868	609.69
538.082	605.69
538.296	615.69
538.51	618.69
538.724	628.69
538.938	612.69
539.153	631.69
539.367	640.69
539.581	618.69
539.795	605.69
540.009	608.69
540.222	609.69
540.436	615.69
540.65	589.69
540.864	599.69
541.078	611.69
541.292	596.69
541.506	600.69
541.72	622.69
541.934	669.69
542.147	609.69
542.361	598.69
542.575	610.69
542.789	616.69
543.002	593.69
543.216	579.69
543.43	597.69
543.644	596.69
543.857	612.69
544.071	612.69
544.285	600.69
544.498	619.69
544.712	598.69
544.925	603.69
545.139	606.69
545.352	610.69
545.566	620.69
545.779	616.69
545.993	605.69
546.206	626.69
546.42	617.69
546.633	624.69
546.847	611.69
547.06	632.69
547.274	615.69
547.487	613.69
547.7	657.69
547.914	618.69
548.127	635.69
548.34	590.69
548.554	608.69
548.767	610.69
548.98	611.69
549.193	598.69
549.407	608.69
549.62	619.69
549.833	646.69
550.046	632.69
550.259	609.69
550.473	587.69
550.686	623.69
550.899	613.69
551.112	605.69
551.325	598.69
551.538	586.69
551.751	604.69
551.964	592.69
552.177	600.69
552.39	599.69
552.603	633.69
552.816	640.69
553.029	638.69
553.242	649.69
553.455	639.69
553.667	642.69
553.88	634.69
554.093	625.69
554.306	600.69
554.519	617.69
554.732	602.69
554.944	582.69
555.157	583.69
555.37	576.69
555.583	576.69
555.795	570.69
556.008	560.69
556.221	551.69
556.433	554.69
556.646	560.69
556.859	545.69
557.071	564.69
557.284	530.69
557.496	556.69
557.709	525.69
557.921	523.69
558.134	541.69
558.346	530.69
558.559	528.69
558.771	531.69
558.984	515.69
559.196	518.69
559.409	531.69
559.621	547.69
559.833	503.69
560.046	500.69
560.258	532.69
560.47	521.69
560.683	508.69
560.895	503.69
561.107	500.69
561.32	509.69
561.532	501.69
561.744	512.69
561.956	496.69
562.168	513.69
562.381	520.69
562.593	514.69
562.805	514.69
563.017	527.69
563.229	517.69
563.441	519.69
563.653	532.69
563.865	532.69
564.077	512.69
564.289	518.69
564.501	534.69
564.713	552.69
564.925	554.69
565.137	554.69
565.349	590.69
565.561	576.69
565.773	581.69
565.985	612.69
566.197	628.69
566.408	648.69
566.62	686.69
566.832	696.69
567.044	701.69
567.255	744.69
567.467	709.69
567.679	747.69
567.891	772.69
568.102	773.69
568.314	741.69
568.526	692.69
568.737	680.69
568.949	628.69
569.161	594.69
569.372	548.69
569.584	546.69
569.795	538.69
570.007	544.69
570.218	511.69
570.43	511.69
570.641	494.69
570.853	493.69
571.064	500.69
571.276	496.69
571.487	485.69
571.698	489.69
571.91	501.69
572.121	466.69
572.333	467.69
572.544	448.69
572.755	455.69
572.966	457.69
573.178	447.69
573.389	425.69
573.6	411.69
573.811	418.69
574.023	410.69
574.234	417.69
574.445	416.69
574.656	414.69
574.867	398.69
575.078	394.69
575.289	420.69
575.501	394.69
575.712	416.69
575.923	391.69
576.134	394.69
576.345	412.69
576.556	394.69
576.767	386.69
576.978	409.69
577.188	403.69
577.399	384.69
577.61	394.69
577.821	391.69
578.032	373.69
578.243	373.69
578.454	376.69
578.665	379.69
578.875	389.69
579.086	364.69
579.297	372.69
579.508	384.69
579.718	347.69
579.929	372.69
580.14	375.69
580.35	396.69
580.561	362.69
580.772	370.69
580.982	370.69
581.193	357.69
581.403	379.69
581.614	374.69
581.825	361.69
582.035	334.69
582.246	371.69
582.456	358.69
582.667	358.69
582.877	353.69
583.087	348.69
583.298	356.69
583.508	341.69
583.719	363.69
583.929	350.69
584.139	344.69
584.35	362.69
584.56	340.69
584.77	368.69
584.981	361.69
585.191	336.69
585.401	339.69
585.611	345.69
585.821	337.69
586.032	343.69
586.242	342.69
586.452	317.69
586.662	332.69
586.872	336.69
587.082	337.69
587.292	341.69
587.502	338.69
587.713	324.69
587.923	328.69
588.133	321.69
588.343	358.69
588.553	340.69
588.762	339.69
588.972	339.69
589.182	394.69
589.392	372.69
589.602	341.69
589.812	376.69
590.022	344.69
590.232	354.69
590.441	356.69
590.651	326.69
590.861	345.69
591.071	334.69
591.281	360.69
591.49	338.69
591.7	354.69
591.91	337.69
592.119	345.69
592.329	374.69
592.539	364.69
592.748	376.69
592.958	364.69
593.167	378.69
593.377	362.69
593.587	374.69
593.796	389.69
594.006	385.69
594.215	365.69
594.424	384.69
594.634	392.69
594.843	392.69
595.053	353.69
595.262	363.69
595.472	371.69
595.681	326.69
595.89	334.69
596.1	336.69
596.309	349.69
596.518	314.69
596.727	323.69
596.937	302.69
597.146	318.69
597.355	311.69
597.564	308.69
597.774	297.69
597.983	294.69
598.192	285.69
598.401	305.69
598.61	320.69
598.819	298.69
599.028	283.69
599.237	297.69
599.446	292.69
599.655	293.69
599.864	296.69
600.073	301.69
600.282	299.69
600.491	276.69
600.7	288.69
600.909	291.69
601.118	274.69
601.327	283.69
601.536	274.69
601.745	282.69
601.953	287.69
602.162	276.69
602.371	262.69
602.58	277.69
602.789	282.69
602.997	274.69
603.206	274.69
603.415	270.69
603.623	299.69
603.832	274.69
604.041	261.69
604.249	265.69
604.458	269.69
604.666	266.69
604.875	269.69
605.084	270.69
605.292	270.69
605.501	265.69
605.709	267.69
605.918	260.69
606.126	269.69
606.334	256.69
606.543	246.69
606.751	281.69
606.96	260.69
607.168	260.69
607.376	253.69
607.585	237.69
607.793	285.69
608.001	262.69
608.21	257.69
608.418	268.69
608.626	258.69
608.834	232.69
609.043	269.69
609.251	265.69
609.459	257.69
609.667	252.69
609.875	249.69
610.083	256.69
610.291	258.69
610.499	245.69
610.707	250.69
610.916	249.69
611.124	261.69
611.332	235.69
611.54	246.69
611.748	256.69
611.955	243.69
612.163	252.69
612.371	226.69
612.579	240.69
612.787	225.69
612.995	251.69
613.203	240.69
613.411	244.69
613.618	236.69
613.826	240.69
614.034	248.69
614.242	257.69
614.449	252.69
614.657	237.69
614.865	242.69
615.072	248.69
615.28	237.69
615.488	238.69
615.695	240.69
615.903	244.69
616.111	245.69
616.318	240.69
616.526	233.69
616.733	246.69
616.941	260.69
617.148	240.69
617.356	225.69
617.563	243.69
617.771	251.69
617.978	228.69
618.185	240.69
618.393	242.69
618.6	242.69
618.807	232.69
619.015	245.69
619.222	233.69
619.429	238.69
619.637	238.69
619.844	236.69
620.051	246.69
620.258	230.69
620.466	233.69
620.673	224.69
620.88	207.69
621.087	245.69
621.294	241.69
621.501	215.69
621.708	225.69
621.915	231.69
622.122	230.69
622.329	229.69
622.536	220.69
622.743	223.69
622.95	222.69
623.157	219.69
623.364	221.69
623.571	214.69
623.778	220.69
623.985	225.69
624.192	216.69
624.399	196.69
624.606	207.69
624.812	214.69
625.019	227.69
625.226	211.69
625.433	211.69
625.639	220.69
625.846	217.69
626.053	213.69
626.259	204.69
626.466	210.69
626.673	214.69
626.879	208.69
627.086	194.69
627.293	210.69
627.499	219.69
627.706	214.69
627.912	208.69
628.119	217.69
628.325	210.69
628.532	208.69
628.738	208.69
628.945	210.69
629.151	211.69
629.357	206.69
629.564	211.69
629.77	189.69
629.976	184.69
630.183	225.69
630.389	185.69
630.595	217.69
630.802	187.69
631.008	201.69
631.214	204.69
631.42	200.69
631.627	204.69
631.833	185.69
632.039	200.69
632.245	197.69
632.451	207.69
632.657	185.69
632.863	185.69
633.069	187.69
633.275	211.69
633.481	180.69
633.688	176.69
633.893	189.69
634.099	188.69
634.305	188.69
634.511	173.69
634.717	197.69
634.923	174.69
635.129	181.69
635.335	192.69
635.541	181.69
635.747	196.69
635.952	173.69
636.158	195.69
636.364	199.69
636.57	175.69
636.775	192.69
636.981	182.69
637.187	183.69
637.392	178.69
637.598	177.69
637.804	168.69
638.009	184.69
638.215	189.69
638.421	186.69
638.626	181.69
638.832	176.69
639.037	182.69
639.243	172.69
639.448	187.69
639.654	178.69
639.859	184.69
640.065	195.69
640.27	182.69
640.475	188.69
640.681	173.69
640.886	179.69
641.091	181.69
641.297	169.69
641.502	170.69
641.707	186.69
641.913	176.69
642.118	166.69
642.323	159.69
642.528	173.69
642.733	173.69
642.939	174.69
643.144	173.69
643.349	166.69
643.554	173.69
643.759	177.69
643.964	164.69
644.169	180.69
644.374	176.69
644.579	190.69
644.784	165.69
644.989	171.69
645.194	163.69
645.399	172.69
645.604	163.69
645.809	165.69
646.014	170.69
646.219	178.69
646.423	166.69
646.628	173.69
646.833	174.69
647.038	173.69
647.243	173.69
647.447	165.69
647.652	170.69
647.857	165.69
648.062	186.69
648.266	181.69
648.471	184.69
648.676	169.69
648.88	172.69
649.085	166.69
649.289	166.69
649.494	160.69
649.698	161.69
649.903	164.69
650.107	163.69
650.312	168.69
650.516	176.69
650.721	170.69
650.925	166.69
651.13	157.69
651.334	156.69
651.539	167.69
651.743	156.69
651.947	139.69
652.152	158.69
652.356	162.69
652.56	157.69
652.764	146.69
652.969	158.69
653.173	143.69
653.377	140.69
653.581	138.69
653.785	133.69
653.99	147.69
654.194	123.69
654.398	137.69
654.602	143.69
654.806	138.69
655.01	134.69
655.214	130.69
655.418	143.69
655.622	139.69
655.826	146.69
656.03	142.69
656.234	125.69
656.438	146.69
656.642	132.69
656.846	131.69
657.049	138.69
657.253	117.69
657.457	126.69
657.661	130.69
657.865	112.69
658.068	114.69
658.272	113.69
658.476	119.69
658.68	113.69
658.883	108.69
659.087	110.69
659.291	83.69
659.494	96.69
659.698	102.69
659.901	97.69
660.105	96.69
660.309	98.69
660.512	102.69
660.716	89.69
660.919	88.69
661.123	95.69
661.326	97.69
661.53	85.69
661.733	80.69
661.936	82.69
662.14	95.69
662.343	86.69
662.546	85.69
662.75	93.69
662.953	97.69
663.156	78.69
663.36	83.69
663.563	90.69
663.766	83.69
663.969	84.69
664.173	65.69
664.376	83.69
664.579	82.69
664.782	80.69
664.985	83.69
665.188	74.69
665.391	82.69
665.594	78.69
665.797	76.69
666	80.69
666.203	68.69
666.406	65.69
666.609	91.69
666.812	78.69
667.015	97.69
667.218	82.69
667.421	93.69
667.624	86.69
667.827	75.69
668.03	75.69
668.232	80.69
668.435	73.69
668.638	90.69
668.841	95.69
669.043	86.69
669.246	70.69
669.449	88.69
669.651	84.69
669.854	87.69
670.057	86.69
670.259	85.69
670.462	68.69
670.665	75.69
670.867	81.69
671.07	67.69
671.272	76.69
671.475	73.69
671.677	71.69
671.88	89.69
672.082	88.69
672.284	83.69
672.487	75.69
672.689	67.69
672.892	66.69
