Data from NiCl2@0.0625M.TitratingCurve.Agarose3%dH2O.NegLispCup.LampEnergy10.LIBS07252019_HRD10591_18-34-01-577.txt Node
Date: Thu Jul 25 18:34:01 EDT 2019
User: cochatt
Spectrometer: HR+D1059
Trigger mode: 1
Integration Time (sec): 1.000000E-1
Scans to average: 1
Electric dark correction enabled: true
Nonlinearity correction enabled: false
Boxcar width: 0
XAxis mode: Wavelengths
Number of Pixels in Spectrum: 2048
>>>>>Begin Spectral Data<<<<<
223.165	-18.94
223.4	-18.94
223.635	-18.94
223.869	-19.94
224.104	-13.94
224.338	-14.94
224.573	-21.94
224.808	-6.94
225.042	-12.94
225.277	-15.94
225.511	-10.94
225.746	9.06
225.98	6.06
226.215	11.06
226.449	13.06
226.683	25.06
226.918	33.06
227.152	39.06
227.387	28.06
227.621	37.06
227.856	41.06
228.09	30.06
228.324	41.06
228.559	47.06
228.793	82.06
229.027	147.06
229.262	180.06
229.496	154.06
229.73	175.06
229.964	179.06
230.199	157.06
230.433	161.06
230.667	192.06
230.901	202.06
231.136	185.06
231.37	176.06
231.604	192.06
231.838	209.06
232.072	209.06
232.306	216.06
232.541	215.06
232.775	200.06
233.009	206.06
233.243	196.06
233.477	203.06
233.711	213.06
233.945	215.06
234.179	204.06
234.413	209.06
234.647	198.06
234.881	220.06
235.115	220.06
235.349	215.06
235.583	240.06
235.817	228.06
236.051	217.06
236.285	234.06
236.519	212.06
236.753	239.06
236.987	244.06
237.221	246.06
237.455	230.06
237.689	248.06
237.922	232.06
238.156	267.06
238.39	259.06
238.624	261.06
238.858	253.06
239.091	264.06
239.325	266.06
239.559	266.06
239.793	286.06
240.027	267.06
240.26	285.06
240.494	283.06
240.728	275.06
240.961	295.06
241.195	286.06
241.429	296.06
241.662	281.06
241.896	294.06
242.13	310.06
242.363	318.06
242.597	309.06
242.83	335.06
243.064	313.06
243.298	313.06
243.531	343.06
243.765	342.06
243.998	336.06
244.232	351.06
244.465	319.06
244.699	349.06
244.932	354.06
245.166	350.06
245.399	369.06
245.633	357.06
245.866	354.06
246.099	347.06
246.333	354.06
246.566	365.06
246.8	377.06
247.033	376.06
247.266	375.06
247.5	390.06
247.733	380.06
247.966	370.06
248.2	391.06
248.433	397.06
248.666	396.06
248.899	398.06
249.133	389.06
249.366	408.06
249.599	400.06
249.832	403.06
250.066	425.06
250.299	422.06
250.532	432.06
250.765	426.06
250.998	423.06
251.231	438.06
251.465	446.06
251.698	446.06
251.931	437.06
252.164	451.06
252.397	451.06
252.63	471.06
252.863	431.06
253.096	449.06
253.329	488.06
253.562	464.06
253.795	455.06
254.028	485.06
254.261	482.06
254.494	465.06
254.727	464.06
254.96	488.06
255.193	477.06
255.426	488.06
255.659	476.06
255.892	504.06
256.124	500.06
256.357	494.06
256.59	512.06
256.823	493.06
257.056	512.06
257.289	478.06
257.521	503.06
257.754	519.06
257.987	532.06
258.22	526.06
258.452	516.06
258.685	522.06
258.918	539.06
259.151	525.06
259.383	524.06
259.616	524.06
259.849	514.06
260.081	543.06
260.314	534.06
260.547	556.06
260.779	563.06
261.012	541.06
261.244	552.06
261.477	554.06
261.71	559.06
261.942	580.06
262.175	559.06
262.407	577.06
262.64	559.06
262.872	583.06
263.105	578.06
263.337	593.06
263.57	585.06
263.802	593.06
264.035	612.06
264.267	582.06
264.499	590.06
264.732	595.06
264.964	607.06
265.197	609.06
265.429	589.06
265.661	609.06
265.894	591.06
266.126	618.06
266.358	617.06
266.591	618.06
266.823	637.06
267.055	619.06
267.287	630.06
267.52	625.06
267.752	645.06
267.984	645.06
268.216	647.06
268.448	649.06
268.681	629.06
268.913	648.06
269.145	655.06
269.377	663.06
269.609	676.06
269.841	655.06
270.073	690.06
270.306	681.06
270.538	671.06
270.77	691.06
271.002	693.06
271.234	679.06
271.466	685.06
271.698	692.06
271.93	703.06
272.162	693.06
272.394	690.06
272.626	712.06
272.858	681.06
273.09	694.06
273.322	685.06
273.553	705.06
273.785	721.06
274.017	698.06
274.249	726.06
274.481	723.06
274.713	709.06
274.945	745.06
275.176	739.06
275.408	742.06
275.64	737.06
275.872	751.06
276.104	765.06
276.335	739.06
276.567	767.06
276.799	757.06
277.031	753.06
277.262	770.06
277.494	771.06
277.726	773.06
277.957	813.06
278.189	772.06
278.421	775.06
278.652	769.06
278.884	794.06
279.115	775.06
279.347	808.06
279.579	781.06
279.81	809.06
280.042	813.06
280.273	821.06
280.505	794.06
280.736	793.06
280.968	834.06
281.199	801.06
281.431	804.06
281.662	847.06
281.894	802.06
282.125	849.06
282.356	857.06
282.588	817.06
282.819	825.06
283.051	854.06
283.282	864.06
283.513	852.06
283.745	897.06
283.976	834.06
284.207	835.06
284.439	874.06
284.67	872.06
284.901	883.06
285.132	866.06
285.364	886.06
285.595	888.06
285.826	871.06
286.057	898.06
286.288	903.06
286.52	889.06
286.751	911.06
286.982	887.06
287.213	896.06
287.444	903.06
287.675	903.06
287.906	919.06
288.138	883.06
288.369	913.06
288.6	918.06
288.831	921.06
289.062	945.06
289.293	927.06
289.524	907.06
289.755	940.06
289.986	931.06
290.217	901.06
290.448	928.06
290.679	930.06
290.91	932.06
291.141	960.06
291.371	950.06
291.602	934.06
291.833	923.06
292.064	962.06
292.295	975.06
292.526	918.06
292.757	944.06
292.987	940.06
293.218	955.06
293.449	981.06
293.68	950.06
293.91	913.06
294.141	941.06
294.372	961.06
294.603	950.06
294.833	953.06
295.064	983.06
295.295	992.06
295.525	960.06
295.756	963.06
295.987	973.06
296.217	1015.06
296.448	982.06
296.679	997.06
296.909	987.06
297.14	987.06
297.37	990.06
297.601	988.06
297.831	985.06
298.062	1009.06
298.292	1024.06
298.523	1034.06
298.753	1063.06
298.984	1044.06
299.214	1034.06
299.445	1002.06
299.675	1014.06
299.905	1023.06
300.136	1017.06
300.366	1025.06
300.597	1055.06
300.827	1064.06
301.057	1081.06
301.288	1075.06
301.518	1070.06
301.748	1080.06
301.979	1109.06
302.209	1054.06
302.439	1066.06
302.669	1095.06
302.9	1089.06
303.13	1076.06
303.36	1087.06
303.59	1081.06
303.82	1086.06
304.051	1099.06
304.281	1090.06
304.511	1074.06
304.741	1087.06
304.971	1091.06
305.201	1103.06
305.431	1084.06
305.661	1101.06
305.891	1074.06
306.121	1095.06
306.352	1039.06
306.582	1061.06
306.812	1065.06
307.042	1048.06
307.272	1078.06
307.502	1070.06
307.731	1069.06
307.961	1088.06
308.191	1093.06
308.421	1054.06
308.651	1065.06
308.881	1069.06
309.111	1079.06
309.341	1061.06
309.571	1073.06
309.8	1061.06
310.03	1065.06
310.26	1059.06
310.49	1073.06
310.72	1079.06
310.949	1070.06
311.179	1098.06
311.409	1086.06
311.639	1094.06
311.868	1111.06
312.098	1098.06
312.328	1124.06
312.557	1133.06
312.787	1140.06
313.017	1146.06
313.246	1125.06
313.476	1135.06
313.706	1133.06
313.935	1128.06
314.165	1155.06
314.394	1181.06
314.624	1173.06
314.853	1146.06
315.083	1140.06
315.312	1146.06
315.542	1175.06
315.771	1176.06
316.001	1167.06
316.23	1125.06
316.46	1141.06
316.689	1150.06
316.919	1133.06
317.148	1133.06
317.377	1124.06
317.607	1172.06
317.836	1125.06
318.065	1119.06
318.295	1126.06
318.524	1173.06
318.753	1122.06
318.983	1117.06
319.212	1130.06
319.441	1121.06
319.67	1167.06
319.9	1145.06
320.129	1149.06
320.358	1153.06
320.587	1152.06
320.816	1121.06
321.046	1163.06
321.275	1161.06
321.504	1148.06
321.733	1151.06
321.962	1141.06
322.191	1189.06
322.42	1173.06
322.649	1147.06
322.878	1156.06
323.108	1184.06
323.337	1189.06
323.566	1189.06
323.795	1201.06
324.024	1176.06
324.253	1188.06
324.482	1181.06
324.71	1195.06
324.939	1216.06
325.168	1199.06
325.397	1200.06
325.626	1215.06
325.855	1253.06
326.084	1214.06
326.313	1251.06
326.542	1218.06
326.77	1271.06
326.999	1255.06
327.228	1256.06
327.457	1224.06
327.686	1289.06
327.914	1249.06
328.143	1235.06
328.372	1239.06
328.6	1261.06
328.829	1237.06
329.058	1265.06
329.287	1263.06
329.515	1279.06
329.744	1248.06
329.972	1301.06
330.201	1274.06
330.43	1309.06
330.658	1327.06
330.887	1312.06
331.115	1321.06
331.344	1302.06
331.572	1285.06
331.801	1373.06
332.03	1369.06
332.258	1368.06
332.486	1396.06
332.715	1448.06
332.943	1506.06
333.172	1530.06
333.4	1553.06
333.629	1609.06
333.857	1650.06
334.085	1595.06
334.314	1623.06
334.542	1591.06
334.771	1606.06
334.999	1542.06
335.227	1555.06
335.455	1555.06
335.684	1535.06
335.912	1569.06
336.14	1502.06
336.369	1530.06
336.597	1522.06
336.825	1454.06
337.053	1478.06
337.281	1465.06
337.51	1422.06
337.738	1426.06
337.966	1387.06
338.194	1394.06
338.422	1401.06
338.65	1383.06
338.878	1366.06
339.106	1373.06
339.334	1366.06
339.562	1349.06
339.79	1361.06
340.018	1337.06
340.246	1323.06
340.474	1327.06
340.702	1311.06
340.93	1318.06
341.158	1327.06
341.386	1326.06
341.614	1342.06
341.842	1323.06
342.07	1331.06
342.298	1322.06
342.526	1313.06
342.754	1294.06
342.981	1314.06
343.209	1322.06
343.437	1418.06
343.665	1437.06
343.893	1497.06
344.12	1603.06
344.348	1553.06
344.576	1479.06
344.804	1453.06
345.031	1407.06
345.259	1356.06
345.487	1317.06
345.714	1325.06
345.942	1279.06
346.17	1318.06
346.397	1291.06
346.625	1262.06
346.853	1269.06
347.08	1258.06
347.308	1290.06
347.535	1293.06
347.763	1291.06
347.99	1246.06
348.218	1275.06
348.445	1251.06
348.673	1253.06
348.9	1277.06
349.128	1242.06
349.355	1246.06
349.583	1254.06
349.81	1240.06
350.037	1237.06
350.265	1262.06
350.492	1207.06
350.72	1224.06
350.947	1213.06
351.174	1246.06
351.402	1213.06
351.629	1223.06
351.856	1203.06
352.083	1181.06
352.311	1241.06
352.538	1227.06
352.765	1221.06
352.992	1209.06
353.22	1199.06
353.447	1192.06
353.674	1189.06
353.901	1195.06
354.128	1205.06
354.355	1197.06
354.583	1214.06
354.81	1209.06
355.037	1247.06
355.264	1246.06
355.491	1229.06
355.718	1254.06
355.945	1224.06
356.172	1223.06
356.399	1224.06
356.626	1195.06
356.853	1232.06
357.08	1240.06
357.307	1242.06
357.534	1203.06
357.761	1188.06
357.988	1229.06
358.215	1190.06
358.441	1239.06
358.668	1202.06
358.895	1216.06
359.122	1199.06
359.349	1239.06
359.576	1224.06
359.802	1198.06
360.029	1210.06
360.256	1253.06
360.483	1237.06
360.709	1199.06
360.936	1225.06
361.163	1213.06
361.39	1231.06
361.616	1237.06
361.843	1184.06
362.07	1233.06
362.296	1232.06
362.523	1226.06
362.749	1217.06
362.976	1206.06
363.203	1222.06
363.429	1225.06
363.656	1234.06
363.882	1235.06
364.109	1235.06
364.335	1215.06
364.562	1221.06
364.788	1230.06
365.015	1257.06
365.241	1195.06
365.468	1229.06
365.694	1227.06
365.92	1235.06
366.147	1223.06
366.373	1231.06
366.599	1230.06
366.826	1241.06
367.052	1226.06
367.278	1210.06
367.505	1226.06
367.731	1209.06
367.957	1218.06
368.184	1240.06
368.41	1248.06
368.636	1247.06
368.862	1267.06
369.089	1254.06
369.315	1261.06
369.541	1287.06
369.767	1312.06
369.993	1254.06
370.219	1238.06
370.445	1292.06
370.672	1262.06
370.898	1309.06
371.124	1320.06
371.35	1295.06
371.576	1321.06
371.802	1354.06
372.028	1321.06
372.254	1310.06
372.48	1321.06
372.706	1357.06
372.932	1376.06
373.158	1346.06
373.384	1343.06
373.61	1338.06
373.835	1328.06
374.061	1322.06
374.287	1333.06
374.513	1378.06
374.739	1419.06
374.965	1457.06
375.191	1455.06
375.416	1424.06
375.642	1409.06
375.868	1391.06
376.094	1389.06
376.319	1348.06
376.545	1311.06
376.771	1325.06
376.997	1320.06
377.222	1350.06
377.448	1331.06
377.674	1332.06
377.899	1301.06
378.125	1322.06
378.35	1315.06
378.576	1315.06
378.802	1317.06
379.027	1316.06
379.253	1304.06
379.478	1286.06
379.704	1337.06
379.929	1348.06
380.155	1274.06
380.38	1309.06
380.606	1317.06
380.831	1321.06
381.057	1306.06
381.282	1278.06
381.507	1333.06
381.733	1347.06
381.958	1353.06
382.184	1370.06
382.409	1376.06
382.634	1410.06
382.86	1407.06
383.085	1381.06
383.31	1445.06
383.535	1446.06
383.761	1437.06
383.986	1439.06
384.211	1447.06
384.436	1494.06
384.662	1514.06
384.887	1589.06
385.112	1506.06
385.337	1585.06
385.562	1578.06
385.787	1563.06
386.013	1609.06
386.238	1572.06
386.463	1619.06
386.688	1604.06
386.913	1572.06
387.138	1587.06
387.363	1610.06
387.588	1552.06
387.813	1570.06
388.038	1573.06
388.263	1589.06
388.488	1578.06
388.713	1565.06
388.938	1545.06
389.163	1569.06
389.387	1598.06
389.612	1578.06
389.837	1564.06
390.062	1578.06
390.287	1592.06
390.512	1585.06
390.736	1601.06
390.961	1602.06
391.186	1598.06
391.411	1679.06
391.636	1709.06
391.86	1757.06
392.085	1735.06
392.31	1745.06
392.534	1738.06
392.759	1687.06
392.984	1685.06
393.208	1681.06
393.433	1654.06
393.658	1679.06
393.882	1625.06
394.107	1671.06
394.331	1639.06
394.556	1683.06
394.78	1696.06
395.005	1711.06
395.229	1698.06
395.454	1759.06
395.678	1751.06
395.903	1764.06
396.127	1744.06
396.352	1734.06
396.576	1697.06
396.801	1696.06
397.025	1730.06
397.249	1747.06
397.474	1768.06
397.698	1802.06
397.922	1799.06
398.147	1786.06
398.371	1823.06
398.595	1841.06
398.82	1966.06
399.044	2065.06
399.268	2229.06
399.492	2489.06
399.717	2673.06
399.941	2743.06
400.165	2557.06
400.389	2360.06
400.613	2221.06
400.837	2091.06
401.062	2019.06
401.286	1980.06
401.51	2009.06
401.734	1989.06
401.958	1990.06
402.182	2007.06
402.406	1980.06
402.63	2018.06
402.854	2009.06
403.078	2056.06
403.302	2033.06
403.526	2078.06
403.75	2120.06
403.974	2129.06
404.198	2154.06
404.422	2115.06
404.645	2110.06
404.869	2146.06
405.093	2134.06
405.317	2097.06
405.541	2080.06
405.765	2107.06
405.988	2075.06
406.212	2151.06
406.436	2113.06
406.66	2159.06
406.883	2207.06
407.107	2334.06
407.331	2414.06
407.555	2472.06
407.778	2444.06
408.002	2435.06
408.226	2374.06
408.449	2329.06
408.673	2261.06
408.896	2250.06
409.12	2229.06
409.344	2197.06
409.567	2203.06
409.791	2160.06
410.014	2193.06
410.238	2142.06
410.461	2183.06
410.685	2116.06
410.908	2141.06
411.132	2129.06
411.355	2071.06
411.578	2074.06
411.802	2065.06
412.025	2042.06
412.249	2086.06
412.472	2059.06
412.695	2026.06
412.919	1955.06
413.142	1964.06
413.365	1997.06
413.589	2019.06
413.812	1990.06
414.035	1923.06
414.258	1943.06
414.482	1965.06
414.705	1987.06
414.928	1978.06
415.151	1978.06
415.374	1983.06
415.597	1989.06
415.821	1873.06
416.044	1871.06
416.267	1879.06
416.49	1893.06
416.713	1876.06
416.936	1913.06
417.159	1900.06
417.382	1853.06
417.605	1877.06
417.828	1865.06
418.051	1911.06
418.274	1899.06
418.497	1910.06
418.72	1915.06
418.943	1926.06
419.166	2043.06
419.389	2139.06
419.611	2147.06
419.834	2053.06
420.057	1987.06
420.28	1974.06
420.503	1842.06
420.726	1905.06
420.948	1869.06
421.171	1873.06
421.394	1877.06
421.617	1864.06
421.839	1875.06
422.062	1873.06
422.285	1820.06
422.507	1906.06
422.73	1885.06
422.953	1917.06
423.175	1945.06
423.398	1996.06
423.621	1922.06
423.843	1919.06
424.066	1952.06
424.288	1944.06
424.511	1917.06
424.733	1868.06
424.956	1889.06
425.178	1849.06
425.401	1865.06
425.623	1890.06
425.846	1860.06
426.068	1857.06
426.291	1822.06
426.513	1856.06
426.735	1774.06
426.958	1825.06
427.18	1750.06
427.402	1738.06
427.625	1792.06
427.847	1732.06
428.069	1711.06
428.292	1755.06
428.514	1715.06
428.736	1736.06
428.958	1760.06
429.181	1727.06
429.403	1687.06
429.625	1669.06
429.847	1658.06
430.069	1649.06
430.292	1669.06
430.514	1657.06
430.736	1676.06
430.958	1725.06
431.18	1674.06
431.402	1686.06
431.624	1700.06
431.846	1731.06
432.068	1730.06
432.29	1790.06
432.512	1731.06
432.734	1709.06
432.956	1738.06
433.178	1726.06
433.4	1785.06
433.622	1745.06
433.844	1779.06
434.066	1810.06
434.287	1826.06
434.509	1842.06
434.731	1861.06
434.953	1915.06
435.175	1933.06
435.397	1958.06
435.618	1834.06
435.84	1789.06
436.062	1745.06
436.284	1729.06
436.505	1704.06
436.727	1732.06
436.949	1741.06
437.17	1724.06
437.392	1677.06
437.614	1637.06
437.835	1627.06
438.057	1646.06
438.278	1625.06
438.5	1625.06
438.721	1613.06
438.943	1667.06
439.165	1659.06
439.386	1665.06
439.608	1661.06
439.829	1657.06
440.05	1658.06
440.272	1692.06
440.493	1722.06
440.715	1723.06
440.936	1768.06
441.158	1802.06
441.379	1804.06
441.6	1830.06
441.822	1891.06
442.043	1869.06
442.264	1865.06
442.486	1789.06
442.707	1856.06
442.928	1834.06
443.149	1797.06
443.371	1825.06
443.592	1871.06
443.813	1870.06
444.034	1881.06
444.255	1939.06
444.476	1987.06
444.698	2080.06
444.919	2117.06
445.14	2216.06
445.361	2049.06
445.582	1929.06
445.803	1843.06
446.024	1749.06
446.245	1740.06
446.466	1752.06
446.687	1696.06
446.908	1702.06
447.129	1669.06
447.35	1658.06
447.571	1619.06
447.792	1575.06
448.013	1601.06
448.234	1578.06
448.455	1558.06
448.675	1533.06
448.896	1561.06
449.117	1539.06
449.338	1523.06
449.559	1543.06
449.779	1525.06
450	1522.06
450.221	1515.06
450.442	1513.06
450.662	1547.06
450.883	1539.06
451.104	1538.06
451.324	1541.06
451.545	1547.06
451.766	1525.06
451.986	1515.06
452.207	1512.06
452.428	1504.06
452.648	1479.06
452.869	1481.06
453.089	1434.06
453.31	1477.06
453.53	1449.06
453.751	1467.06
453.971	1471.06
454.192	1418.06
454.412	1444.06
454.633	1437.06
454.853	1456.06
455.073	1447.06
455.294	1449.06
455.514	1422.06
455.734	1425.06
455.955	1428.06
456.175	1385.06
456.395	1468.06
456.616	1411.06
456.836	1453.06
457.056	1413.06
457.276	1405.06
457.497	1458.06
457.717	1432.06
457.937	1482.06
458.157	1493.06
458.377	1481.06
458.598	1528.06
458.818	1563.06
459.038	1607.06
459.258	1629.06
459.478	1679.06
459.698	1750.06
459.918	1769.06
460.138	1804.06
460.358	1878.06
460.578	1924.06
460.798	1939.06
461.018	1973.06
461.238	1906.06
461.458	1947.06
461.678	1925.06
461.898	1974.06
462.118	1978.06
462.338	2085.06
462.558	2079.06
462.777	2206.06
462.997	2304.06
463.217	2401.06
463.437	2467.06
463.657	2278.06
463.876	2190.06
464.096	2291.06
464.316	2233.06
464.536	2243.06
464.755	2181.06
464.975	2109.06
465.195	2001.06
465.414	1885.06
465.634	1800.06
465.854	1763.06
466.073	1712.06
466.293	1697.06
466.512	1641.06
466.732	1585.06
466.951	1645.06
467.171	1614.06
467.391	1608.06
467.61	1609.06
467.829	1626.06
468.049	1598.06
468.268	1577.06
468.488	1555.06
468.707	1521.06
468.927	1547.06
469.146	1517.06
469.365	1545.06
469.585	1576.06
469.804	1598.06
470.023	1613.06
470.243	1627.06
470.462	1625.06
470.681	1634.06
470.901	1637.06
471.12	1646.06
471.339	1608.06
471.558	1606.06
471.777	1617.06
471.997	1545.06
472.216	1574.06
472.435	1558.06
472.654	1534.06
472.873	1536.06
473.092	1534.06
473.311	1548.06
473.53	1544.06
473.749	1573.06
473.968	1530.06
474.187	1518.06
474.406	1511.06
474.625	1561.06
474.844	1555.06
475.063	1558.06
475.282	1541.06
475.501	1570.06
475.72	1532.06
475.939	1570.06
476.158	1607.06
476.377	1641.06
476.596	1634.06
476.814	1643.06
477.033	1647.06
477.252	1693.06
477.471	1743.06
477.69	1712.06
477.908	1733.06
478.127	1827.06
478.346	1793.06
478.564	1875.06
478.783	1866.06
479.002	1902.06
479.22	1950.06
479.439	1946.06
479.658	1967.06
479.876	1921.06
480.095	1967.06
480.313	1957.06
480.532	2016.06
480.751	2068.06
480.969	2007.06
481.188	1973.06
481.406	1954.06
481.624	1921.06
481.843	1885.06
482.061	1901.06
482.28	1907.06
482.498	1903.06
482.717	1904.06
482.935	1918.06
483.153	1861.06
483.372	1861.06
483.59	1918.06
483.808	1925.06
484.027	1917.06
484.245	1959.06
484.463	1974.06
484.681	2029.06
484.9	2035.06
485.118	2038.06
485.336	2031.06
485.554	2104.06
485.772	2094.06
485.99	2081.06
486.209	2091.06
486.427	2039.06
486.645	2041.06
486.863	2083.06
487.081	2058.06
487.299	2102.06
487.517	2045.06
487.735	2071.06
487.953	2031.06
488.171	2038.06
488.389	1986.06
488.607	1998.06
488.825	2005.06
489.043	1945.06
489.261	1939.06
489.479	1990.06
489.696	1935.06
489.914	1926.06
490.132	1918.06
490.35	1953.06
490.568	1960.06
490.786	1937.06
491.003	1968.06
491.221	1928.06
491.439	1944.06
491.657	1937.06
491.874	1959.06
492.092	1949.06
492.31	1928.06
492.527	1941.06
492.745	1922.06
492.963	1944.06
493.18	1932.06
493.398	1937.06
493.615	1988.06
493.833	2007.06
494.05	1922.06
494.268	1960.06
494.485	2014.06
494.703	2011.06
494.92	2042.06
495.138	1989.06
495.355	1958.06
495.573	1981.06
495.79	2068.06
496.008	2055.06
496.225	1982.06
496.442	2024.06
496.66	2060.06
496.877	2120.06
497.094	2149.06
497.312	2174.06
497.529	2217.06
497.746	2229.06
497.963	2305.06
498.181	2399.06
498.398	2433.06
498.615	2571.06
498.832	2794.06
499.049	2924.06
499.267	3115.06
499.484	3379.06
499.701	3672.06
499.918	4003.06
500.135	4401.06
500.352	4801.06
500.569	5006.06
500.786	4893.06
501.003	4760.06
501.22	4348.06
501.437	3949.06
501.654	3602.06
501.871	3334.06
502.088	3064.06
502.305	2868.06
502.522	2742.06
502.739	2660.06
502.956	2521.06
503.172	2453.06
503.389	2312.06
503.606	2248.06
503.823	2206.06
504.04	2246.06
504.256	2222.06
504.473	2265.06
504.69	2211.06
504.907	2185.06
505.123	2087.06
505.34	2028.06
505.557	1935.06
505.773	1917.06
505.99	1813.06
506.207	1832.06
506.423	1791.06
506.64	1780.06
506.856	1757.06
507.073	1731.06
507.289	1696.06
507.506	1710.06
507.722	1695.06
507.939	1672.06
508.155	1689.06
508.372	1609.06
508.588	1603.06
508.805	1605.06
509.021	1607.06
509.238	1653.06
509.454	1601.06
509.67	1598.06
509.887	1604.06
510.103	1553.06
510.319	1555.06
510.536	1536.06
510.752	1521.06
510.968	1563.06
511.184	1554.06
511.401	1566.06
511.617	1549.06
511.833	1585.06
512.049	1517.06
512.265	1508.06
512.481	1519.06
512.698	1545.06
512.914	1542.06
513.13	1537.06
513.346	1528.06
513.562	1539.06
513.778	1561.06
513.994	1563.06
514.21	1532.06
514.426	1568.06
514.642	1557.06
514.858	1576.06
515.074	1590.06
515.29	1552.06
515.506	1593.06
515.721	1653.06
515.937	1646.06
516.153	1663.06
516.369	1697.06
516.585	1731.06
516.801	1793.06
517.016	1855.06
517.232	1903.06
517.448	1984.06
517.664	2031.06
517.879	2033.06
518.095	2032.06
518.311	2023.06
518.527	1945.06
518.742	1893.06
518.958	1802.06
519.173	1767.06
519.389	1698.06
519.605	1676.06
519.82	1638.06
520.036	1598.06
520.251	1576.06
520.467	1559.06
520.682	1554.06
520.898	1555.06
521.113	1481.06
521.329	1485.06
521.544	1513.06
521.76	1471.06
521.975	1481.06
522.19	1437.06
522.406	1437.06
522.621	1466.06
522.836	1429.06
523.052	1411.06
523.267	1415.06
523.482	1418.06
523.698	1407.06
523.913	1406.06
524.128	1385.06
524.343	1369.06
524.559	1398.06
524.774	1391.06
524.989	1397.06
525.204	1377.06
525.419	1370.06
525.634	1372.06
525.849	1379.06
526.064	1366.06
526.28	1332.06
526.495	1353.06
526.71	1355.06
526.925	1336.06
527.14	1355.06
527.355	1356.06
527.57	1363.06
527.785	1398.06
527.999	1345.06
528.214	1363.06
528.429	1360.06
528.644	1388.06
528.859	1339.06
529.074	1393.06
529.289	1391.06
529.503	1337.06
529.718	1390.06
529.933	1369.06
530.148	1315.06
530.363	1336.06
530.577	1342.06
530.792	1326.06
531.007	1326.06
531.221	1346.06
531.436	1365.06
531.651	1354.06
531.865	1315.06
532.08	1347.06
532.295	1345.06
532.509	1361.06
532.724	1338.06
532.938	1340.06
533.153	1370.06
533.367	1341.06
533.582	1359.06
533.796	1332.06
534.011	1320.06
534.225	1311.06
534.44	1296.06
534.654	1327.06
534.868	1338.06
535.083	1299.06
535.297	1314.06
535.511	1308.06
535.726	1255.06
535.94	1297.06
536.154	1306.06
536.369	1290.06
536.583	1247.06
536.797	1245.06
537.011	1229.06
537.225	1236.06
537.44	1251.06
537.654	1255.06
537.868	1239.06
538.082	1213.06
538.296	1224.06
538.51	1214.06
538.724	1222.06
538.938	1227.06
539.153	1214.06
539.367	1192.06
539.581	1211.06
539.795	1218.06
540.009	1205.06
540.222	1186.06
540.436	1205.06
540.65	1172.06
540.864	1163.06
541.078	1176.06
541.292	1185.06
541.506	1183.06
541.72	1185.06
541.934	1193.06
542.147	1214.06
542.361	1183.06
542.575	1174.06
542.789	1187.06
543.002	1158.06
543.216	1153.06
543.43	1163.06
543.644	1129.06
543.857	1165.06
544.071	1146.06
544.285	1166.06
544.498	1181.06
544.712	1170.06
544.925	1195.06
545.139	1185.06
545.352	1216.06
545.566	1205.06
545.779	1178.06
545.993	1181.06
546.206	1173.06
546.42	1214.06
546.633	1213.06
546.847	1230.06
547.06	1204.06
547.274	1174.06
547.487	1177.06
547.7	1191.06
547.914	1183.06
548.127	1203.06
548.34	1218.06
548.554	1202.06
548.767	1194.06
548.98	1224.06
549.193	1194.06
549.407	1203.06
549.62	1241.06
549.833	1215.06
550.046	1211.06
550.259	1213.06
550.473	1197.06
550.686	1202.06
550.899	1206.06
551.112	1191.06
551.325	1186.06
551.538	1199.06
551.751	1179.06
551.964	1166.06
552.177	1211.06
552.39	1181.06
552.603	1231.06
552.816	1280.06
553.029	1286.06
553.242	1259.06
553.455	1275.06
553.667	1297.06
553.88	1285.06
554.093	1258.06
554.306	1232.06
554.519	1172.06
554.732	1179.06
554.944	1140.06
555.157	1146.06
555.37	1138.06
555.583	1118.06
555.795	1107.06
556.008	1086.06
556.221	1061.06
556.433	1065.06
556.646	1062.06
556.859	1021.06
557.071	1047.06
557.284	1045.06
557.496	1031.06
557.709	1058.06
557.921	1026.06
558.134	978.06
558.346	1015.06
558.559	1030.06
558.771	1008.06
558.984	998.06
559.196	1009.06
559.409	996.06
559.621	1016.06
559.833	979.06
560.046	994.06
560.258	981.06
560.47	989.06
560.683	981.06
560.895	990.06
561.107	981.06
561.32	963.06
561.532	995.06
561.744	967.06
561.956	1010.06
562.168	981.06
562.381	1000.06
562.593	994.06
562.805	993.06
563.017	1001.06
563.229	993.06
563.441	998.06
563.653	1010.06
563.865	1043.06
564.077	1023.06
564.289	1013.06
564.501	1075.06
564.713	1068.06
564.925	1088.06
565.137	1116.06
565.349	1095.06
565.561	1122.06
565.773	1205.06
565.985	1250.06
566.197	1266.06
566.408	1354.06
566.62	1404.06
566.832	1521.06
567.044	1553.06
567.255	1561.06
567.467	1591.06
567.679	1625.06
567.891	1700.06
568.102	1725.06
568.314	1642.06
568.526	1547.06
568.737	1429.06
568.949	1329.06
569.161	1224.06
569.372	1152.06
569.584	1111.06
569.795	1066.06
570.007	1065.06
570.218	1052.06
570.43	1035.06
570.641	974.06
570.853	991.06
571.064	1010.06
571.276	990.06
571.487	985.06
571.698	931.06
571.91	912.06
572.121	923.06
572.333	874.06
572.544	867.06
572.755	854.06
572.966	843.06
573.178	842.06
573.389	817.06
573.6	815.06
573.811	813.06
574.023	801.06
574.234	815.06
574.445	814.06
574.656	817.06
574.867	797.06
575.078	802.06
575.289	807.06
575.501	774.06
575.712	754.06
575.923	753.06
576.134	757.06
576.345	769.06
576.556	749.06
576.767	742.06
576.978	771.06
577.188	749.06
577.399	738.06
577.61	731.06
577.821	719.06
578.032	737.06
578.243	723.06
578.454	702.06
578.665	714.06
578.875	714.06
579.086	693.06
579.297	707.06
579.508	688.06
579.718	681.06
579.929	697.06
580.14	666.06
580.35	680.06
580.561	685.06
580.772	681.06
580.982	699.06
581.193	679.06
581.403	701.06
581.614	682.06
581.825	673.06
582.035	672.06
582.246	662.06
582.456	672.06
582.667	681.06
582.877	659.06
583.087	669.06
583.298	675.06
583.508	656.06
583.719	677.06
583.929	667.06
584.139	648.06
584.35	660.06
584.56	671.06
584.77	659.06
584.981	654.06
585.191	635.06
585.401	624.06
585.611	657.06
585.821	633.06
586.032	650.06
586.242	653.06
586.452	637.06
586.662	637.06
586.872	642.06
587.082	634.06
587.292	631.06
587.502	666.06
587.713	631.06
587.923	647.06
588.133	646.06
588.343	639.06
588.553	618.06
588.762	624.06
588.972	637.06
589.182	645.06
589.392	631.06
589.602	636.06
589.812	641.06
590.022	647.06
590.232	629.06
590.441	629.06
590.651	654.06
590.861	637.06
591.071	650.06
591.281	655.06
591.49	667.06
591.7	685.06
591.91	677.06
592.119	655.06
592.329	677.06
592.539	704.06
592.748	729.06
592.958	749.06
593.167	724.06
593.377	765.06
593.587	785.06
593.796	775.06
594.006	783.06
594.215	744.06
594.424	774.06
594.634	731.06
594.843	729.06
595.053	722.06
595.262	722.06
595.472	683.06
595.681	649.06
595.89	626.06
596.1	631.06
596.309	627.06
596.518	622.06
596.727	604.06
596.937	607.06
597.146	585.06
597.355	610.06
597.564	585.06
597.774	591.06
597.983	569.06
598.192	560.06
598.401	544.06
598.61	545.06
598.819	537.06
599.028	534.06
599.237	535.06
599.446	527.06
599.655	528.06
599.864	520.06
600.073	534.06
600.282	535.06
600.491	525.06
600.7	515.06
600.909	530.06
601.118	515.06
601.327	535.06
601.536	521.06
601.745	520.06
601.953	506.06
602.162	499.06
602.371	506.06
602.58	495.06
602.789	487.06
602.997	486.06
603.206	496.06
603.415	486.06
603.623	487.06
603.832	513.06
604.041	485.06
604.249	490.06
604.458	495.06
604.666	475.06
604.875	497.06
605.084	514.06
605.292	508.06
605.501	479.06
605.709	488.06
605.918	488.06
606.126	482.06
606.334	465.06
606.543	476.06
606.751	481.06
606.96	468.06
607.168	475.06
607.376	461.06
607.585	452.06
607.793	464.06
608.001	478.06
608.21	449.06
608.418	465.06
608.626	465.06
608.834	469.06
609.043	458.06
609.251	463.06
609.459	450.06
609.667	470.06
609.875	469.06
610.083	473.06
610.291	457.06
610.499	459.06
610.707	454.06
610.916	457.06
611.124	465.06
611.332	464.06
611.54	449.06
611.748	434.06
611.955	432.06
612.163	460.06
612.371	448.06
612.579	445.06
612.787	449.06
612.995	419.06
613.203	471.06
613.411	466.06
613.618	430.06
613.826	434.06
614.034	449.06
614.242	441.06
614.449	448.06
614.657	433.06
614.865	430.06
615.072	447.06
615.28	447.06
615.488	424.06
615.695	446.06
615.903	449.06
616.111	417.06
616.318	457.06
616.526	449.06
616.733	437.06
616.941	461.06
617.148	445.06
617.356	417.06
617.563	441.06
617.771	452.06
617.978	447.06
618.185	455.06
618.393	435.06
618.6	437.06
618.807	427.06
619.015	425.06
619.222	436.06
619.429	434.06
619.637	450.06
619.844	422.06
620.051	423.06
620.258	403.06
620.466	403.06
620.673	398.06
620.88	403.06
621.087	378.06
621.294	409.06
621.501	393.06
621.708	405.06
621.915	402.06
622.122	408.06
622.329	388.06
622.536	417.06
622.743	389.06
622.95	395.06
623.157	400.06
623.364	405.06
623.571	401.06
623.778	396.06
623.985	380.06
624.192	391.06
624.399	384.06
624.606	391.06
624.812	362.06
625.019	377.06
625.226	369.06
625.433	366.06
625.639	358.06
625.846	365.06
626.053	367.06
626.259	381.06
626.466	382.06
626.673	395.06
626.879	379.06
627.086	353.06
627.293	370.06
627.499	385.06
627.706	378.06
627.912	363.06
628.119	368.06
628.325	367.06
628.532	360.06
628.738	345.06
628.945	360.06
629.151	345.06
629.357	365.06
629.564	368.06
629.77	349.06
629.976	339.06
630.183	340.06
630.389	335.06
630.595	352.06
630.802	326.06
631.008	331.06
631.214	328.06
631.42	345.06
631.627	328.06
631.833	347.06
632.039	324.06
632.245	344.06
632.451	328.06
632.657	327.06
632.863	323.06
633.069	324.06
633.275	323.06
633.481	326.06
633.688	342.06
633.893	343.06
634.099	324.06
634.305	318.06
634.511	313.06
634.717	321.06
634.923	293.06
635.129	322.06
635.335	312.06
635.541	315.06
635.747	323.06
635.952	308.06
636.158	302.06
636.364	302.06
636.57	320.06
636.775	315.06
636.981	327.06
637.187	310.06
637.392	297.06
637.598	304.06
637.804	307.06
638.009	323.06
638.215	316.06
638.421	312.06
638.626	303.06
638.832	304.06
639.037	307.06
639.243	303.06
639.448	303.06
639.654	304.06
639.859	296.06
640.065	315.06
640.27	304.06
640.475	294.06
640.681	287.06
640.886	293.06
641.091	294.06
641.297	305.06
641.502	294.06
641.707	294.06
641.913	287.06
642.118	275.06
642.323	297.06
642.528	309.06
642.733	297.06
642.939	272.06
643.144	297.06
643.349	289.06
643.554	322.06
643.759	285.06
643.964	297.06
644.169	301.06
644.374	294.06
644.579	285.06
644.784	303.06
644.989	289.06
645.194	313.06
645.399	297.06
645.604	303.06
645.809	288.06
646.014	280.06
646.219	306.06
646.423	303.06
646.628	278.06
646.833	296.06
647.038	310.06
647.243	297.06
647.447	307.06
647.652	292.06
647.857	314.06
648.062	317.06
648.266	317.06
648.471	317.06
648.676	326.06
648.88	325.06
649.085	310.06
649.289	306.06
649.494	303.06
649.698	311.06
649.903	302.06
650.107	309.06
650.312	301.06
650.516	298.06
650.721	292.06
650.925	310.06
651.13	287.06
651.334	294.06
651.539	301.06
651.743	303.06
651.947	282.06
652.152	297.06
652.356	272.06
652.56	295.06
652.764	278.06
652.969	301.06
653.173	288.06
653.377	276.06
653.581	279.06
653.785	281.06
653.99	300.06
654.194	284.06
654.398	292.06
654.602	288.06
654.806	305.06
655.01	307.06
655.214	305.06
655.418	321.06
655.622	344.06
655.826	351.06
656.03	373.06
656.234	402.06
656.438	440.06
656.642	447.06
656.846	416.06
657.049	357.06
657.253	325.06
657.457	286.06
657.661	259.06
657.865	230.06
658.068	214.06
658.272	212.06
658.476	179.06
658.68	177.06
658.883	162.06
659.087	151.06
659.291	149.06
659.494	154.06
659.698	148.06
659.901	125.06
660.105	138.06
660.309	131.06
660.512	115.06
660.716	123.06
660.919	118.06
661.123	102.06
661.326	112.06
661.53	85.06
661.733	104.06
661.936	103.06
662.14	108.06
662.343	89.06
662.546	89.06
662.75	87.06
662.953	82.06
663.156	87.06
663.36	79.06
663.563	95.06
663.766	78.06
663.969	87.06
664.173	85.06
664.376	78.06
664.579	87.06
664.782	81.06
664.985	85.06
665.188	87.06
665.391	87.06
665.594	89.06
665.797	75.06
666	73.06
666.203	75.06
666.406	74.06
666.609	87.06
666.812	75.06
667.015	79.06
667.218	84.06
667.421	82.06
667.624	70.06
667.827	73.06
668.03	83.06
668.232	78.06
668.435	73.06
668.638	76.06
668.841	72.06
669.043	69.06
669.246	88.06
669.449	79.06
669.651	68.06
669.854	76.06
670.057	83.06
670.259	78.06
670.462	75.06
670.665	81.06
670.867	89.06
671.07	58.06
671.272	89.06
671.475	86.06
671.677	69.06
671.88	73.06
672.082	74.06
672.284	75.06
672.487	74.06
672.689	75.06
672.892	89.06
