Data from NiCl2@0.25M.TitratingCurve.Agarose3%dH2O.NegLispCup.LampEnergy10.LIBS07252019_HRD10591_18-26-07-573.txt Node
Date: Thu Jul 25 18:26:07 EDT 2019
User: cochatt
Spectrometer: HR+D1059
Trigger mode: 1
Integration Time (sec): 1.000000E-1
Scans to average: 1
Electric dark correction enabled: true
Nonlinearity correction enabled: false
Boxcar width: 0
XAxis mode: Wavelengths
Number of Pixels in Spectrum: 2048
>>>>>Begin Spectral Data<<<<<
223.165	-19.06
223.4	-19.06
223.635	-19.06
223.869	-24.06
224.104	-12.06
224.338	-18.06
224.573	-6.06
224.808	-9.06
225.042	-11.06
225.277	-5.06
225.511	11.94
225.746	4.94
225.98	4.94
226.215	6.94
226.449	8.94
226.683	22.94
226.918	17.94
227.152	25.94
227.387	33.94
227.621	45.94
227.856	45.94
228.09	52.94
228.324	49.94
228.559	56.94
228.793	82.94
229.027	119.94
229.262	125.94
229.496	126.94
229.73	146.94
229.964	139.94
230.199	157.94
230.433	155.94
230.667	143.94
230.901	163.94
231.136	132.94
231.37	157.94
231.604	154.94
231.838	145.94
232.072	158.94
232.306	171.94
232.541	170.94
232.775	170.94
233.009	165.94
233.243	175.94
233.477	153.94
233.711	170.94
233.945	169.94
234.179	170.94
234.413	179.94
234.647	174.94
234.881	168.94
235.115	184.94
235.349	172.94
235.583	190.94
235.817	180.94
236.051	181.94
236.285	194.94
236.519	189.94
236.753	179.94
236.987	192.94
237.221	185.94
237.455	197.94
237.689	193.94
237.922	191.94
238.156	190.94
238.39	201.94
238.624	197.94
238.858	184.94
239.091	204.94
239.325	191.94
239.559	206.94
239.793	203.94
240.027	209.94
240.26	200.94
240.494	208.94
240.728	225.94
240.961	223.94
241.195	226.94
241.429	256.94
241.662	210.94
241.896	225.94
242.13	221.94
242.363	250.94
242.597	218.94
242.83	242.94
243.064	239.94
243.298	224.94
243.531	245.94
243.765	246.94
243.998	255.94
244.232	275.94
244.465	267.94
244.699	271.94
244.932	265.94
245.166	265.94
245.399	266.94
245.633	274.94
245.866	261.94
246.099	271.94
246.333	267.94
246.566	265.94
246.8	268.94
247.033	278.94
247.266	302.94
247.5	275.94
247.733	272.94
247.966	296.94
248.2	281.94
248.433	293.94
248.666	286.94
248.899	293.94
249.133	312.94
249.366	303.94
249.599	284.94
249.832	311.94
250.066	308.94
250.299	299.94
250.532	304.94
250.765	321.94
250.998	299.94
251.231	312.94
251.465	337.94
251.698	329.94
251.931	332.94
252.164	331.94
252.397	325.94
252.63	343.94
252.863	339.94
253.096	316.94
253.329	318.94
253.562	341.94
253.795	346.94
254.028	326.94
254.261	344.94
254.494	349.94
254.727	362.94
254.96	331.94
255.193	349.94
255.426	335.94
255.659	360.94
255.892	339.94
256.124	332.94
256.357	354.94
256.59	378.94
256.823	361.94
257.056	373.94
257.289	354.94
257.521	363.94
257.754	377.94
257.987	351.94
258.22	380.94
258.452	365.94
258.685	371.94
258.918	383.94
259.151	390.94
259.383	372.94
259.616	398.94
259.849	379.94
260.081	409.94
260.314	392.94
260.547	383.94
260.779	386.94
261.012	413.94
261.244	404.94
261.477	408.94
261.71	403.94
261.942	438.94
262.175	394.94
262.407	388.94
262.64	413.94
262.872	403.94
263.105	411.94
263.337	418.94
263.57	427.94
263.802	411.94
264.035	405.94
264.267	413.94
264.499	424.94
264.732	410.94
264.964	426.94
265.197	442.94
265.429	446.94
265.661	426.94
265.894	457.94
266.126	431.94
266.358	430.94
266.591	449.94
266.823	454.94
267.055	430.94
267.287	445.94
267.52	436.94
267.752	452.94
267.984	468.94
268.216	452.94
268.448	462.94
268.681	459.94
268.913	459.94
269.145	463.94
269.377	453.94
269.609	449.94
269.841	491.94
270.073	446.94
270.306	468.94
270.538	449.94
270.77	466.94
271.002	473.94
271.234	476.94
271.466	453.94
271.698	482.94
271.93	493.94
272.162	479.94
272.394	485.94
272.626	478.94
272.858	484.94
273.09	499.94
273.322	483.94
273.553	505.94
273.785	519.94
274.017	494.94
274.249	512.94
274.481	505.94
274.713	498.94
274.945	521.94
275.176	510.94
275.408	506.94
275.64	527.94
275.872	517.94
276.104	540.94
276.335	512.94
276.567	517.94
276.799	517.94
277.031	535.94
277.262	557.94
277.494	547.94
277.726	519.94
277.957	537.94
278.189	545.94
278.421	547.94
278.652	563.94
278.884	558.94
279.115	544.94
279.347	538.94
279.579	553.94
279.81	555.94
280.042	541.94
280.273	548.94
280.505	558.94
280.736	555.94
280.968	562.94
281.199	582.94
281.431	561.94
281.662	569.94
281.894	570.94
282.125	582.94
282.356	565.94
282.588	591.94
282.819	573.94
283.051	579.94
283.282	568.94
283.513	600.94
283.745	602.94
283.976	618.94
284.207	624.94
284.439	617.94
284.67	616.94
284.901	635.94
285.132	608.94
285.364	614.94
285.595	615.94
285.826	619.94
286.057	632.94
286.288	653.94
286.52	639.94
286.751	643.94
286.982	635.94
287.213	630.94
287.444	616.94
287.675	647.94
287.906	635.94
288.138	638.94
288.369	623.94
288.6	655.94
288.831	626.94
289.062	651.94
289.293	655.94
289.524	664.94
289.755	653.94
289.986	650.94
290.217	639.94
290.448	654.94
290.679	681.94
290.91	651.94
291.141	664.94
291.371	656.94
291.602	652.94
291.833	666.94
292.064	663.94
292.295	639.94
292.526	618.94
292.757	661.94
292.987	650.94
293.218	667.94
293.449	685.94
293.68	657.94
293.91	676.94
294.141	644.94
294.372	680.94
294.603	691.94
294.833	676.94
295.064	665.94
295.295	643.94
295.525	670.94
295.756	646.94
295.987	639.94
296.217	722.94
296.448	726.94
296.679	680.94
296.909	698.94
297.14	705.94
297.37	702.94
297.601	700.94
297.831	712.94
298.062	715.94
298.292	730.94
298.523	738.94
298.753	751.94
298.984	727.94
299.214	708.94
299.445	714.94
299.675	717.94
299.905	730.94
300.136	730.94
300.366	728.94
300.597	730.94
300.827	743.94
301.057	760.94
301.288	751.94
301.518	770.94
301.748	749.94
301.979	773.94
302.209	785.94
302.439	781.94
302.669	774.94
302.9	779.94
303.13	753.94
303.36	756.94
303.59	728.94
303.82	751.94
304.051	739.94
304.281	753.94
304.511	751.94
304.741	772.94
304.971	766.94
305.201	745.94
305.431	735.94
305.661	752.94
305.891	727.94
306.121	761.94
306.352	759.94
306.582	738.94
306.812	743.94
307.042	769.94
307.272	743.94
307.502	726.94
307.731	757.94
307.961	725.94
308.191	713.94
308.421	719.94
308.651	764.94
308.881	734.94
309.111	736.94
309.341	742.94
309.571	742.94
309.8	751.94
310.03	725.94
310.26	736.94
310.49	742.94
310.72	729.94
310.949	715.94
311.179	744.94
311.409	721.94
311.639	762.94
311.868	752.94
312.098	754.94
312.328	764.94
312.557	777.94
312.787	790.94
313.017	761.94
313.246	794.94
313.476	767.94
313.706	813.94
313.935	796.94
314.165	816.94
314.394	792.94
314.624	790.94
314.853	809.94
315.083	772.94
315.312	773.94
315.542	789.94
315.771	794.94
316.001	789.94
316.23	777.94
316.46	777.94
316.689	775.94
316.919	779.94
317.148	775.94
317.377	776.94
317.607	763.94
317.836	775.94
318.065	759.94
318.295	774.94
318.524	750.94
318.753	774.94
318.983	755.94
319.212	757.94
319.441	764.94
319.67	781.94
319.9	760.94
320.129	766.94
320.358	783.94
320.587	774.94
320.816	779.94
321.046	765.94
321.275	769.94
321.504	763.94
321.733	759.94
321.962	741.94
322.191	765.94
322.42	769.94
322.649	794.94
322.878	793.94
323.108	790.94
323.337	788.94
323.566	771.94
323.795	797.94
324.024	807.94
324.253	794.94
324.482	794.94
324.71	795.94
324.939	787.94
325.168	789.94
325.397	821.94
325.626	830.94
325.855	805.94
326.084	851.94
326.313	857.94
326.542	851.94
326.77	868.94
326.999	841.94
327.228	819.94
327.457	822.94
327.686	823.94
327.914	857.94
328.143	869.94
328.372	845.94
328.6	861.94
328.829	861.94
329.058	853.94
329.287	887.94
329.515	868.94
329.744	889.94
329.972	879.94
330.201	853.94
330.43	863.94
330.658	872.94
330.887	877.94
331.115	893.94
331.344	894.94
331.572	903.94
331.801	923.94
332.03	926.94
332.258	941.94
332.486	967.94
332.715	999.94
332.943	1017.94
333.172	1058.94
333.4	1127.94
333.629	1166.94
333.857	1185.94
334.085	1150.94
334.314	1149.94
334.542	1111.94
334.771	1135.94
334.999	1099.94
335.227	1089.94
335.455	1096.94
335.684	1085.94
335.912	1053.94
336.14	1049.94
336.369	1035.94
336.597	1025.94
336.825	1071.94
337.053	1029.94
337.281	1022.94
337.51	967.94
337.738	967.94
337.966	950.94
338.194	952.94
338.422	954.94
338.65	906.94
338.878	904.94
339.106	933.94
339.334	932.94
339.562	922.94
339.79	910.94
340.018	874.94
340.246	872.94
340.474	889.94
340.702	883.94
340.93	892.94
341.158	920.94
341.386	887.94
341.614	922.94
341.842	870.94
342.07	925.94
342.298	860.94
342.526	862.94
342.754	861.94
342.981	869.94
343.209	924.94
343.437	938.94
343.665	980.94
343.893	1088.94
344.12	1123.94
344.348	1057.94
344.576	1010.94
344.804	982.94
345.031	944.94
345.259	924.94
345.487	889.94
345.714	889.94
345.942	885.94
346.17	877.94
346.397	857.94
346.625	861.94
346.853	857.94
347.08	842.94
347.308	838.94
347.535	843.94
347.763	843.94
347.99	862.94
348.218	877.94
348.445	856.94
348.673	852.94
348.9	858.94
349.128	858.94
349.355	854.94
349.583	846.94
349.81	825.94
350.037	810.94
350.265	811.94
350.492	857.94
350.72	841.94
350.947	826.94
351.174	803.94
351.402	823.94
351.629	845.94
351.856	822.94
352.083	811.94
352.311	827.94
352.538	814.94
352.765	797.94
352.992	813.94
353.22	818.94
353.447	789.94
353.674	815.94
353.901	794.94
354.128	826.94
354.355	828.94
354.583	809.94
354.81	842.94
355.037	830.94
355.264	817.94
355.491	815.94
355.718	808.94
355.945	818.94
356.172	847.94
356.399	827.94
356.626	840.94
356.853	827.94
357.08	815.94
357.307	803.94
357.534	822.94
357.761	825.94
357.988	823.94
358.215	837.94
358.441	808.94
358.668	810.94
358.895	804.94
359.122	802.94
359.349	807.94
359.576	796.94
359.802	809.94
360.029	807.94
360.256	824.94
360.483	810.94
360.709	820.94
360.936	819.94
361.163	783.94
361.39	826.94
361.616	824.94
361.843	816.94
362.07	856.94
362.296	843.94
362.523	814.94
362.749	846.94
362.976	819.94
363.203	822.94
363.429	819.94
363.656	823.94
363.882	800.94
364.109	823.94
364.335	779.94
364.562	815.94
364.788	804.94
365.015	819.94
365.241	798.94
365.468	795.94
365.694	827.94
365.92	809.94
366.147	810.94
366.373	818.94
366.599	807.94
366.826	794.94
367.052	834.94
367.278	837.94
367.505	819.94
367.731	824.94
367.957	806.94
368.184	800.94
368.41	837.94
368.636	851.94
368.862	830.94
369.089	818.94
369.315	842.94
369.541	830.94
369.767	842.94
369.993	853.94
370.219	843.94
370.445	889.94
370.672	883.94
370.898	881.94
371.124	895.94
371.35	886.94
371.576	908.94
371.802	923.94
372.028	877.94
372.254	898.94
372.48	877.94
372.706	944.94
372.932	954.94
373.158	934.94
373.384	916.94
373.61	890.94
373.835	901.94
374.061	903.94
374.287	905.94
374.513	928.94
374.739	947.94
374.965	990.94
375.191	1031.94
375.416	992.94
375.642	943.94
375.868	953.94
376.094	917.94
376.319	894.94
376.545	895.94
376.771	888.94
376.997	903.94
377.222	882.94
377.448	904.94
377.674	886.94
377.899	897.94
378.125	897.94
378.35	881.94
378.576	868.94
378.802	879.94
379.027	887.94
379.253	893.94
379.478	893.94
379.704	875.94
379.929	865.94
380.155	866.94
380.38	867.94
380.606	896.94
380.831	873.94
381.057	901.94
381.282	883.94
381.507	893.94
381.733	929.94
381.958	882.94
382.184	925.94
382.409	909.94
382.634	926.94
382.86	911.94
383.085	932.94
383.31	956.94
383.535	945.94
383.761	989.94
383.986	1030.94
384.211	1018.94
384.436	1020.94
384.662	1049.94
384.887	1075.94
385.112	1077.94
385.337	1102.94
385.562	1087.94
385.787	1107.94
386.013	1095.94
386.238	1098.94
386.463	1103.94
386.688	1111.94
386.913	1085.94
387.138	1053.94
387.363	1078.94
387.588	1074.94
387.813	1104.94
388.038	1031.94
388.263	1069.94
388.488	1076.94
388.713	1051.94
388.938	1063.94
389.163	1055.94
389.387	1048.94
389.612	1051.94
389.837	1057.94
390.062	1052.94
390.287	1030.94
390.512	1060.94
390.736	1065.94
390.961	1065.94
391.186	1075.94
391.411	1139.94
391.636	1172.94
391.86	1194.94
392.085	1222.94
392.31	1203.94
392.534	1197.94
392.759	1169.94
392.984	1160.94
393.208	1106.94
393.433	1151.94
393.658	1135.94
393.882	1162.94
394.107	1169.94
394.331	1165.94
394.556	1163.94
394.78	1153.94
395.005	1163.94
395.229	1166.94
395.454	1209.94
395.678	1215.94
395.903	1228.94
396.127	1222.94
396.352	1179.94
396.576	1153.94
396.801	1124.94
397.025	1142.94
397.249	1163.94
397.474	1203.94
397.698	1231.94
397.922	1254.94
398.147	1228.94
398.371	1269.94
398.595	1325.94
398.82	1324.94
399.044	1430.94
399.268	1594.94
399.492	1818.94
399.717	2045.94
399.941	2105.94
400.165	1897.94
400.389	1713.94
400.613	1531.94
400.837	1469.94
401.062	1407.94
401.286	1419.94
401.51	1381.94
401.734	1363.94
401.958	1359.94
402.182	1397.94
402.406	1402.94
402.63	1396.94
402.854	1459.94
403.078	1507.94
403.302	1492.94
403.526	1515.94
403.75	1556.94
403.974	1603.94
404.198	1565.94
404.422	1577.94
404.645	1526.94
404.869	1565.94
405.093	1566.94
405.317	1533.94
405.541	1532.94
405.765	1474.94
405.988	1522.94
406.212	1557.94
406.436	1509.94
406.66	1559.94
406.883	1561.94
407.107	1642.94
407.331	1703.94
407.555	1784.94
407.778	1805.94
408.002	1731.94
408.226	1657.94
408.449	1655.94
408.673	1601.94
408.896	1546.94
409.12	1523.94
409.344	1566.94
409.567	1529.94
409.791	1547.94
410.014	1503.94
410.238	1527.94
410.461	1541.94
410.685	1463.94
410.908	1466.94
411.132	1410.94
411.355	1402.94
411.578	1421.94
411.802	1385.94
412.025	1416.94
412.249	1455.94
412.472	1431.94
412.695	1397.94
412.919	1366.94
413.142	1363.94
413.365	1344.94
413.589	1403.94
413.812	1333.94
414.035	1341.94
414.258	1335.94
414.482	1359.94
414.705	1390.94
414.928	1352.94
415.151	1361.94
415.374	1374.94
415.597	1366.94
415.821	1315.94
416.044	1322.94
416.267	1298.94
416.49	1339.94
416.713	1310.94
416.936	1339.94
417.159	1331.94
417.382	1350.94
417.605	1322.94
417.828	1352.94
418.051	1359.94
418.274	1350.94
418.497	1333.94
418.72	1407.94
418.943	1400.94
419.166	1449.94
419.389	1577.94
419.611	1542.94
419.834	1449.94
420.057	1422.94
420.28	1412.94
420.503	1335.94
420.726	1320.94
420.948	1341.94
421.171	1338.94
421.394	1314.94
421.617	1333.94
421.839	1359.94
422.062	1360.94
422.285	1332.94
422.507	1342.94
422.73	1381.94
422.953	1362.94
423.175	1389.94
423.398	1395.94
423.621	1430.94
423.843	1427.94
424.066	1422.94
424.288	1410.94
424.511	1400.94
424.733	1376.94
424.956	1368.94
425.178	1359.94
425.401	1332.94
425.623	1378.94
425.846	1310.94
426.068	1291.94
426.291	1297.94
426.513	1256.94
426.735	1248.94
426.958	1271.94
427.18	1233.94
427.402	1241.94
427.625	1249.94
427.847	1199.94
428.069	1178.94
428.292	1214.94
428.514	1191.94
428.736	1153.94
428.958	1151.94
429.181	1164.94
429.403	1144.94
429.625	1168.94
429.847	1151.94
430.069	1137.94
430.292	1155.94
430.514	1140.94
430.736	1167.94
430.958	1174.94
431.18	1138.94
431.402	1169.94
431.624	1165.94
431.846	1186.94
432.068	1187.94
432.29	1211.94
432.512	1172.94
432.734	1225.94
432.956	1161.94
433.178	1198.94
433.4	1207.94
433.622	1160.94
433.844	1203.94
434.066	1190.94
434.287	1176.94
434.509	1290.94
434.731	1280.94
434.953	1329.94
435.175	1350.94
435.397	1315.94
435.618	1241.94
435.84	1233.94
436.062	1173.94
436.284	1147.94
436.505	1172.94
436.727	1199.94
436.949	1161.94
437.17	1146.94
437.392	1184.94
437.614	1149.94
437.835	1142.94
438.057	1137.94
438.278	1112.94
438.5	1129.94
438.721	1081.94
438.943	1140.94
439.165	1131.94
439.386	1105.94
439.608	1137.94
439.829	1140.94
440.05	1152.94
440.272	1183.94
440.493	1147.94
440.715	1229.94
440.936	1236.94
441.158	1245.94
441.379	1264.94
441.6	1299.94
441.822	1339.94
442.043	1319.94
442.264	1308.94
442.486	1272.94
442.707	1307.94
442.928	1272.94
443.149	1264.94
443.371	1262.94
443.592	1316.94
443.813	1318.94
444.034	1338.94
444.255	1391.94
444.476	1432.94
444.698	1512.94
444.919	1587.94
445.14	1630.94
445.361	1478.94
445.582	1392.94
445.803	1352.94
446.024	1264.94
446.245	1221.94
446.466	1220.94
446.687	1178.94
446.908	1201.94
447.129	1153.94
447.35	1109.94
447.571	1128.94
447.792	1112.94
448.013	1129.94
448.234	1132.94
448.455	1096.94
448.675	1083.94
448.896	1083.94
449.117	1061.94
449.338	1050.94
449.559	1060.94
449.779	1033.94
450	1013.94
450.221	1082.94
450.442	1075.94
450.662	1090.94
450.883	1115.94
451.104	1103.94
451.324	1087.94
451.545	1115.94
451.766	1103.94
451.986	1091.94
452.207	1095.94
452.428	1076.94
452.648	1075.94
452.869	1042.94
453.089	1032.94
453.31	1064.94
453.53	1036.94
453.751	1036.94
453.971	1017.94
454.192	1025.94
454.412	1006.94
454.633	1004.94
454.853	1013.94
455.073	998.94
455.294	997.94
455.514	985.94
455.734	1023.94
455.955	992.94
456.175	1002.94
456.395	983.94
456.616	962.94
456.836	1000.94
457.056	990.94
457.276	973.94
457.497	985.94
457.717	997.94
457.937	1015.94
458.157	1013.94
458.377	1031.94
458.598	1059.94
458.818	1079.94
459.038	1127.94
459.258	1141.94
459.478	1191.94
459.698	1208.94
459.918	1241.94
460.138	1300.94
460.358	1370.94
460.578	1386.94
460.798	1442.94
461.018	1409.94
461.238	1403.94
461.458	1367.94
461.678	1375.94
461.898	1381.94
462.118	1414.94
462.338	1513.94
462.558	1557.94
462.777	1601.94
462.997	1717.94
463.217	1865.94
463.437	1875.94
463.657	1746.94
463.876	1672.94
464.096	1681.94
464.316	1640.94
464.536	1653.94
464.755	1577.94
464.975	1549.94
465.195	1451.94
465.414	1370.94
465.634	1295.94
465.854	1214.94
466.073	1195.94
466.293	1224.94
466.512	1159.94
466.732	1133.94
466.951	1136.94
467.171	1127.94
467.391	1143.94
467.61	1118.94
467.829	1077.94
468.049	1092.94
468.268	1083.94
468.488	1071.94
468.707	1088.94
468.927	1074.94
469.146	1101.94
469.365	1091.94
469.585	1067.94
469.804	1138.94
470.023	1149.94
470.243	1160.94
470.462	1176.94
470.681	1173.94
470.901	1170.94
471.12	1135.94
471.339	1158.94
471.558	1093.94
471.777	1105.94
471.997	1063.94
472.216	1076.94
472.435	1085.94
472.654	1053.94
472.873	989.94
473.092	1032.94
473.311	1067.94
473.53	1034.94
473.749	1050.94
473.968	1042.94
474.187	1047.94
474.406	1045.94
474.625	1047.94
474.844	1039.94
475.063	1035.94
475.282	1058.94
475.501	1057.94
475.72	1078.94
475.939	1085.94
476.158	1094.94
476.377	1089.94
476.596	1088.94
476.814	1094.94
477.033	1108.94
477.252	1139.94
477.471	1146.94
477.69	1204.94
477.908	1215.94
478.127	1248.94
478.346	1239.94
478.564	1270.94
478.783	1297.94
479.002	1319.94
479.22	1361.94
479.439	1335.94
479.658	1302.94
479.876	1341.94
480.095	1363.94
480.313	1392.94
480.532	1451.94
480.751	1416.94
480.969	1365.94
481.188	1325.94
481.406	1287.94
481.624	1248.94
481.843	1213.94
482.061	1226.94
482.28	1205.94
482.498	1171.94
482.717	1171.94
482.935	1175.94
483.153	1187.94
483.372	1217.94
483.59	1186.94
483.808	1202.94
484.027	1194.94
484.245	1213.94
484.463	1231.94
484.681	1242.94
484.9	1263.94
485.118	1282.94
485.336	1205.94
485.554	1242.94
485.772	1235.94
485.99	1262.94
486.209	1266.94
486.427	1306.94
486.645	1314.94
486.863	1276.94
487.081	1291.94
487.299	1266.94
487.517	1262.94
487.735	1244.94
487.953	1234.94
488.171	1248.94
488.389	1227.94
488.607	1227.94
488.825	1240.94
489.043	1250.94
489.261	1225.94
489.479	1246.94
489.696	1249.94
489.914	1238.94
490.132	1245.94
490.35	1273.94
490.568	1252.94
490.786	1289.94
491.003	1259.94
491.221	1272.94
491.439	1291.94
491.657	1282.94
491.874	1285.94
492.092	1246.94
492.31	1277.94
492.527	1310.94
492.745	1295.94
492.963	1305.94
493.18	1304.94
493.398	1279.94
493.615	1297.94
493.833	1305.94
494.05	1327.94
494.268	1354.94
494.485	1345.94
494.703	1379.94
494.92	1347.94
495.138	1360.94
495.355	1346.94
495.573	1350.94
495.79	1343.94
496.008	1360.94
496.225	1371.94
496.442	1403.94
496.66	1373.94
496.877	1430.94
497.094	1470.94
497.312	1492.94
497.529	1488.94
497.746	1562.94
497.963	1615.94
498.181	1690.94
498.398	1764.94
498.615	1861.94
498.832	2000.94
499.049	2149.94
499.267	2357.94
499.484	2590.94
499.701	2849.94
499.918	3172.94
500.135	3619.94
500.352	3984.94
500.569	4207.94
500.786	4147.94
501.003	3962.94
501.22	3579.94
501.437	3136.94
501.654	2762.94
501.871	2506.94
502.088	2311.94
502.305	2132.94
502.522	2032.94
502.739	1903.94
502.956	1817.94
503.172	1766.94
503.389	1677.94
503.606	1612.94
503.823	1569.94
504.04	1595.94
504.256	1571.94
504.473	1586.94
504.69	1621.94
504.907	1609.94
505.123	1534.94
505.34	1436.94
505.557	1365.94
505.773	1374.94
505.99	1330.94
506.207	1289.94
506.423	1277.94
506.64	1251.94
506.856	1235.94
507.073	1199.94
507.289	1206.94
507.506	1197.94
507.722	1198.94
507.939	1197.94
508.155	1151.94
508.372	1147.94
508.588	1150.94
508.805	1124.94
509.021	1139.94
509.238	1165.94
509.454	1081.94
509.67	1050.94
509.887	1086.94
510.103	1096.94
510.319	1082.94
510.536	1078.94
510.752	1083.94
510.968	1091.94
511.184	1065.94
511.401	1085.94
511.617	1124.94
511.833	1085.94
512.049	1089.94
512.265	1064.94
512.481	1085.94
512.698	1053.94
512.914	1077.94
513.13	1086.94
513.346	1090.94
513.562	1079.94
513.778	1071.94
513.994	1116.94
514.21	1086.94
514.426	1107.94
514.642	1097.94
514.858	1116.94
515.074	1114.94
515.29	1106.94
515.506	1108.94
515.721	1138.94
515.937	1170.94
516.153	1198.94
516.369	1193.94
516.585	1241.94
516.801	1301.94
517.016	1352.94
517.232	1433.94
517.448	1498.94
517.664	1546.94
517.879	1581.94
518.095	1567.94
518.311	1520.94
518.527	1434.94
518.742	1380.94
518.958	1340.94
519.173	1286.94
519.389	1269.94
519.605	1202.94
519.82	1176.94
520.036	1128.94
520.251	1146.94
520.467	1121.94
520.682	1101.94
520.898	1075.94
521.113	1085.94
521.329	1065.94
521.544	1068.94
521.76	1098.94
521.975	1054.94
522.19	1033.94
522.406	1029.94
522.621	1018.94
522.836	1019.94
523.052	996.94
523.267	1012.94
523.482	983.94
523.698	992.94
523.913	1019.94
524.128	1005.94
524.343	1003.94
524.559	1001.94
524.774	958.94
524.989	968.94
525.204	983.94
525.419	962.94
525.634	971.94
525.849	979.94
526.064	997.94
526.28	983.94
526.495	945.94
526.71	992.94
526.925	949.94
527.14	941.94
527.355	947.94
527.57	945.94
527.785	945.94
527.999	984.94
528.214	980.94
528.429	966.94
528.644	997.94
528.859	964.94
529.074	985.94
529.289	957.94
529.503	977.94
529.718	958.94
529.933	934.94
530.148	978.94
530.363	950.94
530.577	976.94
530.792	976.94
531.007	965.94
531.221	945.94
531.436	970.94
531.651	969.94
531.865	975.94
532.08	983.94
532.295	975.94
532.509	967.94
532.724	963.94
532.938	943.94
533.153	966.94
533.367	955.94
533.582	949.94
533.796	954.94
534.011	951.94
534.225	932.94
534.44	957.94
534.654	966.94
534.868	973.94
535.083	935.94
535.297	933.94
535.511	926.94
535.726	956.94
535.94	908.94
536.154	928.94
536.369	880.94
536.583	889.94
536.797	898.94
537.011	888.94
537.225	899.94
537.44	900.94
537.654	879.94
537.868	868.94
538.082	855.94
538.296	899.94
538.51	863.94
538.724	877.94
538.938	869.94
539.153	870.94
539.367	862.94
539.581	850.94
539.795	865.94
540.009	841.94
540.222	841.94
540.436	847.94
540.65	866.94
540.864	854.94
541.078	850.94
541.292	863.94
541.506	878.94
541.72	865.94
541.934	823.94
542.147	862.94
542.361	847.94
542.575	840.94
542.789	852.94
543.002	854.94
543.216	855.94
543.43	842.94
543.644	847.94
543.857	847.94
544.071	870.94
544.285	864.94
544.498	874.94
544.712	872.94
544.925	874.94
545.139	865.94
545.352	886.94
545.566	907.94
545.779	890.94
545.993	918.94
546.206	875.94
546.42	881.94
546.633	907.94
546.847	873.94
547.06	871.94
547.274	874.94
547.487	865.94
547.7	877.94
547.914	890.94
548.127	894.94
548.34	869.94
548.554	892.94
548.767	891.94
548.98	903.94
549.193	904.94
549.407	914.94
549.62	926.94
549.833	925.94
550.046	914.94
550.259	904.94
550.473	889.94
550.686	885.94
550.899	871.94
551.112	873.94
551.325	865.94
551.538	880.94
551.751	865.94
551.964	855.94
552.177	893.94
552.39	920.94
552.603	937.94
552.816	948.94
553.029	983.94
553.242	959.94
553.455	967.94
553.667	989.94
553.88	972.94
554.093	943.94
554.306	919.94
554.519	899.94
554.732	894.94
554.944	880.94
555.157	852.94
555.37	846.94
555.583	846.94
555.795	823.94
556.008	777.94
556.221	775.94
556.433	747.94
556.646	781.94
556.859	780.94
557.071	778.94
557.284	728.94
557.496	775.94
557.709	761.94
557.921	769.94
558.134	738.94
558.346	729.94
558.559	756.94
558.771	737.94
558.984	699.94
559.196	701.94
559.409	709.94
559.621	736.94
559.833	725.94
560.046	719.94
560.258	715.94
560.47	717.94
560.683	685.94
560.895	725.94
561.107	718.94
561.32	709.94
561.532	730.94
561.744	725.94
561.956	692.94
562.168	704.94
562.381	720.94
562.593	729.94
562.805	717.94
563.017	716.94
563.229	731.94
563.441	698.94
563.653	734.94
563.865	729.94
564.077	765.94
564.289	764.94
564.501	761.94
564.713	780.94
564.925	815.94
565.137	780.94
565.349	833.94
565.561	859.94
565.773	892.94
565.985	914.94
566.197	967.94
566.408	1014.94
566.62	1105.94
566.832	1195.94
567.044	1247.94
567.255	1228.94
567.467	1268.94
567.679	1293.94
567.891	1443.94
568.102	1446.94
568.314	1377.94
568.526	1251.94
568.737	1133.94
568.949	1050.94
569.161	962.94
569.372	880.94
569.584	851.94
569.795	809.94
570.007	809.94
570.218	752.94
570.43	771.94
570.641	762.94
570.853	745.94
571.064	767.94
571.276	759.94
571.487	730.94
571.698	714.94
571.91	687.94
572.121	665.94
572.333	681.94
572.544	645.94
572.755	621.94
572.966	604.94
573.178	599.94
573.389	614.94
573.6	614.94
573.811	592.94
574.023	600.94
574.234	597.94
574.445	608.94
574.656	604.94
574.867	610.94
575.078	573.94
575.289	589.94
575.501	593.94
575.712	575.94
575.923	575.94
576.134	569.94
576.345	547.94
576.556	576.94
576.767	543.94
576.978	545.94
577.188	570.94
577.399	538.94
577.61	559.94
577.821	546.94
578.032	525.94
578.243	539.94
578.454	514.94
578.665	537.94
578.875	529.94
579.086	536.94
579.297	518.94
579.508	521.94
579.718	517.94
579.929	511.94
580.14	527.94
580.35	530.94
580.561	506.94
580.772	496.94
580.982	495.94
581.193	506.94
581.403	503.94
581.614	474.94
581.825	479.94
582.035	500.94
582.246	515.94
582.456	514.94
582.667	479.94
582.877	487.94
583.087	514.94
583.298	479.94
583.508	496.94
583.719	495.94
583.929	503.94
584.139	486.94
584.35	485.94
584.56	499.94
584.77	499.94
584.981	474.94
585.191	484.94
585.401	472.94
585.611	475.94
585.821	491.94
586.032	457.94
586.242	474.94
586.452	468.94
586.662	475.94
586.872	488.94
587.082	449.94
587.292	485.94
587.502	478.94
587.713	459.94
587.923	492.94
588.133	475.94
588.343	459.94
588.553	452.94
588.762	471.94
588.972	471.94
589.182	453.94
589.392	476.94
589.602	456.94
589.812	451.94
590.022	482.94
590.232	470.94
590.441	479.94
590.651	481.94
590.861	485.94
591.071	495.94
591.281	504.94
591.49	488.94
591.7	506.94
591.91	507.94
592.119	527.94
592.329	526.94
592.539	558.94
592.748	561.94
592.958	560.94
593.167	599.94
593.377	603.94
593.587	623.94
593.796	622.94
594.006	647.94
594.215	625.94
594.424	618.94
594.634	615.94
594.843	557.94
595.053	559.94
595.262	533.94
595.472	551.94
595.681	487.94
595.89	513.94
596.1	480.94
596.309	484.94
596.518	460.94
596.727	469.94
596.937	453.94
597.146	430.94
597.355	436.94
597.564	451.94
597.774	447.94
597.983	424.94
598.192	411.94
598.401	400.94
598.61	396.94
598.819	410.94
599.028	405.94
599.237	384.94
599.446	394.94
599.655	411.94
599.864	404.94
600.073	398.94
600.282	399.94
600.491	408.94
600.7	391.94
600.909	387.94
601.118	401.94
601.327	393.94
601.536	383.94
601.745	386.94
601.953	371.94
602.162	380.94
602.371	379.94
602.58	381.94
602.789	372.94
602.997	377.94
603.206	376.94
603.415	359.94
603.623	376.94
603.832	377.94
604.041	352.94
604.249	361.94
604.458	352.94
604.666	390.94
604.875	357.94
605.084	368.94
605.292	352.94
605.501	347.94
605.709	343.94
605.918	353.94
606.126	350.94
606.334	341.94
606.543	360.94
606.751	365.94
606.96	346.94
607.168	352.94
607.376	346.94
607.585	361.94
607.793	352.94
608.001	357.94
608.21	346.94
608.418	358.94
608.626	353.94
608.834	340.94
609.043	346.94
609.251	360.94
609.459	346.94
609.667	362.94
609.875	340.94
610.083	363.94
610.291	351.94
610.499	343.94
610.707	346.94
610.916	354.94
611.124	339.94
611.332	330.94
611.54	337.94
611.748	329.94
611.955	333.94
612.163	334.94
612.371	336.94
612.579	338.94
612.787	342.94
612.995	338.94
613.203	353.94
613.411	329.94
613.618	327.94
613.826	325.94
614.034	332.94
614.242	315.94
614.449	321.94
614.657	309.94
614.865	321.94
615.072	335.94
615.28	345.94
615.488	336.94
615.695	319.94
615.903	343.94
616.111	344.94
616.318	342.94
616.526	329.94
616.733	344.94
616.941	321.94
617.148	337.94
617.356	320.94
617.563	330.94
617.771	330.94
617.978	340.94
618.185	334.94
618.393	325.94
618.6	351.94
618.807	308.94
619.015	322.94
619.222	326.94
619.429	344.94
619.637	329.94
619.844	321.94
620.051	321.94
620.258	307.94
620.466	317.94
620.673	300.94
620.88	302.94
621.087	296.94
621.294	319.94
621.501	304.94
621.708	312.94
621.915	313.94
622.122	312.94
622.329	312.94
622.536	310.94
622.743	311.94
622.95	295.94
623.157	314.94
623.364	305.94
623.571	307.94
623.778	309.94
623.985	289.94
624.192	297.94
624.399	296.94
624.606	302.94
624.812	277.94
625.019	298.94
625.226	295.94
625.433	290.94
625.639	278.94
625.846	277.94
626.053	291.94
626.259	278.94
626.466	287.94
626.673	261.94
626.879	286.94
627.086	288.94
627.293	267.94
627.499	274.94
627.706	286.94
627.912	296.94
628.119	273.94
628.325	269.94
628.532	267.94
628.738	268.94
628.945	260.94
629.151	281.94
629.357	275.94
629.564	261.94
629.77	264.94
629.976	270.94
630.183	266.94
630.389	265.94
630.595	255.94
630.802	266.94
631.008	288.94
631.214	247.94
631.42	260.94
631.627	265.94
631.833	257.94
632.039	248.94
632.245	244.94
632.451	254.94
632.657	248.94
632.863	244.94
633.069	242.94
633.275	246.94
633.481	262.94
633.688	239.94
633.893	244.94
634.099	231.94
634.305	259.94
634.511	261.94
634.717	249.94
634.923	235.94
635.129	233.94
635.335	239.94
635.541	245.94
635.747	245.94
635.952	244.94
636.158	226.94
636.364	228.94
636.57	237.94
636.775	239.94
636.981	221.94
637.187	240.94
637.392	239.94
637.598	218.94
637.804	229.94
638.009	221.94
638.215	223.94
638.421	224.94
638.626	218.94
638.832	206.94
639.037	222.94
639.243	222.94
639.448	232.94
639.654	246.94
639.859	230.94
640.065	229.94
640.27	232.94
640.475	223.94
640.681	203.94
640.886	214.94
641.091	207.94
641.297	223.94
641.502	225.94
641.707	207.94
641.913	223.94
642.118	209.94
642.323	220.94
642.528	212.94
642.733	212.94
642.939	214.94
643.144	216.94
643.349	212.94
643.554	204.94
643.759	210.94
643.964	201.94
644.169	222.94
644.374	218.94
644.579	223.94
644.784	203.94
644.989	198.94
645.194	215.94
645.399	192.94
645.604	201.94
645.809	208.94
646.014	208.94
646.219	201.94
646.423	206.94
646.628	207.94
646.833	207.94
647.038	197.94
647.243	210.94
647.447	232.94
647.652	205.94
647.857	201.94
648.062	221.94
648.266	216.94
648.471	224.94
648.676	218.94
648.88	222.94
649.085	200.94
649.289	198.94
649.494	208.94
649.698	204.94
649.903	210.94
650.107	198.94
650.312	189.94
650.516	199.94
650.721	203.94
650.925	183.94
651.13	183.94
651.334	167.94
651.539	169.94
651.743	170.94
651.947	178.94
652.152	190.94
652.356	167.94
652.56	162.94
652.764	171.94
652.969	178.94
653.173	172.94
653.377	160.94
653.581	171.94
653.785	163.94
653.99	160.94
654.194	154.94
654.398	160.94
654.602	154.94
654.806	166.94
655.01	147.94
655.214	152.94
655.418	125.94
655.622	146.94
655.826	134.94
656.03	141.94
656.234	147.94
656.438	153.94
656.642	129.94
656.846	130.94
657.049	146.94
657.253	148.94
657.457	115.94
657.661	132.94
657.865	134.94
658.068	111.94
658.272	102.94
658.476	118.94
658.68	103.94
658.883	100.94
659.087	113.94
659.291	95.94
659.494	101.94
659.698	114.94
659.901	109.94
660.105	105.94
660.309	95.94
660.512	89.94
660.716	89.94
660.919	101.94
661.123	104.94
661.326	98.94
661.53	89.94
661.733	86.94
661.936	87.94
662.14	95.94
662.343	96.94
662.546	82.94
662.75	85.94
662.953	88.94
663.156	81.94
663.36	90.94
663.563	80.94
663.766	85.94
663.969	75.94
664.173	70.94
664.376	80.94
664.579	81.94
664.782	91.94
664.985	79.94
665.188	87.94
665.391	76.94
665.594	81.94
665.797	83.94
666	83.94
666.203	71.94
666.406	89.94
666.609	75.94
666.812	85.94
667.015	80.94
667.218	86.94
667.421	75.94
667.624	77.94
667.827	86.94
668.03	83.94
668.232	65.94
668.435	82.94
668.638	78.94
668.841	72.94
669.043	73.94
669.246	62.94
669.449	76.94
669.651	75.94
669.854	89.94
670.057	86.94
670.259	81.94
670.462	82.94
670.665	77.94
670.867	92.94
671.07	82.94
671.272	93.94
671.475	77.94
671.677	80.94
671.88	71.94
672.082	87.94
672.284	85.94
672.487	81.94
672.689	87.94
672.892	70.94
