Data from NiCl2@0.25M.TitratingCurve.Agarose3%dH2O.NegLispCup.LampEnergy10.LIBS07252019_HRD10591_18-24-24-573.txt Node
Date: Thu Jul 25 18:24:24 EDT 2019
User: cochatt
Spectrometer: HR+D1059
Trigger mode: 1
Integration Time (sec): 1.000000E-1
Scans to average: 1
Electric dark correction enabled: true
Nonlinearity correction enabled: false
Boxcar width: 0
XAxis mode: Wavelengths
Number of Pixels in Spectrum: 2048
>>>>>Begin Spectral Data<<<<<
223.165	-11.62
223.4	-11.62
223.635	-11.62
223.869	-0.62
224.104	-16.62
224.338	-16.62
224.573	-7.62
224.808	-7.62
225.042	-15.62
225.277	-0.62
225.511	-8.62
225.746	3.38
225.98	8.38
226.215	9.38
226.449	2.38
226.683	3.38
226.918	30.38
227.152	28.38
227.387	25.38
227.621	44.38
227.856	53.38
228.09	40.38
228.324	39.38
228.559	50.38
228.793	76.38
229.027	112.38
229.262	128.38
229.496	127.38
229.73	119.38
229.964	126.38
230.199	132.38
230.433	121.38
230.667	145.38
230.901	148.38
231.136	145.38
231.37	146.38
231.604	149.38
231.838	153.38
232.072	157.38
232.306	157.38
232.541	164.38
232.775	150.38
233.009	163.38
233.243	168.38
233.477	162.38
233.711	164.38
233.945	144.38
234.179	150.38
234.413	178.38
234.647	169.38
234.881	164.38
235.115	159.38
235.349	163.38
235.583	166.38
235.817	178.38
236.051	162.38
236.285	164.38
236.519	169.38
236.753	158.38
236.987	159.38
237.221	166.38
237.455	169.38
237.689	184.38
237.922	171.38
238.156	184.38
238.39	176.38
238.624	185.38
238.858	176.38
239.091	190.38
239.325	187.38
239.559	201.38
239.793	194.38
240.027	211.38
240.26	186.38
240.494	199.38
240.728	186.38
240.961	211.38
241.195	192.38
241.429	220.38
241.662	205.38
241.896	209.38
242.13	208.38
242.363	205.38
242.597	201.38
242.83	213.38
243.064	215.38
243.298	219.38
243.531	231.38
243.765	238.38
243.998	222.38
244.232	231.38
244.465	220.38
244.699	223.38
244.932	242.38
245.166	238.38
245.399	231.38
245.633	231.38
245.866	238.38
246.099	247.38
246.333	241.38
246.566	254.38
246.8	259.38
247.033	246.38
247.266	267.38
247.5	249.38
247.733	250.38
247.966	255.38
248.2	264.38
248.433	264.38
248.666	275.38
248.899	261.38
249.133	264.38
249.366	258.38
249.599	283.38
249.832	270.38
250.066	277.38
250.299	287.38
250.532	279.38
250.765	304.38
250.998	299.38
251.231	278.38
251.465	288.38
251.698	288.38
251.931	284.38
252.164	282.38
252.397	311.38
252.63	305.38
252.863	303.38
253.096	314.38
253.329	312.38
253.562	309.38
253.795	310.38
254.028	299.38
254.261	305.38
254.494	309.38
254.727	315.38
254.96	300.38
255.193	310.38
255.426	331.38
255.659	315.38
255.892	327.38
256.124	309.38
256.357	328.38
256.59	321.38
256.823	329.38
257.056	317.38
257.289	324.38
257.521	321.38
257.754	345.38
257.987	339.38
258.22	346.38
258.452	330.38
258.685	348.38
258.918	347.38
259.151	355.38
259.383	366.38
259.616	354.38
259.849	368.38
260.081	344.38
260.314	364.38
260.547	363.38
260.779	369.38
261.012	340.38
261.244	363.38
261.477	358.38
261.71	358.38
261.942	353.38
262.175	367.38
262.407	367.38
262.64	375.38
262.872	368.38
263.105	350.38
263.337	382.38
263.57	378.38
263.802	377.38
264.035	400.38
264.267	392.38
264.499	396.38
264.732	391.38
264.964	389.38
265.197	366.38
265.429	395.38
265.661	384.38
265.894	390.38
266.126	397.38
266.358	389.38
266.591	408.38
266.823	399.38
267.055	392.38
267.287	384.38
267.52	406.38
267.752	398.38
267.984	388.38
268.216	419.38
268.448	418.38
268.681	439.38
268.913	411.38
269.145	414.38
269.377	430.38
269.609	428.38
269.841	422.38
270.073	419.38
270.306	418.38
270.538	410.38
270.77	421.38
271.002	417.38
271.234	449.38
271.466	432.38
271.698	441.38
271.93	450.38
272.162	451.38
272.394	434.38
272.626	442.38
272.858	434.38
273.09	436.38
273.322	459.38
273.553	458.38
273.785	454.38
274.017	451.38
274.249	465.38
274.481	469.38
274.713	476.38
274.945	443.38
275.176	457.38
275.408	453.38
275.64	469.38
275.872	478.38
276.104	466.38
276.335	466.38
276.567	485.38
276.799	466.38
277.031	474.38
277.262	482.38
277.494	465.38
277.726	477.38
277.957	487.38
278.189	486.38
278.421	480.38
278.652	491.38
278.884	511.38
279.115	498.38
279.347	500.38
279.579	499.38
279.81	511.38
280.042	518.38
280.273	516.38
280.505	500.38
280.736	516.38
280.968	502.38
281.199	528.38
281.431	518.38
281.662	514.38
281.894	512.38
282.125	527.38
282.356	523.38
282.588	521.38
282.819	535.38
283.051	544.38
283.282	564.38
283.513	544.38
283.745	533.38
283.976	551.38
284.207	534.38
284.439	564.38
284.67	570.38
284.901	564.38
285.132	577.38
285.364	562.38
285.595	543.38
285.826	558.38
286.057	542.38
286.288	561.38
286.52	555.38
286.751	543.38
286.982	563.38
287.213	579.38
287.444	579.38
287.675	570.38
287.906	577.38
288.138	564.38
288.369	585.38
288.6	583.38
288.831	590.38
289.062	567.38
289.293	591.38
289.524	576.38
289.755	588.38
289.986	606.38
290.217	586.38
290.448	572.38
290.679	598.38
290.91	597.38
291.141	604.38
291.371	595.38
291.602	591.38
291.833	618.38
292.064	600.38
292.295	604.38
292.526	595.38
292.757	605.38
292.987	605.38
293.218	625.38
293.449	608.38
293.68	603.38
293.91	594.38
294.141	597.38
294.372	605.38
294.603	596.38
294.833	628.38
295.064	610.38
295.295	615.38
295.525	606.38
295.756	632.38
295.987	583.38
296.217	605.38
296.448	606.38
296.679	626.38
296.909	627.38
297.14	615.38
297.37	649.38
297.601	646.38
297.831	629.38
298.062	648.38
298.292	623.38
298.523	696.38
298.753	656.38
298.984	645.38
299.214	648.38
299.445	642.38
299.675	646.38
299.905	640.38
300.136	636.38
300.366	660.38
300.597	673.38
300.827	690.38
301.057	690.38
301.288	690.38
301.518	691.38
301.748	705.38
301.979	696.38
302.209	666.38
302.439	698.38
302.669	675.38
302.9	659.38
303.13	659.38
303.36	673.38
303.59	673.38
303.82	679.38
304.051	680.38
304.281	683.38
304.511	670.38
304.741	652.38
304.971	682.38
305.201	688.38
305.431	681.38
305.661	685.38
305.891	674.38
306.121	690.38
306.352	658.38
306.582	663.38
306.812	671.38
307.042	688.38
307.272	667.38
307.502	682.38
307.731	662.38
307.961	654.38
308.191	635.38
308.421	667.38
308.651	672.38
308.881	662.38
309.111	674.38
309.341	668.38
309.571	674.38
309.8	664.38
310.03	673.38
310.26	663.38
310.49	674.38
310.72	669.38
310.949	674.38
311.179	698.38
311.409	694.38
311.639	679.38
311.868	669.38
312.098	689.38
312.328	682.38
312.557	690.38
312.787	694.38
313.017	676.38
313.246	718.38
313.476	739.38
313.706	729.38
313.935	720.38
314.165	729.38
314.394	704.38
314.624	733.38
314.853	722.38
315.083	720.38
315.312	719.38
315.542	728.38
315.771	699.38
316.001	694.38
316.23	706.38
316.46	725.38
316.689	727.38
316.919	709.38
317.148	708.38
317.377	702.38
317.607	690.38
317.836	685.38
318.065	703.38
318.295	710.38
318.524	698.38
318.753	698.38
318.983	706.38
319.212	666.38
319.441	711.38
319.67	682.38
319.9	711.38
320.129	692.38
320.358	704.38
320.587	710.38
320.816	693.38
321.046	708.38
321.275	712.38
321.504	699.38
321.733	739.38
321.962	704.38
322.191	699.38
322.42	721.38
322.649	718.38
322.878	703.38
323.108	711.38
323.337	724.38
323.566	711.38
323.795	741.38
324.024	741.38
324.253	735.38
324.482	715.38
324.71	707.38
324.939	719.38
325.168	733.38
325.397	751.38
325.626	755.38
325.855	776.38
326.084	782.38
326.313	766.38
326.542	778.38
326.77	799.38
326.999	766.38
327.228	762.38
327.457	771.38
327.686	768.38
327.914	786.38
328.143	788.38
328.372	777.38
328.6	792.38
328.829	773.38
329.058	779.38
329.287	790.38
329.515	795.38
329.744	780.38
329.972	800.38
330.201	796.38
330.43	790.38
330.658	794.38
330.887	801.38
331.115	821.38
331.344	840.38
331.572	844.38
331.801	872.38
332.03	893.38
332.258	888.38
332.486	921.38
332.715	904.38
332.943	983.38
333.172	1023.38
333.4	1056.38
333.629	1091.38
333.857	1069.38
334.085	1051.38
334.314	1041.38
334.542	1024.38
334.771	1004.38
334.999	1000.38
335.227	979.38
335.455	988.38
335.684	966.38
335.912	957.38
336.14	961.38
336.369	929.38
336.597	930.38
336.825	942.38
337.053	936.38
337.281	914.38
337.51	887.38
337.738	874.38
337.966	896.38
338.194	891.38
338.422	867.38
338.65	865.38
338.878	840.38
339.106	860.38
339.334	846.38
339.562	835.38
339.79	835.38
340.018	843.38
340.246	816.38
340.474	831.38
340.702	843.38
340.93	811.38
341.158	843.38
341.386	800.38
341.614	811.38
341.842	803.38
342.07	809.38
342.298	814.38
342.526	820.38
342.754	822.38
342.981	807.38
343.209	833.38
343.437	868.38
343.665	929.38
343.893	998.38
344.12	1055.38
344.348	994.38
344.576	920.38
344.804	896.38
345.031	841.38
345.259	833.38
345.487	818.38
345.714	803.38
345.942	810.38
346.17	794.38
346.397	794.38
346.625	796.38
346.853	790.38
347.08	788.38
347.308	770.38
347.535	798.38
347.763	794.38
347.99	803.38
348.218	802.38
348.445	785.38
348.673	774.38
348.9	785.38
349.128	790.38
349.355	776.38
349.583	760.38
349.81	762.38
350.037	791.38
350.265	774.38
350.492	785.38
350.72	788.38
350.947	772.38
351.174	747.38
351.402	782.38
351.629	760.38
351.856	758.38
352.083	751.38
352.311	741.38
352.538	770.38
352.765	768.38
352.992	742.38
353.22	726.38
353.447	754.38
353.674	769.38
353.901	747.38
354.128	746.38
354.355	723.38
354.583	750.38
354.81	788.38
355.037	774.38
355.264	753.38
355.491	723.38
355.718	755.38
355.945	736.38
356.172	788.38
356.399	762.38
356.626	778.38
356.853	760.38
357.08	784.38
357.307	742.38
357.534	771.38
357.761	751.38
357.988	744.38
358.215	760.38
358.441	768.38
358.668	757.38
358.895	762.38
359.122	759.38
359.349	754.38
359.576	770.38
359.802	747.38
360.029	772.38
360.256	755.38
360.483	726.38
360.709	764.38
360.936	777.38
361.163	771.38
361.39	766.38
361.616	762.38
361.843	751.38
362.07	766.38
362.296	786.38
362.523	759.38
362.749	770.38
362.976	750.38
363.203	750.38
363.429	731.38
363.656	752.38
363.882	743.38
364.109	776.38
364.335	768.38
364.562	736.38
364.788	743.38
365.015	743.38
365.241	748.38
365.468	742.38
365.694	743.38
365.92	755.38
366.147	761.38
366.373	752.38
366.599	767.38
366.826	756.38
367.052	748.38
367.278	765.38
367.505	735.38
367.731	757.38
367.957	754.38
368.184	769.38
368.41	786.38
368.636	763.38
368.862	760.38
369.089	784.38
369.315	784.38
369.541	775.38
369.767	778.38
369.993	784.38
370.219	794.38
370.445	805.38
370.672	809.38
370.898	806.38
371.124	836.38
371.35	825.38
371.576	848.38
371.802	818.38
372.028	827.38
372.254	772.38
372.48	832.38
372.706	852.38
372.932	847.38
373.158	853.38
373.384	848.38
373.61	826.38
373.835	832.38
374.061	830.38
374.287	827.38
374.513	839.38
374.739	859.38
374.965	891.38
375.191	933.38
375.416	907.38
375.642	889.38
375.868	886.38
376.094	867.38
376.319	850.38
376.545	863.38
376.771	819.38
376.997	814.38
377.222	827.38
377.448	821.38
377.674	856.38
377.899	817.38
378.125	788.38
378.35	831.38
378.576	778.38
378.802	819.38
379.027	811.38
379.253	824.38
379.478	800.38
379.704	803.38
379.929	826.38
380.155	818.38
380.38	804.38
380.606	823.38
380.831	782.38
381.057	852.38
381.282	808.38
381.507	834.38
381.733	845.38
381.958	807.38
382.184	818.38
382.409	846.38
382.634	873.38
382.86	864.38
383.085	858.38
383.31	888.38
383.535	899.38
383.761	921.38
383.986	949.38
384.211	951.38
384.436	983.38
384.662	992.38
384.887	991.38
385.112	997.38
385.337	1006.38
385.562	1007.38
385.787	967.38
386.013	1026.38
386.238	1042.38
386.463	1008.38
386.688	1020.38
386.913	993.38
387.138	987.38
387.363	954.38
387.588	976.38
387.813	988.38
388.038	969.38
388.263	985.38
388.488	982.38
388.713	964.38
388.938	956.38
389.163	960.38
389.387	960.38
389.612	970.38
389.837	975.38
390.062	976.38
390.287	982.38
390.512	980.38
390.736	990.38
390.961	1008.38
391.186	1031.38
391.411	1039.38
391.636	1082.38
391.86	1105.38
392.085	1132.38
392.31	1151.38
392.534	1078.38
392.759	1061.38
392.984	1064.38
393.208	1058.38
393.433	1090.38
393.658	1047.38
393.882	1063.38
394.107	1074.38
394.331	1097.38
394.556	1064.38
394.78	1074.38
395.005	1065.38
395.229	1069.38
395.454	1105.38
395.678	1138.38
395.903	1148.38
396.127	1097.38
396.352	1058.38
396.576	1062.38
396.801	1052.38
397.025	1064.38
397.249	1059.38
397.474	1106.38
397.698	1160.38
397.922	1170.38
398.147	1116.38
398.371	1146.38
398.595	1186.38
398.82	1241.38
399.044	1313.38
399.268	1486.38
399.492	1769.38
399.717	1959.38
399.941	1940.38
400.165	1700.38
400.389	1527.38
400.613	1406.38
400.837	1338.38
401.062	1300.38
401.286	1229.38
401.51	1255.38
401.734	1278.38
401.958	1273.38
402.182	1326.38
402.406	1306.38
402.63	1310.38
402.854	1339.38
403.078	1366.38
403.302	1390.38
403.526	1414.38
403.75	1450.38
403.974	1519.38
404.198	1495.38
404.422	1500.38
404.645	1455.38
404.869	1448.38
405.093	1443.38
405.317	1423.38
405.541	1405.38
405.765	1386.38
405.988	1356.38
406.212	1382.38
406.436	1376.38
406.66	1417.38
406.883	1412.38
407.107	1512.38
407.331	1620.38
407.555	1654.38
407.778	1617.38
408.002	1588.38
408.226	1534.38
408.449	1528.38
408.673	1465.38
408.896	1458.38
409.12	1411.38
409.344	1442.38
409.567	1380.38
409.791	1432.38
410.014	1402.38
410.238	1405.38
410.461	1406.38
410.685	1383.38
410.908	1360.38
411.132	1351.38
411.355	1296.38
411.578	1316.38
411.802	1271.38
412.025	1303.38
412.249	1316.38
412.472	1316.38
412.695	1287.38
412.919	1238.38
413.142	1227.38
413.365	1258.38
413.589	1243.38
413.812	1206.38
414.035	1210.38
414.258	1252.38
414.482	1269.38
414.705	1261.38
414.928	1288.38
415.151	1256.38
415.374	1263.38
415.597	1257.38
415.821	1234.38
416.044	1204.38
416.267	1179.38
416.49	1203.38
416.713	1218.38
416.936	1245.38
417.159	1193.38
417.382	1199.38
417.605	1202.38
417.828	1238.38
418.051	1258.38
418.274	1231.38
418.497	1237.38
418.72	1292.38
418.943	1278.38
419.166	1351.38
419.389	1458.38
419.611	1372.38
419.834	1337.38
420.057	1319.38
420.28	1231.38
420.503	1188.38
420.726	1185.38
420.948	1237.38
421.171	1258.38
421.394	1231.38
421.617	1225.38
421.839	1258.38
422.062	1231.38
422.285	1223.38
422.507	1246.38
422.73	1238.38
422.953	1282.38
423.175	1302.38
423.398	1300.38
423.621	1318.38
423.843	1336.38
424.066	1355.38
424.288	1339.38
424.511	1317.38
424.733	1267.38
424.956	1258.38
425.178	1268.38
425.401	1245.38
425.623	1241.38
425.846	1201.38
426.068	1192.38
426.291	1168.38
426.513	1160.38
426.735	1137.38
426.958	1150.38
427.18	1109.38
427.402	1120.38
427.625	1084.38
427.847	1098.38
428.069	1076.38
428.292	1103.38
428.514	1089.38
428.736	1072.38
428.958	1057.38
429.181	1063.38
429.403	1060.38
429.625	1074.38
429.847	1055.38
430.069	1077.38
430.292	1076.38
430.514	1024.38
430.736	1080.38
430.958	1064.38
431.18	1043.38
431.402	1064.38
431.624	1082.38
431.846	1101.38
432.068	1128.38
432.29	1094.38
432.512	1078.38
432.734	1088.38
432.956	1101.38
433.178	1079.38
433.4	1083.38
433.622	1078.38
433.844	1108.38
434.066	1079.38
434.287	1127.38
434.509	1153.38
434.731	1216.38
434.953	1216.38
435.175	1245.38
435.397	1219.38
435.618	1150.38
435.84	1151.38
436.062	1111.38
436.284	1081.38
436.505	1107.38
436.727	1096.38
436.949	1118.38
437.17	1074.38
437.392	1058.38
437.614	1052.38
437.835	1021.38
438.057	1044.38
438.278	1042.38
438.5	1057.38
438.721	1023.38
438.943	1050.38
439.165	1028.38
439.386	1042.38
439.608	1108.38
439.829	1099.38
440.05	1064.38
440.272	1081.38
440.493	1109.38
440.715	1087.38
440.936	1140.38
441.158	1147.38
441.379	1170.38
441.6	1230.38
441.822	1216.38
442.043	1237.38
442.264	1188.38
442.486	1164.38
442.707	1204.38
442.928	1157.38
443.149	1238.38
443.371	1198.38
443.592	1206.38
443.813	1242.38
444.034	1239.38
444.255	1291.38
444.476	1313.38
444.698	1426.38
444.919	1468.38
445.14	1544.38
445.361	1372.38
445.582	1268.38
445.803	1171.38
446.024	1175.38
446.245	1138.38
446.466	1100.38
446.687	1086.38
446.908	1095.38
447.129	1074.38
447.35	1038.38
447.571	1017.38
447.792	1019.38
448.013	1032.38
448.234	990.38
448.455	994.38
448.675	1012.38
448.896	998.38
449.117	974.38
449.338	954.38
449.559	969.38
449.779	928.38
450	956.38
450.221	974.38
450.442	1001.38
450.662	1031.38
450.883	1044.38
451.104	995.38
451.324	1030.38
451.545	1008.38
451.766	997.38
451.986	984.38
452.207	1021.38
452.428	1001.38
452.648	978.38
452.869	973.38
453.089	987.38
453.31	970.38
453.53	942.38
453.751	955.38
453.971	938.38
454.192	955.38
454.412	947.38
454.633	943.38
454.853	935.38
455.073	914.38
455.294	948.38
455.514	929.38
455.734	928.38
455.955	917.38
456.175	929.38
456.395	928.38
456.616	919.38
456.836	939.38
457.056	930.38
457.276	906.38
457.497	941.38
457.717	910.38
457.937	896.38
458.157	913.38
458.377	947.38
458.598	954.38
458.818	1007.38
459.038	1054.38
459.258	1056.38
459.478	1112.38
459.698	1107.38
459.918	1138.38
460.138	1244.38
460.358	1286.38
460.578	1282.38
460.798	1283.38
461.018	1328.38
461.238	1280.38
461.458	1296.38
461.678	1258.38
461.898	1322.38
462.118	1323.38
462.338	1379.38
462.558	1413.38
462.777	1447.38
462.997	1612.38
463.217	1794.38
463.437	1782.38
463.657	1580.38
463.876	1516.38
464.096	1508.38
464.316	1497.38
464.536	1512.38
464.755	1454.38
464.975	1403.38
465.195	1326.38
465.414	1253.38
465.634	1174.38
465.854	1145.38
466.073	1115.38
466.293	1094.38
466.512	1047.38
466.732	1036.38
466.951	1059.38
467.171	1035.38
467.391	1028.38
467.61	1026.38
467.829	1030.38
468.049	1015.38
468.268	994.38
468.488	991.38
468.707	1009.38
468.927	1004.38
469.146	999.38
469.365	984.38
469.585	994.38
469.804	1027.38
470.023	1040.38
470.243	1039.38
470.462	1058.38
470.681	1056.38
470.901	1092.38
471.12	1036.38
471.339	1025.38
471.558	1033.38
471.777	1017.38
471.997	995.38
472.216	997.38
472.435	986.38
472.654	958.38
472.873	949.38
473.092	959.38
473.311	958.38
473.53	970.38
473.749	952.38
473.968	951.38
474.187	950.38
474.406	967.38
474.625	969.38
474.844	967.38
475.063	977.38
475.282	978.38
475.501	959.38
475.72	946.38
475.939	995.38
476.158	1008.38
476.377	992.38
476.596	998.38
476.814	1047.38
477.033	1043.38
477.252	1074.38
477.471	1097.38
477.69	1104.38
477.908	1129.38
478.127	1156.38
478.346	1167.38
478.564	1177.38
478.783	1163.38
479.002	1218.38
479.22	1188.38
479.439	1229.38
479.658	1234.38
479.876	1228.38
480.095	1224.38
480.313	1303.38
480.532	1299.38
480.751	1314.38
480.969	1255.38
481.188	1204.38
481.406	1190.38
481.624	1169.38
481.843	1110.38
482.061	1110.38
482.28	1115.38
482.498	1123.38
482.717	1093.38
482.935	1100.38
483.153	1121.38
483.372	1114.38
483.59	1110.38
483.808	1127.38
484.027	1106.38
484.245	1123.38
484.463	1102.38
484.681	1130.38
484.9	1140.38
485.118	1130.38
485.336	1138.38
485.554	1153.38
485.772	1184.38
485.99	1154.38
486.209	1153.38
486.427	1196.38
486.645	1172.38
486.863	1171.38
487.081	1160.38
487.299	1172.38
487.517	1150.38
487.735	1152.38
487.953	1159.38
488.171	1181.38
488.389	1149.38
488.607	1146.38
488.825	1140.38
489.043	1108.38
489.261	1144.38
489.479	1190.38
489.696	1161.38
489.914	1156.38
490.132	1127.38
490.35	1179.38
490.568	1182.38
490.786	1152.38
491.003	1173.38
491.221	1187.38
491.439	1170.38
491.657	1184.38
491.874	1179.38
492.092	1171.38
492.31	1228.38
492.527	1189.38
492.745	1196.38
492.963	1220.38
493.18	1207.38
493.398	1206.38
493.615	1201.38
493.833	1239.38
494.05	1247.38
494.268	1267.38
494.485	1231.38
494.703	1223.38
494.92	1242.38
495.138	1232.38
495.355	1236.38
495.573	1216.38
495.79	1234.38
496.008	1276.38
496.225	1230.38
496.442	1310.38
496.66	1285.38
496.877	1320.38
497.094	1323.38
497.312	1354.38
497.529	1384.38
497.746	1434.38
497.963	1476.38
498.181	1582.38
498.398	1614.38
498.615	1701.38
498.832	1793.38
499.049	1978.38
499.267	2112.38
499.484	2323.38
499.701	2573.38
499.918	2895.38
500.135	3361.38
500.352	3808.38
500.569	4022.38
500.786	3954.38
501.003	3598.38
501.22	3231.38
501.437	2868.38
501.654	2471.38
501.871	2229.38
502.088	2026.38
502.305	1894.38
502.522	1838.38
502.739	1763.38
502.956	1622.38
503.172	1613.38
503.389	1485.38
503.606	1460.38
503.823	1415.38
504.04	1438.38
504.256	1470.38
504.473	1497.38
504.69	1510.38
504.907	1467.38
505.123	1365.38
505.34	1319.38
505.557	1275.38
505.773	1207.38
505.99	1164.38
506.207	1160.38
506.423	1124.38
506.64	1132.38
506.856	1150.38
507.073	1078.38
507.289	1118.38
507.506	1099.38
507.722	1095.38
507.939	1068.38
508.155	1051.38
508.372	1063.38
508.588	1042.38
508.805	1035.38
509.021	1054.38
509.238	1033.38
509.454	1032.38
509.67	1002.38
509.887	992.38
510.103	1024.38
510.319	1007.38
510.536	1019.38
510.752	987.38
510.968	1009.38
511.184	999.38
511.401	1013.38
511.617	999.38
511.833	976.38
512.049	966.38
512.265	975.38
512.481	1000.38
512.698	984.38
512.914	997.38
513.13	992.38
513.346	985.38
513.562	986.38
513.778	1002.38
513.994	1013.38
514.21	991.38
514.426	995.38
514.642	1002.38
514.858	1009.38
515.074	1034.38
515.29	1027.38
515.506	1037.38
515.721	1026.38
515.937	1075.38
516.153	1066.38
516.369	1112.38
516.585	1131.38
516.801	1199.38
517.016	1211.38
517.232	1300.38
517.448	1384.38
517.664	1427.38
517.879	1418.38
518.095	1423.38
518.311	1404.38
518.527	1321.38
518.742	1250.38
518.958	1191.38
519.173	1179.38
519.389	1143.38
519.605	1106.38
519.82	1098.38
520.036	1074.38
520.251	1042.38
520.467	1034.38
520.682	1034.38
520.898	1030.38
521.113	1027.38
521.329	969.38
521.544	987.38
521.76	941.38
521.975	976.38
522.19	946.38
522.406	930.38
522.621	949.38
522.836	953.38
523.052	942.38
523.267	950.38
523.482	944.38
523.698	891.38
523.913	917.38
524.128	916.38
524.343	918.38
524.559	912.38
524.774	907.38
524.989	920.38
525.204	931.38
525.419	896.38
525.634	899.38
525.849	899.38
526.064	905.38
526.28	890.38
526.495	906.38
526.71	931.38
526.925	886.38
527.14	896.38
527.355	887.38
527.57	838.38
527.785	888.38
527.999	890.38
528.214	878.38
528.429	883.38
528.644	908.38
528.859	866.38
529.074	902.38
529.289	902.38
529.503	903.38
529.718	914.38
529.933	909.38
530.148	890.38
530.363	890.38
530.577	894.38
530.792	886.38
531.007	922.38
531.221	899.38
531.436	874.38
531.651	894.38
531.865	918.38
532.08	874.38
532.295	891.38
532.509	882.38
532.724	884.38
532.938	899.38
533.153	896.38
533.367	893.38
533.582	895.38
533.796	911.38
534.011	887.38
534.225	879.38
534.44	891.38
534.654	874.38
534.868	869.38
535.083	838.38
535.297	839.38
535.511	850.38
535.726	878.38
535.94	865.38
536.154	834.38
536.369	820.38
536.583	833.38
536.797	808.38
537.011	832.38
537.225	826.38
537.44	808.38
537.654	856.38
537.868	806.38
538.082	843.38
538.296	807.38
538.51	831.38
538.724	807.38
538.938	822.38
539.153	819.38
539.367	791.38
539.581	792.38
539.795	781.38
540.009	819.38
540.222	797.38
540.436	810.38
540.65	796.38
540.864	790.38
541.078	776.38
541.292	797.38
541.506	795.38
541.72	802.38
541.934	778.38
542.147	802.38
542.361	792.38
542.575	802.38
542.789	807.38
543.002	769.38
543.216	771.38
543.43	739.38
543.644	770.38
543.857	761.38
544.071	796.38
544.285	802.38
544.498	814.38
544.712	814.38
544.925	808.38
545.139	793.38
545.352	828.38
545.566	838.38
545.779	847.38
545.993	828.38
546.206	834.38
546.42	818.38
546.633	843.38
546.847	827.38
547.06	784.38
547.274	816.38
547.487	814.38
547.7	808.38
547.914	822.38
548.127	814.38
548.34	830.38
548.554	817.38
548.767	830.38
548.98	831.38
549.193	809.38
549.407	809.38
549.62	831.38
549.833	844.38
550.046	835.38
550.259	836.38
550.473	802.38
550.686	820.38
550.899	816.38
551.112	816.38
551.325	788.38
551.538	830.38
551.751	795.38
551.964	824.38
552.177	800.38
552.39	818.38
552.603	830.38
552.816	851.38
553.029	872.38
553.242	914.38
553.455	889.38
553.667	877.38
553.88	907.38
554.093	870.38
554.306	836.38
554.519	840.38
554.732	812.38
554.944	768.38
555.157	801.38
555.37	770.38
555.583	756.38
555.795	770.38
556.008	723.38
556.221	707.38
556.433	710.38
556.646	724.38
556.859	722.38
557.071	701.38
557.284	704.38
557.496	699.38
557.709	687.38
557.921	690.38
558.134	689.38
558.346	678.38
558.559	674.38
558.771	702.38
558.984	674.38
559.196	678.38
559.409	670.38
559.621	671.38
559.833	675.38
560.046	672.38
560.258	668.38
560.47	642.38
560.683	675.38
560.895	670.38
561.107	666.38
561.32	664.38
561.532	666.38
561.744	651.38
561.956	682.38
562.168	678.38
562.381	631.38
562.593	679.38
562.805	672.38
563.017	660.38
563.229	676.38
563.441	670.38
563.653	683.38
563.865	692.38
564.077	672.38
564.289	672.38
564.501	703.38
564.713	740.38
564.925	735.38
565.137	735.38
565.349	743.38
565.561	773.38
565.773	802.38
565.985	838.38
566.197	888.38
566.408	930.38
566.62	1031.38
566.832	1126.38
567.044	1130.38
567.255	1118.38
567.467	1138.38
567.679	1220.38
567.891	1348.38
568.102	1337.38
568.314	1288.38
568.526	1160.38
568.737	1040.38
568.949	958.38
569.161	906.38
569.372	825.38
569.584	752.38
569.795	745.38
570.007	687.38
570.218	697.38
570.43	678.38
570.641	698.38
570.853	697.38
571.064	704.38
571.276	699.38
571.487	657.38
571.698	661.38
571.91	643.38
572.121	607.38
572.333	583.38
572.544	590.38
572.755	593.38
572.966	573.38
573.178	587.38
573.389	559.38
573.6	556.38
573.811	588.38
574.023	563.38
574.234	529.38
574.445	553.38
574.656	532.38
574.867	568.38
575.078	570.38
575.289	551.38
575.501	534.38
575.712	507.38
575.923	520.38
576.134	503.38
576.345	524.38
576.556	513.38
576.767	537.38
576.978	514.38
577.188	519.38
577.399	536.38
577.61	491.38
577.821	510.38
578.032	459.38
578.243	489.38
578.454	481.38
578.665	488.38
578.875	491.38
579.086	471.38
579.297	477.38
579.508	491.38
579.718	484.38
579.929	489.38
580.14	486.38
580.35	464.38
580.561	478.38
580.772	459.38
580.982	458.38
581.193	449.38
581.403	480.38
581.614	459.38
581.825	456.38
582.035	444.38
582.246	458.38
582.456	460.38
582.667	457.38
582.877	467.38
583.087	441.38
583.298	463.38
583.508	454.38
583.719	454.38
583.929	460.38
584.139	470.38
584.35	452.38
584.56	443.38
584.77	443.38
584.981	424.38
585.191	428.38
585.401	417.38
585.611	445.38
585.821	455.38
586.032	437.38
586.242	423.38
586.452	438.38
586.662	440.38
586.872	437.38
587.082	425.38
587.292	430.38
587.502	426.38
587.713	420.38
587.923	438.38
588.133	438.38
588.343	431.38
588.553	434.38
588.762	437.38
588.972	453.38
589.182	469.38
589.392	444.38
589.602	452.38
589.812	445.38
590.022	460.38
590.232	448.38
590.441	426.38
590.651	435.38
590.861	422.38
591.071	458.38
591.281	454.38
591.49	456.38
591.7	468.38
591.91	470.38
592.119	464.38
592.329	494.38
592.539	498.38
592.748	528.38
592.958	534.38
593.167	535.38
593.377	554.38
593.587	556.38
593.796	533.38
594.006	582.38
594.215	578.38
594.424	584.38
594.634	562.38
594.843	534.38
595.053	533.38
595.262	502.38
595.472	491.38
595.681	474.38
595.89	440.38
596.1	426.38
596.309	420.38
596.518	428.38
596.727	423.38
596.937	430.38
597.146	406.38
597.355	397.38
597.564	397.38
597.774	391.38
597.983	378.38
598.192	378.38
598.401	372.38
598.61	390.38
598.819	402.38
599.028	412.38
599.237	376.38
599.446	364.38
599.655	370.38
599.864	358.38
600.073	374.38
600.282	386.38
600.491	374.38
600.7	364.38
600.909	371.38
601.118	343.38
601.327	340.38
601.536	346.38
601.745	330.38
601.953	366.38
602.162	368.38
602.371	360.38
602.58	366.38
602.789	365.38
602.997	339.38
603.206	358.38
603.415	346.38
603.623	331.38
603.832	340.38
604.041	357.38
604.249	340.38
604.458	351.38
604.666	360.38
604.875	342.38
605.084	355.38
605.292	322.38
605.501	350.38
605.709	343.38
605.918	341.38
606.126	333.38
606.334	356.38
606.543	342.38
606.751	336.38
606.96	320.38
607.168	344.38
607.376	311.38
607.585	323.38
607.793	342.38
608.001	327.38
608.21	318.38
608.418	332.38
608.626	339.38
608.834	330.38
609.043	326.38
609.251	329.38
609.459	335.38
609.667	327.38
609.875	327.38
610.083	331.38
610.291	335.38
610.499	332.38
610.707	322.38
610.916	298.38
611.124	316.38
611.332	305.38
611.54	346.38
611.748	313.38
611.955	315.38
612.163	311.38
612.371	328.38
612.579	309.38
612.787	305.38
612.995	312.38
613.203	322.38
613.411	324.38
613.618	311.38
613.826	307.38
614.034	306.38
614.242	311.38
614.449	325.38
614.657	314.38
614.865	300.38
615.072	308.38
615.28	319.38
615.488	308.38
615.695	298.38
615.903	320.38
616.111	306.38
616.318	313.38
616.526	309.38
616.733	322.38
616.941	320.38
617.148	331.38
617.356	313.38
617.563	316.38
617.771	335.38
617.978	304.38
618.185	325.38
618.393	331.38
618.6	316.38
618.807	309.38
619.015	314.38
619.222	297.38
619.429	299.38
619.637	309.38
619.844	296.38
620.051	296.38
620.258	295.38
620.466	280.38
620.673	285.38
620.88	293.38
621.087	272.38
621.294	281.38
621.501	280.38
621.708	278.38
621.915	263.38
622.122	277.38
622.329	278.38
622.536	279.38
622.743	290.38
622.95	273.38
623.157	291.38
623.364	296.38
623.571	294.38
623.778	259.38
623.985	282.38
624.192	276.38
624.399	283.38
624.606	261.38
624.812	258.38
625.019	267.38
625.226	283.38
625.433	267.38
625.639	261.38
625.846	256.38
626.053	245.38
626.259	257.38
626.466	266.38
626.673	249.38
626.879	253.38
627.086	294.38
627.293	264.38
627.499	242.38
627.706	265.38
627.912	259.38
628.119	266.38
628.325	268.38
628.532	243.38
628.738	275.38
628.945	278.38
629.151	256.38
629.357	250.38
629.564	255.38
629.77	247.38
629.976	255.38
630.183	254.38
630.389	246.38
630.595	253.38
630.802	247.38
631.008	238.38
631.214	224.38
631.42	244.38
631.627	237.38
631.833	243.38
632.039	258.38
632.245	239.38
632.451	239.38
632.657	251.38
632.863	232.38
633.069	233.38
633.275	237.38
633.481	226.38
633.688	219.38
633.893	239.38
634.099	227.38
634.305	228.38
634.511	220.38
634.717	228.38
634.923	219.38
635.129	209.38
635.335	211.38
635.541	230.38
635.747	238.38
635.952	222.38
636.158	226.38
636.364	222.38
636.57	231.38
636.775	238.38
636.981	232.38
637.187	213.38
637.392	215.38
637.598	213.38
637.804	211.38
638.009	214.38
638.215	213.38
638.421	210.38
638.626	227.38
638.832	220.38
639.037	213.38
639.243	217.38
639.448	219.38
639.654	220.38
639.859	225.38
640.065	216.38
640.27	216.38
640.475	229.38
640.681	213.38
640.886	206.38
641.091	216.38
641.297	228.38
641.502	211.38
641.707	202.38
641.913	210.38
642.118	208.38
642.323	207.38
642.528	193.38
642.733	211.38
642.939	196.38
643.144	203.38
643.349	206.38
643.554	212.38
643.759	210.38
643.964	197.38
644.169	192.38
644.374	203.38
644.579	204.38
644.784	186.38
644.989	202.38
645.194	204.38
645.399	190.38
645.604	174.38
645.809	197.38
646.014	206.38
646.219	191.38
646.423	208.38
646.628	201.38
646.833	190.38
647.038	222.38
647.243	195.38
647.447	204.38
647.652	218.38
647.857	194.38
648.062	231.38
648.266	211.38
648.471	225.38
648.676	212.38
648.88	207.38
649.085	195.38
649.289	192.38
649.494	198.38
649.698	178.38
649.903	196.38
650.107	190.38
650.312	192.38
650.516	202.38
650.721	193.38
650.925	195.38
651.13	178.38
651.334	188.38
651.539	169.38
651.743	178.38
651.947	167.38
652.152	176.38
652.356	184.38
652.56	174.38
652.764	164.38
652.969	160.38
653.173	180.38
653.377	161.38
653.581	166.38
653.785	160.38
653.99	145.38
654.194	152.38
654.398	153.38
654.602	135.38
654.806	148.38
655.01	160.38
655.214	157.38
655.418	142.38
655.622	142.38
655.826	138.38
656.03	134.38
656.234	137.38
656.438	132.38
656.642	142.38
656.846	116.38
657.049	131.38
657.253	138.38
657.457	128.38
657.661	130.38
657.865	135.38
658.068	105.38
658.272	124.38
658.476	113.38
658.68	106.38
658.883	117.38
659.087	94.38
659.291	107.38
659.494	101.38
659.698	92.38
659.901	115.38
660.105	98.38
660.309	109.38
660.512	76.38
660.716	98.38
660.919	108.38
661.123	106.38
661.326	105.38
661.53	106.38
661.733	95.38
661.936	96.38
662.14	97.38
662.343	96.38
662.546	88.38
662.75	87.38
662.953	94.38
663.156	84.38
663.36	87.38
663.563	66.38
663.766	83.38
663.969	81.38
664.173	74.38
664.376	96.38
664.579	97.38
664.782	93.38
664.985	70.38
665.188	78.38
665.391	94.38
665.594	92.38
665.797	70.38
666	80.38
666.203	68.38
666.406	89.38
666.609	101.38
666.812	81.38
667.015	83.38
667.218	88.38
667.421	76.38
667.624	80.38
667.827	73.38
668.03	75.38
668.232	75.38
668.435	79.38
668.638	88.38
668.841	79.38
669.043	80.38
669.246	79.38
669.449	67.38
669.651	76.38
669.854	83.38
670.057	74.38
670.259	75.38
670.462	90.38
670.665	85.38
670.867	79.38
671.07	82.38
671.272	81.38
671.475	81.38
671.677	69.38
671.88	76.38
672.082	81.38
672.284	84.38
672.487	80.38
672.689	85.38
672.892	88.38
