Data from NiCl2@0.0625M.TitratingCurve.Agarose3%dH2O.NegLispCup.LampEnergy10.LIBS07252019_HRD10591_18-35-18-577.txt Node
Date: Thu Jul 25 18:35:18 EDT 2019
User: cochatt
Spectrometer: HR+D1059
Trigger mode: 1
Integration Time (sec): 1.000000E-1
Scans to average: 1
Electric dark correction enabled: true
Nonlinearity correction enabled: false
Boxcar width: 0
XAxis mode: Wavelengths
Number of Pixels in Spectrum: 2048
>>>>>Begin Spectral Data<<<<<
223.165	0.94
223.4	0.94
223.635	0.94
223.869	-9.06
224.104	-24.06
224.338	-27.06
224.573	-11.06
224.808	-12.06
225.042	-14.06
225.277	0.94
225.511	-8.06
225.746	-0.06
225.98	8.94
226.215	13.94
226.449	12.94
226.683	18.94
226.918	9.94
227.152	38.94
227.387	24.94
227.621	25.94
227.856	40.94
228.09	33.94
228.324	42.94
228.559	48.94
228.793	71.94
229.027	126.94
229.262	135.94
229.496	157.94
229.73	157.94
229.964	163.94
230.199	164.94
230.433	166.94
230.667	165.94
230.901	172.94
231.136	165.94
231.37	181.94
231.604	183.94
231.838	189.94
232.072	205.94
232.306	175.94
232.541	171.94
232.775	170.94
233.009	181.94
233.243	192.94
233.477	190.94
233.711	186.94
233.945	197.94
234.179	192.94
234.413	207.94
234.647	204.94
234.881	208.94
235.115	202.94
235.349	190.94
235.583	193.94
235.817	197.94
236.051	210.94
236.285	220.94
236.519	210.94
236.753	223.94
236.987	192.94
237.221	216.94
237.455	223.94
237.689	210.94
237.922	226.94
238.156	227.94
238.39	220.94
238.624	239.94
238.858	234.94
239.091	251.94
239.325	239.94
239.559	246.94
239.793	251.94
240.027	248.94
240.26	251.94
240.494	243.94
240.728	240.94
240.961	256.94
241.195	239.94
241.429	252.94
241.662	251.94
241.896	266.94
242.13	258.94
242.363	285.94
242.597	278.94
242.83	272.94
243.064	284.94
243.298	290.94
243.531	284.94
243.765	289.94
243.998	308.94
244.232	298.94
244.465	317.94
244.699	308.94
244.932	303.94
245.166	308.94
245.399	315.94
245.633	301.94
245.866	323.94
246.099	311.94
246.333	325.94
246.566	318.94
246.8	326.94
247.033	321.94
247.266	327.94
247.5	319.94
247.733	335.94
247.966	343.94
248.2	340.94
248.433	367.94
248.666	330.94
248.899	352.94
249.133	366.94
249.366	361.94
249.599	338.94
249.832	377.94
250.066	368.94
250.299	358.94
250.532	355.94
250.765	383.94
250.998	377.94
251.231	364.94
251.465	373.94
251.698	377.94
251.931	411.94
252.164	393.94
252.397	412.94
252.63	389.94
252.863	396.94
253.096	391.94
253.329	390.94
253.562	396.94
253.795	400.94
254.028	425.94
254.261	417.94
254.494	401.94
254.727	438.94
254.96	428.94
255.193	424.94
255.426	416.94
255.659	416.94
255.892	434.94
256.124	435.94
256.357	428.94
256.59	445.94
256.823	420.94
257.056	427.94
257.289	430.94
257.521	439.94
257.754	442.94
257.987	452.94
258.22	443.94
258.452	453.94
258.685	451.94
258.918	469.94
259.151	469.94
259.383	454.94
259.616	451.94
259.849	464.94
260.081	468.94
260.314	477.94
260.547	476.94
260.779	476.94
261.012	475.94
261.244	465.94
261.477	482.94
261.71	485.94
261.942	477.94
262.175	489.94
262.407	492.94
262.64	475.94
262.872	511.94
263.105	512.94
263.337	506.94
263.57	514.94
263.802	522.94
264.035	500.94
264.267	508.94
264.499	524.94
264.732	513.94
264.964	523.94
265.197	520.94
265.429	500.94
265.661	523.94
265.894	533.94
266.126	548.94
266.358	544.94
266.591	530.94
266.823	543.94
267.055	541.94
267.287	528.94
267.52	556.94
267.752	547.94
267.984	557.94
268.216	541.94
268.448	575.94
268.681	565.94
268.913	538.94
269.145	575.94
269.377	579.94
269.609	544.94
269.841	571.94
270.073	568.94
270.306	584.94
270.538	578.94
270.77	585.94
271.002	568.94
271.234	613.94
271.466	599.94
271.698	591.94
271.93	621.94
272.162	599.94
272.394	585.94
272.626	615.94
272.858	617.94
273.09	625.94
273.322	613.94
273.553	606.94
273.785	629.94
274.017	612.94
274.249	639.94
274.481	632.94
274.713	655.94
274.945	639.94
275.176	643.94
275.408	637.94
275.64	652.94
275.872	641.94
276.104	646.94
276.335	658.94
276.567	641.94
276.799	665.94
277.031	668.94
277.262	682.94
277.494	659.94
277.726	697.94
277.957	668.94
278.189	697.94
278.421	669.94
278.652	700.94
278.884	692.94
279.115	675.94
279.347	687.94
279.579	711.94
279.81	698.94
280.042	705.94
280.273	686.94
280.505	708.94
280.736	683.94
280.968	687.94
281.199	733.94
281.431	707.94
281.662	736.94
281.894	717.94
282.125	727.94
282.356	733.94
282.588	726.94
282.819	706.94
283.051	721.94
283.282	731.94
283.513	729.94
283.745	731.94
283.976	740.94
284.207	721.94
284.439	738.94
284.67	790.94
284.901	748.94
285.132	757.94
285.364	769.94
285.595	769.94
285.826	771.94
286.057	754.94
286.288	772.94
286.52	765.94
286.751	755.94
286.982	788.94
287.213	763.94
287.444	768.94
287.675	789.94
287.906	768.94
288.138	773.94
288.369	785.94
288.6	806.94
288.831	803.94
289.062	817.94
289.293	787.94
289.524	776.94
289.755	797.94
289.986	797.94
290.217	812.94
290.448	799.94
290.679	783.94
290.91	819.94
291.141	798.94
291.371	823.94
291.602	838.94
291.833	801.94
292.064	795.94
292.295	806.94
292.526	826.94
292.757	816.94
292.987	820.94
293.218	808.94
293.449	828.94
293.68	823.94
293.91	845.94
294.141	816.94
294.372	807.94
294.603	814.94
294.833	849.94
295.064	816.94
295.295	839.94
295.525	840.94
295.756	821.94
295.987	853.94
296.217	837.94
296.448	849.94
296.679	826.94
296.909	860.94
297.14	842.94
297.37	855.94
297.601	851.94
297.831	862.94
298.062	887.94
298.292	871.94
298.523	897.94
298.753	927.94
298.984	893.94
299.214	870.94
299.445	884.94
299.675	869.94
299.905	891.94
300.136	881.94
300.366	876.94
300.597	891.94
300.827	917.94
301.057	924.94
301.288	921.94
301.518	925.94
301.748	907.94
301.979	934.94
302.209	932.94
302.439	937.94
302.669	918.94
302.9	905.94
303.13	925.94
303.36	954.94
303.59	925.94
303.82	917.94
304.051	931.94
304.281	931.94
304.511	930.94
304.741	930.94
304.971	920.94
305.201	945.94
305.431	935.94
305.661	928.94
305.891	919.94
306.121	911.94
306.352	938.94
306.582	927.94
306.812	930.94
307.042	932.94
307.272	919.94
307.502	920.94
307.731	936.94
307.961	920.94
308.191	933.94
308.421	943.94
308.651	924.94
308.881	918.94
309.111	893.94
309.341	886.94
309.571	896.94
309.8	924.94
310.03	938.94
310.26	907.94
310.49	963.94
310.72	900.94
310.949	915.94
311.179	921.94
311.409	940.94
311.639	928.94
311.868	948.94
312.098	1000.94
312.328	940.94
312.557	981.94
312.787	967.94
313.017	934.94
313.246	973.94
313.476	975.94
313.706	1004.94
313.935	980.94
314.165	967.94
314.394	983.94
314.624	982.94
314.853	1012.94
315.083	981.94
315.312	988.94
315.542	975.94
315.771	958.94
316.001	992.94
316.23	993.94
316.46	965.94
316.689	994.94
316.919	1011.94
317.148	965.94
317.377	982.94
317.607	940.94
317.836	963.94
318.065	966.94
318.295	974.94
318.524	1003.94
318.753	985.94
318.983	997.94
319.212	982.94
319.441	995.94
319.67	958.94
319.9	967.94
320.129	947.94
320.358	978.94
320.587	981.94
320.816	977.94
321.046	984.94
321.275	981.94
321.504	988.94
321.733	999.94
321.962	991.94
322.191	982.94
322.42	971.94
322.649	1006.94
322.878	1011.94
323.108	1017.94
323.337	981.94
323.566	1023.94
323.795	1002.94
324.024	1038.94
324.253	1000.94
324.482	1002.94
324.71	1035.94
324.939	1016.94
325.168	1018.94
325.397	1022.94
325.626	1026.94
325.855	1043.94
326.084	1077.94
326.313	1087.94
326.542	1085.94
326.77	1041.94
326.999	1063.94
327.228	1046.94
327.457	1095.94
327.686	1055.94
327.914	1062.94
328.143	1042.94
328.372	1072.94
328.6	1084.94
328.829	1076.94
329.058	1067.94
329.287	1072.94
329.515	1063.94
329.744	1065.94
329.972	1043.94
330.201	1110.94
330.43	1091.94
330.658	1134.94
330.887	1114.94
331.115	1124.94
331.344	1134.94
331.572	1143.94
331.801	1146.94
332.03	1158.94
332.258	1176.94
332.486	1222.94
332.715	1219.94
332.943	1274.94
333.172	1295.94
333.4	1321.94
333.629	1369.94
333.857	1389.94
334.085	1364.94
334.314	1372.94
334.542	1344.94
334.771	1372.94
334.999	1323.94
335.227	1353.94
335.455	1327.94
335.684	1333.94
335.912	1306.94
336.14	1337.94
336.369	1292.94
336.597	1301.94
336.825	1273.94
337.053	1294.94
337.281	1293.94
337.51	1210.94
337.738	1260.94
337.966	1182.94
338.194	1195.94
338.422	1202.94
338.65	1163.94
338.878	1186.94
339.106	1186.94
339.334	1179.94
339.562	1164.94
339.79	1174.94
340.018	1144.94
340.246	1150.94
340.474	1128.94
340.702	1139.94
340.93	1125.94
341.158	1140.94
341.386	1119.94
341.614	1146.94
341.842	1143.94
342.07	1091.94
342.298	1137.94
342.526	1089.94
342.754	1130.94
342.981	1102.94
343.209	1140.94
343.437	1192.94
343.665	1210.94
343.893	1276.94
344.12	1315.94
344.348	1300.94
344.576	1262.94
344.804	1241.94
345.031	1168.94
345.259	1155.94
345.487	1130.94
345.714	1144.94
345.942	1111.94
346.17	1123.94
346.397	1083.94
346.625	1086.94
346.853	1062.94
347.08	1056.94
347.308	1104.94
347.535	1083.94
347.763	1091.94
347.99	1095.94
348.218	1082.94
348.445	1104.94
348.673	1051.94
348.9	1067.94
349.128	1098.94
349.355	1071.94
349.583	1080.94
349.81	1077.94
350.037	1041.94
350.265	1037.94
350.492	1021.94
350.72	1050.94
350.947	1023.94
351.174	1028.94
351.402	1037.94
351.629	1035.94
351.856	1060.94
352.083	1000.94
352.311	1067.94
352.538	1034.94
352.765	1047.94
352.992	1012.94
353.22	1015.94
353.447	990.94
353.674	1036.94
353.901	987.94
354.128	1031.94
354.355	1034.94
354.583	1040.94
354.81	1033.94
355.037	1071.94
355.264	1007.94
355.491	1034.94
355.718	1049.94
355.945	1030.94
356.172	1036.94
356.399	1040.94
356.626	1032.94
356.853	1034.94
357.08	1046.94
357.307	1059.94
357.534	1023.94
357.761	1081.94
357.988	1031.94
358.215	1050.94
358.441	1043.94
358.668	1008.94
358.895	1059.94
359.122	1039.94
359.349	1053.94
359.576	1050.94
359.802	1048.94
360.029	1048.94
360.256	1036.94
360.483	1045.94
360.709	1055.94
360.936	1040.94
361.163	1036.94
361.39	1035.94
361.616	1033.94
361.843	1054.94
362.07	1075.94
362.296	1091.94
362.523	1066.94
362.749	1016.94
362.976	1028.94
363.203	1024.94
363.429	1056.94
363.656	1052.94
363.882	1022.94
364.109	1047.94
364.335	1047.94
364.562	1034.94
364.788	1030.94
365.015	1056.94
365.241	1031.94
365.468	1045.94
365.694	1033.94
365.92	1018.94
366.147	1043.94
366.373	1036.94
366.599	1054.94
366.826	1000.94
367.052	1052.94
367.278	1047.94
367.505	1081.94
367.731	1035.94
367.957	1028.94
368.184	1047.94
368.41	1075.94
368.636	1076.94
368.862	1074.94
369.089	1095.94
369.315	1075.94
369.541	1061.94
369.767	1079.94
369.993	1085.94
370.219	1073.94
370.445	1081.94
370.672	1105.94
370.898	1104.94
371.124	1116.94
371.35	1101.94
371.576	1123.94
371.802	1143.94
372.028	1117.94
372.254	1100.94
372.48	1111.94
372.706	1165.94
372.932	1159.94
373.158	1158.94
373.384	1143.94
373.61	1138.94
373.835	1141.94
374.061	1145.94
374.287	1146.94
374.513	1166.94
374.739	1187.94
374.965	1244.94
375.191	1250.94
375.416	1227.94
375.642	1217.94
375.868	1201.94
376.094	1183.94
376.319	1151.94
376.545	1156.94
376.771	1131.94
376.997	1113.94
377.222	1129.94
377.448	1137.94
377.674	1132.94
377.899	1134.94
378.125	1139.94
378.35	1106.94
378.576	1119.94
378.802	1111.94
379.027	1118.94
379.253	1107.94
379.478	1128.94
379.704	1140.94
379.929	1105.94
380.155	1114.94
380.38	1104.94
380.606	1106.94
380.831	1085.94
381.057	1127.94
381.282	1138.94
381.507	1113.94
381.733	1140.94
381.958	1165.94
382.184	1155.94
382.409	1169.94
382.634	1182.94
382.86	1146.94
383.085	1175.94
383.31	1199.94
383.535	1180.94
383.761	1222.94
383.986	1258.94
384.211	1252.94
384.436	1273.94
384.662	1289.94
384.887	1309.94
385.112	1306.94
385.337	1334.94
385.562	1314.94
385.787	1310.94
386.013	1331.94
386.238	1344.94
386.463	1348.94
386.688	1345.94
386.913	1325.94
387.138	1347.94
387.363	1325.94
387.588	1309.94
387.813	1363.94
388.038	1327.94
388.263	1311.94
388.488	1334.94
388.713	1309.94
388.938	1326.94
389.163	1320.94
389.387	1370.94
389.612	1334.94
389.837	1304.94
390.062	1322.94
390.287	1336.94
390.512	1314.94
390.736	1310.94
390.961	1344.94
391.186	1386.94
391.411	1431.94
391.636	1423.94
391.86	1492.94
392.085	1471.94
392.31	1501.94
392.534	1461.94
392.759	1464.94
392.984	1409.94
393.208	1434.94
393.433	1368.94
393.658	1422.94
393.882	1395.94
394.107	1403.94
394.331	1409.94
394.556	1449.94
394.78	1434.94
395.005	1449.94
395.229	1455.94
395.454	1477.94
395.678	1495.94
395.903	1512.94
396.127	1497.94
396.352	1475.94
396.576	1445.94
396.801	1463.94
397.025	1457.94
397.249	1476.94
397.474	1523.94
397.698	1519.94
397.922	1509.94
398.147	1512.94
398.371	1507.94
398.595	1620.94
398.82	1651.94
399.044	1749.94
399.268	1899.94
399.492	2115.94
399.717	2351.94
399.941	2320.94
400.165	2185.94
400.389	2007.94
400.613	1881.94
400.837	1811.94
401.062	1761.94
401.286	1672.94
401.51	1712.94
401.734	1691.94
401.958	1671.94
402.182	1712.94
402.406	1680.94
402.63	1688.94
402.854	1736.94
403.078	1760.94
403.302	1755.94
403.526	1785.94
403.75	1805.94
403.974	1828.94
404.198	1818.94
404.422	1849.94
404.645	1811.94
404.869	1834.94
405.093	1811.94
405.317	1779.94
405.541	1814.94
405.765	1795.94
405.988	1745.94
406.212	1839.94
406.436	1826.94
406.66	1890.94
406.883	1874.94
407.107	1974.94
407.331	2079.94
407.555	2119.94
407.778	2114.94
408.002	2040.94
408.226	2047.94
408.449	2027.94
408.673	1943.94
408.896	1917.94
409.12	1888.94
409.344	1890.94
409.567	1837.94
409.791	1864.94
410.014	1826.94
410.238	1804.94
410.461	1828.94
410.685	1837.94
410.908	1807.94
411.132	1736.94
411.355	1709.94
411.578	1778.94
411.802	1750.94
412.025	1738.94
412.249	1807.94
412.472	1742.94
412.695	1714.94
412.919	1721.94
413.142	1702.94
413.365	1690.94
413.589	1713.94
413.812	1667.94
414.035	1656.94
414.258	1711.94
414.482	1653.94
414.705	1695.94
414.928	1694.94
415.151	1705.94
415.374	1678.94
415.597	1631.94
415.821	1601.94
416.044	1640.94
416.267	1593.94
416.49	1611.94
416.713	1617.94
416.936	1624.94
417.159	1612.94
417.382	1599.94
417.605	1581.94
417.828	1589.94
418.051	1615.94
418.274	1636.94
418.497	1594.94
418.72	1673.94
418.943	1632.94
419.166	1745.94
419.389	1868.94
419.611	1843.94
419.834	1753.94
420.057	1715.94
420.28	1651.94
420.503	1612.94
420.726	1631.94
420.948	1584.94
421.171	1588.94
421.394	1617.94
421.617	1591.94
421.839	1586.94
422.062	1591.94
422.285	1578.94
422.507	1690.94
422.73	1655.94
422.953	1657.94
423.175	1648.94
423.398	1666.94
423.621	1653.94
423.843	1673.94
424.066	1675.94
424.288	1607.94
424.511	1627.94
424.733	1619.94
424.956	1616.94
425.178	1601.94
425.401	1667.94
425.623	1664.94
425.846	1569.94
426.068	1588.94
426.291	1579.94
426.513	1561.94
426.735	1530.94
426.958	1535.94
427.18	1497.94
427.402	1502.94
427.625	1528.94
427.847	1479.94
428.069	1449.94
428.292	1493.94
428.514	1477.94
428.736	1461.94
428.958	1526.94
429.181	1449.94
429.403	1403.94
429.625	1453.94
429.847	1445.94
430.069	1425.94
430.292	1437.94
430.514	1393.94
430.736	1421.94
430.958	1476.94
431.18	1451.94
431.402	1485.94
431.624	1435.94
431.846	1485.94
432.068	1526.94
432.29	1485.94
432.512	1453.94
432.734	1484.94
432.956	1450.94
433.178	1487.94
433.4	1509.94
433.622	1487.94
433.844	1533.94
434.066	1514.94
434.287	1549.94
434.509	1572.94
434.731	1597.94
434.953	1604.94
435.175	1620.94
435.397	1651.94
435.618	1578.94
435.84	1555.94
436.062	1488.94
436.284	1473.94
436.505	1475.94
436.727	1447.94
436.949	1500.94
437.17	1449.94
437.392	1447.94
437.614	1452.94
437.835	1356.94
438.057	1433.94
438.278	1405.94
438.5	1426.94
438.721	1387.94
438.943	1429.94
439.165	1386.94
439.386	1400.94
439.608	1441.94
439.829	1453.94
440.05	1413.94
440.272	1478.94
440.493	1443.94
440.715	1471.94
440.936	1485.94
441.158	1499.94
441.379	1545.94
441.6	1574.94
441.822	1593.94
442.043	1607.94
442.264	1623.94
442.486	1553.94
442.707	1577.94
442.928	1571.94
443.149	1533.94
443.371	1580.94
443.592	1546.94
443.813	1605.94
444.034	1606.94
444.255	1641.94
444.476	1717.94
444.698	1783.94
444.919	1823.94
445.14	1883.94
445.361	1776.94
445.582	1673.94
445.803	1591.94
446.024	1524.94
446.245	1556.94
446.466	1505.94
446.687	1451.94
446.908	1448.94
447.129	1399.94
447.35	1409.94
447.571	1402.94
447.792	1369.94
448.013	1364.94
448.234	1338.94
448.455	1332.94
448.675	1347.94
448.896	1303.94
449.117	1300.94
449.338	1324.94
449.559	1315.94
449.779	1309.94
450	1318.94
450.221	1354.94
450.442	1350.94
450.662	1327.94
450.883	1315.94
451.104	1313.94
451.324	1289.94
451.545	1290.94
451.766	1332.94
451.986	1296.94
452.207	1273.94
452.428	1311.94
452.648	1341.94
452.869	1257.94
453.089	1223.94
453.31	1261.94
453.53	1263.94
453.751	1241.94
453.971	1223.94
454.192	1257.94
454.412	1248.94
454.633	1269.94
454.853	1258.94
455.073	1209.94
455.294	1251.94
455.514	1225.94
455.734	1229.94
455.955	1212.94
456.175	1229.94
456.395	1215.94
456.616	1216.94
456.836	1226.94
457.056	1237.94
457.276	1215.94
457.497	1229.94
457.717	1243.94
457.937	1237.94
458.157	1283.94
458.377	1299.94
458.598	1287.94
458.818	1348.94
459.038	1368.94
459.258	1399.94
459.478	1457.94
459.698	1500.94
459.918	1548.94
460.138	1557.94
460.358	1613.94
460.578	1657.94
460.798	1643.94
461.018	1605.94
461.238	1667.94
461.458	1674.94
461.678	1663.94
461.898	1687.94
462.118	1699.94
462.338	1739.94
462.558	1791.94
462.777	1881.94
462.997	2010.94
463.217	2083.94
463.437	2090.94
463.657	2008.94
463.876	1931.94
464.096	1909.94
464.316	1886.94
464.536	1888.94
464.755	1824.94
464.975	1776.94
465.195	1724.94
465.414	1662.94
465.634	1555.94
465.854	1484.94
466.073	1469.94
466.293	1433.94
466.512	1428.94
466.732	1424.94
466.951	1409.94
467.171	1394.94
467.391	1407.94
467.61	1357.94
467.829	1364.94
468.049	1367.94
468.268	1344.94
468.488	1345.94
468.707	1337.94
468.927	1363.94
469.146	1328.94
469.365	1310.94
469.585	1355.94
469.804	1357.94
470.023	1409.94
470.243	1411.94
470.462	1452.94
470.681	1445.94
470.901	1426.94
471.12	1411.94
471.339	1411.94
471.558	1392.94
471.777	1345.94
471.997	1337.94
472.216	1338.94
472.435	1329.94
472.654	1328.94
472.873	1317.94
473.092	1305.94
473.311	1317.94
473.53	1321.94
473.749	1278.94
473.968	1293.94
474.187	1324.94
474.406	1331.94
474.625	1308.94
474.844	1296.94
475.063	1332.94
475.282	1287.94
475.501	1337.94
475.72	1323.94
475.939	1369.94
476.158	1401.94
476.377	1371.94
476.596	1411.94
476.814	1439.94
477.033	1375.94
477.252	1473.94
477.471	1476.94
477.69	1469.94
477.908	1500.94
478.127	1556.94
478.346	1589.94
478.564	1564.94
478.783	1652.94
479.002	1625.94
479.22	1621.94
479.439	1648.94
479.658	1637.94
479.876	1667.94
480.095	1676.94
480.313	1719.94
480.532	1738.94
480.751	1753.94
480.969	1694.94
481.188	1668.94
481.406	1643.94
481.624	1637.94
481.843	1588.94
482.061	1589.94
482.28	1564.94
482.498	1559.94
482.717	1567.94
482.935	1561.94
483.153	1593.94
483.372	1613.94
483.59	1606.94
483.808	1607.94
484.027	1620.94
484.245	1654.94
484.463	1669.94
484.681	1696.94
484.9	1672.94
485.118	1668.94
485.336	1712.94
485.554	1757.94
485.772	1738.94
485.99	1771.94
486.209	1724.94
486.427	1726.94
486.645	1767.94
486.863	1705.94
487.081	1733.94
487.299	1720.94
487.517	1670.94
487.735	1690.94
487.953	1704.94
488.171	1702.94
488.389	1682.94
488.607	1660.94
488.825	1649.94
489.043	1620.94
489.261	1607.94
489.479	1639.94
489.696	1671.94
489.914	1635.94
490.132	1665.94
490.35	1652.94
490.568	1649.94
490.786	1641.94
491.003	1655.94
491.221	1685.94
491.439	1653.94
491.657	1626.94
491.874	1629.94
492.092	1657.94
492.31	1671.94
492.527	1632.94
492.745	1679.94
492.963	1638.94
493.18	1654.94
493.398	1659.94
493.615	1629.94
493.833	1651.94
494.05	1699.94
494.268	1699.94
494.485	1682.94
494.703	1665.94
494.92	1681.94
495.138	1722.94
495.355	1679.94
495.573	1691.94
495.79	1682.94
496.008	1723.94
496.225	1713.94
496.442	1756.94
496.66	1788.94
496.877	1752.94
497.094	1791.94
497.312	1822.94
497.529	1868.94
497.746	1899.94
497.963	1945.94
498.181	2071.94
498.398	2172.94
498.615	2231.94
498.832	2361.94
499.049	2467.94
499.267	2684.94
499.484	2890.94
499.701	3197.94
499.918	3371.94
500.135	3745.94
500.352	4164.94
500.569	4301.94
500.786	4233.94
501.003	4034.94
501.22	3715.94
501.437	3354.94
501.654	3033.94
501.871	2872.94
502.088	2632.94
502.305	2473.94
502.522	2351.94
502.739	2283.94
502.956	2160.94
503.172	2077.94
503.389	1967.94
503.606	1929.94
503.823	1887.94
504.04	1885.94
504.256	1896.94
504.473	1924.94
504.69	1924.94
504.907	1880.94
505.123	1797.94
505.34	1711.94
505.557	1675.94
505.773	1594.94
505.99	1578.94
506.207	1528.94
506.423	1510.94
506.64	1514.94
506.856	1516.94
507.073	1488.94
507.289	1474.94
507.506	1439.94
507.722	1450.94
507.939	1428.94
508.155	1423.94
508.372	1401.94
508.588	1355.94
508.805	1380.94
509.021	1371.94
509.238	1341.94
509.454	1364.94
509.67	1339.94
509.887	1356.94
510.103	1337.94
510.319	1304.94
510.536	1332.94
510.752	1287.94
510.968	1298.94
511.184	1302.94
511.401	1310.94
511.617	1338.94
511.833	1300.94
512.049	1283.94
512.265	1271.94
512.481	1314.94
512.698	1305.94
512.914	1303.94
513.13	1312.94
513.346	1311.94
513.562	1281.94
513.778	1311.94
513.994	1304.94
514.21	1296.94
514.426	1313.94
514.642	1338.94
514.858	1368.94
515.074	1356.94
515.29	1384.94
515.506	1396.94
515.721	1427.94
515.937	1402.94
516.153	1446.94
516.369	1447.94
516.585	1484.94
516.801	1527.94
517.016	1579.94
517.232	1619.94
517.448	1672.94
517.664	1699.94
517.879	1725.94
518.095	1693.94
518.311	1737.94
518.527	1666.94
518.742	1605.94
518.958	1559.94
519.173	1514.94
519.389	1463.94
519.605	1431.94
519.82	1410.94
520.036	1375.94
520.251	1361.94
520.467	1362.94
520.682	1317.94
520.898	1320.94
521.113	1284.94
521.329	1265.94
521.544	1238.94
521.76	1251.94
521.975	1250.94
522.19	1239.94
522.406	1244.94
522.621	1203.94
522.836	1218.94
523.052	1247.94
523.267	1215.94
523.482	1195.94
523.698	1215.94
523.913	1190.94
524.128	1208.94
524.343	1246.94
524.559	1195.94
524.774	1151.94
524.989	1140.94
525.204	1193.94
525.419	1143.94
525.634	1152.94
525.849	1199.94
526.064	1178.94
526.28	1166.94
526.495	1119.94
526.71	1167.94
526.925	1151.94
527.14	1150.94
527.355	1133.94
527.57	1133.94
527.785	1164.94
527.999	1162.94
528.214	1145.94
528.429	1146.94
528.644	1128.94
528.859	1132.94
529.074	1130.94
529.289	1116.94
529.503	1138.94
529.718	1149.94
529.933	1173.94
530.148	1144.94
530.363	1144.94
530.577	1133.94
530.792	1128.94
531.007	1161.94
531.221	1167.94
531.436	1177.94
531.651	1139.94
531.865	1143.94
532.08	1128.94
532.295	1147.94
532.509	1154.94
532.724	1130.94
532.938	1153.94
533.153	1127.94
533.367	1121.94
533.582	1138.94
533.796	1136.94
534.011	1152.94
534.225	1136.94
534.44	1082.94
534.654	1106.94
534.868	1137.94
535.083	1127.94
535.297	1102.94
535.511	1078.94
535.726	1109.94
535.94	1089.94
536.154	1087.94
536.369	1085.94
536.583	1062.94
536.797	1074.94
537.011	1050.94
537.225	1051.94
537.44	1060.94
537.654	1067.94
537.868	1052.94
538.082	1014.94
538.296	1008.94
538.51	1026.94
538.724	1035.94
538.938	1025.94
539.153	1031.94
539.367	1023.94
539.581	1026.94
539.795	1023.94
540.009	1046.94
540.222	1053.94
540.436	1014.94
540.65	1005.94
540.864	997.94
541.078	1031.94
541.292	1036.94
541.506	991.94
541.72	1001.94
541.934	1017.94
542.147	1028.94
542.361	1009.94
542.575	1032.94
542.789	996.94
543.002	998.94
543.216	1025.94
543.43	1030.94
543.644	983.94
543.857	1024.94
544.071	989.94
544.285	996.94
544.498	984.94
544.712	987.94
544.925	1012.94
545.139	1030.94
545.352	1022.94
545.566	1047.94
545.779	1031.94
545.993	1019.94
546.206	997.94
546.42	1002.94
546.633	992.94
546.847	1033.94
547.06	1036.94
547.274	1022.94
547.487	1010.94
547.7	1051.94
547.914	1052.94
548.127	1031.94
548.34	1027.94
548.554	1023.94
548.767	1017.94
548.98	999.94
549.193	1002.94
549.407	1048.94
549.62	1053.94
549.833	1048.94
550.046	1001.94
550.259	1032.94
550.473	1010.94
550.686	1021.94
550.899	996.94
551.112	997.94
551.325	1008.94
551.538	1022.94
551.751	998.94
551.964	1028.94
552.177	1026.94
552.39	1067.94
552.603	1050.94
552.816	1080.94
553.029	1068.94
553.242	1097.94
553.455	1123.94
553.667	1100.94
553.88	1093.94
554.093	1053.94
554.306	1034.94
554.519	1035.94
554.732	1010.94
554.944	1024.94
555.157	996.94
555.37	972.94
555.583	969.94
555.795	961.94
556.008	949.94
556.221	933.94
556.433	915.94
556.646	921.94
556.859	916.94
557.071	885.94
557.284	921.94
557.496	893.94
557.709	873.94
557.921	870.94
558.134	871.94
558.346	849.94
558.559	850.94
558.771	869.94
558.984	880.94
559.196	862.94
559.409	845.94
559.621	881.94
559.833	839.94
560.046	882.94
560.258	877.94
560.47	851.94
560.683	858.94
560.895	832.94
561.107	843.94
561.32	849.94
561.532	849.94
561.744	852.94
561.956	853.94
562.168	843.94
562.381	850.94
562.593	848.94
562.805	866.94
563.017	837.94
563.229	841.94
563.441	852.94
563.653	875.94
563.865	876.94
564.077	861.94
564.289	872.94
564.501	864.94
564.713	915.94
564.925	950.94
565.137	931.94
565.349	963.94
565.561	994.94
565.773	996.94
565.985	1051.94
566.197	1113.94
566.408	1137.94
566.62	1229.94
566.832	1305.94
567.044	1336.94
567.255	1328.94
567.467	1379.94
567.679	1425.94
567.891	1469.94
568.102	1499.94
568.314	1402.94
568.526	1311.94
568.737	1233.94
568.949	1175.94
569.161	1081.94
569.372	1020.94
569.584	985.94
569.795	942.94
570.007	912.94
570.218	891.94
570.43	901.94
570.641	851.94
570.853	866.94
571.064	864.94
571.276	850.94
571.487	843.94
571.698	805.94
571.91	771.94
572.121	781.94
572.333	759.94
572.544	765.94
572.755	742.94
572.966	736.94
573.178	725.94
573.389	717.94
573.6	725.94
573.811	677.94
574.023	712.94
574.234	707.94
574.445	680.94
574.656	708.94
574.867	664.94
575.078	669.94
575.289	675.94
575.501	691.94
575.712	668.94
575.923	644.94
576.134	645.94
576.345	644.94
576.556	671.94
576.767	642.94
576.978	639.94
577.188	649.94
577.399	651.94
577.61	645.94
577.821	629.94
578.032	618.94
578.243	621.94
578.454	616.94
578.665	631.94
578.875	601.94
579.086	629.94
579.297	615.94
579.508	599.94
579.718	602.94
579.929	615.94
580.14	587.94
580.35	620.94
580.561	592.94
580.772	580.94
580.982	587.94
581.193	578.94
581.403	600.94
581.614	582.94
581.825	585.94
582.035	568.94
582.246	587.94
582.456	589.94
582.667	587.94
582.877	565.94
583.087	562.94
583.298	571.94
583.508	576.94
583.719	583.94
583.929	550.94
584.139	577.94
584.35	586.94
584.56	583.94
584.77	570.94
584.981	572.94
585.191	574.94
585.401	557.94
585.611	572.94
585.821	555.94
586.032	570.94
586.242	579.94
586.452	567.94
586.662	537.94
586.872	554.94
587.082	538.94
587.292	538.94
587.502	552.94
587.713	571.94
587.923	541.94
588.133	564.94
588.343	553.94
588.553	550.94
588.762	568.94
588.972	563.94
589.182	575.94
589.392	586.94
589.602	524.94
589.812	535.94
590.022	577.94
590.232	562.94
590.441	559.94
590.651	569.94
590.861	563.94
591.071	559.94
591.281	588.94
591.49	557.94
591.7	604.94
591.91	610.94
592.119	600.94
592.329	605.94
592.539	605.94
592.748	621.94
592.958	660.94
593.167	633.94
593.377	673.94
593.587	669.94
593.796	641.94
594.006	684.94
594.215	668.94
594.424	678.94
594.634	665.94
594.843	639.94
595.053	625.94
595.262	617.94
595.472	580.94
595.681	573.94
595.89	573.94
596.1	552.94
596.309	532.94
596.518	546.94
596.727	535.94
596.937	529.94
597.146	519.94
597.355	502.94
597.564	498.94
597.774	482.94
597.983	484.94
598.192	491.94
598.401	467.94
598.61	467.94
598.819	463.94
599.028	480.94
599.237	480.94
599.446	455.94
599.655	464.94
599.864	472.94
600.073	459.94
600.282	458.94
600.491	456.94
600.7	478.94
600.909	438.94
601.118	473.94
601.327	460.94
601.536	462.94
601.745	462.94
601.953	448.94
602.162	427.94
602.371	449.94
602.58	451.94
602.789	443.94
602.997	441.94
603.206	441.94
603.415	421.94
603.623	435.94
603.832	428.94
604.041	435.94
604.249	429.94
604.458	410.94
604.666	431.94
604.875	430.94
605.084	411.94
605.292	429.94
605.501	427.94
605.709	411.94
605.918	430.94
606.126	424.94
606.334	416.94
606.543	423.94
606.751	412.94
606.96	416.94
607.168	405.94
607.376	412.94
607.585	407.94
607.793	405.94
608.001	401.94
608.21	413.94
608.418	409.94
608.626	418.94
608.834	396.94
609.043	405.94
609.251	415.94
609.459	407.94
609.667	386.94
609.875	392.94
610.083	393.94
610.291	408.94
610.499	403.94
610.707	379.94
610.916	393.94
611.124	391.94
611.332	411.94
611.54	393.94
611.748	388.94
611.955	397.94
612.163	388.94
612.371	384.94
612.579	386.94
612.787	385.94
612.995	368.94
613.203	371.94
613.411	373.94
613.618	381.94
613.826	391.94
614.034	396.94
614.242	381.94
614.449	378.94
614.657	383.94
614.865	382.94
615.072	379.94
615.28	393.94
615.488	395.94
615.695	383.94
615.903	376.94
616.111	383.94
616.318	389.94
616.526	394.94
616.733	387.94
616.941	395.94
617.148	384.94
617.356	378.94
617.563	373.94
617.771	376.94
617.978	384.94
618.185	393.94
618.393	368.94
618.6	378.94
618.807	379.94
619.015	379.94
619.222	365.94
619.429	391.94
619.637	361.94
619.844	370.94
620.051	373.94
620.258	356.94
620.466	364.94
620.673	333.94
620.88	348.94
621.087	351.94
621.294	363.94
621.501	347.94
621.708	364.94
621.915	345.94
622.122	364.94
622.329	363.94
622.536	373.94
622.743	359.94
622.95	354.94
623.157	335.94
623.364	337.94
623.571	350.94
623.778	343.94
623.985	355.94
624.192	332.94
624.399	322.94
624.606	327.94
624.812	355.94
625.019	343.94
625.226	320.94
625.433	333.94
625.639	321.94
625.846	321.94
626.053	322.94
626.259	326.94
626.466	341.94
626.673	323.94
626.879	304.94
627.086	324.94
627.293	318.94
627.499	332.94
627.706	334.94
627.912	317.94
628.119	311.94
628.325	325.94
628.532	328.94
628.738	321.94
628.945	323.94
629.151	321.94
629.357	305.94
629.564	323.94
629.77	320.94
629.976	305.94
630.183	295.94
630.389	319.94
630.595	289.94
630.802	295.94
631.008	292.94
631.214	281.94
631.42	295.94
631.627	295.94
631.833	294.94
632.039	292.94
632.245	273.94
632.451	275.94
632.657	292.94
632.863	280.94
633.069	295.94
633.275	277.94
633.481	298.94
633.688	287.94
633.893	297.94
634.099	278.94
634.305	292.94
634.511	295.94
634.717	291.94
634.923	298.94
635.129	306.94
635.335	287.94
635.541	278.94
635.747	296.94
635.952	278.94
636.158	282.94
636.364	264.94
636.57	274.94
636.775	297.94
636.981	288.94
637.187	265.94
637.392	279.94
637.598	277.94
637.804	278.94
638.009	273.94
638.215	278.94
638.421	264.94
638.626	272.94
638.832	274.94
639.037	283.94
639.243	289.94
639.448	255.94
639.654	281.94
639.859	272.94
640.065	265.94
640.27	260.94
640.475	259.94
640.681	274.94
640.886	279.94
641.091	277.94
641.297	274.94
641.502	238.94
641.707	264.94
641.913	263.94
642.118	261.94
642.323	271.94
642.528	290.94
642.733	257.94
642.939	264.94
643.144	259.94
643.349	261.94
643.554	250.94
643.759	247.94
643.964	250.94
644.169	256.94
644.374	251.94
644.579	255.94
644.784	261.94
644.989	264.94
645.194	252.94
645.399	248.94
645.604	263.94
645.809	268.94
646.014	264.94
646.219	253.94
646.423	272.94
646.628	250.94
646.833	272.94
647.038	250.94
647.243	263.94
647.447	261.94
647.652	262.94
647.857	263.94
648.062	288.94
648.266	284.94
648.471	283.94
648.676	293.94
648.88	296.94
649.085	263.94
649.289	269.94
649.494	281.94
649.698	270.94
649.903	261.94
650.107	269.94
650.312	277.94
650.516	256.94
650.721	258.94
650.925	261.94
651.13	259.94
651.334	248.94
651.539	244.94
651.743	252.94
651.947	236.94
652.152	237.94
652.356	265.94
652.56	224.94
652.764	242.94
652.969	252.94
653.173	235.94
653.377	245.94
653.581	227.94
653.785	238.94
653.99	241.94
654.194	254.94
654.398	242.94
654.602	264.94
654.806	267.94
655.01	265.94
655.214	277.94
655.418	273.94
655.622	296.94
655.826	296.94
656.03	315.94
656.234	309.94
656.438	341.94
656.642	371.94
656.846	331.94
657.049	292.94
657.253	282.94
657.457	232.94
657.661	226.94
657.865	200.94
658.068	200.94
658.272	168.94
658.476	164.94
658.68	162.94
658.883	160.94
659.087	141.94
659.291	149.94
659.494	129.94
659.698	118.94
659.901	133.94
660.105	127.94
660.309	118.94
660.512	109.94
660.716	115.94
660.919	108.94
661.123	107.94
661.326	98.94
661.53	93.94
661.733	102.94
661.936	102.94
662.14	111.94
662.343	100.94
662.546	90.94
662.75	84.94
662.953	96.94
663.156	92.94
663.36	99.94
663.563	84.94
663.766	78.94
663.969	74.94
664.173	93.94
664.376	89.94
664.579	76.94
664.782	81.94
664.985	88.94
665.188	80.94
665.391	77.94
665.594	76.94
665.797	91.94
666	91.94
666.203	77.94
666.406	74.94
666.609	89.94
666.812	77.94
667.015	80.94
667.218	96.94
667.421	75.94
667.624	85.94
667.827	80.94
668.03	89.94
668.232	88.94
668.435	81.94
668.638	76.94
668.841	69.94
669.043	66.94
669.246	74.94
669.449	73.94
669.651	96.94
669.854	85.94
670.057	74.94
670.259	83.94
670.462	94.94
670.665	78.94
670.867	77.94
671.07	97.94
671.272	84.94
671.475	82.94
671.677	76.94
671.88	88.94
672.082	82.94
672.284	83.94
672.487	79.94
672.689	82.94
672.892	81.94
