Data from NiCl2@0.125M.TitratingCurve.Agarose3%dH2O.NegLispCup.LampEnergy10.LIBS07252019_HRD10591_18-29-44-574.txt Node
Date: Thu Jul 25 18:29:44 EDT 2019
User: cochatt
Spectrometer: HR+D1059
Trigger mode: 1
Integration Time (sec): 1.000000E-1
Scans to average: 1
Electric dark correction enabled: true
Nonlinearity correction enabled: false
Boxcar width: 0
XAxis mode: Wavelengths
Number of Pixels in Spectrum: 2048
>>>>>Begin Spectral Data<<<<<
223.165	-7.94
223.4	-7.94
223.635	-7.94
223.869	-13.94
224.104	-18.94
224.338	-9.94
224.573	-6.94
224.808	-17.94
225.042	-4.94
225.277	-7.94
225.511	-5.94
225.746	2.06
225.98	6.06
226.215	3.06
226.449	10.06
226.683	23.06
226.918	19.06
227.152	31.06
227.387	31.06
227.621	30.06
227.856	33.06
228.09	47.06
228.324	55.06
228.559	52.06
228.793	66.06
229.027	98.06
229.262	84.06
229.496	113.06
229.73	118.06
229.964	124.06
230.199	122.06
230.433	125.06
230.667	135.06
230.901	139.06
231.136	137.06
231.37	135.06
231.604	154.06
231.838	145.06
232.072	150.06
232.306	138.06
232.541	155.06
232.775	141.06
233.009	146.06
233.243	138.06
233.477	151.06
233.711	155.06
233.945	162.06
234.179	138.06
234.413	159.06
234.647	165.06
234.881	167.06
235.115	138.06
235.349	159.06
235.583	159.06
235.817	155.06
236.051	149.06
236.285	165.06
236.519	153.06
236.753	158.06
236.987	154.06
237.221	167.06
237.455	166.06
237.689	173.06
237.922	168.06
238.156	171.06
238.39	183.06
238.624	165.06
238.858	172.06
239.091	191.06
239.325	153.06
239.559	192.06
239.793	172.06
240.027	183.06
240.26	174.06
240.494	179.06
240.728	200.06
240.961	177.06
241.195	182.06
241.429	208.06
241.662	196.06
241.896	178.06
242.13	193.06
242.363	194.06
242.597	187.06
242.83	202.06
243.064	207.06
243.298	213.06
243.531	190.06
243.765	207.06
243.998	199.06
244.232	209.06
244.465	201.06
244.699	224.06
244.932	214.06
245.166	219.06
245.399	218.06
245.633	207.06
245.866	213.06
246.099	214.06
246.333	233.06
246.566	223.06
246.8	221.06
247.033	228.06
247.266	233.06
247.5	224.06
247.733	231.06
247.966	238.06
248.2	235.06
248.433	258.06
248.666	228.06
248.899	245.06
249.133	253.06
249.366	253.06
249.599	236.06
249.832	253.06
250.066	253.06
250.299	242.06
250.532	253.06
250.765	246.06
250.998	271.06
251.231	274.06
251.465	272.06
251.698	263.06
251.931	277.06
252.164	266.06
252.397	254.06
252.63	279.06
252.863	293.06
253.096	286.06
253.329	279.06
253.562	287.06
253.795	274.06
254.028	260.06
254.261	278.06
254.494	291.06
254.727	280.06
254.96	297.06
255.193	280.06
255.426	301.06
255.659	283.06
255.892	290.06
256.124	276.06
256.357	295.06
256.59	294.06
256.823	300.06
257.056	297.06
257.289	316.06
257.521	307.06
257.754	295.06
257.987	320.06
258.22	294.06
258.452	325.06
258.685	317.06
258.918	308.06
259.151	306.06
259.383	314.06
259.616	316.06
259.849	312.06
260.081	317.06
260.314	316.06
260.547	309.06
260.779	305.06
261.012	341.06
261.244	330.06
261.477	340.06
261.71	346.06
261.942	333.06
262.175	339.06
262.407	337.06
262.64	342.06
262.872	344.06
263.105	335.06
263.337	354.06
263.57	352.06
263.802	349.06
264.035	363.06
264.267	348.06
264.499	346.06
264.732	342.06
264.964	363.06
265.197	336.06
265.429	353.06
265.661	367.06
265.894	369.06
266.126	373.06
266.358	354.06
266.591	357.06
266.823	367.06
267.055	372.06
267.287	383.06
267.52	362.06
267.752	375.06
267.984	375.06
268.216	363.06
268.448	375.06
268.681	360.06
268.913	371.06
269.145	377.06
269.377	374.06
269.609	386.06
269.841	375.06
270.073	381.06
270.306	386.06
270.538	389.06
270.77	385.06
271.002	382.06
271.234	390.06
271.466	394.06
271.698	400.06
271.93	383.06
272.162	373.06
272.394	402.06
272.626	407.06
272.858	406.06
273.09	395.06
273.322	401.06
273.553	396.06
273.785	402.06
274.017	410.06
274.249	394.06
274.481	420.06
274.713	413.06
274.945	395.06
275.176	389.06
275.408	416.06
275.64	427.06
275.872	422.06
276.104	438.06
276.335	429.06
276.567	408.06
276.799	422.06
277.031	420.06
277.262	439.06
277.494	424.06
277.726	406.06
277.957	441.06
278.189	427.06
278.421	448.06
278.652	443.06
278.884	449.06
279.115	435.06
279.347	462.06
279.579	466.06
279.81	437.06
280.042	435.06
280.273	449.06
280.505	446.06
280.736	460.06
280.968	449.06
281.199	447.06
281.431	464.06
281.662	469.06
281.894	472.06
282.125	474.06
282.356	473.06
282.588	485.06
282.819	468.06
283.051	485.06
283.282	477.06
283.513	467.06
283.745	491.06
283.976	480.06
284.207	466.06
284.439	478.06
284.67	481.06
284.901	497.06
285.132	504.06
285.364	501.06
285.595	510.06
285.826	482.06
286.057	479.06
286.288	497.06
286.52	509.06
286.751	482.06
286.982	498.06
287.213	517.06
287.444	497.06
287.675	528.06
287.906	511.06
288.138	498.06
288.369	528.06
288.6	509.06
288.831	536.06
289.062	524.06
289.293	536.06
289.524	493.06
289.755	515.06
289.986	512.06
290.217	532.06
290.448	521.06
290.679	514.06
290.91	537.06
291.141	544.06
291.371	527.06
291.602	522.06
291.833	536.06
292.064	542.06
292.295	539.06
292.526	526.06
292.757	516.06
292.987	537.06
293.218	518.06
293.449	553.06
293.68	544.06
293.91	545.06
294.141	519.06
294.372	524.06
294.603	557.06
294.833	557.06
295.064	554.06
295.295	527.06
295.525	515.06
295.756	547.06
295.987	542.06
296.217	577.06
296.448	568.06
296.679	552.06
296.909	558.06
297.14	572.06
297.37	597.06
297.601	565.06
297.831	578.06
298.062	591.06
298.292	586.06
298.523	600.06
298.753	602.06
298.984	597.06
299.214	609.06
299.445	594.06
299.675	587.06
299.905	607.06
300.136	580.06
300.366	584.06
300.597	607.06
300.827	590.06
301.057	619.06
301.288	619.06
301.518	629.06
301.748	621.06
301.979	633.06
302.209	616.06
302.439	611.06
302.669	615.06
302.9	603.06
303.13	574.06
303.36	605.06
303.59	593.06
303.82	581.06
304.051	593.06
304.281	605.06
304.511	613.06
304.741	604.06
304.971	626.06
305.201	610.06
305.431	594.06
305.661	570.06
305.891	596.06
306.121	605.06
306.352	595.06
306.582	591.06
306.812	586.06
307.042	590.06
307.272	573.06
307.502	573.06
307.731	571.06
307.961	578.06
308.191	596.06
308.421	575.06
308.651	577.06
308.881	561.06
309.111	584.06
309.341	566.06
309.571	593.06
309.8	579.06
310.03	606.06
310.26	593.06
310.49	595.06
310.72	596.06
310.949	590.06
311.179	597.06
311.409	573.06
311.639	591.06
311.868	601.06
312.098	604.06
312.328	598.06
312.557	629.06
312.787	615.06
313.017	633.06
313.246	626.06
313.476	631.06
313.706	607.06
313.935	629.06
314.165	647.06
314.394	641.06
314.624	615.06
314.853	631.06
315.083	629.06
315.312	630.06
315.542	630.06
315.771	611.06
316.001	607.06
316.23	635.06
316.46	597.06
316.689	610.06
316.919	628.06
317.148	615.06
317.377	614.06
317.607	630.06
317.836	623.06
318.065	603.06
318.295	604.06
318.524	625.06
318.753	608.06
318.983	625.06
319.212	612.06
319.441	604.06
319.67	602.06
319.9	605.06
320.129	622.06
320.358	611.06
320.587	618.06
320.816	633.06
321.046	625.06
321.275	623.06
321.504	609.06
321.733	595.06
321.962	633.06
322.191	640.06
322.42	620.06
322.649	612.06
322.878	604.06
323.108	603.06
323.337	602.06
323.566	646.06
323.795	600.06
324.024	643.06
324.253	640.06
324.482	630.06
324.71	626.06
324.939	634.06
325.168	633.06
325.397	630.06
325.626	634.06
325.855	646.06
326.084	661.06
326.313	660.06
326.542	685.06
326.77	670.06
326.999	648.06
327.228	656.06
327.457	679.06
327.686	655.06
327.914	678.06
328.143	681.06
328.372	667.06
328.6	643.06
328.829	656.06
329.058	676.06
329.287	664.06
329.515	668.06
329.744	657.06
329.972	673.06
330.201	676.06
330.43	691.06
330.658	675.06
330.887	691.06
331.115	697.06
331.344	691.06
331.572	715.06
331.801	727.06
332.03	721.06
332.258	751.06
332.486	738.06
332.715	797.06
332.943	844.06
333.172	870.06
333.4	907.06
333.629	930.06
333.857	914.06
334.085	895.06
334.314	885.06
334.542	874.06
334.771	875.06
334.999	880.06
335.227	853.06
335.455	817.06
335.684	830.06
335.912	806.06
336.14	809.06
336.369	805.06
336.597	814.06
336.825	834.06
337.053	797.06
337.281	781.06
337.51	777.06
337.738	771.06
337.966	761.06
338.194	696.06
338.422	732.06
338.65	730.06
338.878	734.06
339.106	734.06
339.334	723.06
339.562	690.06
339.79	689.06
340.018	695.06
340.246	679.06
340.474	689.06
340.702	697.06
340.93	716.06
341.158	690.06
341.386	702.06
341.614	701.06
341.842	706.06
342.07	676.06
342.298	708.06
342.526	652.06
342.754	694.06
342.981	699.06
343.209	693.06
343.437	734.06
343.665	816.06
343.893	862.06
344.12	898.06
344.348	840.06
344.576	792.06
344.804	777.06
345.031	733.06
345.259	737.06
345.487	691.06
345.714	707.06
345.942	682.06
346.17	712.06
346.397	680.06
346.625	681.06
346.853	679.06
347.08	687.06
347.308	705.06
347.535	683.06
347.763	682.06
347.99	707.06
348.218	691.06
348.445	678.06
348.673	669.06
348.9	678.06
349.128	699.06
349.355	670.06
349.583	667.06
349.81	670.06
350.037	656.06
350.265	656.06
350.492	671.06
350.72	658.06
350.947	633.06
351.174	645.06
351.402	648.06
351.629	650.06
351.856	645.06
352.083	661.06
352.311	654.06
352.538	652.06
352.765	655.06
352.992	640.06
353.22	650.06
353.447	649.06
353.674	652.06
353.901	654.06
354.128	639.06
354.355	641.06
354.583	648.06
354.81	655.06
355.037	653.06
355.264	654.06
355.491	680.06
355.718	678.06
355.945	668.06
356.172	655.06
356.399	655.06
356.626	642.06
356.853	658.06
357.08	674.06
357.307	679.06
357.534	675.06
357.761	643.06
357.988	659.06
358.215	644.06
358.441	657.06
358.668	640.06
358.895	666.06
359.122	658.06
359.349	651.06
359.576	645.06
359.802	647.06
360.029	625.06
360.256	647.06
360.483	644.06
360.709	652.06
360.936	676.06
361.163	649.06
361.39	665.06
361.616	665.06
361.843	657.06
362.07	647.06
362.296	648.06
362.523	656.06
362.749	647.06
362.976	647.06
363.203	660.06
363.429	633.06
363.656	659.06
363.882	621.06
364.109	662.06
364.335	634.06
364.562	655.06
364.788	633.06
365.015	661.06
365.241	641.06
365.468	651.06
365.694	652.06
365.92	655.06
366.147	612.06
366.373	641.06
366.599	645.06
366.826	641.06
367.052	636.06
367.278	635.06
367.505	665.06
367.731	654.06
367.957	627.06
368.184	636.06
368.41	669.06
368.636	652.06
368.862	673.06
369.089	664.06
369.315	677.06
369.541	692.06
369.767	678.06
369.993	685.06
370.219	676.06
370.445	682.06
370.672	698.06
370.898	699.06
371.124	705.06
371.35	724.06
371.576	722.06
371.802	693.06
372.028	697.06
372.254	690.06
372.48	717.06
372.706	725.06
372.932	751.06
373.158	761.06
373.384	735.06
373.61	699.06
373.835	690.06
374.061	709.06
374.287	740.06
374.513	730.06
374.739	749.06
374.965	771.06
375.191	802.06
375.416	802.06
375.642	762.06
375.868	783.06
376.094	749.06
376.319	733.06
376.545	736.06
376.771	715.06
376.997	736.06
377.222	690.06
377.448	731.06
377.674	705.06
377.899	706.06
378.125	704.06
378.35	714.06
378.576	693.06
378.802	707.06
379.027	707.06
379.253	713.06
379.478	694.06
379.704	705.06
379.929	713.06
380.155	697.06
380.38	722.06
380.606	709.06
380.831	711.06
381.057	698.06
381.282	713.06
381.507	719.06
381.733	690.06
381.958	701.06
382.184	725.06
382.409	728.06
382.634	727.06
382.86	776.06
383.085	760.06
383.31	777.06
383.535	789.06
383.761	823.06
383.986	787.06
384.211	807.06
384.436	846.06
384.662	829.06
384.887	847.06
385.112	865.06
385.337	868.06
385.562	862.06
385.787	861.06
386.013	895.06
386.238	891.06
386.463	855.06
386.688	829.06
386.913	868.06
387.138	847.06
387.363	845.06
387.588	858.06
387.813	863.06
388.038	841.06
388.263	848.06
388.488	858.06
388.713	846.06
388.938	825.06
389.163	831.06
389.387	819.06
389.612	826.06
389.837	829.06
390.062	840.06
390.287	821.06
390.512	842.06
390.736	861.06
390.961	858.06
391.186	859.06
391.411	907.06
391.636	937.06
391.86	964.06
392.085	973.06
392.31	982.06
392.534	946.06
392.759	931.06
392.984	911.06
393.208	900.06
393.433	915.06
393.658	897.06
393.882	914.06
394.107	912.06
394.331	902.06
394.556	904.06
394.78	922.06
395.005	952.06
395.229	955.06
395.454	954.06
395.678	976.06
395.903	990.06
396.127	964.06
396.352	939.06
396.576	901.06
396.801	901.06
397.025	906.06
397.249	917.06
397.474	944.06
397.698	984.06
397.922	949.06
398.147	971.06
398.371	952.06
398.595	996.06
398.82	1049.06
399.044	1109.06
399.268	1236.06
399.492	1439.06
399.717	1673.06
399.941	1687.06
400.165	1497.06
400.389	1333.06
400.613	1209.06
400.837	1129.06
401.062	1133.06
401.286	1096.06
401.51	1067.06
401.734	1064.06
401.958	1102.06
402.182	1119.06
402.406	1143.06
402.63	1153.06
402.854	1146.06
403.078	1187.06
403.302	1213.06
403.526	1269.06
403.75	1258.06
403.974	1269.06
404.198	1303.06
404.422	1268.06
404.645	1269.06
404.869	1252.06
405.093	1226.06
405.317	1225.06
405.541	1208.06
405.765	1201.06
405.988	1173.06
406.212	1199.06
406.436	1205.06
406.66	1234.06
406.883	1230.06
407.107	1326.06
407.331	1375.06
407.555	1419.06
407.778	1411.06
408.002	1398.06
408.226	1325.06
408.449	1295.06
408.673	1244.06
408.896	1262.06
409.12	1233.06
409.344	1241.06
409.567	1206.06
409.791	1275.06
410.014	1251.06
410.238	1236.06
410.461	1198.06
410.685	1160.06
410.908	1171.06
411.132	1161.06
411.355	1137.06
411.578	1125.06
411.802	1109.06
412.025	1126.06
412.249	1135.06
412.472	1126.06
412.695	1121.06
412.919	1083.06
413.142	1093.06
413.365	1073.06
413.589	1094.06
413.812	1077.06
414.035	1078.06
414.258	1072.06
414.482	1082.06
414.705	1095.06
414.928	1114.06
415.151	1077.06
415.374	1067.06
415.597	1063.06
415.821	1091.06
416.044	1045.06
416.267	1060.06
416.49	1053.06
416.713	1043.06
416.936	1047.06
417.159	1086.06
417.382	1046.06
417.605	1055.06
417.828	1060.06
418.051	1099.06
418.274	1073.06
418.497	1099.06
418.72	1106.06
418.943	1097.06
419.166	1192.06
419.389	1285.06
419.611	1227.06
419.834	1183.06
420.057	1157.06
420.28	1107.06
420.503	1059.06
420.726	1077.06
420.948	1063.06
421.171	1058.06
421.394	1060.06
421.617	1060.06
421.839	1072.06
422.062	1078.06
422.285	1077.06
422.507	1083.06
422.73	1074.06
422.953	1095.06
423.175	1137.06
423.398	1122.06
423.621	1128.06
423.843	1149.06
424.066	1170.06
424.288	1151.06
424.511	1137.06
424.733	1150.06
424.956	1119.06
425.178	1085.06
425.401	1080.06
425.623	1095.06
425.846	1059.06
426.068	1028.06
426.291	1039.06
426.513	1026.06
426.735	1001.06
426.958	989.06
427.18	1014.06
427.402	975.06
427.625	981.06
427.847	951.06
428.069	936.06
428.292	975.06
428.514	983.06
428.736	970.06
428.958	967.06
429.181	937.06
429.403	925.06
429.625	965.06
429.847	945.06
430.069	944.06
430.292	992.06
430.514	936.06
430.736	950.06
430.958	969.06
431.18	930.06
431.402	926.06
431.624	934.06
431.846	945.06
432.068	962.06
432.29	1001.06
432.512	923.06
432.734	948.06
432.956	948.06
433.178	983.06
433.4	955.06
433.622	968.06
433.844	977.06
434.066	984.06
434.287	980.06
434.509	1022.06
434.731	1079.06
434.953	1100.06
435.175	1112.06
435.397	1097.06
435.618	1029.06
435.84	1010.06
436.062	971.06
436.284	949.06
436.505	982.06
436.727	979.06
436.949	999.06
437.17	976.06
437.392	977.06
437.614	908.06
437.835	929.06
438.057	916.06
438.278	897.06
438.5	925.06
438.721	913.06
438.943	935.06
439.165	903.06
439.386	965.06
439.608	957.06
439.829	953.06
440.05	970.06
440.272	955.06
440.493	976.06
440.715	1000.06
440.936	1007.06
441.158	1040.06
441.379	1040.06
441.6	1119.06
441.822	1125.06
442.043	1119.06
442.264	1083.06
442.486	1062.06
442.707	1091.06
442.928	1083.06
443.149	1051.06
443.371	1078.06
443.592	1108.06
443.813	1113.06
444.034	1099.06
444.255	1117.06
444.476	1201.06
444.698	1219.06
444.919	1328.06
445.14	1453.06
445.361	1303.06
445.582	1133.06
445.803	1088.06
446.024	1034.06
446.245	1014.06
446.466	1007.06
446.687	965.06
446.908	971.06
447.129	966.06
447.35	954.06
447.571	935.06
447.792	921.06
448.013	928.06
448.234	901.06
448.455	909.06
448.675	859.06
448.896	888.06
449.117	874.06
449.338	912.06
449.559	905.06
449.779	869.06
450	855.06
450.221	885.06
450.442	901.06
450.662	915.06
450.883	902.06
451.104	962.06
451.324	953.06
451.545	921.06
451.766	918.06
451.986	910.06
452.207	890.06
452.428	922.06
452.648	918.06
452.869	863.06
453.089	867.06
453.31	904.06
453.53	843.06
453.751	872.06
453.971	881.06
454.192	880.06
454.412	853.06
454.633	850.06
454.853	882.06
455.073	845.06
455.294	834.06
455.514	844.06
455.734	837.06
455.955	826.06
456.175	823.06
456.395	852.06
456.616	822.06
456.836	838.06
457.056	841.06
457.276	805.06
457.497	821.06
457.717	830.06
457.937	838.06
458.157	840.06
458.377	861.06
458.598	872.06
458.818	893.06
459.038	922.06
459.258	952.06
459.478	993.06
459.698	1008.06
459.918	1046.06
460.138	1047.06
460.358	1148.06
460.578	1180.06
460.798	1176.06
461.018	1200.06
461.238	1155.06
461.458	1144.06
461.678	1118.06
461.898	1133.06
462.118	1187.06
462.338	1233.06
462.558	1300.06
462.777	1325.06
462.997	1418.06
463.217	1567.06
463.437	1592.06
463.657	1481.06
463.876	1358.06
464.096	1370.06
464.316	1397.06
464.536	1388.06
464.755	1338.06
464.975	1270.06
465.195	1235.06
465.414	1152.06
465.634	1057.06
465.854	1025.06
466.073	1026.06
466.293	963.06
466.512	996.06
466.732	947.06
466.951	947.06
467.171	942.06
467.391	969.06
467.61	953.06
467.829	912.06
468.049	934.06
468.268	898.06
468.488	902.06
468.707	880.06
468.927	897.06
469.146	892.06
469.365	905.06
469.585	897.06
469.804	917.06
470.023	953.06
470.243	999.06
470.462	950.06
470.681	989.06
470.901	980.06
471.12	969.06
471.339	934.06
471.558	917.06
471.777	925.06
471.997	920.06
472.216	881.06
472.435	879.06
472.654	896.06
472.873	885.06
473.092	885.06
473.311	854.06
473.53	874.06
473.749	886.06
473.968	877.06
474.187	879.06
474.406	858.06
474.625	874.06
474.844	915.06
475.063	876.06
475.282	897.06
475.501	875.06
475.72	882.06
475.939	890.06
476.158	898.06
476.377	934.06
476.596	907.06
476.814	929.06
477.033	934.06
477.252	960.06
477.471	975.06
477.69	1038.06
477.908	1022.06
478.127	1048.06
478.346	1041.06
478.564	1055.06
478.783	1085.06
479.002	1096.06
479.22	1127.06
479.439	1103.06
479.658	1098.06
479.876	1071.06
480.095	1120.06
480.313	1121.06
480.532	1185.06
480.751	1208.06
480.969	1135.06
481.188	1115.06
481.406	1062.06
481.624	1050.06
481.843	999.06
482.061	1019.06
482.28	1007.06
482.498	999.06
482.717	999.06
482.935	1007.06
483.153	998.06
483.372	1007.06
483.59	996.06
483.808	1019.06
484.027	1002.06
484.245	1031.06
484.463	1007.06
484.681	1027.06
484.9	1049.06
485.118	1074.06
485.336	1043.06
485.554	1058.06
485.772	1052.06
485.99	1099.06
486.209	1104.06
486.427	1076.06
486.645	1065.06
486.863	1110.06
487.081	1067.06
487.299	1086.06
487.517	1055.06
487.735	1057.06
487.953	1056.06
488.171	1055.06
488.389	1036.06
488.607	1041.06
488.825	1041.06
489.043	1012.06
489.261	1038.06
489.479	1052.06
489.696	1032.06
489.914	1071.06
490.132	1062.06
490.35	1038.06
490.568	1050.06
490.786	1070.06
491.003	1102.06
491.221	1052.06
491.439	1035.06
491.657	1093.06
491.874	1041.06
492.092	1049.06
492.31	1087.06
492.527	1085.06
492.745	1064.06
492.963	1085.06
493.18	1070.06
493.398	1102.06
493.615	1103.06
493.833	1105.06
494.05	1112.06
494.268	1108.06
494.485	1122.06
494.703	1143.06
494.92	1109.06
495.138	1110.06
495.355	1090.06
495.573	1127.06
495.79	1147.06
496.008	1134.06
496.225	1123.06
496.442	1115.06
496.66	1177.06
496.877	1172.06
497.094	1190.06
497.312	1197.06
497.529	1230.06
497.746	1214.06
497.963	1277.06
498.181	1321.06
498.398	1403.06
498.615	1455.06
498.832	1566.06
499.049	1683.06
499.267	1843.06
499.484	2009.06
499.701	2231.06
499.918	2517.06
500.135	2889.06
500.352	3264.06
500.569	3492.06
500.786	3431.06
501.003	3193.06
501.22	2857.06
501.437	2543.06
501.654	2201.06
501.871	1973.06
502.088	1816.06
502.305	1692.06
502.522	1595.06
502.739	1506.06
502.956	1470.06
503.172	1405.06
503.389	1346.06
503.606	1289.06
503.823	1266.06
504.04	1266.06
504.256	1303.06
504.473	1306.06
504.69	1343.06
504.907	1369.06
505.123	1233.06
505.34	1186.06
505.557	1117.06
505.773	1087.06
505.99	1053.06
506.207	1048.06
506.423	1036.06
506.64	1013.06
506.856	1005.06
507.073	1013.06
507.289	969.06
507.506	984.06
507.722	977.06
507.939	990.06
508.155	950.06
508.372	951.06
508.588	931.06
508.805	933.06
509.021	910.06
509.238	894.06
509.454	888.06
509.67	909.06
509.887	913.06
510.103	897.06
510.319	913.06
510.536	920.06
510.752	903.06
510.968	919.06
511.184	878.06
511.401	899.06
511.617	887.06
511.833	927.06
512.049	888.06
512.265	901.06
512.481	897.06
512.698	871.06
512.914	882.06
513.13	909.06
513.346	890.06
513.562	883.06
513.778	886.06
513.994	909.06
514.21	895.06
514.426	890.06
514.642	895.06
514.858	958.06
515.074	903.06
515.29	945.06
515.506	913.06
515.721	928.06
515.937	937.06
516.153	980.06
516.369	1000.06
516.585	1012.06
516.801	1034.06
517.016	1079.06
517.232	1144.06
517.448	1203.06
517.664	1282.06
517.879	1297.06
518.095	1301.06
518.311	1223.06
518.527	1181.06
518.742	1145.06
518.958	1072.06
519.173	1072.06
519.389	1019.06
519.605	984.06
519.82	941.06
520.036	934.06
520.251	897.06
520.467	926.06
520.682	907.06
520.898	894.06
521.113	909.06
521.329	873.06
521.544	893.06
521.76	898.06
521.975	839.06
522.19	873.06
522.406	872.06
522.621	849.06
522.836	852.06
523.052	846.06
523.267	834.06
523.482	823.06
523.698	853.06
523.913	837.06
524.128	864.06
524.343	833.06
524.559	845.06
524.774	824.06
524.989	847.06
525.204	826.06
525.419	832.06
525.634	801.06
525.849	799.06
526.064	821.06
526.28	838.06
526.495	822.06
526.71	824.06
526.925	823.06
527.14	818.06
527.355	830.06
527.57	823.06
527.785	807.06
527.999	798.06
528.214	794.06
528.429	807.06
528.644	833.06
528.859	817.06
529.074	821.06
529.289	824.06
529.503	810.06
529.718	810.06
529.933	825.06
530.148	801.06
530.363	834.06
530.577	807.06
530.792	814.06
531.007	811.06
531.221	841.06
531.436	823.06
531.651	831.06
531.865	814.06
532.08	815.06
532.295	813.06
532.509	833.06
532.724	815.06
532.938	803.06
533.153	813.06
533.367	820.06
533.582	814.06
533.796	819.06
534.011	801.06
534.225	809.06
534.44	780.06
534.654	804.06
534.868	820.06
535.083	788.06
535.297	783.06
535.511	780.06
535.726	822.06
535.94	779.06
536.154	803.06
536.369	770.06
536.583	755.06
536.797	757.06
537.011	747.06
537.225	776.06
537.44	778.06
537.654	737.06
537.868	746.06
538.082	714.06
538.296	759.06
538.51	725.06
538.724	752.06
538.938	749.06
539.153	726.06
539.367	759.06
539.581	735.06
539.795	725.06
540.009	721.06
540.222	732.06
540.436	737.06
540.65	762.06
540.864	729.06
541.078	716.06
541.292	743.06
541.506	711.06
541.72	708.06
541.934	720.06
542.147	720.06
542.361	720.06
542.575	733.06
542.789	714.06
543.002	708.06
543.216	744.06
543.43	698.06
543.644	705.06
543.857	715.06
544.071	735.06
544.285	704.06
544.498	714.06
544.712	723.06
544.925	733.06
545.139	734.06
545.352	754.06
545.566	731.06
545.779	759.06
545.993	755.06
546.206	765.06
546.42	744.06
546.633	750.06
546.847	749.06
547.06	723.06
547.274	718.06
547.487	727.06
547.7	773.06
547.914	743.06
548.127	752.06
548.34	761.06
548.554	731.06
548.767	755.06
548.98	755.06
549.193	721.06
549.407	726.06
549.62	757.06
549.833	776.06
550.046	763.06
550.259	740.06
550.473	720.06
550.686	729.06
550.899	725.06
551.112	734.06
551.325	738.06
551.538	734.06
551.751	702.06
551.964	711.06
552.177	756.06
552.39	748.06
552.603	775.06
552.816	793.06
553.029	811.06
553.242	794.06
553.455	805.06
553.667	803.06
553.88	826.06
554.093	779.06
554.306	762.06
554.519	782.06
554.732	737.06
554.944	730.06
555.157	706.06
555.37	728.06
555.583	703.06
555.795	663.06
556.008	659.06
556.221	663.06
556.433	686.06
556.646	647.06
556.859	638.06
557.071	647.06
557.284	656.06
557.496	614.06
557.709	633.06
557.921	639.06
558.134	623.06
558.346	659.06
558.559	605.06
558.771	637.06
558.984	605.06
559.196	645.06
559.409	632.06
559.621	617.06
559.833	608.06
560.046	630.06
560.258	625.06
560.47	591.06
560.683	621.06
560.895	591.06
561.107	607.06
561.32	621.06
561.532	611.06
561.744	629.06
561.956	610.06
562.168	617.06
562.381	622.06
562.593	631.06
562.805	626.06
563.017	637.06
563.229	599.06
563.441	631.06
563.653	660.06
563.865	640.06
564.077	621.06
564.289	640.06
564.501	660.06
564.713	660.06
564.925	669.06
565.137	666.06
565.349	693.06
565.561	718.06
565.773	725.06
565.985	767.06
566.197	826.06
566.408	860.06
566.62	966.06
566.832	1034.06
567.044	1072.06
567.255	1049.06
567.467	1061.06
567.679	1105.06
567.891	1209.06
568.102	1257.06
568.314	1157.06
568.526	1054.06
568.737	957.06
568.949	886.06
569.161	777.06
569.372	738.06
569.584	705.06
569.795	684.06
570.007	657.06
570.218	617.06
570.43	651.06
570.641	627.06
570.853	651.06
571.064	660.06
571.276	666.06
571.487	644.06
571.698	625.06
571.91	585.06
572.121	568.06
572.333	548.06
572.544	574.06
572.755	542.06
572.966	531.06
573.178	548.06
573.389	531.06
573.6	509.06
573.811	517.06
574.023	519.06
574.234	530.06
574.445	540.06
574.656	527.06
574.867	523.06
575.078	517.06
575.289	514.06
575.501	519.06
575.712	524.06
575.923	504.06
576.134	495.06
576.345	483.06
576.556	500.06
576.767	486.06
576.978	474.06
577.188	518.06
577.399	472.06
577.61	494.06
577.821	473.06
578.032	452.06
578.243	463.06
578.454	472.06
578.665	462.06
578.875	467.06
579.086	457.06
579.297	454.06
579.508	451.06
579.718	473.06
579.929	462.06
580.14	457.06
580.35	445.06
580.561	456.06
580.772	442.06
580.982	465.06
581.193	452.06
581.403	447.06
581.614	447.06
581.825	452.06
582.035	448.06
582.246	435.06
582.456	444.06
582.667	440.06
582.877	426.06
583.087	423.06
583.298	426.06
583.508	457.06
583.719	438.06
583.929	439.06
584.139	425.06
584.35	441.06
584.56	414.06
584.77	430.06
584.981	424.06
585.191	425.06
585.401	427.06
585.611	423.06
585.821	435.06
586.032	435.06
586.242	432.06
586.452	415.06
586.662	415.06
586.872	417.06
587.082	423.06
587.292	423.06
587.502	402.06
587.713	433.06
587.923	426.06
588.133	418.06
588.343	424.06
588.553	420.06
588.762	421.06
588.972	388.06
589.182	441.06
589.392	410.06
589.602	417.06
589.812	433.06
590.022	434.06
590.232	428.06
590.441	425.06
590.651	420.06
590.861	416.06
591.071	441.06
591.281	439.06
591.49	449.06
591.7	447.06
591.91	433.06
592.119	451.06
592.329	459.06
592.539	494.06
592.748	465.06
592.958	513.06
593.167	537.06
593.377	509.06
593.587	547.06
593.796	535.06
594.006	550.06
594.215	550.06
594.424	542.06
594.634	525.06
594.843	533.06
595.053	503.06
595.262	477.06
595.472	470.06
595.681	456.06
595.89	453.06
596.1	427.06
596.309	402.06
596.518	394.06
596.727	399.06
596.937	399.06
597.146	378.06
597.355	386.06
597.564	379.06
597.774	367.06
597.983	364.06
598.192	368.06
598.401	375.06
598.61	378.06
598.819	366.06
599.028	363.06
599.237	375.06
599.446	346.06
599.655	351.06
599.864	345.06
600.073	345.06
600.282	348.06
600.491	353.06
600.7	349.06
600.909	358.06
601.118	358.06
601.327	348.06
601.536	353.06
601.745	346.06
601.953	367.06
602.162	338.06
602.371	341.06
602.58	337.06
602.789	337.06
602.997	357.06
603.206	342.06
603.415	336.06
603.623	354.06
603.832	334.06
604.041	346.06
604.249	337.06
604.458	335.06
604.666	331.06
604.875	317.06
605.084	330.06
605.292	312.06
605.501	333.06
605.709	330.06
605.918	338.06
606.126	318.06
606.334	324.06
606.543	322.06
606.751	309.06
606.96	315.06
607.168	321.06
607.376	311.06
607.585	323.06
607.793	327.06
608.001	319.06
608.21	325.06
608.418	314.06
608.626	331.06
608.834	310.06
609.043	309.06
609.251	312.06
609.459	318.06
609.667	309.06
609.875	283.06
610.083	301.06
610.291	311.06
610.499	306.06
610.707	312.06
610.916	302.06
611.124	318.06
611.332	318.06
611.54	308.06
611.748	307.06
611.955	299.06
612.163	307.06
612.371	293.06
612.579	322.06
612.787	301.06
612.995	306.06
613.203	310.06
613.411	302.06
613.618	305.06
613.826	304.06
614.034	308.06
614.242	314.06
614.449	310.06
614.657	319.06
614.865	305.06
615.072	304.06
615.28	307.06
615.488	296.06
615.695	310.06
615.903	301.06
616.111	300.06
616.318	306.06
616.526	309.06
616.733	309.06
616.941	296.06
617.148	315.06
617.356	323.06
617.563	317.06
617.771	322.06
617.978	304.06
618.185	305.06
618.393	298.06
618.6	275.06
618.807	317.06
619.015	304.06
619.222	298.06
619.429	291.06
619.637	285.06
619.844	292.06
620.051	296.06
620.258	289.06
620.466	286.06
620.673	283.06
620.88	277.06
621.087	293.06
621.294	267.06
621.501	286.06
621.708	275.06
621.915	280.06
622.122	279.06
622.329	280.06
622.536	287.06
622.743	285.06
622.95	283.06
623.157	272.06
623.364	273.06
623.571	296.06
623.778	272.06
623.985	278.06
624.192	281.06
624.399	271.06
624.606	275.06
624.812	262.06
625.019	263.06
625.226	271.06
625.433	269.06
625.639	266.06
625.846	253.06
626.053	259.06
626.259	260.06
626.466	269.06
626.673	253.06
626.879	232.06
627.086	240.06
627.293	249.06
627.499	241.06
627.706	266.06
627.912	253.06
628.119	245.06
628.325	277.06
628.532	247.06
628.738	251.06
628.945	253.06
629.151	259.06
629.357	255.06
629.564	264.06
629.77	243.06
629.976	245.06
630.183	257.06
630.389	242.06
630.595	226.06
630.802	246.06
631.008	231.06
631.214	231.06
631.42	261.06
631.627	240.06
631.833	222.06
632.039	219.06
632.245	241.06
632.451	220.06
632.657	242.06
632.863	226.06
633.069	237.06
633.275	243.06
633.481	217.06
633.688	242.06
633.893	223.06
634.099	246.06
634.305	232.06
634.511	230.06
634.717	234.06
634.923	233.06
635.129	233.06
635.335	234.06
635.541	215.06
635.747	211.06
635.952	224.06
636.158	227.06
636.364	222.06
636.57	216.06
636.775	212.06
636.981	221.06
637.187	215.06
637.392	214.06
637.598	212.06
637.804	205.06
638.009	215.06
638.215	216.06
638.421	214.06
638.626	197.06
638.832	216.06
639.037	216.06
639.243	211.06
639.448	238.06
639.654	221.06
639.859	200.06
640.065	201.06
640.27	225.06
640.475	211.06
640.681	213.06
640.886	214.06
641.091	213.06
641.297	221.06
641.502	202.06
641.707	222.06
641.913	206.06
642.118	208.06
642.323	217.06
642.528	196.06
642.733	219.06
642.939	203.06
643.144	206.06
643.349	197.06
643.554	197.06
643.759	203.06
643.964	186.06
644.169	197.06
644.374	188.06
644.579	205.06
644.784	198.06
644.989	193.06
645.194	196.06
645.399	202.06
645.604	208.06
645.809	177.06
646.014	195.06
646.219	184.06
646.423	208.06
646.628	194.06
646.833	213.06
647.038	198.06
647.243	190.06
647.447	198.06
647.652	202.06
647.857	212.06
648.062	223.06
648.266	208.06
648.471	223.06
648.676	223.06
648.88	216.06
649.085	207.06
649.289	199.06
649.494	211.06
649.698	195.06
649.903	198.06
650.107	212.06
650.312	202.06
650.516	197.06
650.721	199.06
650.925	183.06
651.13	181.06
651.334	182.06
651.539	177.06
651.743	190.06
651.947	175.06
652.152	175.06
652.356	191.06
652.56	169.06
652.764	177.06
652.969	166.06
653.173	168.06
653.377	157.06
653.581	158.06
653.785	152.06
653.99	153.06
654.194	168.06
654.398	158.06
654.602	169.06
654.806	152.06
655.01	163.06
655.214	149.06
655.418	147.06
655.622	143.06
655.826	153.06
656.03	152.06
656.234	162.06
656.438	146.06
656.642	139.06
656.846	164.06
657.049	144.06
657.253	151.06
657.457	121.06
657.661	123.06
657.865	139.06
658.068	127.06
658.272	119.06
658.476	120.06
658.68	115.06
658.883	118.06
659.087	115.06
659.291	100.06
659.494	97.06
659.698	95.06
659.901	102.06
660.105	103.06
660.309	99.06
660.512	97.06
660.716	103.06
660.919	82.06
661.123	98.06
661.326	97.06
661.53	87.06
661.733	107.06
661.936	96.06
662.14	83.06
662.343	104.06
662.546	84.06
662.75	87.06
662.953	96.06
663.156	69.06
663.36	73.06
663.563	85.06
663.766	81.06
663.969	85.06
664.173	85.06
664.376	82.06
664.579	83.06
664.782	71.06
664.985	80.06
665.188	90.06
665.391	83.06
665.594	81.06
665.797	66.06
666	85.06
666.203	86.06
666.406	75.06
666.609	82.06
666.812	76.06
667.015	75.06
667.218	89.06
667.421	78.06
667.624	73.06
667.827	65.06
668.03	77.06
668.232	71.06
668.435	86.06
668.638	94.06
668.841	82.06
669.043	78.06
669.246	86.06
669.449	74.06
669.651	72.06
669.854	79.06
670.057	75.06
670.259	75.06
670.462	86.06
670.665	64.06
670.867	75.06
671.07	80.06
671.272	68.06
671.475	68.06
671.677	83.06
671.88	89.06
672.082	74.06
672.284	74.06
672.487	70.06
672.689	82.06
672.892	75.06
