Data from NiCl2@0.5M.TitratingCurve.Agarose3%dH2O.NegLispCup.LampEnergy10.LIBS07252019_HRD10591_18-20-19-571.txt Node
Date: Thu Jul 25 18:20:19 EDT 2019
User: cochatt
Spectrometer: HR+D1059
Trigger mode: 1
Integration Time (sec): 1.000000E-1
Scans to average: 1
Electric dark correction enabled: true
Nonlinearity correction enabled: false
Boxcar width: 0
XAxis mode: Wavelengths
Number of Pixels in Spectrum: 2048
>>>>>Begin Spectral Data<<<<<
223.165	-17.5
223.4	-17.5
223.635	-17.5
223.869	-11.5
224.104	-27.5
224.338	-21.5
224.573	-9.5
224.808	-18.5
225.042	-10.5
225.277	-7.5
225.511	-6.5
225.746	-2.5
225.98	9.5
226.215	12.5
226.449	25.5
226.683	11.5
226.918	39.5
227.152	34.5
227.387	32.5
227.621	31.5
227.856	38.5
228.09	50.5
228.324	49.5
228.559	76.5
228.793	74.5
229.027	106.5
229.262	98.5
229.496	100.5
229.73	120.5
229.964	126.5
230.199	119.5
230.433	118.5
230.667	131.5
230.901	138.5
231.136	126.5
231.37	125.5
231.604	119.5
231.838	146.5
232.072	140.5
232.306	126.5
232.541	139.5
232.775	121.5
233.009	138.5
233.243	138.5
233.477	126.5
233.711	136.5
233.945	135.5
234.179	147.5
234.413	127.5
234.647	144.5
234.881	135.5
235.115	134.5
235.349	151.5
235.583	137.5
235.817	139.5
236.051	148.5
236.285	149.5
236.519	142.5
236.753	155.5
236.987	153.5
237.221	153.5
237.455	147.5
237.689	146.5
237.922	154.5
238.156	151.5
238.39	159.5
238.624	147.5
238.858	146.5
239.091	162.5
239.325	169.5
239.559	149.5
239.793	166.5
240.027	165.5
240.26	168.5
240.494	154.5
240.728	165.5
240.961	157.5
241.195	174.5
241.429	158.5
241.662	170.5
241.896	153.5
242.13	165.5
242.363	166.5
242.597	177.5
242.83	172.5
243.064	165.5
243.298	171.5
243.531	162.5
243.765	193.5
243.998	175.5
244.232	189.5
244.465	179.5
244.699	202.5
244.932	189.5
245.166	185.5
245.399	188.5
245.633	184.5
245.866	208.5
246.099	205.5
246.333	191.5
246.566	214.5
246.8	202.5
247.033	195.5
247.266	197.5
247.5	203.5
247.733	190.5
247.966	209.5
248.2	215.5
248.433	201.5
248.666	214.5
248.899	214.5
249.133	219.5
249.366	227.5
249.599	221.5
249.832	223.5
250.066	228.5
250.299	228.5
250.532	218.5
250.765	206.5
250.998	217.5
251.231	241.5
251.465	220.5
251.698	223.5
251.931	235.5
252.164	248.5
252.397	232.5
252.63	224.5
252.863	249.5
253.096	246.5
253.329	235.5
253.562	252.5
253.795	230.5
254.028	259.5
254.261	247.5
254.494	246.5
254.727	235.5
254.96	236.5
255.193	268.5
255.426	229.5
255.659	262.5
255.892	245.5
256.124	253.5
256.357	243.5
256.59	243.5
256.823	232.5
257.056	246.5
257.289	279.5
257.521	277.5
257.754	266.5
257.987	267.5
258.22	276.5
258.452	277.5
258.685	269.5
258.918	265.5
259.151	267.5
259.383	274.5
259.616	269.5
259.849	248.5
260.081	277.5
260.314	267.5
260.547	292.5
260.779	278.5
261.012	278.5
261.244	257.5
261.477	266.5
261.71	286.5
261.942	279.5
262.175	279.5
262.407	286.5
262.64	280.5
262.872	266.5
263.105	286.5
263.337	305.5
263.57	300.5
263.802	307.5
264.035	293.5
264.267	302.5
264.499	296.5
264.732	309.5
264.964	301.5
265.197	316.5
265.429	314.5
265.661	331.5
265.894	322.5
266.126	327.5
266.358	328.5
266.591	316.5
266.823	315.5
267.055	330.5
267.287	330.5
267.52	310.5
267.752	314.5
267.984	311.5
268.216	338.5
268.448	333.5
268.681	318.5
268.913	327.5
269.145	319.5
269.377	343.5
269.609	341.5
269.841	345.5
270.073	346.5
270.306	329.5
270.538	338.5
270.77	312.5
271.002	333.5
271.234	357.5
271.466	343.5
271.698	333.5
271.93	342.5
272.162	361.5
272.394	348.5
272.626	346.5
272.858	350.5
273.09	354.5
273.322	351.5
273.553	370.5
273.785	350.5
274.017	363.5
274.249	374.5
274.481	355.5
274.713	361.5
274.945	369.5
275.176	358.5
275.408	354.5
275.64	376.5
275.872	369.5
276.104	375.5
276.335	380.5
276.567	382.5
276.799	372.5
277.031	379.5
277.262	396.5
277.494	391.5
277.726	381.5
277.957	385.5
278.189	381.5
278.421	389.5
278.652	391.5
278.884	399.5
279.115	389.5
279.347	375.5
279.579	409.5
279.81	396.5
280.042	378.5
280.273	400.5
280.505	416.5
280.736	396.5
280.968	407.5
281.199	409.5
281.431	405.5
281.662	413.5
281.894	413.5
282.125	421.5
282.356	418.5
282.588	434.5
282.819	418.5
283.051	426.5
283.282	444.5
283.513	431.5
283.745	421.5
283.976	419.5
284.207	438.5
284.439	428.5
284.67	437.5
284.901	409.5
285.132	405.5
285.364	453.5
285.595	448.5
285.826	424.5
286.057	433.5
286.288	451.5
286.52	450.5
286.751	447.5
286.982	467.5
287.213	463.5
287.444	450.5
287.675	453.5
287.906	451.5
288.138	450.5
288.369	465.5
288.6	475.5
288.831	445.5
289.062	465.5
289.293	459.5
289.524	456.5
289.755	439.5
289.986	454.5
290.217	476.5
290.448	475.5
290.679	469.5
290.91	475.5
291.141	454.5
291.371	480.5
291.602	472.5
291.833	478.5
292.064	498.5
292.295	465.5
292.526	482.5
292.757	454.5
292.987	463.5
293.218	471.5
293.449	487.5
293.68	492.5
293.91	490.5
294.141	471.5
294.372	469.5
294.603	471.5
294.833	475.5
295.064	491.5
295.295	486.5
295.525	473.5
295.756	481.5
295.987	473.5
296.217	475.5
296.448	495.5
296.679	493.5
296.909	481.5
297.14	487.5
297.37	492.5
297.601	528.5
297.831	523.5
298.062	507.5
298.292	501.5
298.523	521.5
298.753	510.5
298.984	503.5
299.214	496.5
299.445	521.5
299.675	533.5
299.905	534.5
300.136	509.5
300.366	554.5
300.597	527.5
300.827	551.5
301.057	539.5
301.288	553.5
301.518	567.5
301.748	541.5
301.979	579.5
302.209	543.5
302.439	559.5
302.669	535.5
302.9	541.5
303.13	547.5
303.36	553.5
303.59	551.5
303.82	571.5
304.051	550.5
304.281	551.5
304.511	551.5
304.741	564.5
304.971	570.5
305.201	544.5
305.431	547.5
305.661	577.5
305.891	553.5
306.121	548.5
306.352	572.5
306.582	553.5
306.812	526.5
307.042	533.5
307.272	557.5
307.502	511.5
307.731	524.5
307.961	545.5
308.191	553.5
308.421	555.5
308.651	521.5
308.881	529.5
309.111	561.5
309.341	545.5
309.571	540.5
309.8	539.5
310.03	539.5
310.26	556.5
310.49	541.5
310.72	551.5
310.949	554.5
311.179	554.5
311.409	539.5
311.639	541.5
311.868	547.5
312.098	557.5
312.328	558.5
312.557	573.5
312.787	594.5
313.017	569.5
313.246	576.5
313.476	583.5
313.706	595.5
313.935	604.5
314.165	583.5
314.394	577.5
314.624	601.5
314.853	596.5
315.083	589.5
315.312	591.5
315.542	606.5
315.771	590.5
316.001	577.5
316.23	576.5
316.46	583.5
316.689	585.5
316.919	581.5
317.148	585.5
317.377	589.5
317.607	584.5
317.836	586.5
318.065	585.5
318.295	572.5
318.524	577.5
318.753	612.5
318.983	583.5
319.212	586.5
319.441	584.5
319.67	557.5
319.9	606.5
320.129	586.5
320.358	586.5
320.587	590.5
320.816	599.5
321.046	572.5
321.275	588.5
321.504	604.5
321.733	589.5
321.962	606.5
322.191	591.5
322.42	590.5
322.649	590.5
322.878	608.5
323.108	593.5
323.337	625.5
323.566	623.5
323.795	627.5
324.024	579.5
324.253	599.5
324.482	592.5
324.71	625.5
324.939	625.5
325.168	614.5
325.397	609.5
325.626	622.5
325.855	637.5
326.084	637.5
326.313	633.5
326.542	604.5
326.77	617.5
326.999	641.5
327.228	639.5
327.457	633.5
327.686	619.5
327.914	650.5
328.143	637.5
328.372	633.5
328.6	636.5
328.829	641.5
329.058	647.5
329.287	638.5
329.515	624.5
329.744	646.5
329.972	641.5
330.201	669.5
330.43	653.5
330.658	653.5
330.887	661.5
331.115	680.5
331.344	684.5
331.572	663.5
331.801	691.5
332.03	694.5
332.258	723.5
332.486	738.5
332.715	757.5
332.943	779.5
333.172	797.5
333.4	805.5
333.629	829.5
333.857	861.5
334.085	831.5
334.314	796.5
334.542	799.5
334.771	784.5
334.999	799.5
335.227	783.5
335.455	789.5
335.684	803.5
335.912	796.5
336.14	757.5
336.369	753.5
336.597	760.5
336.825	763.5
337.053	793.5
337.281	718.5
337.51	755.5
337.738	738.5
337.966	733.5
338.194	724.5
338.422	726.5
338.65	698.5
338.878	691.5
339.106	701.5
339.334	694.5
339.562	686.5
339.79	666.5
340.018	673.5
340.246	676.5
340.474	669.5
340.702	662.5
340.93	667.5
341.158	686.5
341.386	661.5
341.614	679.5
341.842	660.5
342.07	677.5
342.298	658.5
342.526	681.5
342.754	659.5
342.981	679.5
343.209	672.5
343.437	702.5
343.665	778.5
343.893	775.5
344.12	793.5
344.348	781.5
344.576	738.5
344.804	710.5
345.031	692.5
345.259	685.5
345.487	709.5
345.714	675.5
345.942	659.5
346.17	677.5
346.397	681.5
346.625	632.5
346.853	618.5
347.08	659.5
347.308	645.5
347.535	659.5
347.763	656.5
347.99	637.5
348.218	637.5
348.445	632.5
348.673	641.5
348.9	631.5
349.128	647.5
349.355	625.5
349.583	640.5
349.81	634.5
350.037	641.5
350.265	630.5
350.492	606.5
350.72	610.5
350.947	616.5
351.174	614.5
351.402	617.5
351.629	637.5
351.856	639.5
352.083	597.5
352.311	638.5
352.538	653.5
352.765	632.5
352.992	635.5
353.22	587.5
353.447	566.5
353.674	604.5
353.901	617.5
354.128	593.5
354.355	590.5
354.583	603.5
354.81	605.5
355.037	607.5
355.264	636.5
355.491	611.5
355.718	631.5
355.945	630.5
356.172	588.5
356.399	612.5
356.626	650.5
356.853	642.5
357.08	629.5
357.307	628.5
357.534	626.5
357.761	605.5
357.988	618.5
358.215	603.5
358.441	616.5
358.668	619.5
358.895	630.5
359.122	625.5
359.349	602.5
359.576	633.5
359.802	603.5
360.029	601.5
360.256	615.5
360.483	635.5
360.709	611.5
360.936	613.5
361.163	622.5
361.39	611.5
361.616	623.5
361.843	611.5
362.07	632.5
362.296	634.5
362.523	598.5
362.749	622.5
362.976	596.5
363.203	586.5
363.429	600.5
363.656	596.5
363.882	611.5
364.109	607.5
364.335	605.5
364.562	626.5
364.788	633.5
365.015	617.5
365.241	585.5
365.468	589.5
365.694	605.5
365.92	598.5
366.147	607.5
366.373	586.5
366.599	598.5
366.826	595.5
367.052	603.5
367.278	606.5
367.505	576.5
367.731	576.5
367.957	607.5
368.184	598.5
368.41	590.5
368.636	614.5
368.862	604.5
369.089	618.5
369.315	609.5
369.541	612.5
369.767	586.5
369.993	613.5
370.219	616.5
370.445	622.5
370.672	647.5
370.898	637.5
371.124	646.5
371.35	655.5
371.576	637.5
371.802	635.5
372.028	633.5
372.254	645.5
372.48	629.5
372.706	661.5
372.932	659.5
373.158	685.5
373.384	648.5
373.61	647.5
373.835	648.5
374.061	647.5
374.287	662.5
374.513	650.5
374.739	686.5
374.965	686.5
375.191	716.5
375.416	699.5
375.642	641.5
375.868	670.5
376.094	679.5
376.319	646.5
376.545	646.5
376.771	631.5
376.997	633.5
377.222	641.5
377.448	637.5
377.674	639.5
377.899	617.5
378.125	639.5
378.35	629.5
378.576	659.5
378.802	619.5
379.027	622.5
379.253	645.5
379.478	607.5
379.704	633.5
379.929	614.5
380.155	615.5
380.38	626.5
380.606	649.5
380.831	627.5
381.057	629.5
381.282	623.5
381.507	631.5
381.733	668.5
381.958	637.5
382.184	631.5
382.409	647.5
382.634	643.5
382.86	656.5
383.085	683.5
383.31	648.5
383.535	664.5
383.761	705.5
383.986	677.5
384.211	701.5
384.436	730.5
384.662	715.5
384.887	743.5
385.112	736.5
385.337	743.5
385.562	748.5
385.787	733.5
386.013	766.5
386.238	715.5
386.463	721.5
386.688	745.5
386.913	710.5
387.138	717.5
387.363	715.5
387.588	731.5
387.813	757.5
388.038	732.5
388.263	732.5
388.488	748.5
388.713	742.5
388.938	730.5
389.163	744.5
389.387	741.5
389.612	746.5
389.837	733.5
390.062	742.5
390.287	717.5
390.512	747.5
390.736	743.5
390.961	758.5
391.186	779.5
391.411	800.5
391.636	812.5
391.86	814.5
392.085	831.5
392.31	801.5
392.534	794.5
392.759	811.5
392.984	782.5
393.208	773.5
393.433	789.5
393.658	771.5
393.882	759.5
394.107	804.5
394.331	798.5
394.556	789.5
394.78	830.5
395.005	774.5
395.229	765.5
395.454	823.5
395.678	842.5
395.903	824.5
396.127	810.5
396.352	817.5
396.576	776.5
396.801	816.5
397.025	810.5
397.249	824.5
397.474	833.5
397.698	841.5
397.922	838.5
398.147	845.5
398.371	834.5
398.595	879.5
398.82	940.5
399.044	990.5
399.268	1054.5
399.492	1228.5
399.717	1333.5
399.941	1298.5
400.165	1195.5
400.389	1087.5
400.613	1023.5
400.837	972.5
401.062	940.5
401.286	940.5
401.51	911.5
401.734	895.5
401.958	939.5
402.182	948.5
402.406	945.5
402.63	960.5
402.854	957.5
403.078	970.5
403.302	1011.5
403.526	1029.5
403.75	1027.5
403.974	1043.5
404.198	1045.5
404.422	1061.5
404.645	1025.5
404.869	1037.5
405.093	1021.5
405.317	1031.5
405.541	1033.5
405.765	990.5
405.988	1019.5
406.212	1011.5
406.436	1010.5
406.66	1039.5
406.883	1061.5
407.107	1104.5
407.331	1135.5
407.555	1187.5
407.778	1201.5
408.002	1116.5
408.226	1080.5
408.449	1097.5
408.673	1059.5
408.896	1066.5
409.12	1022.5
409.344	1049.5
409.567	1021.5
409.791	1054.5
410.014	1035.5
410.238	1022.5
410.461	993.5
410.685	1009.5
410.908	1005.5
411.132	1004.5
411.355	956.5
411.578	969.5
411.802	984.5
412.025	990.5
412.249	978.5
412.472	962.5
412.695	958.5
412.919	953.5
413.142	927.5
413.365	938.5
413.589	937.5
413.812	923.5
414.035	948.5
414.258	935.5
414.482	940.5
414.705	955.5
414.928	931.5
415.151	984.5
415.374	924.5
415.597	940.5
415.821	942.5
416.044	935.5
416.267	918.5
416.49	917.5
416.713	903.5
416.936	952.5
417.159	916.5
417.382	905.5
417.605	917.5
417.828	896.5
418.051	952.5
418.274	924.5
418.497	902.5
418.72	936.5
418.943	976.5
419.166	1020.5
419.389	1046.5
419.611	1053.5
419.834	1004.5
420.057	995.5
420.28	959.5
420.503	917.5
420.726	902.5
420.948	960.5
421.171	925.5
421.394	925.5
421.617	928.5
421.839	951.5
422.062	948.5
422.285	921.5
422.507	961.5
422.73	949.5
422.953	963.5
423.175	966.5
423.398	961.5
423.621	986.5
423.843	1013.5
424.066	993.5
424.288	1002.5
424.511	1002.5
424.733	972.5
424.956	941.5
425.178	942.5
425.401	967.5
425.623	947.5
425.846	909.5
426.068	915.5
426.291	897.5
426.513	883.5
426.735	908.5
426.958	901.5
427.18	858.5
427.402	856.5
427.625	882.5
427.847	853.5
428.069	871.5
428.292	868.5
428.514	840.5
428.736	834.5
428.958	871.5
429.181	852.5
429.403	853.5
429.625	878.5
429.847	850.5
430.069	855.5
430.292	864.5
430.514	839.5
430.736	857.5
430.958	872.5
431.18	858.5
431.402	836.5
431.624	837.5
431.846	883.5
432.068	898.5
432.29	905.5
432.512	865.5
432.734	863.5
432.956	856.5
433.178	865.5
433.4	862.5
433.622	889.5
433.844	911.5
434.066	901.5
434.287	899.5
434.509	897.5
434.731	940.5
434.953	983.5
435.175	947.5
435.397	942.5
435.618	894.5
435.84	892.5
436.062	898.5
436.284	886.5
436.505	894.5
436.727	871.5
436.949	848.5
437.17	870.5
437.392	865.5
437.614	869.5
437.835	860.5
438.057	842.5
438.278	853.5
438.5	830.5
438.721	841.5
438.943	856.5
439.165	869.5
439.386	850.5
439.608	869.5
439.829	883.5
440.05	877.5
440.272	887.5
440.493	891.5
440.715	887.5
440.936	909.5
441.158	957.5
441.379	941.5
441.6	952.5
441.822	989.5
442.043	972.5
442.264	953.5
442.486	943.5
442.707	966.5
442.928	971.5
443.149	981.5
443.371	935.5
443.592	980.5
443.813	990.5
444.034	986.5
444.255	1006.5
444.476	1038.5
444.698	1097.5
444.919	1143.5
445.14	1171.5
445.361	1073.5
445.582	1014.5
445.803	934.5
446.024	954.5
446.245	932.5
446.466	907.5
446.687	872.5
446.908	925.5
447.129	882.5
447.35	830.5
447.571	829.5
447.792	837.5
448.013	838.5
448.234	814.5
448.455	816.5
448.675	818.5
448.896	817.5
449.117	794.5
449.338	805.5
449.559	817.5
449.779	797.5
450	806.5
450.221	821.5
450.442	834.5
450.662	804.5
450.883	831.5
451.104	836.5
451.324	830.5
451.545	800.5
451.766	828.5
451.986	807.5
452.207	819.5
452.428	803.5
452.648	824.5
452.869	819.5
453.089	772.5
453.31	809.5
453.53	760.5
453.751	789.5
453.971	779.5
454.192	791.5
454.412	777.5
454.633	778.5
454.853	754.5
455.073	770.5
455.294	784.5
455.514	778.5
455.734	763.5
455.955	770.5
456.175	774.5
456.395	759.5
456.616	780.5
456.836	726.5
457.056	758.5
457.276	762.5
457.497	777.5
457.717	757.5
457.937	796.5
458.157	787.5
458.377	803.5
458.598	814.5
458.818	832.5
459.038	832.5
459.258	847.5
459.478	856.5
459.698	903.5
459.918	931.5
460.138	981.5
460.358	1019.5
460.578	1031.5
460.798	1020.5
461.018	1031.5
461.238	1052.5
461.458	1037.5
461.678	1025.5
461.898	1037.5
462.118	1031.5
462.338	1105.5
462.558	1146.5
462.777	1153.5
462.997	1241.5
463.217	1340.5
463.437	1312.5
463.657	1222.5
463.876	1177.5
464.096	1173.5
464.316	1163.5
464.536	1190.5
464.755	1145.5
464.975	1111.5
465.195	1046.5
465.414	988.5
465.634	943.5
465.854	956.5
466.073	910.5
466.293	900.5
466.512	871.5
466.732	872.5
466.951	847.5
467.171	883.5
467.391	874.5
467.61	858.5
467.829	846.5
468.049	837.5
468.268	848.5
468.488	837.5
468.707	860.5
468.927	827.5
469.146	809.5
469.365	858.5
469.585	857.5
469.804	869.5
470.023	889.5
470.243	882.5
470.462	896.5
470.681	908.5
470.901	884.5
471.12	887.5
471.339	862.5
471.558	873.5
471.777	867.5
471.997	862.5
472.216	855.5
472.435	836.5
472.654	827.5
472.873	822.5
473.092	813.5
473.311	809.5
473.53	824.5
473.749	829.5
473.968	815.5
474.187	826.5
474.406	814.5
474.625	833.5
474.844	845.5
475.063	815.5
475.282	843.5
475.501	831.5
475.72	840.5
475.939	847.5
476.158	871.5
476.377	859.5
476.596	849.5
476.814	870.5
477.033	876.5
477.252	894.5
477.471	921.5
477.69	902.5
477.908	885.5
478.127	931.5
478.346	956.5
478.564	973.5
478.783	1007.5
479.002	1036.5
479.22	1002.5
479.439	1023.5
479.658	1000.5
479.876	1033.5
480.095	1019.5
480.313	1062.5
480.532	1100.5
480.751	1031.5
480.969	1029.5
481.188	995.5
481.406	991.5
481.624	935.5
481.843	962.5
482.061	979.5
482.28	933.5
482.498	956.5
482.717	942.5
482.935	963.5
483.153	955.5
483.372	967.5
483.59	991.5
483.808	970.5
484.027	1001.5
484.245	989.5
484.463	993.5
484.681	999.5
484.9	955.5
485.118	1001.5
485.336	993.5
485.554	982.5
485.772	1000.5
485.99	962.5
486.209	988.5
486.427	994.5
486.645	977.5
486.863	1029.5
487.081	1009.5
487.299	996.5
487.517	977.5
487.735	1009.5
487.953	1031.5
488.171	998.5
488.389	990.5
488.607	995.5
488.825	979.5
489.043	982.5
489.261	993.5
489.479	1000.5
489.696	1016.5
489.914	985.5
490.132	1001.5
490.35	999.5
490.568	1033.5
490.786	987.5
491.003	979.5
491.221	1018.5
491.439	1014.5
491.657	1034.5
491.874	1010.5
492.092	1038.5
492.31	1064.5
492.527	1044.5
492.745	1039.5
492.963	1049.5
493.18	1052.5
493.398	1058.5
493.615	1036.5
493.833	1047.5
494.05	1049.5
494.268	1064.5
494.485	1063.5
494.703	1068.5
494.92	1076.5
495.138	1064.5
495.355	1084.5
495.573	1051.5
495.79	1066.5
496.008	1086.5
496.225	1066.5
496.442	1097.5
496.66	1129.5
496.877	1131.5
497.094	1132.5
497.312	1143.5
497.529	1171.5
497.746	1180.5
497.963	1194.5
498.181	1288.5
498.398	1324.5
498.615	1398.5
498.832	1488.5
499.049	1557.5
499.267	1677.5
499.484	1824.5
499.701	1932.5
499.918	2181.5
500.135	2406.5
500.352	2693.5
500.569	2802.5
500.786	2776.5
501.003	2574.5
501.22	2398.5
501.437	2126.5
501.654	1884.5
501.871	1752.5
502.088	1665.5
502.305	1515.5
502.522	1435.5
502.739	1416.5
502.956	1370.5
503.172	1323.5
503.389	1238.5
503.606	1223.5
503.823	1210.5
504.04	1189.5
504.256	1190.5
504.473	1231.5
504.69	1253.5
504.907	1209.5
505.123	1139.5
505.34	1081.5
505.557	1066.5
505.773	1017.5
505.99	995.5
506.207	975.5
506.423	984.5
506.64	981.5
506.856	954.5
507.073	932.5
507.289	953.5
507.506	931.5
507.722	923.5
507.939	925.5
508.155	913.5
508.372	900.5
508.588	907.5
508.805	887.5
509.021	865.5
509.238	879.5
509.454	897.5
509.67	851.5
509.887	862.5
510.103	879.5
510.319	865.5
510.536	852.5
510.752	835.5
510.968	833.5
511.184	836.5
511.401	854.5
511.617	834.5
511.833	841.5
512.049	798.5
512.265	830.5
512.481	848.5
512.698	834.5
512.914	831.5
513.13	862.5
513.346	850.5
513.562	810.5
513.778	821.5
513.994	841.5
514.21	858.5
514.426	857.5
514.642	849.5
514.858	886.5
515.074	883.5
515.29	883.5
515.506	891.5
515.721	898.5
515.937	903.5
516.153	895.5
516.369	908.5
516.585	945.5
516.801	998.5
517.016	1019.5
517.232	1076.5
517.448	1080.5
517.664	1121.5
517.879	1133.5
518.095	1087.5
518.311	1092.5
518.527	1069.5
518.742	1005.5
518.958	1010.5
519.173	961.5
519.389	935.5
519.605	900.5
519.82	886.5
520.036	895.5
520.251	876.5
520.467	849.5
520.682	832.5
520.898	817.5
521.113	845.5
521.329	807.5
521.544	805.5
521.76	777.5
521.975	795.5
522.19	787.5
522.406	789.5
522.621	782.5
522.836	763.5
523.052	789.5
523.267	768.5
523.482	771.5
523.698	789.5
523.913	776.5
524.128	785.5
524.343	778.5
524.559	763.5
524.774	769.5
524.989	761.5
525.204	783.5
525.419	758.5
525.634	740.5
525.849	762.5
526.064	766.5
526.28	730.5
526.495	747.5
526.71	737.5
526.925	747.5
527.14	726.5
527.355	753.5
527.57	755.5
527.785	734.5
527.999	735.5
528.214	763.5
528.429	744.5
528.644	746.5
528.859	760.5
529.074	738.5
529.289	753.5
529.503	758.5
529.718	759.5
529.933	724.5
530.148	727.5
530.363	739.5
530.577	749.5
530.792	744.5
531.007	751.5
531.221	760.5
531.436	758.5
531.651	760.5
531.865	719.5
532.08	726.5
532.295	728.5
532.509	734.5
532.724	754.5
532.938	728.5
533.153	748.5
533.367	731.5
533.582	741.5
533.796	747.5
534.011	747.5
534.225	756.5
534.44	734.5
534.654	722.5
534.868	713.5
535.083	750.5
535.297	714.5
535.511	707.5
535.726	696.5
535.94	688.5
536.154	710.5
536.369	682.5
536.583	689.5
536.797	703.5
537.011	688.5
537.225	701.5
537.44	675.5
537.654	675.5
537.868	687.5
538.082	680.5
538.296	666.5
538.51	659.5
538.724	685.5
538.938	678.5
539.153	665.5
539.367	693.5
539.581	676.5
539.795	668.5
540.009	653.5
540.222	678.5
540.436	685.5
540.65	669.5
540.864	673.5
541.078	663.5
541.292	676.5
541.506	666.5
541.72	702.5
541.934	660.5
542.147	681.5
542.361	685.5
542.575	652.5
542.789	667.5
543.002	674.5
543.216	644.5
543.43	662.5
543.644	664.5
543.857	671.5
544.071	697.5
544.285	698.5
544.498	674.5
544.712	686.5
544.925	701.5
545.139	699.5
545.352	683.5
545.566	677.5
545.779	691.5
545.993	693.5
546.206	685.5
546.42	686.5
546.633	715.5
546.847	697.5
547.06	673.5
547.274	681.5
547.487	690.5
547.7	693.5
547.914	703.5
548.127	685.5
548.34	661.5
548.554	685.5
548.767	700.5
548.98	710.5
549.193	719.5
549.407	682.5
549.62	705.5
549.833	713.5
550.046	707.5
550.259	691.5
550.473	682.5
550.686	669.5
550.899	693.5
551.112	675.5
551.325	661.5
551.538	664.5
551.751	665.5
551.964	691.5
552.177	681.5
552.39	683.5
552.603	719.5
552.816	724.5
553.029	735.5
553.242	726.5
553.455	740.5
553.667	733.5
553.88	719.5
554.093	710.5
554.306	701.5
554.519	702.5
554.732	678.5
554.944	642.5
555.157	673.5
555.37	644.5
555.583	630.5
555.795	653.5
556.008	641.5
556.221	602.5
556.433	611.5
556.646	623.5
556.859	609.5
557.071	596.5
557.284	596.5
557.496	589.5
557.709	586.5
557.921	592.5
558.134	602.5
558.346	588.5
558.559	587.5
558.771	577.5
558.984	567.5
559.196	542.5
559.409	579.5
559.621	579.5
559.833	570.5
560.046	575.5
560.258	561.5
560.47	575.5
560.683	574.5
560.895	554.5
561.107	590.5
561.32	554.5
561.532	547.5
561.744	574.5
561.956	573.5
562.168	570.5
562.381	564.5
562.593	570.5
562.805	549.5
563.017	579.5
563.229	574.5
563.441	555.5
563.653	587.5
563.865	557.5
564.077	571.5
564.289	587.5
564.501	599.5
564.713	614.5
564.925	622.5
565.137	635.5
565.349	638.5
565.561	646.5
565.773	670.5
565.985	686.5
566.197	730.5
566.408	759.5
566.62	797.5
566.832	825.5
567.044	857.5
567.255	847.5
567.467	876.5
567.679	947.5
567.891	961.5
568.102	989.5
568.314	940.5
568.526	890.5
568.737	798.5
568.949	730.5
569.161	680.5
569.372	662.5
569.584	645.5
569.795	619.5
570.007	603.5
570.218	574.5
570.43	580.5
570.641	565.5
570.853	597.5
571.064	611.5
571.276	584.5
571.487	565.5
571.698	531.5
571.91	538.5
572.121	523.5
572.333	501.5
572.544	478.5
572.755	492.5
572.966	502.5
573.178	494.5
573.389	475.5
573.6	457.5
573.811	481.5
574.023	456.5
574.234	450.5
574.445	445.5
574.656	460.5
574.867	462.5
575.078	473.5
575.289	473.5
575.501	458.5
575.712	465.5
575.923	447.5
576.134	449.5
576.345	437.5
576.556	438.5
576.767	417.5
576.978	429.5
577.188	442.5
577.399	431.5
577.61	428.5
577.821	399.5
578.032	415.5
578.243	415.5
578.454	417.5
578.665	414.5
578.875	420.5
579.086	403.5
579.297	409.5
579.508	409.5
579.718	403.5
579.929	390.5
580.14	403.5
580.35	392.5
580.561	393.5
580.772	399.5
580.982	393.5
581.193	387.5
581.403	407.5
581.614	401.5
581.825	373.5
582.035	403.5
582.246	373.5
582.456	375.5
582.667	387.5
582.877	394.5
583.087	387.5
583.298	378.5
583.508	388.5
583.719	383.5
583.929	388.5
584.139	399.5
584.35	372.5
584.56	378.5
584.77	383.5
584.981	387.5
585.191	393.5
585.401	371.5
585.611	375.5
585.821	379.5
586.032	355.5
586.242	385.5
586.452	375.5
586.662	378.5
586.872	372.5
587.082	352.5
587.292	369.5
587.502	364.5
587.713	377.5
587.923	378.5
588.133	374.5
588.343	373.5
588.553	360.5
588.762	366.5
588.972	379.5
589.182	423.5
589.392	393.5
589.602	394.5
589.812	404.5
590.022	381.5
590.232	376.5
590.441	365.5
590.651	376.5
590.861	401.5
591.071	373.5
591.281	371.5
591.49	374.5
591.7	377.5
591.91	391.5
592.119	394.5
592.329	413.5
592.539	435.5
592.748	415.5
592.958	436.5
593.167	439.5
593.377	457.5
593.587	462.5
593.796	461.5
594.006	453.5
594.215	444.5
594.424	450.5
594.634	457.5
594.843	435.5
595.053	402.5
595.262	402.5
595.472	404.5
595.681	389.5
595.89	382.5
596.1	351.5
596.309	364.5
596.518	351.5
596.727	357.5
596.937	338.5
597.146	353.5
597.355	347.5
597.564	328.5
597.774	331.5
597.983	322.5
598.192	321.5
598.401	301.5
598.61	318.5
598.819	321.5
599.028	319.5
599.237	325.5
599.446	337.5
599.655	345.5
599.864	326.5
600.073	318.5
600.282	305.5
600.491	317.5
600.7	310.5
600.909	331.5
601.118	324.5
601.327	285.5
601.536	306.5
601.745	313.5
601.953	321.5
602.162	301.5
602.371	312.5
602.58	307.5
602.789	301.5
602.997	303.5
603.206	314.5
603.415	309.5
603.623	289.5
603.832	321.5
604.041	290.5
604.249	294.5
604.458	284.5
604.666	290.5
604.875	281.5
605.084	284.5
605.292	293.5
605.501	310.5
605.709	281.5
605.918	281.5
606.126	276.5
606.334	299.5
606.543	286.5
606.751	293.5
606.96	313.5
607.168	279.5
607.376	273.5
607.585	288.5
607.793	281.5
608.001	288.5
608.21	297.5
608.418	275.5
608.626	271.5
608.834	287.5
609.043	274.5
609.251	261.5
609.459	283.5
609.667	269.5
609.875	280.5
610.083	272.5
610.291	284.5
610.499	273.5
610.707	308.5
610.916	276.5
611.124	275.5
611.332	274.5
611.54	249.5
611.748	271.5
611.955	282.5
612.163	269.5
612.371	263.5
612.579	286.5
612.787	273.5
612.995	270.5
613.203	276.5
613.411	261.5
613.618	252.5
613.826	282.5
614.034	271.5
614.242	263.5
614.449	265.5
614.657	285.5
614.865	264.5
615.072	293.5
615.28	274.5
615.488	274.5
615.695	261.5
615.903	272.5
616.111	273.5
616.318	286.5
616.526	265.5
616.733	259.5
616.941	264.5
617.148	272.5
617.356	268.5
617.563	253.5
617.771	282.5
617.978	279.5
618.185	290.5
618.393	279.5
618.6	274.5
618.807	272.5
619.015	265.5
619.222	243.5
619.429	260.5
619.637	261.5
619.844	247.5
620.051	260.5
620.258	244.5
620.466	246.5
620.673	245.5
620.88	253.5
621.087	249.5
621.294	250.5
621.501	248.5
621.708	260.5
621.915	263.5
622.122	250.5
622.329	249.5
622.536	246.5
622.743	274.5
622.95	239.5
623.157	238.5
623.364	240.5
623.571	250.5
623.778	247.5
623.985	235.5
624.192	236.5
624.399	234.5
624.606	230.5
624.812	239.5
625.019	227.5
625.226	232.5
625.433	259.5
625.639	230.5
625.846	230.5
626.053	228.5
626.259	225.5
626.466	235.5
626.673	233.5
626.879	217.5
627.086	230.5
627.293	245.5
627.499	240.5
627.706	219.5
627.912	217.5
628.119	233.5
628.325	232.5
628.532	225.5
628.738	225.5
628.945	229.5
629.151	231.5
629.357	220.5
629.564	213.5
629.77	209.5
629.976	214.5
630.183	212.5
630.389	213.5
630.595	206.5
630.802	225.5
631.008	204.5
631.214	232.5
631.42	204.5
631.627	198.5
631.833	208.5
632.039	202.5
632.245	205.5
632.451	230.5
632.657	195.5
632.863	209.5
633.069	218.5
633.275	213.5
633.481	195.5
633.688	217.5
633.893	195.5
634.099	214.5
634.305	207.5
634.511	201.5
634.717	203.5
634.923	202.5
635.129	203.5
635.335	191.5
635.541	212.5
635.747	203.5
635.952	201.5
636.158	210.5
636.364	195.5
636.57	205.5
636.775	211.5
636.981	194.5
637.187	183.5
637.392	195.5
637.598	196.5
637.804	197.5
638.009	203.5
638.215	193.5
638.421	179.5
638.626	183.5
638.832	188.5
639.037	196.5
639.243	189.5
639.448	194.5
639.654	208.5
639.859	182.5
640.065	193.5
640.27	201.5
640.475	181.5
640.681	179.5
640.886	190.5
641.091	179.5
641.297	175.5
641.502	195.5
641.707	179.5
641.913	185.5
642.118	186.5
642.323	178.5
642.528	194.5
642.733	184.5
642.939	172.5
643.144	190.5
643.349	175.5
643.554	185.5
643.759	197.5
643.964	174.5
644.169	181.5
644.374	164.5
644.579	201.5
644.784	181.5
644.989	194.5
645.194	190.5
645.399	179.5
645.604	182.5
645.809	170.5
646.014	193.5
646.219	199.5
646.423	194.5
646.628	201.5
646.833	186.5
647.038	170.5
647.243	180.5
647.447	193.5
647.652	207.5
647.857	188.5
648.062	199.5
648.266	195.5
648.471	196.5
648.676	203.5
648.88	181.5
649.085	181.5
649.289	190.5
649.494	188.5
649.698	176.5
649.903	168.5
650.107	168.5
650.312	190.5
650.516	170.5
650.721	177.5
650.925	181.5
651.13	170.5
651.334	185.5
651.539	169.5
651.743	179.5
651.947	173.5
652.152	169.5
652.356	182.5
652.56	165.5
652.764	161.5
652.969	162.5
653.173	154.5
653.377	159.5
653.581	155.5
653.785	168.5
653.99	157.5
654.194	158.5
654.398	165.5
654.602	159.5
654.806	150.5
655.01	148.5
655.214	152.5
655.418	158.5
655.622	157.5
655.826	167.5
656.03	157.5
656.234	144.5
656.438	153.5
656.642	162.5
656.846	153.5
657.049	147.5
657.253	146.5
657.457	141.5
657.661	123.5
657.865	141.5
658.068	144.5
658.272	123.5
658.476	123.5
658.68	113.5
658.883	116.5
659.087	116.5
659.291	103.5
659.494	109.5
659.698	108.5
659.901	99.5
660.105	113.5
660.309	101.5
660.512	93.5
660.716	101.5
660.919	91.5
661.123	101.5
661.326	101.5
661.53	101.5
661.733	95.5
661.936	95.5
662.14	92.5
662.343	85.5
662.546	86.5
662.75	73.5
662.953	90.5
663.156	90.5
663.36	82.5
663.563	96.5
663.766	89.5
663.969	85.5
664.173	83.5
664.376	86.5
664.579	97.5
664.782	89.5
664.985	105.5
665.188	85.5
665.391	89.5
665.594	87.5
665.797	89.5
666	79.5
666.203	76.5
666.406	83.5
666.609	85.5
666.812	81.5
667.015	79.5
667.218	79.5
667.421	71.5
667.624	82.5
667.827	88.5
668.03	61.5
668.232	65.5
668.435	78.5
668.638	95.5
668.841	93.5
669.043	78.5
669.246	80.5
669.449	77.5
669.651	95.5
669.854	95.5
670.057	72.5
670.259	74.5
670.462	81.5
670.665	91.5
670.867	99.5
671.07	94.5
671.272	84.5
671.475	98.5
671.677	88.5
671.88	82.5
672.082	77.5
672.284	81.5
672.487	99.5
672.689	96.5
672.892	79.5
