Data from NiCl2@0.125M.TitratingCurve.Agarose3%dH2O.NegLispCup.LampEnergy10.LIBS07252019_HRD10591_18-28-21-575.txt Node
Date: Thu Jul 25 18:28:21 EDT 2019
User: cochatt
Spectrometer: HR+D1059
Trigger mode: 1
Integration Time (sec): 1.000000E-1
Scans to average: 1
Electric dark correction enabled: true
Nonlinearity correction enabled: false
Boxcar width: 0
XAxis mode: Wavelengths
Number of Pixels in Spectrum: 2048
>>>>>Begin Spectral Data<<<<<
223.165	-7.38
223.4	-7.38
223.635	-7.38
223.869	-13.38
224.104	-36.38
224.338	-23.38
224.573	-19.38
224.808	-14.38
225.042	-10.38
225.277	2.62
225.511	1.62
225.746	-11.38
225.98	6.62
226.215	10.62
226.449	30.62
226.683	20.62
226.918	37.62
227.152	25.62
227.387	39.62
227.621	27.62
227.856	43.62
228.09	41.62
228.324	43.62
228.559	46.62
228.793	67.62
229.027	113.62
229.262	110.62
229.496	106.62
229.73	123.62
229.964	132.62
230.199	133.62
230.433	133.62
230.667	138.62
230.901	142.62
231.136	138.62
231.37	140.62
231.604	144.62
231.838	147.62
232.072	159.62
232.306	149.62
232.541	149.62
232.775	147.62
233.009	145.62
233.243	159.62
233.477	146.62
233.711	158.62
233.945	137.62
234.179	146.62
234.413	157.62
234.647	150.62
234.881	174.62
235.115	159.62
235.349	149.62
235.583	161.62
235.817	150.62
236.051	166.62
236.285	153.62
236.519	157.62
236.753	160.62
236.987	157.62
237.221	167.62
237.455	166.62
237.689	163.62
237.922	170.62
238.156	152.62
238.39	181.62
238.624	177.62
238.858	185.62
239.091	158.62
239.325	176.62
239.559	181.62
239.793	186.62
240.027	206.62
240.26	193.62
240.494	177.62
240.728	175.62
240.961	191.62
241.195	191.62
241.429	193.62
241.662	197.62
241.896	199.62
242.13	205.62
242.363	210.62
242.597	195.62
242.83	189.62
243.064	201.62
243.298	208.62
243.531	226.62
243.765	204.62
243.998	203.62
244.232	220.62
244.465	220.62
244.699	207.62
244.932	222.62
245.166	212.62
245.399	212.62
245.633	231.62
245.866	244.62
246.099	233.62
246.333	227.62
246.566	241.62
246.8	235.62
247.033	234.62
247.266	225.62
247.5	240.62
247.733	233.62
247.966	256.62
248.2	242.62
248.433	232.62
248.666	246.62
248.899	262.62
249.133	249.62
249.366	257.62
249.599	278.62
249.832	269.62
250.066	276.62
250.299	263.62
250.532	273.62
250.765	277.62
250.998	262.62
251.231	240.62
251.465	265.62
251.698	284.62
251.931	283.62
252.164	276.62
252.397	290.62
252.63	279.62
252.863	286.62
253.096	278.62
253.329	276.62
253.562	294.62
253.795	295.62
254.028	295.62
254.261	278.62
254.494	290.62
254.727	307.62
254.96	295.62
255.193	275.62
255.426	293.62
255.659	300.62
255.892	310.62
256.124	312.62
256.357	297.62
256.59	291.62
256.823	334.62
257.056	335.62
257.289	320.62
257.521	310.62
257.754	314.62
257.987	336.62
258.22	314.62
258.452	309.62
258.685	322.62
258.918	316.62
259.151	338.62
259.383	306.62
259.616	328.62
259.849	351.62
260.081	334.62
260.314	334.62
260.547	340.62
260.779	327.62
261.012	345.62
261.244	345.62
261.477	347.62
261.71	362.62
261.942	342.62
262.175	336.62
262.407	354.62
262.64	339.62
262.872	353.62
263.105	351.62
263.337	352.62
263.57	364.62
263.802	351.62
264.035	355.62
264.267	370.62
264.499	359.62
264.732	358.62
264.964	352.62
265.197	364.62
265.429	372.62
265.661	363.62
265.894	363.62
266.126	368.62
266.358	387.62
266.591	383.62
266.823	382.62
267.055	384.62
267.287	362.62
267.52	386.62
267.752	397.62
267.984	383.62
268.216	384.62
268.448	399.62
268.681	394.62
268.913	406.62
269.145	404.62
269.377	391.62
269.609	387.62
269.841	391.62
270.073	397.62
270.306	403.62
270.538	389.62
270.77	404.62
271.002	412.62
271.234	385.62
271.466	420.62
271.698	427.62
271.93	420.62
272.162	402.62
272.394	429.62
272.626	405.62
272.858	392.62
273.09	415.62
273.322	418.62
273.553	432.62
273.785	427.62
274.017	431.62
274.249	428.62
274.481	433.62
274.713	442.62
274.945	428.62
275.176	411.62
275.408	431.62
275.64	435.62
275.872	440.62
276.104	457.62
276.335	456.62
276.567	454.62
276.799	466.62
277.031	452.62
277.262	449.62
277.494	448.62
277.726	446.62
277.957	456.62
278.189	443.62
278.421	438.62
278.652	460.62
278.884	459.62
279.115	471.62
279.347	469.62
279.579	466.62
279.81	480.62
280.042	468.62
280.273	463.62
280.505	473.62
280.736	499.62
280.968	485.62
281.199	479.62
281.431	483.62
281.662	472.62
281.894	490.62
282.125	497.62
282.356	490.62
282.588	503.62
282.819	488.62
283.051	489.62
283.282	471.62
283.513	499.62
283.745	497.62
283.976	504.62
284.207	498.62
284.439	501.62
284.67	522.62
284.901	513.62
285.132	544.62
285.364	524.62
285.595	536.62
285.826	534.62
286.057	528.62
286.288	527.62
286.52	528.62
286.751	544.62
286.982	559.62
287.213	531.62
287.444	533.62
287.675	532.62
287.906	528.62
288.138	531.62
288.369	540.62
288.6	536.62
288.831	549.62
289.062	556.62
289.293	533.62
289.524	531.62
289.755	562.62
289.986	538.62
290.217	548.62
290.448	573.62
290.679	549.62
290.91	576.62
291.141	559.62
291.371	558.62
291.602	550.62
291.833	557.62
292.064	562.62
292.295	521.62
292.526	560.62
292.757	595.62
292.987	551.62
293.218	553.62
293.449	562.62
293.68	582.62
293.91	556.62
294.141	572.62
294.372	572.62
294.603	603.62
294.833	567.62
295.064	545.62
295.295	560.62
295.525	576.62
295.756	584.62
295.987	580.62
296.217	595.62
296.448	581.62
296.679	594.62
296.909	602.62
297.14	592.62
297.37	614.62
297.601	616.62
297.831	594.62
298.062	595.62
298.292	634.62
298.523	614.62
298.753	627.62
298.984	599.62
299.214	624.62
299.445	599.62
299.675	597.62
299.905	632.62
300.136	603.62
300.366	606.62
300.597	621.62
300.827	638.62
301.057	667.62
301.288	662.62
301.518	652.62
301.748	649.62
301.979	681.62
302.209	644.62
302.439	650.62
302.669	631.62
302.9	635.62
303.13	628.62
303.36	645.62
303.59	633.62
303.82	627.62
304.051	614.62
304.281	636.62
304.511	626.62
304.741	641.62
304.971	631.62
305.201	642.62
305.431	658.62
305.661	642.62
305.891	640.62
306.121	614.62
306.352	636.62
306.582	620.62
306.812	608.62
307.042	612.62
307.272	629.62
307.502	594.62
307.731	612.62
307.961	585.62
308.191	625.62
308.421	633.62
308.651	600.62
308.881	604.62
309.111	616.62
309.341	627.62
309.571	618.62
309.8	606.62
310.03	614.62
310.26	626.62
310.49	627.62
310.72	663.62
310.949	622.62
311.179	617.62
311.409	657.62
311.639	649.62
311.868	624.62
312.098	647.62
312.328	648.62
312.557	646.62
312.787	651.62
313.017	654.62
313.246	661.62
313.476	668.62
313.706	679.62
313.935	690.62
314.165	654.62
314.394	666.62
314.624	653.62
314.853	649.62
315.083	656.62
315.312	658.62
315.542	675.62
315.771	672.62
316.001	665.62
316.23	667.62
316.46	647.62
316.689	651.62
316.919	647.62
317.148	641.62
317.377	651.62
317.607	641.62
317.836	655.62
318.065	647.62
318.295	655.62
318.524	638.62
318.753	647.62
318.983	663.62
319.212	633.62
319.441	633.62
319.67	644.62
319.9	658.62
320.129	634.62
320.358	643.62
320.587	656.62
320.816	644.62
321.046	634.62
321.275	672.62
321.504	673.62
321.733	655.62
321.962	670.62
322.191	676.62
322.42	625.62
322.649	632.62
322.878	655.62
323.108	640.62
323.337	667.62
323.566	678.62
323.795	696.62
324.024	680.62
324.253	681.62
324.482	670.62
324.71	687.62
324.939	650.62
325.168	678.62
325.397	711.62
325.626	695.62
325.855	691.62
326.084	700.62
326.313	718.62
326.542	752.62
326.77	728.62
326.999	720.62
327.228	687.62
327.457	702.62
327.686	708.62
327.914	710.62
328.143	729.62
328.372	699.62
328.6	704.62
328.829	723.62
329.058	706.62
329.287	689.62
329.515	714.62
329.744	705.62
329.972	736.62
330.201	737.62
330.43	717.62
330.658	708.62
330.887	752.62
331.115	730.62
331.344	746.62
331.572	776.62
331.801	757.62
332.03	791.62
332.258	772.62
332.486	813.62
332.715	832.62
332.943	846.62
333.172	912.62
333.4	921.62
333.629	970.62
333.857	953.62
334.085	969.62
334.314	973.62
334.542	915.62
334.771	931.62
334.999	896.62
335.227	898.62
335.455	883.62
335.684	883.62
335.912	890.62
336.14	848.62
336.369	860.62
336.597	864.62
336.825	848.62
337.053	852.62
337.281	840.62
337.51	829.62
337.738	806.62
337.966	795.62
338.194	807.62
338.422	802.62
338.65	778.62
338.878	775.62
339.106	780.62
339.334	760.62
339.562	766.62
339.79	771.62
340.018	744.62
340.246	737.62
340.474	740.62
340.702	763.62
340.93	762.62
341.158	776.62
341.386	771.62
341.614	772.62
341.842	770.62
342.07	735.62
342.298	724.62
342.526	741.62
342.754	734.62
342.981	753.62
343.209	751.62
343.437	806.62
343.665	858.62
343.893	908.62
344.12	944.62
344.348	900.62
344.576	871.62
344.804	822.62
345.031	774.62
345.259	783.62
345.487	780.62
345.714	752.62
345.942	779.62
346.17	763.62
346.397	744.62
346.625	730.62
346.853	719.62
347.08	724.62
347.308	724.62
347.535	726.62
347.763	770.62
347.99	747.62
348.218	730.62
348.445	720.62
348.673	704.62
348.9	741.62
349.128	720.62
349.355	720.62
349.583	707.62
349.81	718.62
350.037	708.62
350.265	698.62
350.492	708.62
350.72	716.62
350.947	698.62
351.174	702.62
351.402	709.62
351.629	699.62
351.856	701.62
352.083	711.62
352.311	716.62
352.538	714.62
352.765	717.62
352.992	700.62
353.22	689.62
353.447	696.62
353.674	705.62
353.901	683.62
354.128	703.62
354.355	691.62
354.583	707.62
354.81	703.62
355.037	717.62
355.264	668.62
355.491	702.62
355.718	721.62
355.945	707.62
356.172	720.62
356.399	708.62
356.626	707.62
356.853	722.62
357.08	721.62
357.307	707.62
357.534	705.62
357.761	713.62
357.988	703.62
358.215	683.62
358.441	703.62
358.668	705.62
358.895	700.62
359.122	727.62
359.349	694.62
359.576	704.62
359.802	701.62
360.029	727.62
360.256	738.62
360.483	712.62
360.709	690.62
360.936	686.62
361.163	711.62
361.39	699.62
361.616	706.62
361.843	690.62
362.07	677.62
362.296	700.62
362.523	716.62
362.749	725.62
362.976	707.62
363.203	702.62
363.429	694.62
363.656	706.62
363.882	713.62
364.109	718.62
364.335	686.62
364.562	690.62
364.788	697.62
365.015	709.62
365.241	676.62
365.468	692.62
365.694	710.62
365.92	693.62
366.147	689.62
366.373	680.62
366.599	702.62
366.826	704.62
367.052	673.62
367.278	680.62
367.505	694.62
367.731	713.62
367.957	698.62
368.184	714.62
368.41	716.62
368.636	744.62
368.862	690.62
369.089	699.62
369.315	738.62
369.541	707.62
369.767	719.62
369.993	747.62
370.219	717.62
370.445	737.62
370.672	763.62
370.898	759.62
371.124	741.62
371.35	761.62
371.576	772.62
371.802	770.62
372.028	729.62
372.254	772.62
372.48	784.62
372.706	791.62
372.932	803.62
373.158	802.62
373.384	796.62
373.61	776.62
373.835	766.62
374.061	778.62
374.287	767.62
374.513	798.62
374.739	831.62
374.965	811.62
375.191	838.62
375.416	834.62
375.642	829.62
375.868	789.62
376.094	770.62
376.319	785.62
376.545	795.62
376.771	787.62
376.997	740.62
377.222	755.62
377.448	746.62
377.674	759.62
377.899	766.62
378.125	740.62
378.35	752.62
378.576	752.62
378.802	740.62
379.027	747.62
379.253	741.62
379.478	754.62
379.704	745.62
379.929	776.62
380.155	741.62
380.38	753.62
380.606	766.62
380.831	771.62
381.057	773.62
381.282	760.62
381.507	757.62
381.733	756.62
381.958	791.62
382.184	776.62
382.409	768.62
382.634	808.62
382.86	783.62
383.085	810.62
383.31	806.62
383.535	829.62
383.761	833.62
383.986	870.62
384.211	870.62
384.436	886.62
384.662	902.62
384.887	918.62
385.112	931.62
385.337	947.62
385.562	933.62
385.787	917.62
386.013	942.62
386.238	932.62
386.463	946.62
386.688	922.62
386.913	922.62
387.138	896.62
387.363	932.62
387.588	912.62
387.813	900.62
388.038	913.62
388.263	918.62
388.488	924.62
388.713	916.62
388.938	899.62
389.163	897.62
389.387	908.62
389.612	899.62
389.837	924.62
390.062	897.62
390.287	919.62
390.512	898.62
390.736	907.62
390.961	905.62
391.186	930.62
391.411	987.62
391.636	1004.62
391.86	1018.62
392.085	1031.62
392.31	1046.62
392.534	1012.62
392.759	1006.62
392.984	985.62
393.208	953.62
393.433	990.62
393.658	1012.62
393.882	972.62
394.107	970.62
394.331	986.62
394.556	954.62
394.78	982.62
395.005	1007.62
395.229	975.62
395.454	1028.62
395.678	1012.62
395.903	1055.62
396.127	1007.62
396.352	1008.62
396.576	976.62
396.801	993.62
397.025	1002.62
397.249	1012.62
397.474	1032.62
397.698	1015.62
397.922	1010.62
398.147	1011.62
398.371	1074.62
398.595	1074.62
398.82	1113.62
399.044	1217.62
399.268	1322.62
399.492	1510.62
399.717	1720.62
399.941	1732.62
400.165	1627.62
400.389	1434.62
400.613	1296.62
400.837	1249.62
401.062	1202.62
401.286	1161.62
401.51	1168.62
401.734	1174.62
401.958	1167.62
402.182	1130.62
402.406	1207.62
402.63	1232.62
402.854	1206.62
403.078	1255.62
403.302	1273.62
403.526	1269.62
403.75	1311.62
403.974	1356.62
404.198	1317.62
404.422	1337.62
404.645	1328.62
404.869	1310.62
405.093	1303.62
405.317	1266.62
405.541	1303.62
405.765	1244.62
405.988	1263.62
406.212	1283.62
406.436	1292.62
406.66	1307.62
406.883	1323.62
407.107	1375.62
407.331	1482.62
407.555	1481.62
407.778	1531.62
408.002	1454.62
408.226	1442.62
408.449	1387.62
408.673	1334.62
408.896	1331.62
409.12	1291.62
409.344	1335.62
409.567	1320.62
409.791	1302.62
410.014	1295.62
410.238	1303.62
410.461	1327.62
410.685	1278.62
410.908	1266.62
411.132	1240.62
411.355	1199.62
411.578	1219.62
411.802	1196.62
412.025	1206.62
412.249	1232.62
412.472	1195.62
412.695	1186.62
412.919	1168.62
413.142	1190.62
413.365	1165.62
413.589	1155.62
413.812	1177.62
414.035	1171.62
414.258	1142.62
414.482	1179.62
414.705	1183.62
414.928	1208.62
415.151	1182.62
415.374	1195.62
415.597	1150.62
415.821	1154.62
416.044	1140.62
416.267	1124.62
416.49	1152.62
416.713	1099.62
416.936	1157.62
417.159	1118.62
417.382	1121.62
417.605	1129.62
417.828	1136.62
418.051	1152.62
418.274	1119.62
418.497	1139.62
418.72	1164.62
418.943	1188.62
419.166	1250.62
419.389	1330.62
419.611	1320.62
419.834	1212.62
420.057	1226.62
420.28	1179.62
420.503	1157.62
420.726	1136.62
420.948	1124.62
421.171	1132.62
421.394	1162.62
421.617	1146.62
421.839	1151.62
422.062	1168.62
422.285	1161.62
422.507	1172.62
422.73	1190.62
422.953	1179.62
423.175	1144.62
423.398	1214.62
423.621	1184.62
423.843	1213.62
424.066	1258.62
424.288	1202.62
424.511	1218.62
424.733	1211.62
424.956	1208.62
425.178	1169.62
425.401	1164.62
425.623	1164.62
425.846	1127.62
426.068	1144.62
426.291	1097.62
426.513	1086.62
426.735	1090.62
426.958	1074.62
427.18	1048.62
427.402	1066.62
427.625	1063.62
427.847	1027.62
428.069	1035.62
428.292	1065.62
428.514	1008.62
428.736	1016.62
428.958	1080.62
429.181	1000.62
429.403	1001.62
429.625	1038.62
429.847	989.62
430.069	968.62
430.292	1000.62
430.514	1008.62
430.736	1005.62
430.958	1027.62
431.18	1014.62
431.402	1047.62
431.624	978.62
431.846	1019.62
432.068	1034.62
432.29	1049.62
432.512	1007.62
432.734	1071.62
432.956	1049.62
433.178	1026.62
433.4	1017.62
433.622	1060.62
433.844	1034.62
434.066	1074.62
434.287	1075.62
434.509	1074.62
434.731	1143.62
434.953	1142.62
435.175	1135.62
435.397	1154.62
435.618	1132.62
435.84	1098.62
436.062	1054.62
436.284	1036.62
436.505	1067.62
436.727	1048.62
436.949	1080.62
437.17	1047.62
437.392	1034.62
437.614	1002.62
437.835	970.62
438.057	1009.62
438.278	970.62
438.5	986.62
438.721	1004.62
438.943	1014.62
439.165	989.62
439.386	977.62
439.608	1025.62
439.829	1004.62
440.05	1039.62
440.272	1015.62
440.493	1054.62
440.715	1102.62
440.936	1092.62
441.158	1083.62
441.379	1114.62
441.6	1185.62
441.822	1178.62
442.043	1154.62
442.264	1150.62
442.486	1122.62
442.707	1147.62
442.928	1124.62
443.149	1136.62
443.371	1117.62
443.592	1125.62
443.813	1154.62
444.034	1176.62
444.255	1220.62
444.476	1264.62
444.698	1328.62
444.919	1394.62
445.14	1465.62
445.361	1334.62
445.582	1212.62
445.803	1179.62
446.024	1107.62
446.245	1098.62
446.466	1100.62
446.687	1066.62
446.908	1059.62
447.129	1013.62
447.35	1039.62
447.571	1021.62
447.792	999.62
448.013	994.62
448.234	971.62
448.455	957.62
448.675	954.62
448.896	968.62
449.117	938.62
449.338	932.62
449.559	947.62
449.779	962.62
450	919.62
450.221	956.62
450.442	962.62
450.662	962.62
450.883	971.62
451.104	992.62
451.324	985.62
451.545	978.62
451.766	949.62
451.986	976.62
452.207	951.62
452.428	977.62
452.648	965.62
452.869	951.62
453.089	923.62
453.31	933.62
453.53	903.62
453.751	936.62
453.971	913.62
454.192	942.62
454.412	896.62
454.633	899.62
454.853	895.62
455.073	897.62
455.294	937.62
455.514	892.62
455.734	913.62
455.955	894.62
456.175	906.62
456.395	875.62
456.616	874.62
456.836	875.62
457.056	884.62
457.276	867.62
457.497	910.62
457.717	894.62
457.937	857.62
458.157	902.62
458.377	892.62
458.598	927.62
458.818	947.62
459.038	975.62
459.258	1006.62
459.478	1055.62
459.698	1079.62
459.918	1125.62
460.138	1156.62
460.358	1218.62
460.578	1257.62
460.798	1236.62
461.018	1257.62
461.238	1246.62
461.458	1222.62
461.678	1243.62
461.898	1232.62
462.118	1238.62
462.338	1319.62
462.558	1347.62
462.777	1404.62
462.997	1504.62
463.217	1635.62
463.437	1680.62
463.657	1530.62
463.876	1420.62
464.096	1473.62
464.316	1448.62
464.536	1470.62
464.755	1392.62
464.975	1376.62
465.195	1273.62
465.414	1230.62
465.634	1175.62
465.854	1114.62
466.073	1069.62
466.293	1042.62
466.512	1048.62
466.732	1009.62
466.951	1023.62
467.171	1001.62
467.391	1028.62
467.61	1031.62
467.829	1025.62
468.049	1014.62
468.268	966.62
468.488	957.62
468.707	955.62
468.927	984.62
469.146	959.62
469.365	981.62
469.585	978.62
469.804	1013.62
470.023	1020.62
470.243	1032.62
470.462	1050.62
470.681	1050.62
470.901	1041.62
471.12	1017.62
471.339	991.62
471.558	1010.62
471.777	995.62
471.997	954.62
472.216	963.62
472.435	956.62
472.654	961.62
472.873	951.62
473.092	939.62
473.311	923.62
473.53	937.62
473.749	938.62
473.968	931.62
474.187	931.62
474.406	955.62
474.625	931.62
474.844	958.62
475.063	974.62
475.282	955.62
475.501	984.62
475.72	954.62
475.939	938.62
476.158	959.62
476.377	948.62
476.596	971.62
476.814	1020.62
477.033	979.62
477.252	1044.62
477.471	1037.62
477.69	1064.62
477.908	1076.62
478.127	1083.62
478.346	1114.62
478.564	1161.62
478.783	1162.62
479.002	1150.62
479.22	1189.62
479.439	1148.62
479.658	1170.62
479.876	1171.62
480.095	1199.62
480.313	1227.62
480.532	1274.62
480.751	1283.62
480.969	1226.62
481.188	1167.62
481.406	1148.62
481.624	1113.62
481.843	1112.62
482.061	1121.62
482.28	1080.62
482.498	1068.62
482.717	1046.62
482.935	1086.62
483.153	1085.62
483.372	1073.62
483.59	1090.62
483.808	1070.62
484.027	1065.62
484.245	1080.62
484.463	1084.62
484.681	1110.62
484.9	1127.62
485.118	1122.62
485.336	1141.62
485.554	1150.62
485.772	1128.62
485.99	1165.62
486.209	1160.62
486.427	1135.62
486.645	1176.62
486.863	1177.62
487.081	1147.62
487.299	1138.62
487.517	1139.62
487.735	1127.62
487.953	1152.62
488.171	1174.62
488.389	1163.62
488.607	1138.62
488.825	1135.62
489.043	1118.62
489.261	1118.62
489.479	1125.62
489.696	1144.62
489.914	1110.62
490.132	1129.62
490.35	1162.62
490.568	1174.62
490.786	1146.62
491.003	1138.62
491.221	1132.62
491.439	1188.62
491.657	1140.62
491.874	1143.62
492.092	1168.62
492.31	1144.62
492.527	1194.62
492.745	1193.62
492.963	1167.62
493.18	1173.62
493.398	1210.62
493.615	1152.62
493.833	1188.62
494.05	1188.62
494.268	1219.62
494.485	1231.62
494.703	1212.62
494.92	1194.62
495.138	1200.62
495.355	1201.62
495.573	1178.62
495.79	1235.62
496.008	1238.62
496.225	1219.62
496.442	1238.62
496.66	1275.62
496.877	1252.62
497.094	1293.62
497.312	1345.62
497.529	1378.62
497.746	1352.62
497.963	1384.62
498.181	1457.62
498.398	1544.62
498.615	1620.62
498.832	1712.62
499.049	1859.62
499.267	2017.62
499.484	2151.62
499.701	2397.62
499.918	2639.62
500.135	2983.62
500.352	3395.62
500.569	3578.62
500.786	3571.62
501.003	3313.62
501.22	2953.62
501.437	2614.62
501.654	2349.62
501.871	2154.62
502.088	1966.62
502.305	1835.62
502.522	1720.62
502.739	1678.62
502.956	1567.62
503.172	1521.62
503.389	1430.62
503.606	1412.62
503.823	1374.62
504.04	1404.62
504.256	1366.62
504.473	1444.62
504.69	1419.62
504.907	1383.62
505.123	1348.62
505.34	1285.62
505.557	1212.62
505.773	1180.62
505.99	1161.62
506.207	1129.62
506.423	1102.62
506.64	1094.62
506.856	1113.62
507.073	1122.62
507.289	1049.62
507.506	1078.62
507.722	1095.62
507.939	1047.62
508.155	1019.62
508.372	1032.62
508.588	1011.62
508.805	1014.62
509.021	990.62
509.238	996.62
509.454	1006.62
509.67	1008.62
509.887	993.62
510.103	1002.62
510.319	980.62
510.536	985.62
510.752	987.62
510.968	1013.62
511.184	943.62
511.401	980.62
511.617	971.62
511.833	976.62
512.049	956.62
512.265	966.62
512.481	967.62
512.698	961.62
512.914	976.62
513.13	967.62
513.346	961.62
513.562	987.62
513.778	972.62
513.994	967.62
514.21	991.62
514.426	991.62
514.642	986.62
514.858	1000.62
515.074	999.62
515.29	986.62
515.506	998.62
515.721	1013.62
515.937	1036.62
516.153	1042.62
516.369	1059.62
516.585	1119.62
516.801	1146.62
517.016	1172.62
517.232	1241.62
517.448	1335.62
517.664	1313.62
517.879	1358.62
518.095	1362.62
518.311	1321.62
518.527	1249.62
518.742	1218.62
518.958	1159.62
519.173	1128.62
519.389	1097.62
519.605	1058.62
519.82	1049.62
520.036	1009.62
520.251	1015.62
520.467	998.62
520.682	983.62
520.898	960.62
521.113	967.62
521.329	963.62
521.544	939.62
521.76	967.62
521.975	926.62
522.19	927.62
522.406	923.62
522.621	906.62
522.836	906.62
523.052	917.62
523.267	886.62
523.482	917.62
523.698	920.62
523.913	911.62
524.128	886.62
524.343	914.62
524.559	931.62
524.774	894.62
524.989	885.62
525.204	906.62
525.419	897.62
525.634	902.62
525.849	894.62
526.064	888.62
526.28	884.62
526.495	879.62
526.71	898.62
526.925	900.62
527.14	905.62
527.355	884.62
527.57	874.62
527.785	874.62
527.999	867.62
528.214	876.62
528.429	894.62
528.644	881.62
528.859	874.62
529.074	871.62
529.289	891.62
529.503	898.62
529.718	891.62
529.933	892.62
530.148	850.62
530.363	898.62
530.577	860.62
530.792	894.62
531.007	872.62
531.221	887.62
531.436	865.62
531.651	876.62
531.865	881.62
532.08	874.62
532.295	866.62
532.509	884.62
532.724	887.62
532.938	907.62
533.153	892.62
533.367	879.62
533.582	886.62
533.796	887.62
534.011	866.62
534.225	870.62
534.44	878.62
534.654	892.62
534.868	886.62
535.083	843.62
535.297	840.62
535.511	834.62
535.726	851.62
535.94	841.62
536.154	869.62
536.369	829.62
536.583	818.62
536.797	822.62
537.011	802.62
537.225	811.62
537.44	807.62
537.654	815.62
537.868	804.62
538.082	787.62
538.296	784.62
538.51	796.62
538.724	809.62
538.938	810.62
539.153	781.62
539.367	794.62
539.581	800.62
539.795	795.62
540.009	789.62
540.222	820.62
540.436	791.62
540.65	768.62
540.864	775.62
541.078	810.62
541.292	785.62
541.506	801.62
541.72	795.62
541.934	785.62
542.147	820.62
542.361	797.62
542.575	798.62
542.789	795.62
543.002	776.62
543.216	766.62
543.43	786.62
543.644	777.62
543.857	775.62
544.071	783.62
544.285	799.62
544.498	783.62
544.712	785.62
544.925	788.62
545.139	779.62
545.352	802.62
545.566	795.62
545.779	800.62
545.993	821.62
546.206	801.62
546.42	789.62
546.633	809.62
546.847	788.62
547.06	798.62
547.274	809.62
547.487	772.62
547.7	800.62
547.914	810.62
548.127	809.62
548.34	821.62
548.554	790.62
548.767	811.62
548.98	806.62
549.193	814.62
549.407	805.62
549.62	843.62
549.833	838.62
550.046	852.62
550.259	838.62
550.473	791.62
550.686	812.62
550.899	806.62
551.112	795.62
551.325	800.62
551.538	810.62
551.751	791.62
551.964	811.62
552.177	796.62
552.39	788.62
552.603	820.62
552.816	848.62
553.029	873.62
553.242	867.62
553.455	871.62
553.667	898.62
553.88	882.62
554.093	828.62
554.306	848.62
554.519	827.62
554.732	811.62
554.944	809.62
555.157	772.62
555.37	770.62
555.583	746.62
555.795	778.62
556.008	748.62
556.221	750.62
556.433	732.62
556.646	737.62
556.859	723.62
557.071	704.62
557.284	720.62
557.496	705.62
557.709	697.62
557.921	691.62
558.134	693.62
558.346	694.62
558.559	685.62
558.771	679.62
558.984	690.62
559.196	671.62
559.409	679.62
559.621	691.62
559.833	678.62
560.046	664.62
560.258	671.62
560.47	686.62
560.683	677.62
560.895	658.62
561.107	675.62
561.32	668.62
561.532	668.62
561.744	680.62
561.956	657.62
562.168	672.62
562.381	679.62
562.593	677.62
562.805	688.62
563.017	671.62
563.229	667.62
563.441	673.62
563.653	662.62
563.865	688.62
564.077	687.62
564.289	704.62
564.501	697.62
564.713	732.62
564.925	706.62
565.137	753.62
565.349	774.62
565.561	785.62
565.773	839.62
565.985	830.62
566.197	871.62
566.408	952.62
566.62	1008.62
566.832	1087.62
567.044	1091.62
567.255	1128.62
567.467	1146.62
567.679	1220.62
567.891	1310.62
568.102	1312.62
568.314	1219.62
568.526	1128.62
568.737	1020.62
568.949	947.62
569.161	873.62
569.372	819.62
569.584	762.62
569.795	726.62
570.007	698.62
570.218	695.62
570.43	708.62
570.641	708.62
570.853	684.62
571.064	732.62
571.276	701.62
571.487	686.62
571.698	641.62
571.91	603.62
572.121	624.62
572.333	606.62
572.544	602.62
572.755	572.62
572.966	588.62
573.178	586.62
573.389	582.62
573.6	567.62
573.811	546.62
574.023	566.62
574.234	562.62
574.445	553.62
574.656	554.62
574.867	576.62
575.078	543.62
575.289	566.62
575.501	541.62
575.712	540.62
575.923	538.62
576.134	539.62
576.345	517.62
576.556	544.62
576.767	542.62
576.978	542.62
577.188	520.62
577.399	515.62
577.61	517.62
577.821	515.62
578.032	503.62
578.243	497.62
578.454	523.62
578.665	501.62
578.875	492.62
579.086	494.62
579.297	492.62
579.508	503.62
579.718	518.62
579.929	491.62
580.14	492.62
580.35	490.62
580.561	494.62
580.772	478.62
580.982	471.62
581.193	485.62
581.403	465.62
581.614	485.62
581.825	474.62
582.035	456.62
582.246	472.62
582.456	452.62
582.667	462.62
582.877	487.62
583.087	473.62
583.298	476.62
583.508	460.62
583.719	456.62
583.929	483.62
584.139	455.62
584.35	463.62
584.56	463.62
584.77	453.62
584.981	459.62
585.191	449.62
585.401	437.62
585.611	448.62
585.821	454.62
586.032	482.62
586.242	465.62
586.452	459.62
586.662	456.62
586.872	456.62
587.082	445.62
587.292	448.62
587.502	447.62
587.713	452.62
587.923	436.62
588.133	464.62
588.343	459.62
588.553	446.62
588.762	434.62
588.972	457.62
589.182	452.62
589.392	452.62
589.602	448.62
589.812	459.62
590.022	449.62
590.232	439.62
590.441	456.62
590.651	471.62
590.861	454.62
591.071	441.62
591.281	471.62
591.49	462.62
591.7	472.62
591.91	472.62
592.119	489.62
592.329	472.62
592.539	501.62
592.748	526.62
592.958	529.62
593.167	554.62
593.377	563.62
593.587	556.62
593.796	574.62
594.006	561.62
594.215	552.62
594.424	554.62
594.634	552.62
594.843	535.62
595.053	560.62
595.262	536.62
595.472	491.62
595.681	462.62
595.89	443.62
596.1	452.62
596.309	436.62
596.518	444.62
596.727	443.62
596.937	403.62
597.146	418.62
597.355	414.62
597.564	415.62
597.774	407.62
597.983	410.62
598.192	394.62
598.401	395.62
598.61	405.62
598.819	396.62
599.028	404.62
599.237	406.62
599.446	384.62
599.655	403.62
599.864	393.62
600.073	386.62
600.282	375.62
600.491	376.62
600.7	380.62
600.909	389.62
601.118	397.62
601.327	362.62
601.536	354.62
601.745	388.62
601.953	372.62
602.162	364.62
602.371	359.62
602.58	369.62
602.789	381.62
602.997	354.62
603.206	346.62
603.415	381.62
603.623	366.62
603.832	370.62
604.041	358.62
604.249	367.62
604.458	370.62
604.666	345.62
604.875	326.62
605.084	349.62
605.292	358.62
605.501	361.62
605.709	373.62
605.918	359.62
606.126	345.62
606.334	359.62
606.543	351.62
606.751	340.62
606.96	322.62
607.168	333.62
607.376	324.62
607.585	361.62
607.793	359.62
608.001	348.62
608.21	358.62
608.418	354.62
608.626	341.62
608.834	338.62
609.043	316.62
609.251	347.62
609.459	342.62
609.667	331.62
609.875	326.62
610.083	322.62
610.291	350.62
610.499	350.62
610.707	320.62
610.916	332.62
611.124	347.62
611.332	331.62
611.54	337.62
611.748	343.62
611.955	354.62
612.163	321.62
612.371	347.62
612.579	334.62
612.787	326.62
612.995	326.62
613.203	326.62
613.411	343.62
613.618	340.62
613.826	320.62
614.034	332.62
614.242	322.62
614.449	324.62
614.657	321.62
614.865	331.62
615.072	319.62
615.28	340.62
615.488	326.62
615.695	317.62
615.903	324.62
616.111	329.62
616.318	332.62
616.526	348.62
616.733	327.62
616.941	307.62
617.148	329.62
617.356	326.62
617.563	326.62
617.771	315.62
617.978	332.62
618.185	313.62
618.393	309.62
618.6	326.62
618.807	317.62
619.015	327.62
619.222	312.62
619.429	314.62
619.637	319.62
619.844	324.62
620.051	313.62
620.258	307.62
620.466	322.62
620.673	293.62
620.88	294.62
621.087	285.62
621.294	292.62
621.501	302.62
621.708	285.62
621.915	291.62
622.122	292.62
622.329	313.62
622.536	291.62
622.743	284.62
622.95	304.62
623.157	295.62
623.364	287.62
623.571	294.62
623.778	279.62
623.985	289.62
624.192	283.62
624.399	298.62
624.606	284.62
624.812	306.62
625.019	266.62
625.226	280.62
625.433	281.62
625.639	290.62
625.846	289.62
626.053	286.62
626.259	279.62
626.466	276.62
626.673	280.62
626.879	279.62
627.086	248.62
627.293	263.62
627.499	281.62
627.706	262.62
627.912	287.62
628.119	281.62
628.325	271.62
628.532	273.62
628.738	271.62
628.945	259.62
629.151	262.62
629.357	282.62
629.564	268.62
629.77	264.62
629.976	248.62
630.183	264.62
630.389	263.62
630.595	258.62
630.802	247.62
631.008	260.62
631.214	256.62
631.42	255.62
631.627	260.62
631.833	260.62
632.039	238.62
632.245	266.62
632.451	257.62
632.657	251.62
632.863	244.62
633.069	257.62
633.275	242.62
633.481	254.62
633.688	252.62
633.893	246.62
634.099	252.62
634.305	256.62
634.511	222.62
634.717	254.62
634.923	226.62
635.129	234.62
635.335	239.62
635.541	225.62
635.747	240.62
635.952	238.62
636.158	247.62
636.364	226.62
636.57	225.62
636.775	218.62
636.981	216.62
637.187	241.62
637.392	220.62
637.598	233.62
637.804	239.62
638.009	237.62
638.215	238.62
638.421	212.62
638.626	221.62
638.832	231.62
639.037	224.62
639.243	223.62
639.448	223.62
639.654	218.62
639.859	226.62
640.065	216.62
640.27	218.62
640.475	199.62
640.681	220.62
640.886	227.62
641.091	219.62
641.297	222.62
641.502	217.62
641.707	230.62
641.913	204.62
642.118	210.62
642.323	223.62
642.528	231.62
642.733	223.62
642.939	218.62
643.144	205.62
643.349	220.62
643.554	204.62
643.759	207.62
643.964	219.62
644.169	209.62
644.374	209.62
644.579	211.62
644.784	203.62
644.989	223.62
645.194	217.62
645.399	202.62
645.604	236.62
645.809	210.62
646.014	228.62
646.219	223.62
646.423	214.62
646.628	223.62
646.833	225.62
647.038	219.62
647.243	206.62
647.447	216.62
647.652	231.62
647.857	224.62
648.062	228.62
648.266	216.62
648.471	217.62
648.676	220.62
648.88	228.62
649.085	226.62
649.289	206.62
649.494	228.62
649.698	220.62
649.903	207.62
650.107	208.62
650.312	217.62
650.516	203.62
650.721	205.62
650.925	196.62
651.13	185.62
651.334	209.62
651.539	189.62
651.743	194.62
651.947	196.62
652.152	200.62
652.356	191.62
652.56	175.62
652.764	169.62
652.969	166.62
653.173	162.62
653.377	166.62
653.581	178.62
653.785	167.62
653.99	169.62
654.194	163.62
654.398	163.62
654.602	159.62
654.806	141.62
655.01	164.62
655.214	160.62
655.418	162.62
655.622	182.62
655.826	172.62
656.03	161.62
656.234	155.62
656.438	151.62
656.642	160.62
656.846	158.62
657.049	162.62
657.253	147.62
657.457	136.62
657.661	124.62
657.865	132.62
658.068	121.62
658.272	126.62
658.476	127.62
658.68	121.62
658.883	103.62
659.087	106.62
659.291	113.62
659.494	118.62
659.698	116.62
659.901	104.62
660.105	90.62
660.309	96.62
660.512	91.62
660.716	101.62
660.919	108.62
661.123	112.62
661.326	103.62
661.53	99.62
661.733	82.62
661.936	90.62
662.14	85.62
662.343	90.62
662.546	103.62
662.75	88.62
662.953	90.62
663.156	84.62
663.36	80.62
663.563	87.62
663.766	91.62
663.969	79.62
664.173	82.62
664.376	75.62
664.579	82.62
664.782	96.62
664.985	74.62
665.188	91.62
665.391	81.62
665.594	98.62
665.797	75.62
666	86.62
666.203	84.62
666.406	87.62
666.609	90.62
666.812	82.62
667.015	80.62
667.218	87.62
667.421	79.62
667.624	80.62
667.827	75.62
668.03	78.62
668.232	77.62
668.435	77.62
668.638	65.62
668.841	78.62
669.043	74.62
669.246	79.62
669.449	89.62
669.651	75.62
669.854	87.62
670.057	85.62
670.259	83.62
670.462	76.62
670.665	81.62
670.867	82.62
671.07	83.62
671.272	88.62
671.475	89.62
671.677	67.62
671.88	87.62
672.082	94.62
672.284	87.62
672.487	83.62
672.689	82.62
672.892	84.62
