Data from NiCl2@0.25M.TitratingCurve.Agarose3%dH2O.NegLispCup.LampEnergy10.LIBS07252019_HRD10591_18-25-13-573.txt Node
Date: Thu Jul 25 18:25:13 EDT 2019
User: cochatt
Spectrometer: HR+D1059
Trigger mode: 1
Integration Time (sec): 1.000000E-1
Scans to average: 1
Electric dark correction enabled: true
Nonlinearity correction enabled: false
Boxcar width: 0
XAxis mode: Wavelengths
Number of Pixels in Spectrum: 2048
>>>>>Begin Spectral Data<<<<<
223.165	-13.06
223.4	-13.06
223.635	-13.06
223.869	-6.06
224.104	-9.06
224.338	-15.06
224.573	-21.06
224.808	-8.06
225.042	-2.06
225.277	-14.06
225.511	-16.06
225.746	5.94
225.98	9.94
226.215	14.94
226.449	21.94
226.683	7.94
226.918	15.94
227.152	27.94
227.387	32.94
227.621	32.94
227.856	48.94
228.09	37.94
228.324	47.94
228.559	55.94
228.793	71.94
229.027	123.94
229.262	119.94
229.496	112.94
229.73	129.94
229.964	135.94
230.199	134.94
230.433	145.94
230.667	135.94
230.901	125.94
231.136	142.94
231.37	148.94
231.604	137.94
231.838	139.94
232.072	137.94
232.306	161.94
232.541	165.94
232.775	167.94
233.009	149.94
233.243	152.94
233.477	161.94
233.711	157.94
233.945	155.94
234.179	163.94
234.413	155.94
234.647	160.94
234.881	145.94
235.115	162.94
235.349	173.94
235.583	172.94
235.817	153.94
236.051	160.94
236.285	175.94
236.519	148.94
236.753	162.94
236.987	161.94
237.221	173.94
237.455	159.94
237.689	184.94
237.922	172.94
238.156	171.94
238.39	188.94
238.624	169.94
238.858	166.94
239.091	181.94
239.325	169.94
239.559	170.94
239.793	190.94
240.027	185.94
240.26	200.94
240.494	207.94
240.728	202.94
240.961	173.94
241.195	214.94
241.429	199.94
241.662	185.94
241.896	207.94
242.13	206.94
242.363	189.94
242.597	206.94
242.83	201.94
243.064	196.94
243.298	214.94
243.531	209.94
243.765	202.94
243.998	228.94
244.232	225.94
244.465	229.94
244.699	225.94
244.932	222.94
245.166	223.94
245.399	227.94
245.633	238.94
245.866	229.94
246.099	247.94
246.333	242.94
246.566	243.94
246.8	222.94
247.033	233.94
247.266	245.94
247.5	237.94
247.733	242.94
247.966	238.94
248.2	235.94
248.433	273.94
248.666	246.94
248.899	258.94
249.133	277.94
249.366	273.94
249.599	252.94
249.832	266.94
250.066	261.94
250.299	277.94
250.532	273.94
250.765	280.94
250.998	267.94
251.231	269.94
251.465	277.94
251.698	273.94
251.931	280.94
252.164	276.94
252.397	298.94
252.63	301.94
252.863	304.94
253.096	298.94
253.329	308.94
253.562	292.94
253.795	290.94
254.028	315.94
254.261	291.94
254.494	309.94
254.727	309.94
254.96	311.94
255.193	323.94
255.426	322.94
255.659	322.94
255.892	321.94
256.124	296.94
256.357	312.94
256.59	315.94
256.823	311.94
257.056	309.94
257.289	343.94
257.521	332.94
257.754	343.94
257.987	325.94
258.22	341.94
258.452	318.94
258.685	322.94
258.918	332.94
259.151	338.94
259.383	350.94
259.616	339.94
259.849	347.94
260.081	355.94
260.314	336.94
260.547	334.94
260.779	344.94
261.012	348.94
261.244	341.94
261.477	342.94
261.71	367.94
261.942	369.94
262.175	351.94
262.407	340.94
262.64	353.94
262.872	358.94
263.105	354.94
263.337	368.94
263.57	361.94
263.802	361.94
264.035	374.94
264.267	385.94
264.499	375.94
264.732	366.94
264.964	381.94
265.197	378.94
265.429	378.94
265.661	386.94
265.894	384.94
266.126	370.94
266.358	388.94
266.591	377.94
266.823	390.94
267.055	369.94
267.287	387.94
267.52	385.94
267.752	387.94
267.984	379.94
268.216	386.94
268.448	382.94
268.681	393.94
268.913	399.94
269.145	399.94
269.377	397.94
269.609	393.94
269.841	397.94
270.073	405.94
270.306	396.94
270.538	410.94
270.77	413.94
271.002	424.94
271.234	425.94
271.466	442.94
271.698	418.94
271.93	416.94
272.162	426.94
272.394	412.94
272.626	421.94
272.858	424.94
273.09	435.94
273.322	437.94
273.553	420.94
273.785	434.94
274.017	442.94
274.249	439.94
274.481	435.94
274.713	435.94
274.945	441.94
275.176	462.94
275.408	445.94
275.64	456.94
275.872	442.94
276.104	447.94
276.335	451.94
276.567	459.94
276.799	431.94
277.031	466.94
277.262	450.94
277.494	463.94
277.726	478.94
277.957	473.94
278.189	493.94
278.421	473.94
278.652	467.94
278.884	474.94
279.115	468.94
279.347	468.94
279.579	497.94
279.81	457.94
280.042	478.94
280.273	504.94
280.505	481.94
280.736	494.94
280.968	457.94
281.199	483.94
281.431	484.94
281.662	511.94
281.894	508.94
282.125	507.94
282.356	512.94
282.588	513.94
282.819	539.94
283.051	530.94
283.282	511.94
283.513	523.94
283.745	509.94
283.976	546.94
284.207	515.94
284.439	522.94
284.67	507.94
284.901	553.94
285.132	531.94
285.364	515.94
285.595	529.94
285.826	529.94
286.057	536.94
286.288	544.94
286.52	534.94
286.751	525.94
286.982	552.94
287.213	553.94
287.444	547.94
287.675	578.94
287.906	564.94
288.138	554.94
288.369	564.94
288.6	564.94
288.831	542.94
289.062	543.94
289.293	565.94
289.524	549.94
289.755	568.94
289.986	565.94
290.217	559.94
290.448	573.94
290.679	575.94
290.91	564.94
291.141	560.94
291.371	563.94
291.602	553.94
291.833	578.94
292.064	562.94
292.295	585.94
292.526	563.94
292.757	561.94
292.987	566.94
293.218	574.94
293.449	581.94
293.68	599.94
293.91	580.94
294.141	570.94
294.372	580.94
294.603	585.94
294.833	579.94
295.064	595.94
295.295	597.94
295.525	571.94
295.756	595.94
295.987	619.94
296.217	623.94
296.448	602.94
296.679	607.94
296.909	608.94
297.14	607.94
297.37	614.94
297.601	632.94
297.831	622.94
298.062	612.94
298.292	637.94
298.523	639.94
298.753	630.94
298.984	644.94
299.214	601.94
299.445	607.94
299.675	633.94
299.905	643.94
300.136	621.94
300.366	615.94
300.597	632.94
300.827	661.94
301.057	640.94
301.288	660.94
301.518	644.94
301.748	664.94
301.979	650.94
302.209	649.94
302.439	662.94
302.669	663.94
302.9	633.94
303.13	652.94
303.36	637.94
303.59	623.94
303.82	644.94
304.051	655.94
304.281	648.94
304.511	643.94
304.741	651.94
304.971	645.94
305.201	661.94
305.431	625.94
305.661	644.94
305.891	655.94
306.121	635.94
306.352	646.94
306.582	652.94
306.812	638.94
307.042	630.94
307.272	630.94
307.502	638.94
307.731	641.94
307.961	622.94
308.191	638.94
308.421	629.94
308.651	646.94
308.881	639.94
309.111	651.94
309.341	636.94
309.571	650.94
309.8	629.94
310.03	640.94
310.26	642.94
310.49	630.94
310.72	658.94
310.949	631.94
311.179	652.94
311.409	653.94
311.639	651.94
311.868	650.94
312.098	653.94
312.328	662.94
312.557	667.94
312.787	674.94
313.017	675.94
313.246	681.94
313.476	698.94
313.706	680.94
313.935	695.94
314.165	691.94
314.394	673.94
314.624	685.94
314.853	662.94
315.083	673.94
315.312	685.94
315.542	707.94
315.771	672.94
316.001	646.94
316.23	662.94
316.46	648.94
316.689	679.94
316.919	674.94
317.148	685.94
317.377	681.94
317.607	671.94
317.836	656.94
318.065	678.94
318.295	656.94
318.524	660.94
318.753	674.94
318.983	685.94
319.212	667.94
319.441	681.94
319.67	687.94
319.9	673.94
320.129	672.94
320.358	698.94
320.587	678.94
320.816	662.94
321.046	693.94
321.275	672.94
321.504	689.94
321.733	666.94
321.962	687.94
322.191	678.94
322.42	682.94
322.649	695.94
322.878	680.94
323.108	677.94
323.337	707.94
323.566	687.94
323.795	681.94
324.024	698.94
324.253	703.94
324.482	681.94
324.71	676.94
324.939	713.94
325.168	705.94
325.397	716.94
325.626	710.94
325.855	720.94
326.084	738.94
326.313	727.94
326.542	722.94
326.77	749.94
326.999	729.94
327.228	755.94
327.457	725.94
327.686	720.94
327.914	738.94
328.143	732.94
328.372	729.94
328.6	745.94
328.829	734.94
329.058	743.94
329.287	746.94
329.515	719.94
329.744	727.94
329.972	778.94
330.201	736.94
330.43	782.94
330.658	744.94
330.887	762.94
331.115	767.94
331.344	806.94
331.572	793.94
331.801	794.94
332.03	832.94
332.258	845.94
332.486	873.94
332.715	913.94
332.943	903.94
333.172	937.94
333.4	999.94
333.629	1029.94
333.857	1025.94
334.085	1027.94
334.314	980.94
334.542	981.94
334.771	955.94
334.999	925.94
335.227	929.94
335.455	905.94
335.684	919.94
335.912	894.94
336.14	906.94
336.369	931.94
336.597	900.94
336.825	884.94
337.053	869.94
337.281	877.94
337.51	831.94
337.738	840.94
337.966	850.94
338.194	828.94
338.422	792.94
338.65	825.94
338.878	822.94
339.106	793.94
339.334	820.94
339.562	781.94
339.79	793.94
340.018	753.94
340.246	766.94
340.474	785.94
340.702	767.94
340.93	753.94
341.158	769.94
341.386	777.94
341.614	797.94
341.842	755.94
342.07	762.94
342.298	760.94
342.526	758.94
342.754	759.94
342.981	765.94
343.209	781.94
343.437	831.94
343.665	877.94
343.893	935.94
344.12	963.94
344.348	931.94
344.576	874.94
344.804	840.94
345.031	825.94
345.259	822.94
345.487	769.94
345.714	785.94
345.942	765.94
346.17	755.94
346.397	758.94
346.625	753.94
346.853	745.94
347.08	734.94
347.308	758.94
347.535	773.94
347.763	747.94
347.99	768.94
348.218	760.94
348.445	767.94
348.673	726.94
348.9	756.94
349.128	736.94
349.355	735.94
349.583	769.94
349.81	734.94
350.037	750.94
350.265	710.94
350.492	712.94
350.72	726.94
350.947	735.94
351.174	724.94
351.402	733.94
351.629	718.94
351.856	698.94
352.083	699.94
352.311	723.94
352.538	701.94
352.765	709.94
352.992	722.94
353.22	712.94
353.447	698.94
353.674	672.94
353.901	722.94
354.128	683.94
354.355	726.94
354.583	695.94
354.81	730.94
355.037	717.94
355.264	732.94
355.491	727.94
355.718	722.94
355.945	714.94
356.172	747.94
356.399	741.94
356.626	735.94
356.853	698.94
357.08	708.94
357.307	719.94
357.534	740.94
357.761	734.94
357.988	694.94
358.215	723.94
358.441	689.94
358.668	735.94
358.895	705.94
359.122	695.94
359.349	715.94
359.576	730.94
359.802	729.94
360.029	700.94
360.256	735.94
360.483	716.94
360.709	711.94
360.936	713.94
361.163	724.94
361.39	701.94
361.616	730.94
361.843	695.94
362.07	732.94
362.296	718.94
362.523	706.94
362.749	713.94
362.976	710.94
363.203	702.94
363.429	709.94
363.656	712.94
363.882	721.94
364.109	697.94
364.335	711.94
364.562	712.94
364.788	711.94
365.015	756.94
365.241	717.94
365.468	711.94
365.694	713.94
365.92	723.94
366.147	711.94
366.373	727.94
366.599	732.94
366.826	729.94
367.052	713.94
367.278	720.94
367.505	720.94
367.731	707.94
367.957	705.94
368.184	714.94
368.41	741.94
368.636	708.94
368.862	718.94
369.089	734.94
369.315	716.94
369.541	731.94
369.767	750.94
369.993	754.94
370.219	745.94
370.445	755.94
370.672	759.94
370.898	767.94
371.124	779.94
371.35	769.94
371.576	765.94
371.802	762.94
372.028	773.94
372.254	779.94
372.48	799.94
372.706	808.94
372.932	837.94
373.158	827.94
373.384	821.94
373.61	778.94
373.835	775.94
374.061	761.94
374.287	825.94
374.513	790.94
374.739	812.94
374.965	847.94
375.191	869.94
375.416	851.94
375.642	868.94
375.868	841.94
376.094	801.94
376.319	799.94
376.545	808.94
376.771	799.94
376.997	784.94
377.222	757.94
377.448	757.94
377.674	770.94
377.899	772.94
378.125	778.94
378.35	778.94
378.576	792.94
378.802	775.94
379.027	777.94
379.253	798.94
379.478	772.94
379.704	773.94
379.929	777.94
380.155	784.94
380.38	768.94
380.606	778.94
380.831	787.94
381.057	800.94
381.282	801.94
381.507	779.94
381.733	776.94
381.958	791.94
382.184	801.94
382.409	813.94
382.634	817.94
382.86	829.94
383.085	844.94
383.31	833.94
383.535	849.94
383.761	863.94
383.986	869.94
384.211	917.94
384.436	891.94
384.662	920.94
384.887	949.94
385.112	935.94
385.337	955.94
385.562	976.94
385.787	925.94
386.013	980.94
386.238	961.94
386.463	974.94
386.688	973.94
386.913	933.94
387.138	943.94
387.363	934.94
387.588	900.94
387.813	922.94
388.038	903.94
388.263	909.94
388.488	925.94
388.713	929.94
388.938	922.94
389.163	933.94
389.387	923.94
389.612	894.94
389.837	898.94
390.062	902.94
390.287	890.94
390.512	931.94
390.736	937.94
390.961	953.94
391.186	957.94
391.411	976.94
391.636	1027.94
391.86	1049.94
392.085	1072.94
392.31	1080.94
392.534	1036.94
392.759	1025.94
392.984	1007.94
393.208	1025.94
393.433	980.94
393.658	977.94
393.882	983.94
394.107	1004.94
394.331	1032.94
394.556	981.94
394.78	1018.94
395.005	1039.94
395.229	1024.94
395.454	1033.94
395.678	1066.94
395.903	1097.94
396.127	1050.94
396.352	1028.94
396.576	1005.94
396.801	1000.94
397.025	1005.94
397.249	1037.94
397.474	1070.94
397.698	1043.94
397.922	1079.94
398.147	1075.94
398.371	1068.94
398.595	1117.94
398.82	1161.94
399.044	1257.94
399.268	1359.94
399.492	1621.94
399.717	1837.94
399.941	1826.94
400.165	1609.94
400.389	1437.94
400.613	1319.94
400.837	1236.94
401.062	1182.94
401.286	1197.94
401.51	1190.94
401.734	1165.94
401.958	1198.94
402.182	1206.94
402.406	1225.94
402.63	1239.94
402.854	1270.94
403.078	1287.94
403.302	1302.94
403.526	1335.94
403.75	1374.94
403.974	1406.94
404.198	1393.94
404.422	1409.94
404.645	1394.94
404.869	1351.94
405.093	1354.94
405.317	1341.94
405.541	1322.94
405.765	1329.94
405.988	1293.94
406.212	1315.94
406.436	1314.94
406.66	1339.94
406.883	1375.94
407.107	1430.94
407.331	1509.94
407.555	1591.94
407.778	1537.94
408.002	1509.94
408.226	1446.94
408.449	1421.94
408.673	1358.94
408.896	1319.94
409.12	1357.94
409.344	1363.94
409.567	1350.94
409.791	1399.94
410.014	1379.94
410.238	1348.94
410.461	1315.94
410.685	1291.94
410.908	1271.94
411.132	1263.94
411.355	1192.94
411.578	1231.94
411.802	1210.94
412.025	1230.94
412.249	1268.94
412.472	1262.94
412.695	1207.94
412.919	1179.94
413.142	1161.94
413.365	1195.94
413.589	1207.94
413.812	1189.94
414.035	1161.94
414.258	1170.94
414.482	1171.94
414.705	1202.94
414.928	1209.94
415.151	1212.94
415.374	1167.94
415.597	1176.94
415.821	1145.94
416.044	1153.94
416.267	1157.94
416.49	1138.94
416.713	1169.94
416.936	1151.94
417.159	1162.94
417.382	1176.94
417.605	1151.94
417.828	1160.94
418.051	1183.94
418.274	1172.94
418.497	1157.94
418.72	1216.94
418.943	1224.94
419.166	1281.94
419.389	1344.94
419.611	1341.94
419.834	1302.94
420.057	1204.94
420.28	1200.94
420.503	1166.94
420.726	1139.94
420.948	1143.94
421.171	1166.94
421.394	1166.94
421.617	1158.94
421.839	1153.94
422.062	1171.94
422.285	1151.94
422.507	1169.94
422.73	1221.94
422.953	1233.94
423.175	1207.94
423.398	1249.94
423.621	1199.94
423.843	1263.94
424.066	1259.94
424.288	1277.94
424.511	1210.94
424.733	1226.94
424.956	1187.94
425.178	1191.94
425.401	1187.94
425.623	1193.94
425.846	1144.94
426.068	1125.94
426.291	1141.94
426.513	1117.94
426.735	1075.94
426.958	1091.94
427.18	1064.94
427.402	1065.94
427.625	1084.94
427.847	1036.94
428.069	1040.94
428.292	1061.94
428.514	1015.94
428.736	1021.94
428.958	1042.94
429.181	1009.94
429.403	1015.94
429.625	1033.94
429.847	1002.94
430.069	990.94
430.292	1025.94
430.514	987.94
430.736	998.94
430.958	1017.94
431.18	1047.94
431.402	1032.94
431.624	1015.94
431.846	1044.94
432.068	1037.94
432.29	1045.94
432.512	1009.94
432.734	1039.94
432.956	1014.94
433.178	1027.94
433.4	1057.94
433.622	1028.94
433.844	1059.94
434.066	1058.94
434.287	1056.94
434.509	1083.94
434.731	1141.94
434.953	1150.94
435.175	1169.94
435.397	1159.94
435.618	1085.94
435.84	1064.94
436.062	1056.94
436.284	1028.94
436.505	1024.94
436.727	1058.94
436.949	1019.94
437.17	1025.94
437.392	1001.94
437.614	1004.94
437.835	973.94
438.057	986.94
438.278	972.94
438.5	966.94
438.721	993.94
438.943	978.94
439.165	978.94
439.386	1007.94
439.608	1012.94
439.829	1000.94
440.05	1053.94
440.272	1046.94
440.493	1068.94
440.715	1073.94
440.936	1076.94
441.158	1094.94
441.379	1085.94
441.6	1172.94
441.822	1200.94
442.043	1192.94
442.264	1185.94
442.486	1122.94
442.707	1152.94
442.928	1106.94
443.149	1153.94
443.371	1136.94
443.592	1142.94
443.813	1165.94
444.034	1160.94
444.255	1234.94
444.476	1261.94
444.698	1366.94
444.919	1413.94
445.14	1463.94
445.361	1302.94
445.582	1203.94
445.803	1122.94
446.024	1053.94
446.245	1095.94
446.466	1056.94
446.687	1018.94
446.908	1053.94
447.129	1003.94
447.35	972.94
447.571	979.94
447.792	942.94
448.013	966.94
448.234	952.94
448.455	958.94
448.675	931.94
448.896	921.94
449.117	903.94
449.338	920.94
449.559	911.94
449.779	945.94
450	910.94
450.221	919.94
450.442	939.94
450.662	965.94
450.883	933.94
451.104	979.94
451.324	956.94
451.545	948.94
451.766	921.94
451.986	941.94
452.207	946.94
452.428	951.94
452.648	937.94
452.869	926.94
453.089	893.94
453.31	926.94
453.53	887.94
453.751	890.94
453.971	915.94
454.192	888.94
454.412	872.94
454.633	902.94
454.853	925.94
455.073	874.94
455.294	870.94
455.514	885.94
455.734	867.94
455.955	868.94
456.175	865.94
456.395	871.94
456.616	869.94
456.836	874.94
457.056	864.94
457.276	850.94
457.497	871.94
457.717	856.94
457.937	838.94
458.157	908.94
458.377	897.94
458.598	890.94
458.818	915.94
459.038	944.94
459.258	999.94
459.478	1021.94
459.698	1047.94
459.918	1114.94
460.138	1148.94
460.358	1192.94
460.578	1223.94
460.798	1238.94
461.018	1233.94
461.238	1250.94
461.458	1200.94
461.678	1180.94
461.898	1231.94
462.118	1213.94
462.338	1321.94
462.558	1301.94
462.777	1408.94
462.997	1489.94
463.217	1686.94
463.437	1649.94
463.657	1532.94
463.876	1437.94
464.096	1432.94
464.316	1457.94
464.536	1445.94
464.755	1349.94
464.975	1348.94
465.195	1271.94
465.414	1199.94
465.634	1106.94
465.854	1072.94
466.073	1047.94
466.293	1016.94
466.512	998.94
466.732	1000.94
466.951	985.94
467.171	960.94
467.391	982.94
467.61	1003.94
467.829	969.94
468.049	965.94
468.268	927.94
468.488	933.94
468.707	915.94
468.927	920.94
469.146	941.94
469.365	958.94
469.585	982.94
469.804	971.94
470.023	1010.94
470.243	1010.94
470.462	1004.94
470.681	1011.94
470.901	1015.94
471.12	1017.94
471.339	979.94
471.558	973.94
471.777	965.94
471.997	949.94
472.216	953.94
472.435	943.94
472.654	916.94
472.873	921.94
473.092	918.94
473.311	930.94
473.53	910.94
473.749	911.94
473.968	910.94
474.187	922.94
474.406	931.94
474.625	925.94
474.844	895.94
475.063	922.94
475.282	917.94
475.501	949.94
475.72	972.94
475.939	943.94
476.158	946.94
476.377	942.94
476.596	980.94
476.814	950.94
477.033	966.94
477.252	1000.94
477.471	1008.94
477.69	1045.94
477.908	1067.94
478.127	1094.94
478.346	1120.94
478.564	1119.94
478.783	1152.94
479.002	1128.94
479.22	1161.94
479.439	1171.94
479.658	1151.94
479.876	1164.94
480.095	1195.94
480.313	1225.94
480.532	1255.94
480.751	1239.94
480.969	1207.94
481.188	1157.94
481.406	1139.94
481.624	1107.94
481.843	1118.94
482.061	1048.94
482.28	1059.94
482.498	1054.94
482.717	1019.94
482.935	1046.94
483.153	1060.94
483.372	1071.94
483.59	1063.94
483.808	1054.94
484.027	1078.94
484.245	1066.94
484.463	1058.94
484.681	1095.94
484.9	1085.94
485.118	1108.94
485.336	1076.94
485.554	1113.94
485.772	1120.94
485.99	1126.94
486.209	1133.94
486.427	1140.94
486.645	1117.94
486.863	1123.94
487.081	1124.94
487.299	1091.94
487.517	1123.94
487.735	1102.94
487.953	1135.94
488.171	1124.94
488.389	1118.94
488.607	1071.94
488.825	1061.94
489.043	1106.94
489.261	1095.94
489.479	1096.94
489.696	1107.94
489.914	1095.94
490.132	1129.94
490.35	1099.94
490.568	1127.94
490.786	1109.94
491.003	1132.94
491.221	1113.94
491.439	1120.94
491.657	1112.94
491.874	1142.94
492.092	1133.94
492.31	1126.94
492.527	1144.94
492.745	1134.94
492.963	1143.94
493.18	1184.94
493.398	1169.94
493.615	1178.94
493.833	1147.94
494.05	1134.94
494.268	1143.94
494.485	1216.94
494.703	1169.94
494.92	1159.94
495.138	1181.94
495.355	1179.94
495.573	1211.94
495.79	1203.94
496.008	1190.94
496.225	1177.94
496.442	1224.94
496.66	1254.94
496.877	1239.94
497.094	1289.94
497.312	1296.94
497.529	1304.94
497.746	1320.94
497.963	1377.94
498.181	1429.94
498.398	1495.94
498.615	1614.94
498.832	1726.94
499.049	1845.94
499.267	2000.94
499.484	2234.94
499.701	2473.94
499.918	2712.94
500.135	3153.94
500.352	3677.94
500.569	3847.94
500.786	3750.94
501.003	3438.94
501.22	3091.94
501.437	2730.94
501.654	2361.94
501.871	2063.94
502.088	1912.94
502.305	1823.94
502.522	1701.94
502.739	1663.94
502.956	1583.94
503.172	1499.94
503.389	1416.94
503.606	1367.94
503.823	1402.94
504.04	1349.94
504.256	1354.94
504.473	1446.94
504.69	1473.94
504.907	1427.94
505.123	1337.94
505.34	1245.94
505.557	1192.94
505.773	1175.94
505.99	1135.94
506.207	1109.94
506.423	1092.94
506.64	1056.94
506.856	1031.94
507.073	1064.94
507.289	1080.94
507.506	1070.94
507.722	1030.94
507.939	1049.94
508.155	1000.94
508.372	1013.94
508.588	990.94
508.805	989.94
509.021	991.94
509.238	987.94
509.454	988.94
509.67	969.94
509.887	968.94
510.103	952.94
510.319	925.94
510.536	951.94
510.752	927.94
510.968	968.94
511.184	942.94
511.401	918.94
511.617	944.94
511.833	953.94
512.049	926.94
512.265	939.94
512.481	957.94
512.698	925.94
512.914	929.94
513.13	949.94
513.346	966.94
513.562	960.94
513.778	929.94
513.994	953.94
514.21	952.94
514.426	969.94
514.642	944.94
514.858	963.94
515.074	971.94
515.29	998.94
515.506	983.94
515.721	1018.94
515.937	1014.94
516.153	1031.94
516.369	1064.94
516.585	1087.94
516.801	1108.94
517.016	1165.94
517.232	1240.94
517.448	1309.94
517.664	1342.94
517.879	1335.94
518.095	1334.94
518.311	1315.94
518.527	1248.94
518.742	1238.94
518.958	1155.94
519.173	1126.94
519.389	1082.94
519.605	1048.94
519.82	1042.94
520.036	1009.94
520.251	988.94
520.467	978.94
520.682	977.94
520.898	949.94
521.113	919.94
521.329	926.94
521.544	906.94
521.76	889.94
521.975	927.94
522.19	914.94
522.406	885.94
522.621	879.94
522.836	900.94
523.052	906.94
523.267	897.94
523.482	896.94
523.698	884.94
523.913	887.94
524.128	899.94
524.343	896.94
524.559	896.94
524.774	862.94
524.989	847.94
525.204	864.94
525.419	861.94
525.634	850.94
525.849	885.94
526.064	871.94
526.28	831.94
526.495	865.94
526.71	835.94
526.925	846.94
527.14	854.94
527.355	840.94
527.57	861.94
527.785	846.94
527.999	866.94
528.214	847.94
528.429	854.94
528.644	850.94
528.859	852.94
529.074	835.94
529.289	867.94
529.503	864.94
529.718	835.94
529.933	835.94
530.148	872.94
530.363	837.94
530.577	839.94
530.792	836.94
531.007	834.94
531.221	823.94
531.436	837.94
531.651	830.94
531.865	843.94
532.08	867.94
532.295	879.94
532.509	841.94
532.724	842.94
532.938	842.94
533.153	850.94
533.367	851.94
533.582	845.94
533.796	857.94
534.011	841.94
534.225	823.94
534.44	836.94
534.654	838.94
534.868	858.94
535.083	830.94
535.297	842.94
535.511	819.94
535.726	809.94
535.94	805.94
536.154	791.94
536.369	815.94
536.583	776.94
536.797	807.94
537.011	793.94
537.225	806.94
537.44	768.94
537.654	791.94
537.868	800.94
538.082	789.94
538.296	783.94
538.51	766.94
538.724	785.94
538.938	779.94
539.153	758.94
539.367	782.94
539.581	767.94
539.795	769.94
540.009	756.94
540.222	762.94
540.436	778.94
540.65	761.94
540.864	769.94
541.078	757.94
541.292	767.94
541.506	773.94
541.72	740.94
541.934	765.94
542.147	777.94
542.361	761.94
542.575	765.94
542.789	741.94
543.002	738.94
543.216	741.94
543.43	752.94
543.644	716.94
543.857	752.94
544.071	770.94
544.285	756.94
544.498	759.94
544.712	749.94
544.925	754.94
545.139	779.94
545.352	778.94
545.566	794.94
545.779	778.94
545.993	786.94
546.206	782.94
546.42	784.94
546.633	772.94
546.847	773.94
547.06	769.94
547.274	770.94
547.487	773.94
547.7	772.94
547.914	780.94
548.127	765.94
548.34	808.94
548.554	751.94
548.767	796.94
548.98	773.94
549.193	794.94
549.407	797.94
549.62	821.94
549.833	819.94
550.046	830.94
550.259	773.94
550.473	768.94
550.686	769.94
550.899	766.94
551.112	750.94
551.325	772.94
551.538	750.94
551.751	749.94
551.964	753.94
552.177	755.94
552.39	793.94
552.603	801.94
552.816	835.94
553.029	843.94
553.242	864.94
553.455	835.94
553.667	853.94
553.88	852.94
554.093	825.94
554.306	819.94
554.519	806.94
554.732	790.94
554.944	787.94
555.157	776.94
555.37	746.94
555.583	731.94
555.795	707.94
556.008	699.94
556.221	698.94
556.433	657.94
556.646	683.94
556.859	665.94
557.071	668.94
557.284	665.94
557.496	675.94
557.709	665.94
557.921	668.94
558.134	631.94
558.346	653.94
558.559	662.94
558.771	642.94
558.984	646.94
559.196	624.94
559.409	637.94
559.621	635.94
559.833	626.94
560.046	623.94
560.258	634.94
560.47	636.94
560.683	639.94
560.895	609.94
561.107	618.94
561.32	633.94
561.532	621.94
561.744	618.94
561.956	655.94
562.168	608.94
562.381	646.94
562.593	643.94
562.805	631.94
563.017	621.94
563.229	649.94
563.441	641.94
563.653	671.94
563.865	664.94
564.077	677.94
564.289	645.94
564.501	677.94
564.713	668.94
564.925	667.94
565.137	709.94
565.349	749.94
565.561	747.94
565.773	774.94
565.985	783.94
566.197	854.94
566.408	919.94
566.62	966.94
566.832	1053.94
567.044	1069.94
567.255	1067.94
567.467	1121.94
567.679	1160.94
567.891	1258.94
568.102	1303.94
568.314	1226.94
568.526	1089.94
568.737	1003.94
568.949	909.94
569.161	832.94
569.372	766.94
569.584	720.94
569.795	740.94
570.007	648.94
570.218	670.94
570.43	651.94
570.641	643.94
570.853	667.94
571.064	659.94
571.276	688.94
571.487	661.94
571.698	624.94
571.91	596.94
572.121	575.94
572.333	564.94
572.544	583.94
572.755	543.94
572.966	561.94
573.178	550.94
573.389	561.94
573.6	541.94
573.811	519.94
574.023	524.94
574.234	527.94
574.445	537.94
574.656	551.94
574.867	523.94
575.078	526.94
575.289	530.94
575.501	507.94
575.712	505.94
575.923	505.94
576.134	498.94
576.345	497.94
576.556	498.94
576.767	493.94
576.978	478.94
577.188	493.94
577.399	470.94
577.61	497.94
577.821	488.94
578.032	481.94
578.243	479.94
578.454	465.94
578.665	462.94
578.875	469.94
579.086	468.94
579.297	475.94
579.508	456.94
579.718	457.94
579.929	442.94
580.14	444.94
580.35	437.94
580.561	466.94
580.772	457.94
580.982	455.94
581.193	463.94
581.403	434.94
581.614	451.94
581.825	450.94
582.035	426.94
582.246	429.94
582.456	418.94
582.667	443.94
582.877	433.94
583.087	462.94
583.298	431.94
583.508	447.94
583.719	456.94
583.929	439.94
584.139	429.94
584.35	434.94
584.56	413.94
584.77	420.94
584.981	422.94
585.191	425.94
585.401	412.94
585.611	423.94
585.821	422.94
586.032	418.94
586.242	431.94
586.452	414.94
586.662	403.94
586.872	413.94
587.082	429.94
587.292	419.94
587.502	404.94
587.713	409.94
587.923	408.94
588.133	399.94
588.343	415.94
588.553	408.94
588.762	417.94
588.972	413.94
589.182	413.94
589.392	433.94
589.602	415.94
589.812	429.94
590.022	429.94
590.232	412.94
590.441	414.94
590.651	408.94
590.861	419.94
591.071	437.94
591.281	425.94
591.49	425.94
591.7	458.94
591.91	446.94
592.119	441.94
592.329	480.94
592.539	482.94
592.748	517.94
592.958	495.94
593.167	539.94
593.377	530.94
593.587	534.94
593.796	544.94
594.006	583.94
594.215	567.94
594.424	569.94
594.634	559.94
594.843	524.94
595.053	497.94
595.262	463.94
595.472	456.94
595.681	467.94
595.89	441.94
596.1	414.94
596.309	414.94
596.518	421.94
596.727	387.94
596.937	404.94
597.146	399.94
597.355	404.94
597.564	381.94
597.774	381.94
597.983	354.94
598.192	368.94
598.401	395.94
598.61	360.94
598.819	368.94
599.028	365.94
599.237	346.94
599.446	350.94
599.655	353.94
599.864	371.94
600.073	365.94
600.282	346.94
600.491	369.94
600.7	344.94
600.909	355.94
601.118	346.94
601.327	336.94
601.536	346.94
601.745	339.94
601.953	354.94
602.162	356.94
602.371	342.94
602.58	334.94
602.789	342.94
602.997	344.94
603.206	327.94
603.415	337.94
603.623	330.94
603.832	341.94
604.041	327.94
604.249	337.94
604.458	332.94
604.666	342.94
604.875	307.94
605.084	320.94
605.292	325.94
605.501	321.94
605.709	313.94
605.918	340.94
606.126	326.94
606.334	330.94
606.543	329.94
606.751	329.94
606.96	340.94
607.168	317.94
607.376	319.94
607.585	318.94
607.793	313.94
608.001	294.94
608.21	308.94
608.418	306.94
608.626	304.94
608.834	313.94
609.043	319.94
609.251	342.94
609.459	313.94
609.667	318.94
609.875	309.94
610.083	321.94
610.291	308.94
610.499	303.94
610.707	312.94
610.916	300.94
611.124	300.94
611.332	313.94
611.54	292.94
611.748	305.94
611.955	298.94
612.163	307.94
612.371	305.94
612.579	312.94
612.787	287.94
612.995	279.94
613.203	287.94
613.411	299.94
613.618	295.94
613.826	298.94
614.034	298.94
614.242	281.94
614.449	292.94
614.657	314.94
614.865	304.94
615.072	282.94
615.28	304.94
615.488	293.94
615.695	317.94
615.903	289.94
616.111	286.94
616.318	309.94
616.526	289.94
616.733	291.94
616.941	296.94
617.148	305.94
617.356	304.94
617.563	304.94
617.771	292.94
617.978	304.94
618.185	312.94
618.393	289.94
618.6	288.94
618.807	296.94
619.015	302.94
619.222	294.94
619.429	285.94
619.637	307.94
619.844	298.94
620.051	293.94
620.258	280.94
620.466	282.94
620.673	277.94
620.88	268.94
621.087	272.94
621.294	273.94
621.501	279.94
621.708	280.94
621.915	268.94
622.122	264.94
622.329	282.94
622.536	280.94
622.743	278.94
622.95	272.94
623.157	257.94
623.364	272.94
623.571	268.94
623.778	265.94
623.985	278.94
624.192	270.94
624.399	251.94
624.606	275.94
624.812	277.94
625.019	243.94
625.226	263.94
625.433	263.94
625.639	262.94
625.846	256.94
626.053	252.94
626.259	247.94
626.466	234.94
626.673	271.94
626.879	270.94
627.086	247.94
627.293	256.94
627.499	238.94
627.706	249.94
627.912	235.94
628.119	249.94
628.325	242.94
628.532	244.94
628.738	237.94
628.945	229.94
629.151	265.94
629.357	251.94
629.564	256.94
629.77	242.94
629.976	238.94
630.183	241.94
630.389	242.94
630.595	224.94
630.802	221.94
631.008	248.94
631.214	228.94
631.42	237.94
631.627	215.94
631.833	220.94
632.039	218.94
632.245	204.94
632.451	233.94
632.657	212.94
632.863	228.94
633.069	230.94
633.275	216.94
633.481	232.94
633.688	232.94
633.893	227.94
634.099	215.94
634.305	216.94
634.511	222.94
634.717	218.94
634.923	215.94
635.129	206.94
635.335	214.94
635.541	216.94
635.747	202.94
635.952	207.94
636.158	197.94
636.364	224.94
636.57	222.94
636.775	215.94
636.981	227.94
637.187	213.94
637.392	221.94
637.598	219.94
637.804	217.94
638.009	197.94
638.215	213.94
638.421	215.94
638.626	193.94
638.832	207.94
639.037	224.94
639.243	205.94
639.448	220.94
639.654	195.94
639.859	211.94
640.065	214.94
640.27	209.94
640.475	187.94
640.681	209.94
640.886	208.94
641.091	206.94
641.297	203.94
641.502	176.94
641.707	191.94
641.913	204.94
642.118	199.94
642.323	197.94
642.528	213.94
642.733	217.94
642.939	177.94
643.144	180.94
643.349	186.94
643.554	197.94
643.759	204.94
643.964	185.94
644.169	186.94
644.374	203.94
644.579	198.94
644.784	200.94
644.989	196.94
645.194	193.94
645.399	198.94
645.604	193.94
645.809	197.94
646.014	185.94
646.219	191.94
646.423	200.94
646.628	194.94
646.833	192.94
647.038	203.94
647.243	194.94
647.447	199.94
647.652	201.94
647.857	196.94
648.062	201.94
648.266	201.94
648.471	214.94
648.676	206.94
648.88	203.94
649.085	218.94
649.289	192.94
649.494	192.94
649.698	203.94
649.903	169.94
650.107	191.94
650.312	173.94
650.516	186.94
650.721	194.94
650.925	171.94
651.13	205.94
651.334	157.94
651.539	169.94
651.743	178.94
651.947	181.94
652.152	177.94
652.356	175.94
652.56	152.94
652.764	160.94
652.969	150.94
653.173	166.94
653.377	161.94
653.581	157.94
653.785	143.94
653.99	158.94
654.194	169.94
654.398	146.94
654.602	143.94
654.806	139.94
655.01	141.94
655.214	149.94
655.418	147.94
655.622	142.94
655.826	151.94
656.03	148.94
656.234	149.94
656.438	120.94
656.642	142.94
656.846	143.94
657.049	147.94
657.253	123.94
657.457	122.94
657.661	128.94
657.865	118.94
658.068	129.94
658.272	121.94
658.476	109.94
658.68	98.94
658.883	117.94
659.087	114.94
659.291	112.94
659.494	110.94
659.698	87.94
659.901	103.94
660.105	101.94
660.309	98.94
660.512	89.94
660.716	96.94
660.919	93.94
661.123	94.94
661.326	95.94
661.53	87.94
661.733	113.94
661.936	102.94
662.14	93.94
662.343	69.94
662.546	80.94
662.75	85.94
662.953	94.94
663.156	86.94
663.36	79.94
663.563	82.94
663.766	73.94
663.969	73.94
664.173	71.94
664.376	88.94
664.579	91.94
664.782	66.94
664.985	82.94
665.188	80.94
665.391	80.94
665.594	78.94
665.797	74.94
666	76.94
666.203	82.94
666.406	61.94
666.609	71.94
666.812	87.94
667.015	74.94
667.218	81.94
667.421	79.94
667.624	65.94
667.827	86.94
668.03	69.94
668.232	81.94
668.435	82.94
668.638	78.94
668.841	89.94
669.043	78.94
669.246	80.94
669.449	79.94
669.651	86.94
669.854	75.94
670.057	84.94
670.259	73.94
670.462	85.94
670.665	75.94
670.867	69.94
671.07	77.94
671.272	76.94
671.475	80.94
671.677	75.94
671.88	81.94
672.082	88.94
672.284	69.94
672.487	84.94
672.689	78.94
672.892	70.94
