Data from NiCl2@0.0625M.TitratingCurve.Agarose3%dH2O.NegLispCup.LampEnergy10.LIBS07252019_HRD10591_18-34-05-577.txt Node
Date: Thu Jul 25 18:34:05 EDT 2019
User: cochatt
Spectrometer: HR+D1059
Trigger mode: 1
Integration Time (sec): 1.000000E-1
Scans to average: 1
Electric dark correction enabled: true
Nonlinearity correction enabled: false
Boxcar width: 0
XAxis mode: Wavelengths
Number of Pixels in Spectrum: 2048
>>>>>Begin Spectral Data<<<<<
223.165	-2.56
223.4	-2.56
223.635	-2.56
223.869	-15.56
224.104	-17.56
224.338	-22.56
224.573	-14.56
224.808	-10.56
225.042	-6.56
225.277	-6.56
225.511	-7.56
225.746	6.44
225.98	5.44
226.215	4.44
226.449	15.44
226.683	13.44
226.918	28.44
227.152	30.44
227.387	37.44
227.621	46.44
227.856	46.44
228.09	43.44
228.324	43.44
228.559	65.44
228.793	74.44
229.027	142.44
229.262	145.44
229.496	143.44
229.73	145.44
229.964	174.44
230.199	173.44
230.433	187.44
230.667	188.44
230.901	191.44
231.136	174.44
231.37	213.44
231.604	186.44
231.838	190.44
232.072	185.44
232.306	196.44
232.541	203.44
232.775	205.44
233.009	192.44
233.243	186.44
233.477	175.44
233.711	201.44
233.945	203.44
234.179	188.44
234.413	211.44
234.647	212.44
234.881	222.44
235.115	197.44
235.349	226.44
235.583	204.44
235.817	212.44
236.051	211.44
236.285	217.44
236.519	219.44
236.753	245.44
236.987	219.44
237.221	219.44
237.455	232.44
237.689	226.44
237.922	228.44
238.156	227.44
238.39	234.44
238.624	246.44
238.858	237.44
239.091	241.44
239.325	237.44
239.559	250.44
239.793	263.44
240.027	259.44
240.26	248.44
240.494	280.44
240.728	269.44
240.961	276.44
241.195	280.44
241.429	264.44
241.662	291.44
241.896	282.44
242.13	280.44
242.363	296.44
242.597	294.44
242.83	310.44
243.064	297.44
243.298	290.44
243.531	310.44
243.765	302.44
243.998	302.44
244.232	292.44
244.465	307.44
244.699	320.44
244.932	313.44
245.166	335.44
245.399	321.44
245.633	313.44
245.866	345.44
246.099	326.44
246.333	339.44
246.566	326.44
246.8	328.44
247.033	343.44
247.266	333.44
247.5	340.44
247.733	336.44
247.966	334.44
248.2	372.44
248.433	367.44
248.666	379.44
248.899	365.44
249.133	369.44
249.366	383.44
249.599	395.44
249.832	376.44
250.066	383.44
250.299	363.44
250.532	364.44
250.765	387.44
250.998	411.44
251.231	381.44
251.465	413.44
251.698	407.44
251.931	408.44
252.164	389.44
252.397	406.44
252.63	407.44
252.863	419.44
253.096	440.44
253.329	409.44
253.562	415.44
253.795	413.44
254.028	436.44
254.261	420.44
254.494	435.44
254.727	429.44
254.96	425.44
255.193	451.44
255.426	445.44
255.659	432.44
255.892	457.44
256.124	444.44
256.357	437.44
256.59	456.44
256.823	445.44
257.056	458.44
257.289	467.44
257.521	459.44
257.754	457.44
257.987	481.44
258.22	464.44
258.452	473.44
258.685	461.44
258.918	477.44
259.151	493.44
259.383	493.44
259.616	477.44
259.849	508.44
260.081	484.44
260.314	489.44
260.547	484.44
260.779	512.44
261.012	489.44
261.244	510.44
261.477	521.44
261.71	510.44
261.942	515.44
262.175	524.44
262.407	553.44
262.64	536.44
262.872	540.44
263.105	506.44
263.337	525.44
263.57	523.44
263.802	524.44
264.035	536.44
264.267	557.44
264.499	515.44
264.732	545.44
264.964	573.44
265.197	567.44
265.429	554.44
265.661	559.44
265.894	560.44
266.126	569.44
266.358	551.44
266.591	553.44
266.823	564.44
267.055	544.44
267.287	580.44
267.52	563.44
267.752	554.44
267.984	577.44
268.216	592.44
268.448	578.44
268.681	580.44
268.913	576.44
269.145	597.44
269.377	590.44
269.609	588.44
269.841	597.44
270.073	598.44
270.306	601.44
270.538	586.44
270.77	585.44
271.002	619.44
271.234	621.44
271.466	628.44
271.698	620.44
271.93	635.44
272.162	620.44
272.394	621.44
272.626	636.44
272.858	635.44
273.09	645.44
273.322	635.44
273.553	652.44
273.785	664.44
274.017	644.44
274.249	661.44
274.481	639.44
274.713	637.44
274.945	655.44
275.176	685.44
275.408	661.44
275.64	667.44
275.872	682.44
276.104	663.44
276.335	688.44
276.567	672.44
276.799	667.44
277.031	688.44
277.262	688.44
277.494	692.44
277.726	719.44
277.957	677.44
278.189	705.44
278.421	714.44
278.652	712.44
278.884	703.44
279.115	720.44
279.347	737.44
279.579	720.44
279.81	712.44
280.042	704.44
280.273	729.44
280.505	710.44
280.736	731.44
280.968	758.44
281.199	763.44
281.431	727.44
281.662	753.44
281.894	779.44
282.125	724.44
282.356	776.44
282.588	773.44
282.819	747.44
283.051	743.44
283.282	744.44
283.513	787.44
283.745	791.44
283.976	784.44
284.207	777.44
284.439	777.44
284.67	796.44
284.901	799.44
285.132	794.44
285.364	781.44
285.595	795.44
285.826	782.44
286.057	775.44
286.288	787.44
286.52	811.44
286.751	789.44
286.982	804.44
287.213	824.44
287.444	815.44
287.675	834.44
287.906	826.44
288.138	800.44
288.369	849.44
288.6	831.44
288.831	838.44
289.062	805.44
289.293	803.44
289.524	815.44
289.755	840.44
289.986	828.44
290.217	807.44
290.448	835.44
290.679	834.44
290.91	842.44
291.141	844.44
291.371	856.44
291.602	841.44
291.833	859.44
292.064	844.44
292.295	835.44
292.526	851.44
292.757	830.44
292.987	868.44
293.218	869.44
293.449	855.44
293.68	860.44
293.91	863.44
294.141	861.44
294.372	871.44
294.603	879.44
294.833	863.44
295.064	873.44
295.295	875.44
295.525	871.44
295.756	883.44
295.987	868.44
296.217	883.44
296.448	877.44
296.679	886.44
296.909	894.44
297.14	888.44
297.37	919.44
297.601	899.44
297.831	898.44
298.062	878.44
298.292	930.44
298.523	930.44
298.753	949.44
298.984	917.44
299.214	907.44
299.445	916.44
299.675	935.44
299.905	929.44
300.136	909.44
300.366	954.44
300.597	933.44
300.827	955.44
301.057	922.44
301.288	974.44
301.518	947.44
301.748	992.44
301.979	971.44
302.209	990.44
302.439	974.44
302.669	964.44
302.9	960.44
303.13	951.44
303.36	938.44
303.59	982.44
303.82	967.44
304.051	955.44
304.281	966.44
304.511	961.44
304.741	967.44
304.971	953.44
305.201	1006.44
305.431	959.44
305.661	963.44
305.891	952.44
306.121	968.44
306.352	948.44
306.582	971.44
306.812	969.44
307.042	938.44
307.272	984.44
307.502	963.44
307.731	951.44
307.961	983.44
308.191	962.44
308.421	967.44
308.651	962.44
308.881	960.44
309.111	951.44
309.341	960.44
309.571	968.44
309.8	969.44
310.03	956.44
310.26	984.44
310.49	968.44
310.72	952.44
310.949	979.44
311.179	991.44
311.409	997.44
311.639	975.44
311.868	972.44
312.098	975.44
312.328	992.44
312.557	1015.44
312.787	1000.44
313.017	997.44
313.246	1001.44
313.476	1030.44
313.706	1045.44
313.935	1046.44
314.165	1018.44
314.394	1056.44
314.624	1043.44
314.853	1031.44
315.083	1041.44
315.312	1067.44
315.542	1049.44
315.771	1042.44
316.001	1023.44
316.23	1029.44
316.46	1051.44
316.689	1043.44
316.919	1022.44
317.148	1013.44
317.377	1039.44
317.607	1025.44
317.836	1014.44
318.065	1006.44
318.295	1014.44
318.524	1018.44
318.753	1043.44
318.983	1006.44
319.212	1017.44
319.441	1037.44
319.67	1013.44
319.9	1017.44
320.129	1018.44
320.358	1018.44
320.587	991.44
320.816	1066.44
321.046	1045.44
321.275	1051.44
321.504	1013.44
321.733	1002.44
321.962	1039.44
322.191	1030.44
322.42	1040.44
322.649	1022.44
322.878	1066.44
323.108	1051.44
323.337	1050.44
323.566	1090.44
323.795	1051.44
324.024	1091.44
324.253	1085.44
324.482	1084.44
324.71	1074.44
324.939	1091.44
325.168	1091.44
325.397	1075.44
325.626	1076.44
325.855	1085.44
326.084	1149.44
326.313	1116.44
326.542	1133.44
326.77	1154.44
326.999	1114.44
327.228	1132.44
327.457	1115.44
327.686	1117.44
327.914	1125.44
328.143	1123.44
328.372	1155.44
328.6	1132.44
328.829	1127.44
329.058	1130.44
329.287	1124.44
329.515	1137.44
329.744	1151.44
329.972	1173.44
330.201	1157.44
330.43	1159.44
330.658	1170.44
330.887	1161.44
331.115	1183.44
331.344	1202.44
331.572	1181.44
331.801	1209.44
332.03	1230.44
332.258	1244.44
332.486	1271.44
332.715	1269.44
332.943	1325.44
333.172	1351.44
333.4	1415.44
333.629	1435.44
333.857	1451.44
334.085	1432.44
334.314	1441.44
334.542	1429.44
334.771	1414.44
334.999	1403.44
335.227	1413.44
335.455	1363.44
335.684	1352.44
335.912	1369.44
336.14	1376.44
336.369	1396.44
336.597	1384.44
336.825	1319.44
337.053	1364.44
337.281	1324.44
337.51	1271.44
337.738	1267.44
337.966	1244.44
338.194	1259.44
338.422	1237.44
338.65	1247.44
338.878	1215.44
339.106	1216.44
339.334	1215.44
339.562	1243.44
339.79	1228.44
340.018	1188.44
340.246	1173.44
340.474	1205.44
340.702	1192.44
340.93	1205.44
341.158	1186.44
341.386	1188.44
341.614	1174.44
341.842	1170.44
342.07	1159.44
342.298	1183.44
342.526	1183.44
342.754	1179.44
342.981	1179.44
343.209	1190.44
343.437	1211.44
343.665	1303.44
343.893	1364.44
344.12	1382.44
344.348	1325.44
344.576	1311.44
344.804	1268.44
345.031	1268.44
345.259	1211.44
345.487	1217.44
345.714	1178.44
345.942	1189.44
346.17	1169.44
346.397	1173.44
346.625	1153.44
346.853	1133.44
347.08	1136.44
347.308	1138.44
347.535	1147.44
347.763	1151.44
347.99	1125.44
348.218	1126.44
348.445	1115.44
348.673	1148.44
348.9	1125.44
349.128	1124.44
349.355	1129.44
349.583	1111.44
349.81	1116.44
350.037	1092.44
350.265	1092.44
350.492	1102.44
350.72	1125.44
350.947	1098.44
351.174	1108.44
351.402	1117.44
351.629	1085.44
351.856	1089.44
352.083	1079.44
352.311	1101.44
352.538	1094.44
352.765	1080.44
352.992	1088.44
353.22	1054.44
353.447	1069.44
353.674	1081.44
353.901	1065.44
354.128	1084.44
354.355	1107.44
354.583	1068.44
354.81	1087.44
355.037	1092.44
355.264	1099.44
355.491	1097.44
355.718	1071.44
355.945	1124.44
356.172	1103.44
356.399	1123.44
356.626	1084.44
356.853	1104.44
357.08	1115.44
357.307	1091.44
357.534	1110.44
357.761	1092.44
357.988	1140.44
358.215	1104.44
358.441	1052.44
358.668	1080.44
358.895	1109.44
359.122	1111.44
359.349	1067.44
359.576	1120.44
359.802	1079.44
360.029	1095.44
360.256	1104.44
360.483	1104.44
360.709	1088.44
360.936	1085.44
361.163	1127.44
361.39	1081.44
361.616	1080.44
361.843	1090.44
362.07	1077.44
362.296	1080.44
362.523	1086.44
362.749	1088.44
362.976	1091.44
363.203	1122.44
363.429	1108.44
363.656	1068.44
363.882	1111.44
364.109	1105.44
364.335	1106.44
364.562	1075.44
364.788	1089.44
365.015	1118.44
365.241	1086.44
365.468	1070.44
365.694	1064.44
365.92	1093.44
366.147	1077.44
366.373	1119.44
366.599	1070.44
366.826	1103.44
367.052	1098.44
367.278	1092.44
367.505	1105.44
367.731	1117.44
367.957	1099.44
368.184	1119.44
368.41	1118.44
368.636	1107.44
368.862	1111.44
369.089	1140.44
369.315	1108.44
369.541	1125.44
369.767	1137.44
369.993	1137.44
370.219	1148.44
370.445	1157.44
370.672	1142.44
370.898	1153.44
371.124	1163.44
371.35	1173.44
371.576	1186.44
371.802	1192.44
372.028	1179.44
372.254	1199.44
372.48	1184.44
372.706	1225.44
372.932	1248.44
373.158	1220.44
373.384	1230.44
373.61	1208.44
373.835	1209.44
374.061	1247.44
374.287	1175.44
374.513	1201.44
374.739	1247.44
374.965	1304.44
375.191	1265.44
375.416	1281.44
375.642	1263.44
375.868	1231.44
376.094	1236.44
376.319	1215.44
376.545	1193.44
376.771	1157.44
376.997	1206.44
377.222	1190.44
377.448	1171.44
377.674	1217.44
377.899	1168.44
378.125	1186.44
378.35	1159.44
378.576	1146.44
378.802	1173.44
379.027	1183.44
379.253	1130.44
379.478	1190.44
379.704	1175.44
379.929	1180.44
380.155	1171.44
380.38	1200.44
380.606	1190.44
380.831	1167.44
381.057	1208.44
381.282	1170.44
381.507	1194.44
381.733	1183.44
381.958	1175.44
382.184	1181.44
382.409	1248.44
382.634	1222.44
382.86	1234.44
383.085	1249.44
383.31	1252.44
383.535	1288.44
383.761	1299.44
383.986	1324.44
384.211	1304.44
384.436	1359.44
384.662	1375.44
384.887	1342.44
385.112	1335.44
385.337	1423.44
385.562	1417.44
385.787	1368.44
386.013	1433.44
386.238	1411.44
386.463	1437.44
386.688	1458.44
386.913	1383.44
387.138	1393.44
387.363	1409.44
387.588	1441.44
387.813	1449.44
388.038	1406.44
388.263	1405.44
388.488	1419.44
388.713	1428.44
388.938	1439.44
389.163	1383.44
389.387	1403.44
389.612	1345.44
389.837	1407.44
390.062	1367.44
390.287	1354.44
390.512	1381.44
390.736	1394.44
390.961	1475.44
391.186	1460.44
391.411	1503.44
391.636	1501.44
391.86	1566.44
392.085	1561.44
392.31	1632.44
392.534	1519.44
392.759	1508.44
392.984	1527.44
393.208	1474.44
393.433	1460.44
393.658	1500.44
393.882	1483.44
394.107	1466.44
394.331	1479.44
394.556	1539.44
394.78	1517.44
395.005	1536.44
395.229	1533.44
395.454	1580.44
395.678	1570.44
395.903	1605.44
396.127	1556.44
396.352	1537.44
396.576	1516.44
396.801	1502.44
397.025	1540.44
397.249	1543.44
397.474	1593.44
397.698	1591.44
397.922	1598.44
398.147	1598.44
398.371	1620.44
398.595	1694.44
398.82	1751.44
399.044	1868.44
399.268	2003.44
399.492	2236.44
399.717	2375.44
399.941	2404.44
400.165	2244.44
400.389	2075.44
400.613	1947.44
400.837	1876.44
401.062	1785.44
401.286	1773.44
401.51	1764.44
401.734	1723.44
401.958	1734.44
402.182	1752.44
402.406	1772.44
402.63	1782.44
402.854	1788.44
403.078	1822.44
403.302	1809.44
403.526	1873.44
403.75	1881.44
403.974	1906.44
404.198	1902.44
404.422	1898.44
404.645	1964.44
404.869	1869.44
405.093	1916.44
405.317	1905.44
405.541	1876.44
405.765	1897.44
405.988	1901.44
406.212	1922.44
406.436	1924.44
406.66	1941.44
406.883	1979.44
407.107	2063.44
407.331	2131.44
407.555	2178.44
407.778	2182.44
408.002	2137.44
408.226	2119.44
408.449	2125.44
408.673	2020.44
408.896	1968.44
409.12	1932.44
409.344	1994.44
409.567	1977.44
409.791	1968.44
410.014	1941.44
410.238	1940.44
410.461	1913.44
410.685	1890.44
410.908	1901.44
411.132	1855.44
411.355	1819.44
411.578	1821.44
411.802	1809.44
412.025	1860.44
412.249	1878.44
412.472	1856.44
412.695	1797.44
412.919	1740.44
413.142	1727.44
413.365	1763.44
413.589	1773.44
413.812	1748.44
414.035	1776.44
414.258	1785.44
414.482	1744.44
414.705	1793.44
414.928	1758.44
415.151	1772.44
415.374	1757.44
415.597	1731.44
415.821	1677.44
416.044	1705.44
416.267	1721.44
416.49	1677.44
416.713	1679.44
416.936	1670.44
417.159	1655.44
417.382	1682.44
417.605	1672.44
417.828	1653.44
418.051	1687.44
418.274	1692.44
418.497	1671.44
418.72	1699.44
418.943	1743.44
419.166	1805.44
419.389	1948.44
419.611	1882.44
419.834	1845.44
420.057	1773.44
420.28	1729.44
420.503	1666.44
420.726	1664.44
420.948	1648.44
421.171	1721.44
421.394	1660.44
421.617	1661.44
421.839	1684.44
422.062	1695.44
422.285	1665.44
422.507	1695.44
422.73	1711.44
422.953	1676.44
423.175	1695.44
423.398	1699.44
423.621	1731.44
423.843	1788.44
424.066	1737.44
424.288	1744.44
424.511	1690.44
424.733	1714.44
424.956	1686.44
425.178	1676.44
425.401	1705.44
425.623	1692.44
425.846	1640.44
426.068	1630.44
426.291	1620.44
426.513	1656.44
426.735	1633.44
426.958	1611.44
427.18	1563.44
427.402	1583.44
427.625	1583.44
427.847	1549.44
428.069	1550.44
428.292	1567.44
428.514	1561.44
428.736	1551.44
428.958	1582.44
429.181	1504.44
429.403	1526.44
429.625	1514.44
429.847	1501.44
430.069	1523.44
430.292	1510.44
430.514	1499.44
430.736	1533.44
430.958	1555.44
431.18	1484.44
431.402	1527.44
431.624	1553.44
431.846	1533.44
432.068	1571.44
432.29	1565.44
432.512	1561.44
432.734	1567.44
432.956	1569.44
433.178	1594.44
433.4	1539.44
433.622	1537.44
433.844	1601.44
434.066	1598.44
434.287	1603.44
434.509	1628.44
434.731	1669.44
434.953	1667.44
435.175	1697.44
435.397	1686.44
435.618	1686.44
435.84	1623.44
436.062	1568.44
436.284	1559.44
436.505	1544.44
436.727	1540.44
436.949	1584.44
437.17	1548.44
437.392	1477.44
437.614	1480.44
437.835	1471.44
438.057	1479.44
438.278	1443.44
438.5	1463.44
438.721	1490.44
438.943	1515.44
439.165	1470.44
439.386	1483.44
439.608	1508.44
439.829	1493.44
440.05	1503.44
440.272	1515.44
440.493	1504.44
440.715	1559.44
440.936	1532.44
441.158	1593.44
441.379	1581.44
441.6	1620.44
441.822	1687.44
442.043	1672.44
442.264	1661.44
442.486	1601.44
442.707	1646.44
442.928	1620.44
443.149	1651.44
443.371	1626.44
443.592	1628.44
443.813	1646.44
444.034	1681.44
444.255	1760.44
444.476	1818.44
444.698	1876.44
444.919	1869.44
445.14	1970.44
445.361	1825.44
445.582	1678.44
445.803	1629.44
446.024	1591.44
446.245	1582.44
446.466	1573.44
446.687	1543.44
446.908	1512.44
447.129	1456.44
447.35	1469.44
447.571	1451.44
447.792	1432.44
448.013	1424.44
448.234	1414.44
448.455	1371.44
448.675	1389.44
448.896	1392.44
449.117	1358.44
449.338	1396.44
449.559	1375.44
449.779	1367.44
450	1352.44
450.221	1354.44
450.442	1403.44
450.662	1385.44
450.883	1397.44
451.104	1421.44
451.324	1358.44
451.545	1341.44
451.766	1372.44
451.986	1364.44
452.207	1347.44
452.428	1343.44
452.648	1344.44
452.869	1302.44
453.089	1330.44
453.31	1350.44
453.53	1309.44
453.751	1291.44
453.971	1304.44
454.192	1323.44
454.412	1289.44
454.633	1315.44
454.853	1324.44
455.073	1302.44
455.294	1291.44
455.514	1276.44
455.734	1290.44
455.955	1291.44
456.175	1287.44
456.395	1291.44
456.616	1287.44
456.836	1271.44
457.056	1286.44
457.276	1264.44
457.497	1315.44
457.717	1265.44
457.937	1319.44
458.157	1336.44
458.377	1350.44
458.598	1357.44
458.818	1383.44
459.038	1397.44
459.258	1491.44
459.478	1502.44
459.698	1554.44
459.918	1579.44
460.138	1625.44
460.358	1681.44
460.578	1710.44
460.798	1734.44
461.018	1740.44
461.238	1737.44
461.458	1708.44
461.678	1710.44
461.898	1741.44
462.118	1754.44
462.338	1846.44
462.558	1873.44
462.777	1954.44
462.997	2055.44
463.217	2182.44
463.437	2203.44
463.657	2093.44
463.876	1997.44
464.096	2022.44
464.316	1975.44
464.536	1963.44
464.755	1960.44
464.975	1856.44
465.195	1784.44
465.414	1710.44
465.634	1636.44
465.854	1573.44
466.073	1543.44
466.293	1515.44
466.512	1471.44
466.732	1451.44
466.951	1434.44
467.171	1443.44
467.391	1440.44
467.61	1393.44
467.829	1406.44
468.049	1431.44
468.268	1407.44
468.488	1376.44
468.707	1378.44
468.927	1388.44
469.146	1390.44
469.365	1411.44
469.585	1423.44
469.804	1438.44
470.023	1459.44
470.243	1457.44
470.462	1456.44
470.681	1483.44
470.901	1500.44
471.12	1479.44
471.339	1447.44
471.558	1375.44
471.777	1422.44
471.997	1413.44
472.216	1412.44
472.435	1401.44
472.654	1368.44
472.873	1361.44
473.092	1366.44
473.311	1352.44
473.53	1359.44
473.749	1373.44
473.968	1369.44
474.187	1344.44
474.406	1381.44
474.625	1377.44
474.844	1367.44
475.063	1382.44
475.282	1412.44
475.501	1359.44
475.72	1435.44
475.939	1435.44
476.158	1418.44
476.377	1422.44
476.596	1454.44
476.814	1473.44
477.033	1476.44
477.252	1484.44
477.471	1530.44
477.69	1562.44
477.908	1604.44
478.127	1597.44
478.346	1654.44
478.564	1680.44
478.783	1687.44
479.002	1732.44
479.22	1711.44
479.439	1705.44
479.658	1723.44
479.876	1732.44
480.095	1761.44
480.313	1796.44
480.532	1816.44
480.751	1791.44
480.969	1782.44
481.188	1765.44
481.406	1704.44
481.624	1705.44
481.843	1677.44
482.061	1693.44
482.28	1683.44
482.498	1669.44
482.717	1691.44
482.935	1689.44
483.153	1667.44
483.372	1679.44
483.59	1708.44
483.808	1678.44
484.027	1747.44
484.245	1729.44
484.463	1744.44
484.681	1777.44
484.9	1763.44
485.118	1795.44
485.336	1812.44
485.554	1782.44
485.772	1853.44
485.99	1828.44
486.209	1836.44
486.427	1869.44
486.645	1819.44
486.863	1854.44
487.081	1811.44
487.299	1795.44
487.517	1827.44
487.735	1760.44
487.953	1782.44
488.171	1797.44
488.389	1763.44
488.607	1773.44
488.825	1750.44
489.043	1753.44
489.261	1733.44
489.479	1711.44
489.696	1764.44
489.914	1731.44
490.132	1750.44
490.35	1776.44
490.568	1743.44
490.786	1729.44
491.003	1765.44
491.221	1732.44
491.439	1701.44
491.657	1716.44
491.874	1721.44
492.092	1689.44
492.31	1753.44
492.527	1745.44
492.745	1737.44
492.963	1724.44
493.18	1747.44
493.398	1751.44
493.615	1710.44
493.833	1785.44
494.05	1724.44
494.268	1795.44
494.485	1752.44
494.703	1764.44
494.92	1787.44
495.138	1746.44
495.355	1796.44
495.573	1791.44
495.79	1783.44
496.008	1837.44
496.225	1789.44
496.442	1791.44
496.66	1818.44
496.877	1865.44
497.094	1856.44
497.312	1898.44
497.529	1966.44
497.746	2020.44
497.963	2055.44
498.181	2176.44
498.398	2201.44
498.615	2339.44
498.832	2467.44
499.049	2575.44
499.267	2786.44
499.484	2995.44
499.701	3217.44
499.918	3504.44
500.135	3925.44
500.352	4310.44
500.569	4439.44
500.786	4365.44
501.003	4151.44
501.22	3812.44
501.437	3493.44
501.654	3168.44
501.871	2984.44
502.088	2723.44
502.305	2575.44
502.522	2438.44
502.739	2388.44
502.956	2253.44
503.172	2202.44
503.389	2092.44
503.606	2032.44
503.823	2018.44
504.04	1982.44
504.256	1979.44
504.473	1964.44
504.69	2011.44
504.907	1962.44
505.123	1821.44
505.34	1831.44
505.557	1728.44
505.773	1705.44
505.99	1665.44
506.207	1632.44
506.423	1603.44
506.64	1566.44
506.856	1570.44
507.073	1553.44
507.289	1524.44
507.506	1533.44
507.722	1504.44
507.939	1485.44
508.155	1497.44
508.372	1463.44
508.588	1472.44
508.805	1460.44
509.021	1420.44
509.238	1437.44
509.454	1426.44
509.67	1407.44
509.887	1406.44
510.103	1397.44
510.319	1407.44
510.536	1372.44
510.752	1372.44
510.968	1367.44
511.184	1385.44
511.401	1398.44
511.617	1354.44
511.833	1356.44
512.049	1351.44
512.265	1383.44
512.481	1366.44
512.698	1352.44
512.914	1356.44
513.13	1354.44
513.346	1349.44
513.562	1319.44
513.778	1385.44
513.994	1365.44
514.21	1396.44
514.426	1369.44
514.642	1377.44
514.858	1411.44
515.074	1417.44
515.29	1441.44
515.506	1442.44
515.721	1463.44
515.937	1451.44
516.153	1484.44
516.369	1517.44
516.585	1541.44
516.801	1606.44
517.016	1641.44
517.232	1703.44
517.448	1735.44
517.664	1822.44
517.879	1840.44
518.095	1780.44
518.311	1772.44
518.527	1691.44
518.742	1654.44
518.958	1598.44
519.173	1546.44
519.389	1538.44
519.605	1472.44
519.82	1429.44
520.036	1433.44
520.251	1411.44
520.467	1374.44
520.682	1374.44
520.898	1372.44
521.113	1351.44
521.329	1344.44
521.544	1306.44
521.76	1303.44
521.975	1300.44
522.19	1315.44
522.406	1258.44
522.621	1292.44
522.836	1313.44
523.052	1303.44
523.267	1291.44
523.482	1251.44
523.698	1256.44
523.913	1270.44
524.128	1236.44
524.343	1248.44
524.559	1263.44
524.774	1258.44
524.989	1220.44
525.204	1252.44
525.419	1203.44
525.634	1231.44
525.849	1190.44
526.064	1228.44
526.28	1233.44
526.495	1198.44
526.71	1200.44
526.925	1192.44
527.14	1217.44
527.355	1223.44
527.57	1207.44
527.785	1224.44
527.999	1225.44
528.214	1206.44
528.429	1220.44
528.644	1211.44
528.859	1189.44
529.074	1197.44
529.289	1205.44
529.503	1186.44
529.718	1228.44
529.933	1191.44
530.148	1199.44
530.363	1179.44
530.577	1217.44
530.792	1196.44
531.007	1197.44
531.221	1204.44
531.436	1162.44
531.651	1210.44
531.865	1173.44
532.08	1213.44
532.295	1198.44
532.509	1203.44
532.724	1192.44
532.938	1183.44
533.153	1191.44
533.367	1207.44
533.582	1206.44
533.796	1197.44
534.011	1163.44
534.225	1189.44
534.44	1188.44
534.654	1183.44
534.868	1185.44
535.083	1153.44
535.297	1168.44
535.511	1163.44
535.726	1159.44
535.94	1132.44
536.154	1120.44
536.369	1130.44
536.583	1141.44
536.797	1139.44
537.011	1083.44
537.225	1117.44
537.44	1122.44
537.654	1131.44
537.868	1120.44
538.082	1087.44
538.296	1094.44
538.51	1091.44
538.724	1099.44
538.938	1063.44
539.153	1087.44
539.367	1049.44
539.581	1075.44
539.795	1065.44
540.009	1091.44
540.222	1072.44
540.436	1082.44
540.65	1048.44
540.864	1049.44
541.078	1077.44
541.292	1071.44
541.506	1088.44
541.72	1083.44
541.934	1075.44
542.147	1079.44
542.361	1067.44
542.575	1044.44
542.789	1038.44
543.002	1040.44
543.216	1045.44
543.43	1053.44
543.644	1049.44
543.857	1047.44
544.071	1041.44
544.285	1069.44
544.498	1057.44
544.712	1054.44
544.925	1059.44
545.139	1089.44
545.352	1067.44
545.566	1062.44
545.779	1092.44
545.993	1061.44
546.206	1087.44
546.42	1089.44
546.633	1063.44
546.847	1044.44
547.06	1080.44
547.274	1049.44
547.487	1053.44
547.7	1091.44
547.914	1091.44
548.127	1092.44
548.34	1076.44
548.554	1055.44
548.767	1081.44
548.98	1106.44
549.193	1091.44
549.407	1095.44
549.62	1095.44
549.833	1088.44
550.046	1088.44
550.259	1080.44
550.473	1068.44
550.686	1080.44
550.899	1063.44
551.112	1059.44
551.325	1042.44
551.538	1044.44
551.751	1076.44
551.964	1090.44
552.177	1068.44
552.39	1094.44
552.603	1111.44
552.816	1094.44
553.029	1123.44
553.242	1140.44
553.455	1174.44
553.667	1181.44
553.88	1153.44
554.093	1069.44
554.306	1094.44
554.519	1046.44
554.732	1067.44
554.944	1049.44
555.157	1034.44
555.37	1012.44
555.583	984.44
555.795	983.44
556.008	987.44
556.221	945.44
556.433	984.44
556.646	940.44
556.859	935.44
557.071	933.44
557.284	944.44
557.496	915.44
557.709	922.44
557.921	914.44
558.134	889.44
558.346	908.44
558.559	939.44
558.771	909.44
558.984	917.44
559.196	931.44
559.409	895.44
559.621	911.44
559.833	885.44
560.046	877.44
560.258	880.44
560.47	900.44
560.683	888.44
560.895	874.44
561.107	892.44
561.32	871.44
561.532	881.44
561.744	894.44
561.956	884.44
562.168	902.44
562.381	863.44
562.593	885.44
562.805	898.44
563.017	920.44
563.229	884.44
563.441	895.44
563.653	896.44
563.865	911.44
564.077	910.44
564.289	944.44
564.501	940.44
564.713	916.44
564.925	939.44
565.137	979.44
565.349	1006.44
565.561	1015.44
565.773	1055.44
565.985	1076.44
566.197	1153.44
566.408	1193.44
566.62	1265.44
566.832	1322.44
567.044	1388.44
567.255	1383.44
567.467	1400.44
567.679	1449.44
567.891	1539.44
568.102	1546.44
568.314	1482.44
568.526	1364.44
568.737	1290.44
568.949	1175.44
569.161	1102.44
569.372	1038.44
569.584	979.44
569.795	975.44
570.007	960.44
570.218	908.44
570.43	917.44
570.641	927.44
570.853	892.44
571.064	900.44
571.276	904.44
571.487	876.44
571.698	880.44
571.91	840.44
572.121	812.44
572.333	787.44
572.544	791.44
572.755	777.44
572.966	763.44
573.178	759.44
573.389	741.44
573.6	740.44
573.811	740.44
574.023	733.44
574.234	721.44
574.445	717.44
574.656	720.44
574.867	731.44
575.078	729.44
575.289	721.44
575.501	707.44
575.712	705.44
575.923	712.44
576.134	701.44
576.345	665.44
576.556	694.44
576.767	698.44
576.978	673.44
577.188	699.44
577.399	695.44
577.61	677.44
577.821	656.44
578.032	653.44
578.243	675.44
578.454	662.44
578.665	635.44
578.875	634.44
579.086	637.44
579.297	639.44
579.508	642.44
579.718	632.44
579.929	631.44
580.14	633.44
580.35	628.44
580.561	640.44
580.772	625.44
580.982	636.44
581.193	629.44
581.403	636.44
581.614	614.44
581.825	599.44
582.035	645.44
582.246	611.44
582.456	602.44
582.667	591.44
582.877	593.44
583.087	615.44
583.298	599.44
583.508	587.44
583.719	607.44
583.929	604.44
584.139	599.44
584.35	603.44
584.56	599.44
584.77	598.44
584.981	600.44
585.191	586.44
585.401	589.44
585.611	572.44
585.821	584.44
586.032	566.44
586.242	580.44
586.452	574.44
586.662	590.44
586.872	559.44
587.082	560.44
587.292	583.44
587.502	580.44
587.713	580.44
587.923	583.44
588.133	560.44
588.343	583.44
588.553	571.44
588.762	608.44
588.972	591.44
589.182	597.44
589.392	603.44
589.602	573.44
589.812	577.44
590.022	600.44
590.232	584.44
590.441	576.44
590.651	566.44
590.861	583.44
591.071	572.44
591.281	599.44
591.49	600.44
591.7	606.44
591.91	612.44
592.119	623.44
592.329	638.44
592.539	636.44
592.748	663.44
592.958	636.44
593.167	697.44
593.377	705.44
593.587	692.44
593.796	679.44
594.006	715.44
594.215	708.44
594.424	687.44
594.634	684.44
594.843	659.44
595.053	651.44
595.262	637.44
595.472	611.44
595.681	608.44
595.89	588.44
596.1	578.44
596.309	545.44
596.518	560.44
596.727	569.44
596.937	549.44
597.146	528.44
597.355	528.44
597.564	517.44
597.774	529.44
597.983	523.44
598.192	523.44
598.401	505.44
598.61	497.44
598.819	482.44
599.028	481.44
599.237	480.44
599.446	507.44
599.655	488.44
599.864	480.44
600.073	466.44
600.282	495.44
600.491	470.44
600.7	482.44
600.909	489.44
601.118	493.44
601.327	484.44
601.536	487.44
601.745	459.44
601.953	475.44
602.162	469.44
602.371	462.44
602.58	443.44
602.789	459.44
602.997	453.44
603.206	473.44
603.415	448.44
603.623	452.44
603.832	441.44
604.041	453.44
604.249	446.44
604.458	445.44
604.666	441.44
604.875	452.44
605.084	439.44
605.292	456.44
605.501	451.44
605.709	435.44
605.918	445.44
606.126	448.44
606.334	430.44
606.543	410.44
606.751	404.44
606.96	449.44
607.168	433.44
607.376	429.44
607.585	422.44
607.793	439.44
608.001	410.44
608.21	409.44
608.418	421.44
608.626	418.44
608.834	419.44
609.043	425.44
609.251	433.44
609.459	430.44
609.667	430.44
609.875	427.44
610.083	432.44
610.291	410.44
610.499	405.44
610.707	431.44
610.916	419.44
611.124	400.44
611.332	411.44
611.54	390.44
611.748	411.44
611.955	406.44
612.163	413.44
612.371	421.44
612.579	410.44
612.787	429.44
612.995	405.44
613.203	408.44
613.411	396.44
613.618	401.44
613.826	395.44
614.034	403.44
614.242	413.44
614.449	405.44
614.657	393.44
614.865	406.44
615.072	399.44
615.28	423.44
615.488	422.44
615.695	415.44
615.903	434.44
616.111	389.44
616.318	407.44
616.526	427.44
616.733	407.44
616.941	382.44
617.148	391.44
617.356	415.44
617.563	391.44
617.771	406.44
617.978	398.44
618.185	408.44
618.393	397.44
618.6	391.44
618.807	411.44
619.015	391.44
619.222	402.44
619.429	407.44
619.637	391.44
619.844	382.44
620.051	393.44
620.258	380.44
620.466	363.44
620.673	363.44
620.88	350.44
621.087	369.44
621.294	385.44
621.501	359.44
621.708	378.44
621.915	377.44
622.122	358.44
622.329	373.44
622.536	352.44
622.743	373.44
622.95	376.44
623.157	351.44
623.364	379.44
623.571	384.44
623.778	345.44
623.985	366.44
624.192	346.44
624.399	348.44
624.606	374.44
624.812	357.44
625.019	363.44
625.226	338.44
625.433	337.44
625.639	338.44
625.846	349.44
626.053	337.44
626.259	331.44
626.466	334.44
626.673	339.44
626.879	335.44
627.086	334.44
627.293	348.44
627.499	319.44
627.706	353.44
627.912	345.44
628.119	334.44
628.325	330.44
628.532	322.44
628.738	337.44
628.945	331.44
629.151	327.44
629.357	343.44
629.564	333.44
629.77	335.44
629.976	336.44
630.183	315.44
630.389	299.44
630.595	311.44
630.802	318.44
631.008	309.44
631.214	320.44
631.42	323.44
631.627	308.44
631.833	317.44
632.039	318.44
632.245	312.44
632.451	323.44
632.657	315.44
632.863	336.44
633.069	318.44
633.275	312.44
633.481	296.44
633.688	293.44
633.893	302.44
634.099	313.44
634.305	272.44
634.511	294.44
634.717	311.44
634.923	285.44
635.129	293.44
635.335	286.44
635.541	291.44
635.747	291.44
635.952	293.44
636.158	301.44
636.364	284.44
636.57	290.44
636.775	291.44
636.981	300.44
637.187	288.44
637.392	295.44
637.598	294.44
637.804	280.44
638.009	286.44
638.215	280.44
638.421	291.44
638.626	284.44
638.832	280.44
639.037	282.44
639.243	272.44
639.448	287.44
639.654	280.44
639.859	285.44
640.065	272.44
640.27	281.44
640.475	257.44
640.681	300.44
640.886	274.44
641.091	296.44
641.297	275.44
641.502	266.44
641.707	263.44
641.913	261.44
642.118	279.44
642.323	279.44
642.528	272.44
642.733	272.44
642.939	263.44
643.144	273.44
643.349	282.44
643.554	280.44
643.759	273.44
643.964	269.44
644.169	274.44
644.374	281.44
644.579	273.44
644.784	269.44
644.989	257.44
645.194	276.44
645.399	275.44
645.604	271.44
645.809	275.44
646.014	281.44
646.219	290.44
646.423	285.44
646.628	293.44
646.833	280.44
647.038	289.44
647.243	264.44
647.447	286.44
647.652	281.44
647.857	283.44
648.062	295.44
648.266	287.44
648.471	314.44
648.676	301.44
648.88	280.44
649.085	313.44
649.289	301.44
649.494	288.44
649.698	284.44
649.903	301.44
650.107	287.44
650.312	281.44
650.516	295.44
650.721	288.44
650.925	290.44
651.13	269.44
651.334	288.44
651.539	254.44
651.743	265.44
651.947	267.44
652.152	273.44
652.356	256.44
652.56	264.44
652.764	250.44
652.969	276.44
653.173	264.44
653.377	259.44
653.581	252.44
653.785	265.44
653.99	251.44
654.194	270.44
654.398	269.44
654.602	283.44
654.806	278.44
655.01	273.44
655.214	285.44
655.418	304.44
655.622	295.44
655.826	331.44
656.03	333.44
656.234	370.44
656.438	364.44
656.642	385.44
656.846	347.44
657.049	320.44
657.253	297.44
657.457	256.44
657.661	237.44
657.865	227.44
658.068	211.44
658.272	192.44
658.476	189.44
658.68	172.44
658.883	145.44
659.087	152.44
659.291	155.44
659.494	135.44
659.698	137.44
659.901	135.44
660.105	137.44
660.309	131.44
660.512	116.44
660.716	118.44
660.919	120.44
661.123	131.44
661.326	106.44
661.53	101.44
661.733	110.44
661.936	96.44
662.14	84.44
662.343	107.44
662.546	87.44
662.75	77.44
662.953	98.44
663.156	99.44
663.36	87.44
663.563	87.44
663.766	86.44
663.969	94.44
664.173	87.44
664.376	78.44
664.579	95.44
664.782	93.44
664.985	85.44
665.188	87.44
665.391	86.44
665.594	96.44
665.797	83.44
666	95.44
666.203	104.44
666.406	85.44
666.609	74.44
666.812	100.44
667.015	107.44
667.218	87.44
667.421	86.44
667.624	71.44
667.827	82.44
668.03	92.44
668.232	84.44
668.435	87.44
668.638	90.44
668.841	101.44
669.043	95.44
669.246	89.44
669.449	84.44
669.651	92.44
669.854	89.44
670.057	81.44
670.259	99.44
670.462	77.44
670.665	88.44
670.867	85.44
671.07	91.44
671.272	85.44
671.475	81.44
671.677	82.44
671.88	70.44
672.082	85.44
672.284	94.44
672.487	89.44
672.689	86.44
672.892	80.44
