Data from NiCl2@0.25M.TitratingCurve.Agarose3%dH2O.NegLispCup.LampEnergy10.LIBS07252019_HRD10591_18-23-07-573.txt Node
Date: Thu Jul 25 18:23:07 EDT 2019
User: cochatt
Spectrometer: HR+D1059
Trigger mode: 1
Integration Time (sec): 1.000000E-1
Scans to average: 1
Electric dark correction enabled: true
Nonlinearity correction enabled: false
Boxcar width: 0
XAxis mode: Wavelengths
Number of Pixels in Spectrum: 2048
>>>>>Begin Spectral Data<<<<<
223.165	-17.06
223.4	-17.06
223.635	-17.06
223.869	-22.06
224.104	-16.06
224.338	-26.06
224.573	-20.06
224.808	-4.06
225.042	-12.06
225.277	-0.06
225.511	-11.06
225.746	27.94
225.98	3.94
226.215	14.94
226.449	19.94
226.683	23.94
226.918	13.94
227.152	23.94
227.387	41.94
227.621	44.94
227.856	48.94
228.09	37.94
228.324	46.94
228.559	48.94
228.793	70.94
229.027	96.94
229.262	115.94
229.496	107.94
229.73	114.94
229.964	100.94
230.199	131.94
230.433	112.94
230.667	129.94
230.901	115.94
231.136	123.94
231.37	120.94
231.604	131.94
231.838	126.94
232.072	127.94
232.306	132.94
232.541	136.94
232.775	128.94
233.009	123.94
233.243	145.94
233.477	123.94
233.711	124.94
233.945	131.94
234.179	131.94
234.413	146.94
234.647	139.94
234.881	126.94
235.115	139.94
235.349	141.94
235.583	138.94
235.817	144.94
236.051	144.94
236.285	134.94
236.519	122.94
236.753	138.94
236.987	141.94
237.221	134.94
237.455	133.94
237.689	144.94
237.922	145.94
238.156	150.94
238.39	127.94
238.624	137.94
238.858	136.94
239.091	126.94
239.325	158.94
239.559	154.94
239.793	168.94
240.027	135.94
240.26	141.94
240.494	136.94
240.728	139.94
240.961	147.94
241.195	146.94
241.429	157.94
241.662	158.94
241.896	165.94
242.13	174.94
242.363	153.94
242.597	144.94
242.83	166.94
243.064	167.94
243.298	164.94
243.531	166.94
243.765	168.94
243.998	172.94
244.232	176.94
244.465	166.94
244.699	153.94
244.932	168.94
245.166	189.94
245.399	184.94
245.633	191.94
245.866	188.94
246.099	185.94
246.333	178.94
246.566	178.94
246.8	163.94
247.033	171.94
247.266	159.94
247.5	169.94
247.733	185.94
247.966	194.94
248.2	162.94
248.433	190.94
248.666	195.94
248.899	185.94
249.133	190.94
249.366	206.94
249.599	198.94
249.832	206.94
250.066	194.94
250.299	188.94
250.532	197.94
250.765	205.94
250.998	201.94
251.231	207.94
251.465	206.94
251.698	201.94
251.931	188.94
252.164	207.94
252.397	200.94
252.63	206.94
252.863	213.94
253.096	217.94
253.329	215.94
253.562	208.94
253.795	221.94
254.028	237.94
254.261	237.94
254.494	227.94
254.727	231.94
254.96	208.94
255.193	213.94
255.426	219.94
255.659	224.94
255.892	215.94
256.124	235.94
256.357	229.94
256.59	236.94
256.823	225.94
257.056	229.94
257.289	223.94
257.521	244.94
257.754	219.94
257.987	232.94
258.22	233.94
258.452	241.94
258.685	225.94
258.918	244.94
259.151	227.94
259.383	248.94
259.616	240.94
259.849	231.94
260.081	251.94
260.314	251.94
260.547	239.94
260.779	243.94
261.012	247.94
261.244	255.94
261.477	253.94
261.71	257.94
261.942	256.94
262.175	245.94
262.407	267.94
262.64	267.94
262.872	255.94
263.105	251.94
263.337	262.94
263.57	245.94
263.802	269.94
264.035	260.94
264.267	260.94
264.499	275.94
264.732	275.94
264.964	270.94
265.197	250.94
265.429	281.94
265.661	272.94
265.894	272.94
266.126	281.94
266.358	279.94
266.591	282.94
266.823	290.94
267.055	281.94
267.287	289.94
267.52	285.94
267.752	267.94
267.984	284.94
268.216	294.94
268.448	277.94
268.681	303.94
268.913	294.94
269.145	288.94
269.377	289.94
269.609	292.94
269.841	291.94
270.073	291.94
270.306	292.94
270.538	301.94
270.77	308.94
271.002	295.94
271.234	287.94
271.466	298.94
271.698	299.94
271.93	300.94
272.162	297.94
272.394	305.94
272.626	309.94
272.858	316.94
273.09	303.94
273.322	299.94
273.553	304.94
273.785	301.94
274.017	308.94
274.249	323.94
274.481	302.94
274.713	334.94
274.945	321.94
275.176	314.94
275.408	320.94
275.64	314.94
275.872	321.94
276.104	334.94
276.335	338.94
276.567	322.94
276.799	331.94
277.031	328.94
277.262	327.94
277.494	335.94
277.726	331.94
277.957	321.94
278.189	326.94
278.421	337.94
278.652	336.94
278.884	332.94
279.115	352.94
279.347	355.94
279.579	348.94
279.81	348.94
280.042	340.94
280.273	344.94
280.505	349.94
280.736	363.94
280.968	361.94
281.199	352.94
281.431	355.94
281.662	343.94
281.894	349.94
282.125	344.94
282.356	359.94
282.588	358.94
282.819	360.94
283.051	363.94
283.282	353.94
283.513	382.94
283.745	381.94
283.976	364.94
284.207	382.94
284.439	375.94
284.67	377.94
284.901	357.94
285.132	373.94
285.364	373.94
285.595	375.94
285.826	371.94
286.057	377.94
286.288	367.94
286.52	377.94
286.751	374.94
286.982	401.94
287.213	378.94
287.444	395.94
287.675	379.94
287.906	392.94
288.138	367.94
288.369	394.94
288.6	399.94
288.831	397.94
289.062	381.94
289.293	412.94
289.524	402.94
289.755	397.94
289.986	400.94
290.217	406.94
290.448	407.94
290.679	389.94
290.91	413.94
291.141	401.94
291.371	406.94
291.602	399.94
291.833	403.94
292.064	395.94
292.295	404.94
292.526	401.94
292.757	415.94
292.987	393.94
293.218	391.94
293.449	419.94
293.68	402.94
293.91	401.94
294.141	408.94
294.372	393.94
294.603	413.94
294.833	414.94
295.064	440.94
295.295	421.94
295.525	413.94
295.756	425.94
295.987	402.94
296.217	408.94
296.448	415.94
296.679	402.94
296.909	427.94
297.14	419.94
297.37	441.94
297.601	441.94
297.831	432.94
298.062	415.94
298.292	439.94
298.523	440.94
298.753	443.94
298.984	445.94
299.214	447.94
299.445	423.94
299.675	436.94
299.905	437.94
300.136	443.94
300.366	423.94
300.597	458.94
300.827	466.94
301.057	476.94
301.288	466.94
301.518	472.94
301.748	469.94
301.979	475.94
302.209	474.94
302.439	455.94
302.669	454.94
302.9	448.94
303.13	455.94
303.36	459.94
303.59	457.94
303.82	453.94
304.051	466.94
304.281	474.94
304.511	458.94
304.741	456.94
304.971	465.94
305.201	471.94
305.431	463.94
305.661	476.94
305.891	477.94
306.121	461.94
306.352	444.94
306.582	440.94
306.812	444.94
307.042	443.94
307.272	440.94
307.502	455.94
307.731	450.94
307.961	462.94
308.191	452.94
308.421	453.94
308.651	432.94
308.881	449.94
309.111	459.94
309.341	448.94
309.571	471.94
309.8	459.94
310.03	483.94
310.26	472.94
310.49	461.94
310.72	439.94
310.949	455.94
311.179	456.94
311.409	472.94
311.639	471.94
311.868	473.94
312.098	476.94
312.328	472.94
312.557	472.94
312.787	481.94
313.017	493.94
313.246	488.94
313.476	474.94
313.706	470.94
313.935	480.94
314.165	504.94
314.394	492.94
314.624	480.94
314.853	499.94
315.083	496.94
315.312	483.94
315.542	489.94
315.771	478.94
316.001	465.94
316.23	465.94
316.46	483.94
316.689	469.94
316.919	489.94
317.148	493.94
317.377	493.94
317.607	479.94
317.836	484.94
318.065	467.94
318.295	469.94
318.524	471.94
318.753	488.94
318.983	492.94
319.212	475.94
319.441	509.94
319.67	461.94
319.9	501.94
320.129	497.94
320.358	472.94
320.587	468.94
320.816	493.94
321.046	478.94
321.275	488.94
321.504	479.94
321.733	477.94
321.962	495.94
322.191	462.94
322.42	480.94
322.649	502.94
322.878	485.94
323.108	501.94
323.337	493.94
323.566	506.94
323.795	516.94
324.024	494.94
324.253	500.94
324.482	488.94
324.71	511.94
324.939	519.94
325.168	510.94
325.397	493.94
325.626	521.94
325.855	501.94
326.084	544.94
326.313	512.94
326.542	540.94
326.77	522.94
326.999	541.94
327.228	512.94
327.457	518.94
327.686	508.94
327.914	529.94
328.143	516.94
328.372	536.94
328.6	537.94
328.829	549.94
329.058	517.94
329.287	519.94
329.515	532.94
329.744	548.94
329.972	553.94
330.201	554.94
330.43	541.94
330.658	521.94
330.887	539.94
331.115	536.94
331.344	575.94
331.572	563.94
331.801	566.94
332.03	612.94
332.258	616.94
332.486	583.94
332.715	623.94
332.943	643.94
333.172	671.94
333.4	691.94
333.629	693.94
333.857	673.94
334.085	683.94
334.314	680.94
334.542	688.94
334.771	658.94
334.999	661.94
335.227	639.94
335.455	655.94
335.684	638.94
335.912	635.94
336.14	650.94
336.369	630.94
336.597	643.94
336.825	641.94
337.053	622.94
337.281	607.94
337.51	625.94
337.738	619.94
337.966	597.94
338.194	577.94
338.422	590.94
338.65	580.94
338.878	555.94
339.106	563.94
339.334	591.94
339.562	596.94
339.79	579.94
340.018	557.94
340.246	569.94
340.474	534.94
340.702	573.94
340.93	561.94
341.158	571.94
341.386	554.94
341.614	555.94
341.842	571.94
342.07	546.94
342.298	552.94
342.526	551.94
342.754	570.94
342.981	565.94
343.209	579.94
343.437	588.94
343.665	607.94
343.893	651.94
344.12	666.94
344.348	619.94
344.576	629.94
344.804	601.94
345.031	581.94
345.259	587.94
345.487	571.94
345.714	558.94
345.942	576.94
346.17	569.94
346.397	566.94
346.625	552.94
346.853	557.94
347.08	524.94
347.308	556.94
347.535	548.94
347.763	541.94
347.99	553.94
348.218	535.94
348.445	527.94
348.673	549.94
348.9	519.94
349.128	532.94
349.355	542.94
349.583	529.94
349.81	527.94
350.037	537.94
350.265	529.94
350.492	524.94
350.72	514.94
350.947	519.94
351.174	513.94
351.402	517.94
351.629	523.94
351.856	543.94
352.083	536.94
352.311	545.94
352.538	523.94
352.765	519.94
352.992	533.94
353.22	534.94
353.447	525.94
353.674	503.94
353.901	511.94
354.128	499.94
354.355	517.94
354.583	519.94
354.81	500.94
355.037	531.94
355.264	541.94
355.491	543.94
355.718	530.94
355.945	511.94
356.172	527.94
356.399	520.94
356.626	530.94
356.853	517.94
357.08	521.94
357.307	526.94
357.534	524.94
357.761	538.94
357.988	521.94
358.215	517.94
358.441	522.94
358.668	515.94
358.895	516.94
359.122	528.94
359.349	522.94
359.576	532.94
359.802	540.94
360.029	526.94
360.256	537.94
360.483	513.94
360.709	516.94
360.936	519.94
361.163	522.94
361.39	534.94
361.616	519.94
361.843	532.94
362.07	542.94
362.296	524.94
362.523	511.94
362.749	525.94
362.976	519.94
363.203	515.94
363.429	521.94
363.656	529.94
363.882	521.94
364.109	529.94
364.335	518.94
364.562	517.94
364.788	509.94
365.015	521.94
365.241	509.94
365.468	523.94
365.694	516.94
365.92	535.94
366.147	531.94
366.373	523.94
366.599	528.94
366.826	529.94
367.052	528.94
367.278	532.94
367.505	521.94
367.731	541.94
367.957	528.94
368.184	509.94
368.41	551.94
368.636	525.94
368.862	539.94
369.089	552.94
369.315	549.94
369.541	538.94
369.767	550.94
369.993	577.94
370.219	557.94
370.445	533.94
370.672	556.94
370.898	531.94
371.124	577.94
371.35	548.94
371.576	567.94
371.802	583.94
372.028	569.94
372.254	555.94
372.48	592.94
372.706	573.94
372.932	585.94
373.158	588.94
373.384	575.94
373.61	563.94
373.835	587.94
374.061	592.94
374.287	571.94
374.513	575.94
374.739	613.94
374.965	619.94
375.191	615.94
375.416	609.94
375.642	612.94
375.868	604.94
376.094	597.94
376.319	573.94
376.545	597.94
376.771	588.94
376.997	575.94
377.222	576.94
377.448	565.94
377.674	575.94
377.899	555.94
378.125	575.94
378.35	566.94
378.576	563.94
378.802	574.94
379.027	554.94
379.253	552.94
379.478	546.94
379.704	579.94
379.929	588.94
380.155	581.94
380.38	565.94
380.606	538.94
380.831	570.94
381.057	566.94
381.282	558.94
381.507	560.94
381.733	574.94
381.958	577.94
382.184	585.94
382.409	588.94
382.634	579.94
382.86	600.94
383.085	616.94
383.31	600.94
383.535	629.94
383.761	628.94
383.986	622.94
384.211	634.94
384.436	629.94
384.662	645.94
384.887	670.94
385.112	667.94
385.337	647.94
385.562	639.94
385.787	662.94
386.013	677.94
386.238	645.94
386.463	691.94
386.688	676.94
386.913	655.94
387.138	678.94
387.363	674.94
387.588	661.94
387.813	657.94
388.038	653.94
388.263	670.94
388.488	663.94
388.713	647.94
388.938	648.94
389.163	655.94
389.387	651.94
389.612	631.94
389.837	659.94
390.062	631.94
390.287	651.94
390.512	663.94
390.736	670.94
390.961	684.94
391.186	680.94
391.411	685.94
391.636	719.94
391.86	732.94
392.085	741.94
392.31	757.94
392.534	717.94
392.759	697.94
392.984	704.94
393.208	711.94
393.433	710.94
393.658	710.94
393.882	717.94
394.107	680.94
394.331	713.94
394.556	717.94
394.78	730.94
395.005	707.94
395.229	727.94
395.454	740.94
395.678	743.94
395.903	776.94
396.127	725.94
396.352	701.94
396.576	710.94
396.801	741.94
397.025	711.94
397.249	741.94
397.474	776.94
397.698	758.94
397.922	751.94
398.147	741.94
398.371	767.94
398.595	797.94
398.82	808.94
399.044	884.94
399.268	957.94
399.492	1067.94
399.717	1134.94
399.941	1165.94
400.165	1049.94
400.389	955.94
400.613	897.94
400.837	852.94
401.062	869.94
401.286	828.94
401.51	809.94
401.734	837.94
401.958	856.94
402.182	832.94
402.406	849.94
402.63	865.94
402.854	877.94
403.078	887.94
403.302	891.94
403.526	904.94
403.75	912.94
403.974	935.94
404.198	943.94
404.422	940.94
404.645	914.94
404.869	877.94
405.093	896.94
405.317	921.94
405.541	903.94
405.765	870.94
405.988	903.94
406.212	885.94
406.436	919.94
406.66	900.94
406.883	937.94
407.107	990.94
407.331	1029.94
407.555	1049.94
407.778	1059.94
408.002	1005.94
408.226	997.94
408.449	975.94
408.673	951.94
408.896	954.94
409.12	960.94
409.344	952.94
409.567	894.94
409.791	935.94
410.014	925.94
410.238	909.94
410.461	940.94
410.685	925.94
410.908	891.94
411.132	869.94
411.355	864.94
411.578	868.94
411.802	857.94
412.025	878.94
412.249	868.94
412.472	861.94
412.695	873.94
412.919	836.94
413.142	858.94
413.365	863.94
413.589	819.94
413.812	837.94
414.035	831.94
414.258	827.94
414.482	867.94
414.705	841.94
414.928	846.94
415.151	824.94
415.374	828.94
415.597	813.94
415.821	835.94
416.044	814.94
416.267	823.94
416.49	811.94
416.713	798.94
416.936	815.94
417.159	832.94
417.382	796.94
417.605	822.94
417.828	831.94
418.051	827.94
418.274	848.94
418.497	784.94
418.72	845.94
418.943	840.94
419.166	852.94
419.389	916.94
419.611	889.94
419.834	854.94
420.057	849.94
420.28	844.94
420.503	785.94
420.726	812.94
420.948	805.94
421.171	805.94
421.394	821.94
421.617	804.94
421.839	788.94
422.062	807.94
422.285	817.94
422.507	814.94
422.73	830.94
422.953	822.94
423.175	810.94
423.398	867.94
423.621	847.94
423.843	867.94
424.066	867.94
424.288	840.94
424.511	837.94
424.733	828.94
424.956	844.94
425.178	814.94
425.401	814.94
425.623	801.94
425.846	799.94
426.068	805.94
426.291	786.94
426.513	778.94
426.735	762.94
426.958	747.94
427.18	757.94
427.402	751.94
427.625	757.94
427.847	750.94
428.069	739.94
428.292	734.94
428.514	747.94
428.736	736.94
428.958	728.94
429.181	746.94
429.403	729.94
429.625	723.94
429.847	721.94
430.069	736.94
430.292	736.94
430.514	716.94
430.736	732.94
430.958	715.94
431.18	719.94
431.402	725.94
431.624	730.94
431.846	726.94
432.068	724.94
432.29	737.94
432.512	727.94
432.734	750.94
432.956	720.94
433.178	756.94
433.4	745.94
433.622	772.94
433.844	754.94
434.066	747.94
434.287	791.94
434.509	767.94
434.731	794.94
434.953	783.94
435.175	804.94
435.397	801.94
435.618	789.94
435.84	776.94
436.062	758.94
436.284	728.94
436.505	736.94
436.727	756.94
436.949	746.94
437.17	737.94
437.392	727.94
437.614	727.94
437.835	709.94
438.057	708.94
438.278	718.94
438.5	704.94
438.721	691.94
438.943	707.94
439.165	718.94
439.386	701.94
439.608	735.94
439.829	744.94
440.05	727.94
440.272	726.94
440.493	727.94
440.715	727.94
440.936	758.94
441.158	773.94
441.379	789.94
441.6	829.94
441.822	823.94
442.043	810.94
442.264	829.94
442.486	799.94
442.707	799.94
442.928	788.94
443.149	783.94
443.371	795.94
443.592	780.94
443.813	832.94
444.034	809.94
444.255	839.94
444.476	846.94
444.698	905.94
444.919	929.94
445.14	1023.94
445.361	935.94
445.582	833.94
445.803	796.94
446.024	761.94
446.245	779.94
446.466	769.94
446.687	752.94
446.908	751.94
447.129	720.94
447.35	732.94
447.571	721.94
447.792	690.94
448.013	688.94
448.234	693.94
448.455	677.94
448.675	671.94
448.896	680.94
449.117	689.94
449.338	694.94
449.559	665.94
449.779	680.94
450	682.94
450.221	682.94
450.442	679.94
450.662	671.94
450.883	696.94
451.104	705.94
451.324	667.94
451.545	702.94
451.766	672.94
451.986	667.94
452.207	683.94
452.428	698.94
452.648	687.94
452.869	663.94
453.089	655.94
453.31	665.94
453.53	686.94
453.751	659.94
453.971	621.94
454.192	653.94
454.412	641.94
454.633	635.94
454.853	641.94
455.073	618.94
455.294	641.94
455.514	648.94
455.734	635.94
455.955	637.94
456.175	645.94
456.395	654.94
456.616	606.94
456.836	638.94
457.056	643.94
457.276	631.94
457.497	646.94
457.717	652.94
457.937	639.94
458.157	661.94
458.377	669.94
458.598	665.94
458.818	651.94
459.038	696.94
459.258	727.94
459.478	736.94
459.698	735.94
459.918	781.94
460.138	815.94
460.358	823.94
460.578	823.94
460.798	841.94
461.018	848.94
461.238	839.94
461.458	817.94
461.678	814.94
461.898	871.94
462.118	880.94
462.338	911.94
462.558	947.94
462.777	971.94
462.997	1024.94
463.217	1068.94
463.437	1099.94
463.657	1033.94
463.876	995.94
464.096	959.94
464.316	971.94
464.536	958.94
464.755	958.94
464.975	900.94
465.195	886.94
465.414	846.94
465.634	807.94
465.854	781.94
466.073	727.94
466.293	738.94
466.512	734.94
466.732	703.94
466.951	724.94
467.171	690.94
467.391	681.94
467.61	703.94
467.829	689.94
468.049	694.94
468.268	693.94
468.488	669.94
468.707	651.94
468.927	691.94
469.146	701.94
469.365	685.94
469.585	700.94
469.804	719.94
470.023	731.94
470.243	722.94
470.462	730.94
470.681	745.94
470.901	731.94
471.12	695.94
471.339	719.94
471.558	727.94
471.777	697.94
471.997	680.94
472.216	695.94
472.435	699.94
472.654	673.94
472.873	658.94
473.092	666.94
473.311	634.94
473.53	663.94
473.749	683.94
473.968	657.94
474.187	662.94
474.406	681.94
474.625	669.94
474.844	665.94
475.063	681.94
475.282	677.94
475.501	668.94
475.72	691.94
475.939	697.94
476.158	697.94
476.377	705.94
476.596	703.94
476.814	707.94
477.033	687.94
477.252	717.94
477.471	755.94
477.69	738.94
477.908	761.94
478.127	782.94
478.346	788.94
478.564	821.94
478.783	830.94
479.002	823.94
479.22	823.94
479.439	813.94
479.658	819.94
479.876	860.94
480.095	845.94
480.313	855.94
480.532	878.94
480.751	869.94
480.969	856.94
481.188	815.94
481.406	797.94
481.624	779.94
481.843	765.94
482.061	748.94
482.28	740.94
482.498	759.94
482.717	745.94
482.935	773.94
483.153	769.94
483.372	785.94
483.59	781.94
483.808	770.94
484.027	783.94
484.245	761.94
484.463	753.94
484.681	797.94
484.9	814.94
485.118	788.94
485.336	775.94
485.554	805.94
485.772	823.94
485.99	799.94
486.209	789.94
486.427	787.94
486.645	813.94
486.863	812.94
487.081	808.94
487.299	813.94
487.517	822.94
487.735	810.94
487.953	828.94
488.171	808.94
488.389	806.94
488.607	794.94
488.825	783.94
489.043	779.94
489.261	804.94
489.479	779.94
489.696	794.94
489.914	798.94
490.132	797.94
490.35	803.94
490.568	813.94
490.786	807.94
491.003	830.94
491.221	840.94
491.439	818.94
491.657	841.94
491.874	816.94
492.092	829.94
492.31	832.94
492.527	831.94
492.745	832.94
492.963	839.94
493.18	847.94
493.398	862.94
493.615	851.94
493.833	844.94
494.05	829.94
494.268	859.94
494.485	886.94
494.703	883.94
494.92	867.94
495.138	883.94
495.355	853.94
495.573	852.94
495.79	897.94
496.008	885.94
496.225	875.94
496.442	894.94
496.66	895.94
496.877	917.94
497.094	914.94
497.312	940.94
497.529	981.94
497.746	958.94
497.963	988.94
498.181	1048.94
498.398	1067.94
498.615	1125.94
498.832	1207.94
499.049	1297.94
499.267	1366.94
499.484	1486.94
499.701	1637.94
499.918	1755.94
500.135	1996.94
500.352	2197.94
500.569	2257.94
500.786	2263.94
501.003	2129.94
501.22	1924.94
501.437	1739.94
501.654	1543.94
501.871	1418.94
502.088	1328.94
502.305	1269.94
502.522	1199.94
502.739	1126.94
502.956	1091.94
503.172	1101.94
503.389	1045.94
503.606	981.94
503.823	960.94
504.04	963.94
504.256	1000.94
504.473	1002.94
504.69	1002.94
504.907	976.94
505.123	920.94
505.34	903.94
505.557	851.94
505.773	806.94
505.99	830.94
506.207	791.94
506.423	785.94
506.64	776.94
506.856	739.94
507.073	785.94
507.289	777.94
507.506	791.94
507.722	767.94
507.939	759.94
508.155	733.94
508.372	720.94
508.588	750.94
508.805	734.94
509.021	713.94
509.238	725.94
509.454	708.94
509.67	700.94
509.887	727.94
510.103	705.94
510.319	721.94
510.536	722.94
510.752	711.94
510.968	671.94
511.184	688.94
511.401	685.94
511.617	679.94
511.833	711.94
512.049	680.94
512.265	695.94
512.481	703.94
512.698	675.94
512.914	671.94
513.13	704.94
513.346	702.94
513.562	680.94
513.778	707.94
513.994	714.94
514.21	728.94
514.426	727.94
514.642	698.94
514.858	710.94
515.074	704.94
515.29	688.94
515.506	721.94
515.721	733.94
515.937	772.94
516.153	748.94
516.369	782.94
516.585	764.94
516.801	830.94
517.016	814.94
517.232	870.94
517.448	891.94
517.664	914.94
517.879	894.94
518.095	898.94
518.311	898.94
518.527	870.94
518.742	842.94
518.958	818.94
519.173	790.94
519.389	789.94
519.605	739.94
519.82	727.94
520.036	757.94
520.251	740.94
520.467	705.94
520.682	714.94
520.898	702.94
521.113	696.94
521.329	680.94
521.544	678.94
521.76	670.94
521.975	661.94
522.19	649.94
522.406	665.94
522.621	683.94
522.836	650.94
523.052	668.94
523.267	667.94
523.482	624.94
523.698	638.94
523.913	663.94
524.128	641.94
524.343	647.94
524.559	633.94
524.774	636.94
524.989	648.94
525.204	685.94
525.419	620.94
525.634	637.94
525.849	641.94
526.064	639.94
526.28	643.94
526.495	614.94
526.71	641.94
526.925	621.94
527.14	645.94
527.355	634.94
527.57	640.94
527.785	624.94
527.999	627.94
528.214	632.94
528.429	638.94
528.644	614.94
528.859	609.94
529.074	613.94
529.289	620.94
529.503	664.94
529.718	646.94
529.933	624.94
530.148	606.94
530.363	630.94
530.577	608.94
530.792	611.94
531.007	633.94
531.221	606.94
531.436	629.94
531.651	635.94
531.865	617.94
532.08	615.94
532.295	627.94
532.509	614.94
532.724	608.94
532.938	617.94
533.153	613.94
533.367	631.94
533.582	627.94
533.796	608.94
534.011	590.94
534.225	615.94
534.44	611.94
534.654	617.94
534.868	618.94
535.083	585.94
535.297	562.94
535.511	576.94
535.726	618.94
535.94	589.94
536.154	587.94
536.369	586.94
536.583	589.94
536.797	584.94
537.011	583.94
537.225	605.94
537.44	561.94
537.654	571.94
537.868	572.94
538.082	565.94
538.296	578.94
538.51	571.94
538.724	560.94
538.938	563.94
539.153	575.94
539.367	589.94
539.581	569.94
539.795	556.94
540.009	550.94
540.222	563.94
540.436	558.94
540.65	560.94
540.864	580.94
541.078	577.94
541.292	575.94
541.506	575.94
541.72	569.94
541.934	569.94
542.147	584.94
542.361	568.94
542.575	578.94
542.789	545.94
543.002	558.94
543.216	548.94
543.43	547.94
543.644	547.94
543.857	556.94
544.071	561.94
544.285	580.94
544.498	564.94
544.712	573.94
544.925	576.94
545.139	556.94
545.352	563.94
545.566	549.94
545.779	579.94
545.993	583.94
546.206	580.94
546.42	575.94
546.633	559.94
546.847	571.94
547.06	590.94
547.274	571.94
547.487	568.94
547.7	570.94
547.914	560.94
548.127	609.94
548.34	587.94
548.554	576.94
548.767	581.94
548.98	574.94
549.193	569.94
549.407	587.94
549.62	612.94
549.833	612.94
550.046	608.94
550.259	592.94
550.473	584.94
550.686	585.94
550.899	567.94
551.112	575.94
551.325	552.94
551.538	557.94
551.751	582.94
551.964	557.94
552.177	576.94
552.39	574.94
552.603	606.94
552.816	607.94
553.029	613.94
553.242	623.94
553.455	630.94
553.667	611.94
553.88	623.94
554.093	559.94
554.306	585.94
554.519	579.94
554.732	569.94
554.944	549.94
555.157	555.94
555.37	547.94
555.583	548.94
555.795	535.94
556.008	523.94
556.221	520.94
556.433	513.94
556.646	529.94
556.859	487.94
557.071	489.94
557.284	510.94
557.496	513.94
557.709	489.94
557.921	505.94
558.134	485.94
558.346	497.94
558.559	470.94
558.771	469.94
558.984	487.94
559.196	491.94
559.409	477.94
559.621	488.94
559.833	471.94
560.046	475.94
560.258	481.94
560.47	461.94
560.683	491.94
560.895	481.94
561.107	459.94
561.32	477.94
561.532	486.94
561.744	476.94
561.956	476.94
562.168	465.94
562.381	485.94
562.593	488.94
562.805	490.94
563.017	467.94
563.229	505.94
563.441	487.94
563.653	503.94
563.865	479.94
564.077	493.94
564.289	486.94
564.501	478.94
564.713	523.94
564.925	513.94
565.137	533.94
565.349	530.94
565.561	535.94
565.773	564.94
565.985	585.94
566.197	595.94
566.408	617.94
566.62	681.94
566.832	732.94
567.044	705.94
567.255	746.94
567.467	731.94
567.679	755.94
567.891	816.94
568.102	822.94
568.314	789.94
568.526	707.94
568.737	679.94
568.949	632.94
569.161	605.94
569.372	559.94
569.584	521.94
569.795	504.94
570.007	513.94
570.218	483.94
570.43	481.94
570.641	494.94
570.853	476.94
571.064	492.94
571.276	483.94
571.487	457.94
571.698	471.94
571.91	416.94
572.121	416.94
572.333	426.94
572.544	419.94
572.755	414.94
572.966	415.94
573.178	415.94
573.389	409.94
573.6	410.94
573.811	387.94
574.023	392.94
574.234	395.94
574.445	401.94
574.656	395.94
574.867	409.94
575.078	401.94
575.289	417.94
575.501	375.94
575.712	375.94
575.923	389.94
576.134	382.94
576.345	388.94
576.556	389.94
576.767	372.94
576.978	363.94
577.188	364.94
577.399	369.94
577.61	341.94
577.821	366.94
578.032	353.94
578.243	346.94
578.454	365.94
578.665	344.94
578.875	349.94
579.086	358.94
579.297	349.94
579.508	336.94
579.718	339.94
579.929	373.94
580.14	350.94
580.35	347.94
580.561	346.94
580.772	332.94
580.982	345.94
581.193	348.94
581.403	365.94
581.614	350.94
581.825	351.94
582.035	355.94
582.246	341.94
582.456	330.94
582.667	343.94
582.877	331.94
583.087	325.94
583.298	340.94
583.508	357.94
583.719	347.94
583.929	320.94
584.139	331.94
584.35	332.94
584.56	343.94
584.77	330.94
584.981	332.94
585.191	327.94
585.401	329.94
585.611	312.94
585.821	327.94
586.032	326.94
586.242	308.94
586.452	322.94
586.662	319.94
586.872	315.94
587.082	333.94
587.292	331.94
587.502	336.94
587.713	328.94
587.923	327.94
588.133	325.94
588.343	327.94
588.553	305.94
588.762	325.94
588.972	337.94
589.182	323.94
589.392	325.94
589.602	321.94
589.812	337.94
590.022	348.94
590.232	317.94
590.441	321.94
590.651	334.94
590.861	324.94
591.071	318.94
591.281	351.94
591.49	339.94
591.7	334.94
591.91	342.94
592.119	327.94
592.329	338.94
592.539	379.94
592.748	348.94
592.958	371.94
593.167	355.94
593.377	398.94
593.587	391.94
593.796	385.94
594.006	399.94
594.215	385.94
594.424	386.94
594.634	387.94
594.843	363.94
595.053	354.94
595.262	360.94
595.472	342.94
595.681	322.94
595.89	319.94
596.1	315.94
596.309	316.94
596.518	319.94
596.727	313.94
596.937	283.94
597.146	304.94
597.355	304.94
597.564	308.94
597.774	305.94
597.983	287.94
598.192	277.94
598.401	282.94
598.61	311.94
598.819	288.94
599.028	296.94
599.237	271.94
599.446	286.94
599.655	301.94
599.864	286.94
600.073	274.94
600.282	280.94
600.491	289.94
600.7	258.94
600.909	283.94
601.118	287.94
601.327	269.94
601.536	280.94
601.745	255.94
601.953	270.94
602.162	284.94
602.371	249.94
602.58	289.94
602.789	269.94
602.997	259.94
603.206	276.94
603.415	265.94
603.623	259.94
603.832	264.94
604.041	263.94
604.249	258.94
604.458	267.94
604.666	264.94
604.875	260.94
605.084	259.94
605.292	249.94
605.501	263.94
605.709	233.94
605.918	248.94
606.126	246.94
606.334	254.94
606.543	272.94
606.751	259.94
606.96	264.94
607.168	253.94
607.376	271.94
607.585	264.94
607.793	233.94
608.001	248.94
608.21	240.94
608.418	252.94
608.626	255.94
608.834	243.94
609.043	245.94
609.251	252.94
609.459	229.94
609.667	253.94
609.875	237.94
610.083	238.94
610.291	246.94
610.499	237.94
610.707	247.94
610.916	249.94
611.124	231.94
611.332	223.94
611.54	260.94
611.748	228.94
611.955	231.94
612.163	230.94
612.371	249.94
612.579	238.94
612.787	237.94
612.995	240.94
613.203	245.94
613.411	241.94
613.618	238.94
613.826	238.94
614.034	229.94
614.242	240.94
614.449	230.94
614.657	239.94
614.865	235.94
615.072	250.94
615.28	252.94
615.488	254.94
615.695	236.94
615.903	244.94
616.111	233.94
616.318	233.94
616.526	237.94
616.733	229.94
616.941	252.94
617.148	235.94
617.356	242.94
617.563	239.94
617.771	228.94
617.978	234.94
618.185	213.94
618.393	221.94
618.6	215.94
618.807	225.94
619.015	230.94
619.222	249.94
619.429	242.94
619.637	227.94
619.844	226.94
620.051	221.94
620.258	227.94
620.466	239.94
620.673	228.94
620.88	215.94
621.087	220.94
621.294	223.94
621.501	222.94
621.708	229.94
621.915	227.94
622.122	232.94
622.329	222.94
622.536	217.94
622.743	211.94
622.95	215.94
623.157	227.94
623.364	230.94
623.571	221.94
623.778	215.94
623.985	223.94
624.192	202.94
624.399	209.94
624.606	210.94
624.812	208.94
625.019	197.94
625.226	207.94
625.433	216.94
625.639	204.94
625.846	213.94
626.053	193.94
626.259	192.94
626.466	210.94
626.673	207.94
626.879	205.94
627.086	202.94
627.293	204.94
627.499	201.94
627.706	212.94
627.912	213.94
628.119	192.94
628.325	205.94
628.532	223.94
628.738	191.94
628.945	183.94
629.151	201.94
629.357	193.94
629.564	191.94
629.77	201.94
629.976	211.94
630.183	200.94
630.389	206.94
630.595	197.94
630.802	193.94
631.008	216.94
631.214	198.94
631.42	207.94
631.627	201.94
631.833	187.94
632.039	177.94
632.245	197.94
632.451	180.94
632.657	202.94
632.863	203.94
633.069	172.94
633.275	184.94
633.481	179.94
633.688	187.94
633.893	190.94
634.099	189.94
634.305	187.94
634.511	173.94
634.717	179.94
634.923	179.94
635.129	172.94
635.335	182.94
635.541	191.94
635.747	182.94
635.952	192.94
636.158	188.94
636.364	179.94
636.57	184.94
636.775	170.94
636.981	190.94
637.187	181.94
637.392	185.94
637.598	190.94
637.804	185.94
638.009	177.94
638.215	176.94
638.421	178.94
638.626	170.94
638.832	181.94
639.037	188.94
639.243	177.94
639.448	179.94
639.654	166.94
639.859	181.94
640.065	193.94
640.27	175.94
640.475	159.94
640.681	179.94
640.886	172.94
641.091	172.94
641.297	171.94
641.502	182.94
641.707	174.94
641.913	173.94
642.118	171.94
642.323	181.94
642.528	192.94
642.733	170.94
642.939	185.94
643.144	159.94
643.349	179.94
643.554	169.94
643.759	186.94
643.964	173.94
644.169	169.94
644.374	167.94
644.579	167.94
644.784	157.94
644.989	172.94
645.194	174.94
645.399	169.94
645.604	153.94
645.809	167.94
646.014	164.94
646.219	154.94
646.423	157.94
646.628	163.94
646.833	161.94
647.038	187.94
647.243	187.94
647.447	158.94
647.652	167.94
647.857	164.94
648.062	172.94
648.266	190.94
648.471	175.94
648.676	183.94
648.88	166.94
649.085	171.94
649.289	169.94
649.494	181.94
649.698	183.94
649.903	163.94
650.107	167.94
650.312	172.94
650.516	156.94
650.721	159.94
650.925	162.94
651.13	141.94
651.334	167.94
651.539	159.94
651.743	143.94
651.947	150.94
652.152	149.94
652.356	153.94
652.56	152.94
652.764	149.94
652.969	136.94
653.173	164.94
653.377	131.94
653.581	137.94
653.785	141.94
653.99	164.94
654.194	133.94
654.398	142.94
654.602	146.94
654.806	122.94
655.01	136.94
655.214	137.94
655.418	132.94
655.622	131.94
655.826	131.94
656.03	136.94
656.234	136.94
656.438	145.94
656.642	127.94
656.846	132.94
657.049	130.94
657.253	130.94
657.457	127.94
657.661	134.94
657.865	131.94
658.068	124.94
658.272	109.94
658.476	111.94
658.68	107.94
658.883	104.94
659.087	103.94
659.291	94.94
659.494	115.94
659.698	100.94
659.901	101.94
660.105	111.94
660.309	100.94
660.512	96.94
660.716	104.94
660.919	98.94
661.123	89.94
661.326	104.94
661.53	102.94
661.733	96.94
661.936	90.94
662.14	93.94
662.343	88.94
662.546	84.94
662.75	86.94
662.953	105.94
663.156	82.94
663.36	87.94
663.563	88.94
663.766	86.94
663.969	86.94
664.173	84.94
664.376	83.94
664.579	83.94
664.782	91.94
664.985	76.94
665.188	88.94
665.391	92.94
665.594	77.94
665.797	83.94
666	79.94
666.203	78.94
666.406	78.94
666.609	85.94
666.812	83.94
667.015	88.94
667.218	89.94
667.421	93.94
667.624	83.94
667.827	90.94
668.03	89.94
668.232	80.94
668.435	87.94
668.638	79.94
668.841	81.94
669.043	84.94
669.246	87.94
669.449	83.94
669.651	79.94
669.854	84.94
670.057	91.94
670.259	76.94
670.462	90.94
670.665	71.94
670.867	88.94
671.07	85.94
671.272	82.94
671.475	81.94
671.677	82.94
671.88	79.94
672.082	70.94
672.284	92.94
672.487	88.94
672.689	85.94
672.892	84.94
