Data from NiCl2@0.125M.TitratingCurve.Agarose3%dH2O.NegLispCup.LampEnergy10.LIBS07252019_HRD10591_18-28-41-574.txt Node
Date: Thu Jul 25 18:28:41 EDT 2019
User: cochatt
Spectrometer: HR+D1059
Trigger mode: 1
Integration Time (sec): 1.000000E-1
Scans to average: 1
Electric dark correction enabled: true
Nonlinearity correction enabled: false
Boxcar width: 0
XAxis mode: Wavelengths
Number of Pixels in Spectrum: 2048
>>>>>Begin Spectral Data<<<<<
223.165	-19.12
223.4	-19.12
223.635	-19.12
223.869	-24.12
224.104	-13.12
224.338	-12.12
224.573	-29.12
224.808	-10.12
225.042	1.88
225.277	7.88
225.511	0.88
225.746	13.88
225.98	5.88
226.215	8.88
226.449	7.88
226.683	12.88
226.918	21.88
227.152	25.88
227.387	17.88
227.621	40.88
227.856	53.88
228.09	48.88
228.324	54.88
228.559	70.88
228.793	63.88
229.027	124.88
229.262	105.88
229.496	104.88
229.73	121.88
229.964	135.88
230.199	129.88
230.433	138.88
230.667	141.88
230.901	123.88
231.136	124.88
231.37	133.88
231.604	149.88
231.838	139.88
232.072	148.88
232.306	141.88
232.541	150.88
232.775	155.88
233.009	150.88
233.243	149.88
233.477	165.88
233.711	161.88
233.945	154.88
234.179	163.88
234.413	146.88
234.647	145.88
234.881	148.88
235.115	160.88
235.349	155.88
235.583	160.88
235.817	149.88
236.051	162.88
236.285	168.88
236.519	180.88
236.753	171.88
236.987	159.88
237.221	165.88
237.455	168.88
237.689	171.88
237.922	155.88
238.156	177.88
238.39	175.88
238.624	170.88
238.858	177.88
239.091	177.88
239.325	184.88
239.559	177.88
239.793	176.88
240.027	188.88
240.26	187.88
240.494	193.88
240.728	184.88
240.961	213.88
241.195	200.88
241.429	196.88
241.662	200.88
241.896	215.88
242.13	205.88
242.363	208.88
242.597	217.88
242.83	196.88
243.064	197.88
243.298	216.88
243.531	208.88
243.765	228.88
243.998	219.88
244.232	223.88
244.465	209.88
244.699	210.88
244.932	236.88
245.166	238.88
245.399	213.88
245.633	234.88
245.866	221.88
246.099	226.88
246.333	245.88
246.566	259.88
246.8	247.88
247.033	253.88
247.266	240.88
247.5	258.88
247.733	245.88
247.966	228.88
248.2	244.88
248.433	232.88
248.666	262.88
248.899	252.88
249.133	255.88
249.366	277.88
249.599	268.88
249.832	251.88
250.066	257.88
250.299	259.88
250.532	269.88
250.765	269.88
250.998	275.88
251.231	271.88
251.465	279.88
251.698	282.88
251.931	281.88
252.164	270.88
252.397	289.88
252.63	288.88
252.863	293.88
253.096	294.88
253.329	287.88
253.562	289.88
253.795	291.88
254.028	290.88
254.261	285.88
254.494	309.88
254.727	306.88
254.96	297.88
255.193	300.88
255.426	299.88
255.659	293.88
255.892	296.88
256.124	298.88
256.357	314.88
256.59	325.88
256.823	309.88
257.056	306.88
257.289	295.88
257.521	312.88
257.754	321.88
257.987	324.88
258.22	324.88
258.452	306.88
258.685	338.88
258.918	328.88
259.151	336.88
259.383	319.88
259.616	348.88
259.849	339.88
260.081	333.88
260.314	344.88
260.547	332.88
260.779	330.88
261.012	329.88
261.244	346.88
261.477	347.88
261.71	330.88
261.942	354.88
262.175	349.88
262.407	346.88
262.64	364.88
262.872	353.88
263.105	347.88
263.337	350.88
263.57	362.88
263.802	350.88
264.035	358.88
264.267	369.88
264.499	375.88
264.732	364.88
264.964	363.88
265.197	347.88
265.429	369.88
265.661	388.88
265.894	379.88
266.126	377.88
266.358	373.88
266.591	368.88
266.823	377.88
267.055	383.88
267.287	391.88
267.52	373.88
267.752	394.88
267.984	396.88
268.216	382.88
268.448	391.88
268.681	402.88
268.913	404.88
269.145	411.88
269.377	399.88
269.609	405.88
269.841	393.88
270.073	423.88
270.306	423.88
270.538	409.88
270.77	408.88
271.002	403.88
271.234	393.88
271.466	408.88
271.698	415.88
271.93	409.88
272.162	411.88
272.394	418.88
272.626	401.88
272.858	417.88
273.09	442.88
273.322	440.88
273.553	448.88
273.785	397.88
274.017	419.88
274.249	438.88
274.481	429.88
274.713	423.88
274.945	435.88
275.176	433.88
275.408	425.88
275.64	448.88
275.872	422.88
276.104	438.88
276.335	434.88
276.567	434.88
276.799	434.88
277.031	433.88
277.262	458.88
277.494	451.88
277.726	449.88
277.957	469.88
278.189	438.88
278.421	449.88
278.652	454.88
278.884	452.88
279.115	458.88
279.347	483.88
279.579	470.88
279.81	463.88
280.042	466.88
280.273	484.88
280.505	503.88
280.736	492.88
280.968	488.88
281.199	494.88
281.431	479.88
281.662	488.88
281.894	484.88
282.125	493.88
282.356	502.88
282.588	489.88
282.819	513.88
283.051	488.88
283.282	500.88
283.513	503.88
283.745	513.88
283.976	512.88
284.207	497.88
284.439	530.88
284.67	512.88
284.901	516.88
285.132	525.88
285.364	517.88
285.595	538.88
285.826	504.88
286.057	533.88
286.288	509.88
286.52	533.88
286.751	530.88
286.982	535.88
287.213	521.88
287.444	519.88
287.675	532.88
287.906	544.88
288.138	548.88
288.369	536.88
288.6	547.88
288.831	527.88
289.062	547.88
289.293	559.88
289.524	548.88
289.755	565.88
289.986	552.88
290.217	573.88
290.448	564.88
290.679	559.88
290.91	553.88
291.141	559.88
291.371	571.88
291.602	549.88
291.833	541.88
292.064	561.88
292.295	567.88
292.526	556.88
292.757	579.88
292.987	553.88
293.218	553.88
293.449	565.88
293.68	575.88
293.91	551.88
294.141	552.88
294.372	556.88
294.603	575.88
294.833	580.88
295.064	577.88
295.295	563.88
295.525	572.88
295.756	604.88
295.987	591.88
296.217	566.88
296.448	565.88
296.679	606.88
296.909	579.88
297.14	604.88
297.37	624.88
297.601	609.88
297.831	630.88
298.062	624.88
298.292	604.88
298.523	651.88
298.753	633.88
298.984	619.88
299.214	619.88
299.445	614.88
299.675	628.88
299.905	607.88
300.136	605.88
300.366	615.88
300.597	617.88
300.827	617.88
301.057	650.88
301.288	639.88
301.518	668.88
301.748	635.88
301.979	672.88
302.209	643.88
302.439	657.88
302.669	626.88
302.9	651.88
303.13	651.88
303.36	629.88
303.59	624.88
303.82	631.88
304.051	645.88
304.281	625.88
304.511	639.88
304.741	638.88
304.971	644.88
305.201	633.88
305.431	656.88
305.661	639.88
305.891	625.88
306.121	616.88
306.352	602.88
306.582	634.88
306.812	652.88
307.042	622.88
307.272	610.88
307.502	607.88
307.731	606.88
307.961	616.88
308.191	624.88
308.421	617.88
308.651	626.88
308.881	619.88
309.111	631.88
309.341	593.88
309.571	614.88
309.8	609.88
310.03	620.88
310.26	627.88
310.49	607.88
310.72	619.88
310.949	634.88
311.179	614.88
311.409	647.88
311.639	632.88
311.868	626.88
312.098	640.88
312.328	641.88
312.557	649.88
312.787	660.88
313.017	676.88
313.246	678.88
313.476	651.88
313.706	647.88
313.935	647.88
314.165	684.88
314.394	670.88
314.624	643.88
314.853	676.88
315.083	651.88
315.312	662.88
315.542	660.88
315.771	662.88
316.001	657.88
316.23	627.88
316.46	653.88
316.689	667.88
316.919	668.88
317.148	638.88
317.377	631.88
317.607	641.88
317.836	651.88
318.065	639.88
318.295	636.88
318.524	633.88
318.753	645.88
318.983	633.88
319.212	600.88
319.441	651.88
319.67	629.88
319.9	640.88
320.129	634.88
320.358	671.88
320.587	638.88
320.816	629.88
321.046	656.88
321.275	635.88
321.504	667.88
321.733	657.88
321.962	662.88
322.191	645.88
322.42	665.88
322.649	652.88
322.878	657.88
323.108	664.88
323.337	664.88
323.566	656.88
323.795	669.88
324.024	645.88
324.253	666.88
324.482	668.88
324.71	651.88
324.939	677.88
325.168	657.88
325.397	677.88
325.626	676.88
325.855	670.88
326.084	688.88
326.313	718.88
326.542	711.88
326.77	729.88
326.999	721.88
327.228	682.88
327.457	694.88
327.686	696.88
327.914	699.88
328.143	691.88
328.372	701.88
328.6	717.88
328.829	708.88
329.058	706.88
329.287	722.88
329.515	710.88
329.744	729.88
329.972	719.88
330.201	740.88
330.43	728.88
330.658	728.88
330.887	736.88
331.115	736.88
331.344	741.88
331.572	756.88
331.801	749.88
332.03	801.88
332.258	805.88
332.486	816.88
332.715	827.88
332.943	856.88
333.172	908.88
333.4	945.88
333.629	973.88
333.857	1005.88
334.085	994.88
334.314	947.88
334.542	937.88
334.771	930.88
334.999	907.88
335.227	894.88
335.455	890.88
335.684	892.88
335.912	872.88
336.14	874.88
336.369	831.88
336.597	853.88
336.825	844.88
337.053	869.88
337.281	812.88
337.51	833.88
337.738	838.88
337.966	819.88
338.194	797.88
338.422	789.88
338.65	789.88
338.878	769.88
339.106	782.88
339.334	785.88
339.562	760.88
339.79	741.88
340.018	739.88
340.246	740.88
340.474	715.88
340.702	721.88
340.93	752.88
341.158	779.88
341.386	754.88
341.614	759.88
341.842	746.88
342.07	745.88
342.298	739.88
342.526	715.88
342.754	745.88
342.981	733.88
343.209	755.88
343.437	791.88
343.665	855.88
343.893	887.88
344.12	931.88
344.348	894.88
344.576	831.88
344.804	831.88
345.031	811.88
345.259	761.88
345.487	765.88
345.714	741.88
345.942	769.88
346.17	767.88
346.397	708.88
346.625	730.88
346.853	726.88
347.08	711.88
347.308	727.88
347.535	716.88
347.763	731.88
347.99	732.88
348.218	712.88
348.445	749.88
348.673	717.88
348.9	689.88
349.128	728.88
349.355	705.88
349.583	712.88
349.81	699.88
350.037	674.88
350.265	696.88
350.492	695.88
350.72	699.88
350.947	711.88
351.174	688.88
351.402	719.88
351.629	688.88
351.856	698.88
352.083	691.88
352.311	694.88
352.538	705.88
352.765	700.88
352.992	706.88
353.22	696.88
353.447	666.88
353.674	709.88
353.901	709.88
354.128	696.88
354.355	669.88
354.583	681.88
354.81	693.88
355.037	724.88
355.264	706.88
355.491	706.88
355.718	726.88
355.945	695.88
356.172	730.88
356.399	706.88
356.626	693.88
356.853	712.88
357.08	708.88
357.307	719.88
357.534	714.88
357.761	723.88
357.988	689.88
358.215	695.88
358.441	690.88
358.668	672.88
358.895	674.88
359.122	702.88
359.349	706.88
359.576	705.88
359.802	701.88
360.029	696.88
360.256	684.88
360.483	719.88
360.709	647.88
360.936	690.88
361.163	696.88
361.39	682.88
361.616	718.88
361.843	697.88
362.07	710.88
362.296	707.88
362.523	698.88
362.749	695.88
362.976	676.88
363.203	676.88
363.429	682.88
363.656	685.88
363.882	683.88
364.109	667.88
364.335	699.88
364.562	719.88
364.788	698.88
365.015	695.88
365.241	674.88
365.468	677.88
365.694	676.88
365.92	707.88
366.147	661.88
366.373	682.88
366.599	671.88
366.826	717.88
367.052	682.88
367.278	680.88
367.505	715.88
367.731	706.88
367.957	711.88
368.184	660.88
368.41	696.88
368.636	704.88
368.862	689.88
369.089	715.88
369.315	705.88
369.541	705.88
369.767	701.88
369.993	734.88
370.219	722.88
370.445	731.88
370.672	736.88
370.898	724.88
371.124	747.88
371.35	741.88
371.576	769.88
371.802	751.88
372.028	730.88
372.254	759.88
372.48	763.88
372.706	782.88
372.932	788.88
373.158	778.88
373.384	785.88
373.61	748.88
373.835	741.88
374.061	769.88
374.287	746.88
374.513	799.88
374.739	784.88
374.965	805.88
375.191	836.88
375.416	857.88
375.642	812.88
375.868	819.88
376.094	793.88
376.319	747.88
376.545	783.88
376.771	777.88
376.997	799.88
377.222	756.88
377.448	759.88
377.674	757.88
377.899	760.88
378.125	737.88
378.35	737.88
378.576	736.88
378.802	744.88
379.027	747.88
379.253	749.88
379.478	738.88
379.704	728.88
379.929	740.88
380.155	753.88
380.38	748.88
380.606	742.88
380.831	739.88
381.057	735.88
381.282	748.88
381.507	758.88
381.733	773.88
381.958	745.88
382.184	788.88
382.409	798.88
382.634	789.88
382.86	816.88
383.085	803.88
383.31	820.88
383.535	855.88
383.761	828.88
383.986	826.88
384.211	862.88
384.436	898.88
384.662	881.88
384.887	928.88
385.112	897.88
385.337	933.88
385.562	935.88
385.787	881.88
386.013	936.88
386.238	919.88
386.463	912.88
386.688	898.88
386.913	906.88
387.138	899.88
387.363	899.88
387.588	917.88
387.813	897.88
388.038	897.88
388.263	903.88
388.488	892.88
388.713	910.88
388.938	873.88
389.163	875.88
389.387	902.88
389.612	881.88
389.837	892.88
390.062	884.88
390.287	887.88
390.512	886.88
390.736	879.88
390.961	899.88
391.186	923.88
391.411	959.88
391.636	971.88
391.86	1007.88
392.085	1066.88
392.31	993.88
392.534	1023.88
392.759	994.88
392.984	967.88
393.208	946.88
393.433	971.88
393.658	980.88
393.882	979.88
394.107	964.88
394.331	989.88
394.556	988.88
394.78	959.88
395.005	1002.88
395.229	971.88
395.454	1018.88
395.678	1030.88
395.903	1043.88
396.127	1052.88
396.352	992.88
396.576	949.88
396.801	955.88
397.025	981.88
397.249	997.88
397.474	1023.88
397.698	1020.88
397.922	1029.88
398.147	1019.88
398.371	1061.88
398.595	1077.88
398.82	1114.88
399.044	1221.88
399.268	1361.88
399.492	1509.88
399.717	1735.88
399.941	1753.88
400.165	1588.88
400.389	1455.88
400.613	1317.88
400.837	1247.88
401.062	1192.88
401.286	1167.88
401.51	1149.88
401.734	1164.88
401.958	1165.88
402.182	1187.88
402.406	1176.88
402.63	1157.88
402.854	1203.88
403.078	1268.88
403.302	1271.88
403.526	1266.88
403.75	1284.88
403.974	1306.88
404.198	1312.88
404.422	1308.88
404.645	1325.88
404.869	1295.88
405.093	1314.88
405.317	1271.88
405.541	1293.88
405.765	1294.88
405.988	1258.88
406.212	1277.88
406.436	1274.88
406.66	1313.88
406.883	1356.88
407.107	1402.88
407.331	1453.88
407.555	1489.88
407.778	1459.88
408.002	1465.88
408.226	1398.88
408.449	1413.88
408.673	1323.88
408.896	1327.88
409.12	1281.88
409.344	1299.88
409.567	1291.88
409.791	1306.88
410.014	1271.88
410.238	1314.88
410.461	1289.88
410.685	1235.88
410.908	1235.88
411.132	1206.88
411.355	1166.88
411.578	1202.88
411.802	1181.88
412.025	1193.88
412.249	1208.88
412.472	1208.88
412.695	1170.88
412.919	1140.88
413.142	1144.88
413.365	1178.88
413.589	1172.88
413.812	1156.88
414.035	1141.88
414.258	1108.88
414.482	1152.88
414.705	1172.88
414.928	1196.88
415.151	1169.88
415.374	1186.88
415.597	1131.88
415.821	1129.88
416.044	1147.88
416.267	1133.88
416.49	1095.88
416.713	1124.88
416.936	1115.88
417.159	1121.88
417.382	1122.88
417.605	1095.88
417.828	1120.88
418.051	1116.88
418.274	1138.88
418.497	1167.88
418.72	1176.88
418.943	1202.88
419.166	1268.88
419.389	1324.88
419.611	1291.88
419.834	1245.88
420.057	1222.88
420.28	1158.88
420.503	1129.88
420.726	1157.88
420.948	1128.88
421.171	1106.88
421.394	1123.88
421.617	1120.88
421.839	1143.88
422.062	1142.88
422.285	1135.88
422.507	1145.88
422.73	1174.88
422.953	1179.88
423.175	1180.88
423.398	1170.88
423.621	1196.88
423.843	1235.88
424.066	1191.88
424.288	1210.88
424.511	1215.88
424.733	1172.88
424.956	1164.88
425.178	1174.88
425.401	1167.88
425.623	1141.88
425.846	1132.88
426.068	1135.88
426.291	1085.88
426.513	1082.88
426.735	1095.88
426.958	1064.88
427.18	1053.88
427.402	1036.88
427.625	1028.88
427.847	1022.88
428.069	1032.88
428.292	1033.88
428.514	1035.88
428.736	1033.88
428.958	1032.88
429.181	1019.88
429.403	1019.88
429.625	1009.88
429.847	992.88
430.069	969.88
430.292	1003.88
430.514	964.88
430.736	985.88
430.958	993.88
431.18	1009.88
431.402	982.88
431.624	1000.88
431.846	1012.88
432.068	1029.88
432.29	1042.88
432.512	966.88
432.734	1025.88
432.956	1031.88
433.178	1027.88
433.4	1023.88
433.622	1041.88
433.844	1067.88
434.066	1042.88
434.287	1041.88
434.509	1079.88
434.731	1131.88
434.953	1178.88
435.175	1146.88
435.397	1156.88
435.618	1114.88
435.84	1096.88
436.062	1051.88
436.284	1045.88
436.505	1025.88
436.727	1051.88
436.949	1045.88
437.17	1032.88
437.392	992.88
437.614	989.88
437.835	976.88
438.057	1011.88
438.278	972.88
438.5	978.88
438.721	968.88
438.943	1005.88
439.165	978.88
439.386	971.88
439.608	1012.88
439.829	1021.88
440.05	1028.88
440.272	1031.88
440.493	1032.88
440.715	1046.88
440.936	1078.88
441.158	1072.88
441.379	1083.88
441.6	1157.88
441.822	1175.88
442.043	1201.88
442.264	1148.88
442.486	1115.88
442.707	1129.88
442.928	1124.88
443.149	1124.88
443.371	1141.88
443.592	1146.88
443.813	1155.88
444.034	1155.88
444.255	1188.88
444.476	1238.88
444.698	1346.88
444.919	1395.88
445.14	1469.88
445.361	1322.88
445.582	1230.88
445.803	1137.88
446.024	1107.88
446.245	1089.88
446.466	1093.88
446.687	1052.88
446.908	1061.88
447.129	1027.88
447.35	1006.88
447.571	1021.88
447.792	965.88
448.013	985.88
448.234	987.88
448.455	943.88
448.675	975.88
448.896	940.88
449.117	921.88
449.338	931.88
449.559	947.88
449.779	928.88
450	935.88
450.221	929.88
450.442	956.88
450.662	992.88
450.883	957.88
451.104	996.88
451.324	1001.88
451.545	998.88
451.766	959.88
451.986	962.88
452.207	905.88
452.428	931.88
452.648	960.88
452.869	911.88
453.089	920.88
453.31	934.88
453.53	925.88
453.751	942.88
453.971	927.88
454.192	910.88
454.412	903.88
454.633	881.88
454.853	916.88
455.073	885.88
455.294	893.88
455.514	893.88
455.734	883.88
455.955	846.88
456.175	885.88
456.395	893.88
456.616	905.88
456.836	885.88
457.056	891.88
457.276	854.88
457.497	890.88
457.717	889.88
457.937	898.88
458.157	896.88
458.377	942.88
458.598	921.88
458.818	969.88
459.038	975.88
459.258	1006.88
459.478	1026.88
459.698	1067.88
459.918	1122.88
460.138	1159.88
460.358	1203.88
460.578	1211.88
460.798	1249.88
461.018	1256.88
461.238	1215.88
461.458	1188.88
461.678	1199.88
461.898	1256.88
462.118	1239.88
462.338	1325.88
462.558	1328.88
462.777	1401.88
462.997	1457.88
463.217	1652.88
463.437	1663.88
463.657	1555.88
463.876	1454.88
464.096	1427.88
464.316	1450.88
464.536	1452.88
464.755	1398.88
464.975	1377.88
465.195	1271.88
465.414	1223.88
465.634	1146.88
465.854	1090.88
466.073	1059.88
466.293	1046.88
466.512	1013.88
466.732	991.88
466.951	1017.88
467.171	985.88
467.391	1000.88
467.61	996.88
467.829	955.88
468.049	1027.88
468.268	966.88
468.488	951.88
468.707	967.88
468.927	955.88
469.146	962.88
469.365	966.88
469.585	970.88
469.804	1008.88
470.023	994.88
470.243	1015.88
470.462	1044.88
470.681	1025.88
470.901	1038.88
471.12	1011.88
471.339	1000.88
471.558	974.88
471.777	964.88
471.997	965.88
472.216	945.88
472.435	920.88
472.654	952.88
472.873	919.88
473.092	929.88
473.311	898.88
473.53	915.88
473.749	925.88
473.968	936.88
474.187	912.88
474.406	929.88
474.625	914.88
474.844	895.88
475.063	895.88
475.282	947.88
475.501	956.88
475.72	936.88
475.939	929.88
476.158	951.88
476.377	987.88
476.596	951.88
476.814	973.88
477.033	970.88
477.252	991.88
477.471	996.88
477.69	1050.88
477.908	1049.88
478.127	1087.88
478.346	1095.88
478.564	1108.88
478.783	1136.88
479.002	1157.88
479.22	1157.88
479.439	1156.88
479.658	1170.88
479.876	1156.88
480.095	1199.88
480.313	1248.88
480.532	1267.88
480.751	1256.88
480.969	1226.88
481.188	1150.88
481.406	1130.88
481.624	1097.88
481.843	1082.88
482.061	1050.88
482.28	1082.88
482.498	1041.88
482.717	1051.88
482.935	1071.88
483.153	1043.88
483.372	1052.88
483.59	1053.88
483.808	1063.88
484.027	1084.88
484.245	1095.88
484.463	1067.88
484.681	1088.88
484.9	1074.88
485.118	1111.88
485.336	1083.88
485.554	1083.88
485.772	1103.88
485.99	1119.88
486.209	1117.88
486.427	1123.88
486.645	1132.88
486.863	1125.88
487.081	1119.88
487.299	1108.88
487.517	1111.88
487.735	1090.88
487.953	1091.88
488.171	1113.88
488.389	1105.88
488.607	1095.88
488.825	1110.88
489.043	1071.88
489.261	1099.88
489.479	1088.88
489.696	1099.88
489.914	1090.88
490.132	1096.88
490.35	1104.88
490.568	1118.88
490.786	1099.88
491.003	1125.88
491.221	1148.88
491.439	1130.88
491.657	1113.88
491.874	1133.88
492.092	1132.88
492.31	1136.88
492.527	1145.88
492.745	1144.88
492.963	1131.88
493.18	1123.88
493.398	1149.88
493.615	1167.88
493.833	1132.88
494.05	1183.88
494.268	1183.88
494.485	1207.88
494.703	1182.88
494.92	1166.88
495.138	1197.88
495.355	1186.88
495.573	1156.88
495.79	1175.88
496.008	1231.88
496.225	1210.88
496.442	1185.88
496.66	1246.88
496.877	1235.88
497.094	1250.88
497.312	1271.88
497.529	1333.88
497.746	1327.88
497.963	1364.88
498.181	1411.88
498.398	1487.88
498.615	1583.88
498.832	1721.88
499.049	1815.88
499.267	1979.88
499.484	2173.88
499.701	2380.88
499.918	2634.88
500.135	3009.88
500.352	3391.88
500.569	3627.88
500.786	3507.88
501.003	3270.88
501.22	2999.88
501.437	2620.88
501.654	2354.88
501.871	2135.88
502.088	1924.88
502.305	1845.88
502.522	1718.88
502.739	1694.88
502.956	1545.88
503.172	1464.88
503.389	1405.88
503.606	1423.88
503.823	1387.88
504.04	1346.88
504.256	1402.88
504.473	1385.88
504.69	1416.88
504.907	1372.88
505.123	1277.88
505.34	1236.88
505.557	1195.88
505.773	1193.88
505.99	1118.88
506.207	1121.88
506.423	1114.88
506.64	1076.88
506.856	1053.88
507.073	1058.88
507.289	1044.88
507.506	1047.88
507.722	1047.88
507.939	1067.88
508.155	1041.88
508.372	993.88
508.588	1016.88
508.805	995.88
509.021	1001.88
509.238	961.88
509.454	967.88
509.67	991.88
509.887	933.88
510.103	984.88
510.319	943.88
510.536	950.88
510.752	960.88
510.968	975.88
511.184	951.88
511.401	930.88
511.617	937.88
511.833	965.88
512.049	936.88
512.265	961.88
512.481	949.88
512.698	929.88
512.914	967.88
513.13	946.88
513.346	985.88
513.562	939.88
513.778	972.88
513.994	977.88
514.21	963.88
514.426	984.88
514.642	967.88
514.858	988.88
515.074	991.88
515.29	969.88
515.506	978.88
515.721	1024.88
515.937	1027.88
516.153	1032.88
516.369	1062.88
516.585	1048.88
516.801	1112.88
517.016	1179.88
517.232	1226.88
517.448	1269.88
517.664	1308.88
517.879	1310.88
518.095	1336.88
518.311	1343.88
518.527	1263.88
518.742	1199.88
518.958	1128.88
519.173	1097.88
519.389	1100.88
519.605	1053.88
519.82	996.88
520.036	997.88
520.251	972.88
520.467	960.88
520.682	979.88
520.898	963.88
521.113	980.88
521.329	953.88
521.544	936.88
521.76	942.88
521.975	903.88
522.19	886.88
522.406	921.88
522.621	906.88
522.836	889.88
523.052	919.88
523.267	887.88
523.482	897.88
523.698	891.88
523.913	867.88
524.128	889.88
524.343	881.88
524.559	872.88
524.774	879.88
524.989	882.88
525.204	871.88
525.419	877.88
525.634	859.88
525.849	902.88
526.064	881.88
526.28	859.88
526.495	876.88
526.71	861.88
526.925	852.88
527.14	871.88
527.355	851.88
527.57	868.88
527.785	880.88
527.999	897.88
528.214	862.88
528.429	873.88
528.644	848.88
528.859	848.88
529.074	850.88
529.289	856.88
529.503	867.88
529.718	870.88
529.933	877.88
530.148	866.88
530.363	865.88
530.577	832.88
530.792	840.88
531.007	853.88
531.221	861.88
531.436	888.88
531.651	873.88
531.865	879.88
532.08	881.88
532.295	838.88
532.509	868.88
532.724	852.88
532.938	872.88
533.153	854.88
533.367	853.88
533.582	876.88
533.796	863.88
534.011	857.88
534.225	835.88
534.44	865.88
534.654	853.88
534.868	859.88
535.083	808.88
535.297	824.88
535.511	841.88
535.726	853.88
535.94	829.88
536.154	841.88
536.369	825.88
536.583	832.88
536.797	836.88
537.011	789.88
537.225	764.88
537.44	801.88
537.654	804.88
537.868	804.88
538.082	795.88
538.296	815.88
538.51	781.88
538.724	789.88
538.938	822.88
539.153	826.88
539.367	769.88
539.581	807.88
539.795	770.88
540.009	789.88
540.222	784.88
540.436	779.88
540.65	757.88
540.864	795.88
541.078	781.88
541.292	796.88
541.506	767.88
541.72	785.88
541.934	815.88
542.147	797.88
542.361	801.88
542.575	775.88
542.789	775.88
543.002	771.88
543.216	744.88
543.43	767.88
543.644	750.88
543.857	742.88
544.071	778.88
544.285	781.88
544.498	760.88
544.712	753.88
544.925	777.88
545.139	793.88
545.352	777.88
545.566	770.88
545.779	797.88
545.993	796.88
546.206	794.88
546.42	796.88
546.633	785.88
546.847	790.88
547.06	814.88
547.274	779.88
547.487	785.88
547.7	780.88
547.914	777.88
548.127	781.88
548.34	793.88
548.554	781.88
548.767	809.88
548.98	805.88
549.193	802.88
549.407	789.88
549.62	835.88
549.833	827.88
550.046	845.88
550.259	805.88
550.473	779.88
550.686	794.88
550.899	777.88
551.112	788.88
551.325	782.88
551.538	740.88
551.751	761.88
551.964	777.88
552.177	769.88
552.39	823.88
552.603	838.88
552.816	829.88
553.029	824.88
553.242	866.88
553.455	887.88
553.667	869.88
553.88	872.88
554.093	856.88
554.306	859.88
554.519	818.88
554.732	820.88
554.944	770.88
555.157	767.88
555.37	768.88
555.583	740.88
555.795	735.88
556.008	722.88
556.221	745.88
556.433	710.88
556.646	700.88
556.859	708.88
557.071	696.88
557.284	680.88
557.496	693.88
557.709	675.88
557.921	673.88
558.134	661.88
558.346	682.88
558.559	682.88
558.771	653.88
558.984	675.88
559.196	681.88
559.409	647.88
559.621	655.88
559.833	669.88
560.046	648.88
560.258	675.88
560.47	674.88
560.683	657.88
560.895	651.88
561.107	645.88
561.32	672.88
561.532	666.88
561.744	669.88
561.956	656.88
562.168	673.88
562.381	654.88
562.593	646.88
562.805	663.88
563.017	675.88
563.229	682.88
563.441	665.88
563.653	667.88
563.865	671.88
564.077	689.88
564.289	677.88
564.501	703.88
564.713	693.88
564.925	713.88
565.137	719.88
565.349	728.88
565.561	756.88
565.773	822.88
565.985	818.88
566.197	873.88
566.408	933.88
566.62	1012.88
566.832	1043.88
567.044	1092.88
567.255	1073.88
567.467	1125.88
567.679	1202.88
567.891	1268.88
568.102	1291.88
568.314	1203.88
568.526	1112.88
568.737	1041.88
568.949	946.88
569.161	843.88
569.372	805.88
569.584	760.88
569.795	740.88
570.007	716.88
570.218	703.88
570.43	685.88
570.641	679.88
570.853	716.88
571.064	707.88
571.276	714.88
571.487	669.88
571.698	638.88
571.91	631.88
572.121	632.88
572.333	608.88
572.544	591.88
572.755	582.88
572.966	571.88
573.178	579.88
573.389	566.88
573.6	565.88
573.811	550.88
574.023	567.88
574.234	564.88
574.445	565.88
574.656	570.88
574.867	547.88
575.078	551.88
575.289	535.88
575.501	537.88
575.712	537.88
575.923	514.88
576.134	527.88
576.345	547.88
576.556	510.88
576.767	488.88
576.978	497.88
577.188	521.88
577.399	509.88
577.61	495.88
577.821	510.88
578.032	508.88
578.243	493.88
578.454	498.88
578.665	502.88
578.875	496.88
579.086	527.88
579.297	481.88
579.508	488.88
579.718	473.88
579.929	481.88
580.14	478.88
580.35	488.88
580.561	497.88
580.772	497.88
580.982	483.88
581.193	487.88
581.403	471.88
581.614	459.88
581.825	465.88
582.035	476.88
582.246	459.88
582.456	452.88
582.667	467.88
582.877	474.88
583.087	455.88
583.298	460.88
583.508	449.88
583.719	450.88
583.929	452.88
584.139	447.88
584.35	440.88
584.56	455.88
584.77	454.88
584.981	452.88
585.191	437.88
585.401	454.88
585.611	470.88
585.821	475.88
586.032	427.88
586.242	442.88
586.452	449.88
586.662	444.88
586.872	471.88
587.082	434.88
587.292	426.88
587.502	445.88
587.713	465.88
587.923	458.88
588.133	429.88
588.343	444.88
588.553	415.88
588.762	448.88
588.972	435.88
589.182	458.88
589.392	456.88
589.602	466.88
589.812	435.88
590.022	457.88
590.232	459.88
590.441	451.88
590.651	433.88
590.861	441.88
591.071	449.88
591.281	453.88
591.49	456.88
591.7	475.88
591.91	468.88
592.119	482.88
592.329	494.88
592.539	517.88
592.748	515.88
592.958	548.88
593.167	533.88
593.377	542.88
593.587	577.88
593.796	586.88
594.006	595.88
594.215	581.88
594.424	572.88
594.634	561.88
594.843	546.88
595.053	548.88
595.262	508.88
595.472	492.88
595.681	473.88
595.89	468.88
596.1	444.88
596.309	453.88
596.518	411.88
596.727	417.88
596.937	415.88
597.146	435.88
597.355	407.88
597.564	418.88
597.774	411.88
597.983	401.88
598.192	374.88
598.401	394.88
598.61	370.88
598.819	350.88
599.028	391.88
599.237	374.88
599.446	380.88
599.655	388.88
599.864	383.88
600.073	373.88
600.282	391.88
600.491	374.88
600.7	384.88
600.909	394.88
601.118	373.88
601.327	362.88
601.536	347.88
601.745	386.88
601.953	362.88
602.162	346.88
602.371	361.88
602.58	360.88
602.789	366.88
602.997	353.88
603.206	354.88
603.415	375.88
603.623	347.88
603.832	347.88
604.041	349.88
604.249	336.88
604.458	349.88
604.666	351.88
604.875	370.88
605.084	339.88
605.292	331.88
605.501	348.88
605.709	363.88
605.918	353.88
606.126	340.88
606.334	344.88
606.543	343.88
606.751	339.88
606.96	337.88
607.168	341.88
607.376	321.88
607.585	325.88
607.793	351.88
608.001	341.88
608.21	332.88
608.418	336.88
608.626	329.88
608.834	332.88
609.043	329.88
609.251	346.88
609.459	309.88
609.667	351.88
609.875	333.88
610.083	338.88
610.291	328.88
610.499	340.88
610.707	329.88
610.916	328.88
611.124	326.88
611.332	316.88
611.54	327.88
611.748	351.88
611.955	318.88
612.163	333.88
612.371	337.88
612.579	329.88
612.787	332.88
612.995	324.88
613.203	321.88
613.411	342.88
613.618	329.88
613.826	329.88
614.034	317.88
614.242	322.88
614.449	336.88
614.657	322.88
614.865	307.88
615.072	325.88
615.28	323.88
615.488	303.88
615.695	337.88
615.903	321.88
616.111	336.88
616.318	331.88
616.526	315.88
616.733	331.88
616.941	326.88
617.148	319.88
617.356	320.88
617.563	307.88
617.771	330.88
617.978	317.88
618.185	303.88
618.393	311.88
618.6	320.88
618.807	311.88
619.015	333.88
619.222	319.88
619.429	317.88
619.637	321.88
619.844	311.88
620.051	309.88
620.258	287.88
620.466	296.88
620.673	289.88
620.88	294.88
621.087	310.88
621.294	300.88
621.501	305.88
621.708	306.88
621.915	291.88
622.122	299.88
622.329	296.88
622.536	280.88
622.743	289.88
622.95	277.88
623.157	285.88
623.364	292.88
623.571	289.88
623.778	272.88
623.985	278.88
624.192	295.88
624.399	292.88
624.606	300.88
624.812	289.88
625.019	280.88
625.226	267.88
625.433	287.88
625.639	281.88
625.846	281.88
626.053	275.88
626.259	259.88
626.466	280.88
626.673	273.88
626.879	277.88
627.086	269.88
627.293	272.88
627.499	267.88
627.706	272.88
627.912	269.88
628.119	271.88
628.325	245.88
628.532	268.88
628.738	282.88
628.945	258.88
629.151	267.88
629.357	269.88
629.564	269.88
629.77	267.88
629.976	259.88
630.183	250.88
630.389	251.88
630.595	245.88
630.802	244.88
631.008	261.88
631.214	243.88
631.42	240.88
631.627	244.88
631.833	234.88
632.039	244.88
632.245	262.88
632.451	254.88
632.657	233.88
632.863	239.88
633.069	221.88
633.275	232.88
633.481	248.88
633.688	230.88
633.893	227.88
634.099	244.88
634.305	226.88
634.511	238.88
634.717	243.88
634.923	222.88
635.129	226.88
635.335	229.88
635.541	225.88
635.747	227.88
635.952	234.88
636.158	242.88
636.364	248.88
636.57	227.88
636.775	234.88
636.981	236.88
637.187	243.88
637.392	207.88
637.598	218.88
637.804	226.88
638.009	236.88
638.215	229.88
638.421	237.88
638.626	217.88
638.832	224.88
639.037	224.88
639.243	216.88
639.448	231.88
639.654	211.88
639.859	227.88
640.065	217.88
640.27	225.88
640.475	220.88
640.681	211.88
640.886	216.88
641.091	221.88
641.297	220.88
641.502	208.88
641.707	204.88
641.913	212.88
642.118	211.88
642.323	222.88
642.528	214.88
642.733	208.88
642.939	216.88
643.144	205.88
643.349	220.88
643.554	212.88
643.759	224.88
643.964	213.88
644.169	208.88
644.374	202.88
644.579	207.88
644.784	199.88
644.989	200.88
645.194	225.88
645.399	215.88
645.604	201.88
645.809	208.88
646.014	212.88
646.219	214.88
646.423	203.88
646.628	210.88
646.833	200.88
647.038	223.88
647.243	213.88
647.447	211.88
647.652	218.88
647.857	213.88
648.062	208.88
648.266	210.88
648.471	222.88
648.676	224.88
648.88	214.88
649.085	215.88
649.289	211.88
649.494	195.88
649.698	211.88
649.903	211.88
650.107	208.88
650.312	197.88
650.516	191.88
650.721	199.88
650.925	188.88
651.13	192.88
651.334	178.88
651.539	185.88
651.743	177.88
651.947	182.88
652.152	189.88
652.356	172.88
652.56	167.88
652.764	178.88
652.969	179.88
653.173	160.88
653.377	155.88
653.581	168.88
653.785	155.88
653.99	161.88
654.194	164.88
654.398	159.88
654.602	150.88
654.806	158.88
655.01	132.88
655.214	149.88
655.418	143.88
655.622	156.88
655.826	139.88
656.03	150.88
656.234	161.88
656.438	135.88
656.642	148.88
656.846	131.88
657.049	149.88
657.253	141.88
657.457	145.88
657.661	127.88
657.865	131.88
658.068	130.88
658.272	120.88
658.476	124.88
658.68	105.88
658.883	133.88
659.087	110.88
659.291	113.88
659.494	96.88
659.698	107.88
659.901	95.88
660.105	103.88
660.309	101.88
660.512	98.88
660.716	104.88
660.919	103.88
661.123	89.88
661.326	100.88
661.53	98.88
661.733	89.88
661.936	87.88
662.14	85.88
662.343	85.88
662.546	84.88
662.75	78.88
662.953	99.88
663.156	78.88
663.36	79.88
663.563	88.88
663.766	87.88
663.969	79.88
664.173	88.88
664.376	79.88
664.579	98.88
664.782	71.88
664.985	88.88
665.188	85.88
665.391	91.88
665.594	72.88
665.797	88.88
666	85.88
666.203	71.88
666.406	88.88
666.609	85.88
666.812	81.88
667.015	87.88
667.218	77.88
667.421	77.88
667.624	81.88
667.827	72.88
668.03	83.88
668.232	77.88
668.435	87.88
668.638	77.88
668.841	81.88
669.043	80.88
669.246	74.88
669.449	83.88
669.651	92.88
669.854	88.88
670.057	75.88
670.259	87.88
670.462	92.88
670.665	82.88
670.867	94.88
671.07	81.88
671.272	84.88
671.475	77.88
671.677	98.88
671.88	82.88
672.082	75.88
672.284	89.88
672.487	91.88
672.689	76.88
672.892	72.88
