Data from NiCl2@0.0625M.TitratingCurve.Agarose3%dH2O.NegLispCup.LampEnergy10.LIBS07252019_HRD10591_18-32-37-575.txt Node
Date: Thu Jul 25 18:32:37 EDT 2019
User: cochatt
Spectrometer: HR+D1059
Trigger mode: 1
Integration Time (sec): 1.000000E-1
Scans to average: 1
Electric dark correction enabled: true
Nonlinearity correction enabled: false
Boxcar width: 0
XAxis mode: Wavelengths
Number of Pixels in Spectrum: 2048
>>>>>Begin Spectral Data<<<<<
223.165	-15.25
223.4	-15.25
223.635	-15.25
223.869	-39.25
224.104	-23.25
224.338	-16.25
224.573	3.75
224.808	-12.25
225.042	0.75
225.277	-0.25
225.511	-13.25
225.746	-11.25
225.98	3.75
226.215	5.75
226.449	18.75
226.683	33.75
226.918	26.75
227.152	37.75
227.387	33.75
227.621	25.75
227.856	38.75
228.09	53.75
228.324	44.75
228.559	48.75
228.793	73.75
229.027	126.75
229.262	153.75
229.496	168.75
229.73	164.75
229.964	184.75
230.199	188.75
230.433	178.75
230.667	196.75
230.901	176.75
231.136	189.75
231.37	196.75
231.604	184.75
231.838	209.75
232.072	184.75
232.306	195.75
232.541	205.75
232.775	192.75
233.009	209.75
233.243	214.75
233.477	220.75
233.711	213.75
233.945	228.75
234.179	205.75
234.413	235.75
234.647	207.75
234.881	224.75
235.115	229.75
235.349	229.75
235.583	221.75
235.817	234.75
236.051	234.75
236.285	219.75
236.519	229.75
236.753	240.75
236.987	228.75
237.221	239.75
237.455	226.75
237.689	241.75
237.922	241.75
238.156	250.75
238.39	254.75
238.624	245.75
238.858	262.75
239.091	260.75
239.325	265.75
239.559	262.75
239.793	273.75
240.027	291.75
240.26	288.75
240.494	287.75
240.728	275.75
240.961	291.75
241.195	285.75
241.429	294.75
241.662	299.75
241.896	294.75
242.13	309.75
242.363	305.75
242.597	308.75
242.83	326.75
243.064	289.75
243.298	321.75
243.531	321.75
243.765	323.75
243.998	339.75
244.232	333.75
244.465	339.75
244.699	322.75
244.932	324.75
245.166	359.75
245.399	351.75
245.633	358.75
245.866	346.75
246.099	339.75
246.333	360.75
246.566	337.75
246.8	358.75
247.033	356.75
247.266	348.75
247.5	362.75
247.733	374.75
247.966	377.75
248.2	394.75
248.433	409.75
248.666	394.75
248.899	398.75
249.133	390.75
249.366	385.75
249.599	413.75
249.832	396.75
250.066	401.75
250.299	399.75
250.532	431.75
250.765	416.75
250.998	414.75
251.231	433.75
251.465	428.75
251.698	431.75
251.931	445.75
252.164	435.75
252.397	427.75
252.63	437.75
252.863	452.75
253.096	439.75
253.329	464.75
253.562	435.75
253.795	464.75
254.028	442.75
254.261	477.75
254.494	464.75
254.727	455.75
254.96	465.75
255.193	435.75
255.426	477.75
255.659	467.75
255.892	477.75
256.124	459.75
256.357	478.75
256.59	497.75
256.823	495.75
257.056	516.75
257.289	500.75
257.521	486.75
257.754	498.75
257.987	499.75
258.22	505.75
258.452	495.75
258.685	527.75
258.918	498.75
259.151	530.75
259.383	501.75
259.616	513.75
259.849	547.75
260.081	543.75
260.314	538.75
260.547	556.75
260.779	517.75
261.012	529.75
261.244	539.75
261.477	544.75
261.71	517.75
261.942	541.75
262.175	563.75
262.407	582.75
262.64	558.75
262.872	543.75
263.105	578.75
263.337	574.75
263.57	564.75
263.802	564.75
264.035	592.75
264.267	574.75
264.499	565.75
264.732	607.75
264.964	587.75
265.197	579.75
265.429	590.75
265.661	607.75
265.894	585.75
266.126	602.75
266.358	613.75
266.591	595.75
266.823	604.75
267.055	597.75
267.287	624.75
267.52	612.75
267.752	604.75
267.984	618.75
268.216	625.75
268.448	611.75
268.681	625.75
268.913	629.75
269.145	635.75
269.377	631.75
269.609	635.75
269.841	635.75
270.073	631.75
270.306	649.75
270.538	684.75
270.77	655.75
271.002	647.75
271.234	634.75
271.466	679.75
271.698	646.75
271.93	664.75
272.162	662.75
272.394	674.75
272.626	652.75
272.858	671.75
273.09	682.75
273.322	687.75
273.553	676.75
273.785	708.75
274.017	701.75
274.249	734.75
274.481	707.75
274.713	708.75
274.945	742.75
275.176	709.75
275.408	753.75
275.64	708.75
275.872	724.75
276.104	704.75
276.335	729.75
276.567	725.75
276.799	729.75
277.031	730.75
277.262	764.75
277.494	745.75
277.726	756.75
277.957	738.75
278.189	755.75
278.421	743.75
278.652	762.75
278.884	761.75
279.115	754.75
279.347	755.75
279.579	760.75
279.81	766.75
280.042	772.75
280.273	788.75
280.505	777.75
280.736	793.75
280.968	786.75
281.199	785.75
281.431	800.75
281.662	796.75
281.894	798.75
282.125	810.75
282.356	829.75
282.588	821.75
282.819	820.75
283.051	797.75
283.282	802.75
283.513	831.75
283.745	832.75
283.976	812.75
284.207	829.75
284.439	844.75
284.67	866.75
284.901	845.75
285.132	858.75
285.364	863.75
285.595	817.75
285.826	842.75
286.057	840.75
286.288	839.75
286.52	879.75
286.751	855.75
286.982	870.75
287.213	875.75
287.444	871.75
287.675	882.75
287.906	895.75
288.138	890.75
288.369	880.75
288.6	896.75
288.831	914.75
289.062	907.75
289.293	915.75
289.524	901.75
289.755	871.75
289.986	897.75
290.217	915.75
290.448	897.75
290.679	916.75
290.91	916.75
291.141	902.75
291.371	890.75
291.602	905.75
291.833	885.75
292.064	897.75
292.295	909.75
292.526	906.75
292.757	918.75
292.987	904.75
293.218	918.75
293.449	918.75
293.68	910.75
293.91	913.75
294.141	915.75
294.372	886.75
294.603	925.75
294.833	929.75
295.064	949.75
295.295	919.75
295.525	935.75
295.756	898.75
295.987	907.75
296.217	923.75
296.448	923.75
296.679	943.75
296.909	933.75
297.14	952.75
297.37	973.75
297.601	968.75
297.831	971.75
298.062	983.75
298.292	1002.75
298.523	978.75
298.753	995.75
298.984	1004.75
299.214	1008.75
299.445	973.75
299.675	983.75
299.905	1007.75
300.136	980.75
300.366	990.75
300.597	1009.75
300.827	993.75
301.057	1027.75
301.288	1043.75
301.518	1013.75
301.748	1017.75
301.979	1055.75
302.209	1075.75
302.439	1023.75
302.669	1061.75
302.9	1038.75
303.13	1057.75
303.36	1043.75
303.59	1061.75
303.82	1048.75
304.051	1043.75
304.281	1034.75
304.511	1045.75
304.741	1053.75
304.971	1044.75
305.201	1029.75
305.431	1031.75
305.661	1062.75
305.891	1019.75
306.121	994.75
306.352	1052.75
306.582	1027.75
306.812	974.75
307.042	1013.75
307.272	1023.75
307.502	1001.75
307.731	1011.75
307.961	1018.75
308.191	1054.75
308.421	1025.75
308.651	1027.75
308.881	1021.75
309.111	1051.75
309.341	1035.75
309.571	1043.75
309.8	1056.75
310.03	1046.75
310.26	1037.75
310.49	1030.75
310.72	1061.75
310.949	1057.75
311.179	1057.75
311.409	1077.75
311.639	1063.75
311.868	1047.75
312.098	1060.75
312.328	1069.75
312.557	1087.75
312.787	1071.75
313.017	1089.75
313.246	1108.75
313.476	1091.75
313.706	1094.75
313.935	1125.75
314.165	1085.75
314.394	1099.75
314.624	1114.75
314.853	1072.75
315.083	1096.75
315.312	1096.75
315.542	1121.75
315.771	1122.75
316.001	1083.75
316.23	1123.75
316.46	1112.75
316.689	1098.75
316.919	1122.75
317.148	1088.75
317.377	1100.75
317.607	1099.75
317.836	1090.75
318.065	1091.75
318.295	1111.75
318.524	1119.75
318.753	1099.75
318.983	1078.75
319.212	1065.75
319.441	1135.75
319.67	1107.75
319.9	1087.75
320.129	1091.75
320.358	1086.75
320.587	1107.75
320.816	1125.75
321.046	1109.75
321.275	1106.75
321.504	1127.75
321.733	1112.75
321.962	1120.75
322.191	1097.75
322.42	1138.75
322.649	1095.75
322.878	1119.75
323.108	1125.75
323.337	1133.75
323.566	1132.75
323.795	1126.75
324.024	1150.75
324.253	1156.75
324.482	1136.75
324.71	1155.75
324.939	1147.75
325.168	1191.75
325.397	1158.75
325.626	1167.75
325.855	1163.75
326.084	1215.75
326.313	1203.75
326.542	1208.75
326.77	1234.75
326.999	1180.75
327.228	1204.75
327.457	1192.75
327.686	1191.75
327.914	1199.75
328.143	1222.75
328.372	1188.75
328.6	1201.75
328.829	1204.75
329.058	1217.75
329.287	1225.75
329.515	1203.75
329.744	1229.75
329.972	1221.75
330.201	1257.75
330.43	1227.75
330.658	1240.75
330.887	1251.75
331.115	1257.75
331.344	1224.75
331.572	1258.75
331.801	1316.75
332.03	1322.75
332.258	1345.75
332.486	1340.75
332.715	1368.75
332.943	1443.75
333.172	1445.75
333.4	1507.75
333.629	1528.75
333.857	1555.75
334.085	1587.75
334.314	1547.75
334.542	1519.75
334.771	1572.75
334.999	1499.75
335.227	1487.75
335.455	1506.75
335.684	1480.75
335.912	1459.75
336.14	1485.75
336.369	1450.75
336.597	1471.75
336.825	1452.75
337.053	1447.75
337.281	1415.75
337.51	1394.75
337.738	1374.75
337.966	1362.75
338.194	1330.75
338.422	1308.75
338.65	1314.75
338.878	1313.75
339.106	1311.75
339.334	1307.75
339.562	1301.75
339.79	1257.75
340.018	1263.75
340.246	1250.75
340.474	1276.75
340.702	1271.75
340.93	1276.75
341.158	1244.75
341.386	1241.75
341.614	1260.75
341.842	1266.75
342.07	1289.75
342.298	1253.75
342.526	1270.75
342.754	1256.75
342.981	1285.75
343.209	1283.75
343.437	1347.75
343.665	1387.75
343.893	1488.75
344.12	1543.75
344.348	1452.75
344.576	1406.75
344.804	1375.75
345.031	1322.75
345.259	1319.75
345.487	1291.75
345.714	1247.75
345.942	1239.75
346.17	1242.75
346.397	1233.75
346.625	1243.75
346.853	1239.75
347.08	1218.75
347.308	1231.75
347.535	1201.75
347.763	1180.75
347.99	1226.75
348.218	1197.75
348.445	1207.75
348.673	1192.75
348.9	1187.75
349.128	1149.75
349.355	1170.75
349.583	1190.75
349.81	1192.75
350.037	1184.75
350.265	1213.75
350.492	1167.75
350.72	1203.75
350.947	1189.75
351.174	1172.75
351.402	1144.75
351.629	1152.75
351.856	1159.75
352.083	1177.75
352.311	1146.75
352.538	1166.75
352.765	1170.75
352.992	1178.75
353.22	1170.75
353.447	1125.75
353.674	1157.75
353.901	1158.75
354.128	1147.75
354.355	1152.75
354.583	1163.75
354.81	1147.75
355.037	1159.75
355.264	1205.75
355.491	1195.75
355.718	1151.75
355.945	1157.75
356.172	1164.75
356.399	1160.75
356.626	1193.75
356.853	1201.75
357.08	1157.75
357.307	1191.75
357.534	1170.75
357.761	1183.75
357.988	1217.75
358.215	1180.75
358.441	1164.75
358.668	1165.75
358.895	1166.75
359.122	1176.75
359.349	1174.75
359.576	1201.75
359.802	1185.75
360.029	1147.75
360.256	1205.75
360.483	1186.75
360.709	1157.75
360.936	1172.75
361.163	1145.75
361.39	1173.75
361.616	1175.75
361.843	1205.75
362.07	1168.75
362.296	1158.75
362.523	1184.75
362.749	1188.75
362.976	1164.75
363.203	1155.75
363.429	1161.75
363.656	1186.75
363.882	1209.75
364.109	1178.75
364.335	1183.75
364.562	1184.75
364.788	1178.75
365.015	1177.75
365.241	1145.75
365.468	1177.75
365.694	1169.75
365.92	1171.75
366.147	1205.75
366.373	1177.75
366.599	1159.75
366.826	1159.75
367.052	1182.75
367.278	1179.75
367.505	1175.75
367.731	1173.75
367.957	1183.75
368.184	1182.75
368.41	1200.75
368.636	1174.75
368.862	1219.75
369.089	1192.75
369.315	1203.75
369.541	1235.75
369.767	1231.75
369.993	1221.75
370.219	1221.75
370.445	1244.75
370.672	1263.75
370.898	1250.75
371.124	1235.75
371.35	1245.75
371.576	1253.75
371.802	1258.75
372.028	1270.75
372.254	1293.75
372.48	1307.75
372.706	1299.75
372.932	1271.75
373.158	1334.75
373.384	1285.75
373.61	1281.75
373.835	1243.75
374.061	1272.75
374.287	1297.75
374.513	1309.75
374.739	1340.75
374.965	1404.75
375.191	1372.75
375.416	1381.75
375.642	1357.75
375.868	1325.75
376.094	1344.75
376.319	1298.75
376.545	1285.75
376.771	1264.75
376.997	1308.75
377.222	1229.75
377.448	1263.75
377.674	1250.75
377.899	1279.75
378.125	1254.75
378.35	1273.75
378.576	1247.75
378.802	1253.75
379.027	1259.75
379.253	1261.75
379.478	1266.75
379.704	1293.75
379.929	1269.75
380.155	1253.75
380.38	1264.75
380.606	1260.75
380.831	1256.75
381.057	1272.75
381.282	1276.75
381.507	1284.75
381.733	1281.75
381.958	1266.75
382.184	1282.75
382.409	1291.75
382.634	1310.75
382.86	1315.75
383.085	1346.75
383.31	1363.75
383.535	1364.75
383.761	1365.75
383.986	1392.75
384.211	1407.75
384.436	1418.75
384.662	1463.75
384.887	1460.75
385.112	1451.75
385.337	1541.75
385.562	1476.75
385.787	1511.75
386.013	1528.75
386.238	1548.75
386.463	1529.75
386.688	1563.75
386.913	1532.75
387.138	1489.75
387.363	1509.75
387.588	1537.75
387.813	1526.75
388.038	1484.75
388.263	1531.75
388.488	1534.75
388.713	1499.75
388.938	1528.75
389.163	1489.75
389.387	1489.75
389.612	1468.75
389.837	1537.75
390.062	1466.75
390.287	1495.75
390.512	1501.75
390.736	1503.75
390.961	1545.75
391.186	1531.75
391.411	1571.75
391.636	1631.75
391.86	1642.75
392.085	1695.75
392.31	1663.75
392.534	1667.75
392.759	1604.75
392.984	1601.75
393.208	1623.75
393.433	1653.75
393.658	1669.75
393.882	1612.75
394.107	1591.75
394.331	1583.75
394.556	1595.75
394.78	1621.75
395.005	1577.75
395.229	1617.75
395.454	1652.75
395.678	1676.75
395.903	1654.75
396.127	1685.75
396.352	1651.75
396.576	1636.75
396.801	1617.75
397.025	1690.75
397.249	1701.75
397.474	1664.75
397.698	1696.75
397.922	1720.75
398.147	1740.75
398.371	1712.75
398.595	1811.75
398.82	1858.75
399.044	2000.75
399.268	2114.75
399.492	2357.75
399.717	2586.75
399.941	2607.75
400.165	2383.75
400.389	2205.75
400.613	2055.75
400.837	2019.75
401.062	1933.75
401.286	1865.75
401.51	1890.75
401.734	1844.75
401.958	1909.75
402.182	1895.75
402.406	1906.75
402.63	1885.75
402.854	1933.75
403.078	1961.75
403.302	2011.75
403.526	2005.75
403.75	2063.75
403.974	2051.75
404.198	2037.75
404.422	2067.75
404.645	2033.75
404.869	2023.75
405.093	2040.75
405.317	2022.75
405.541	2040.75
405.765	1989.75
405.988	1989.75
406.212	2047.75
406.436	2006.75
406.66	2103.75
406.883	2099.75
407.107	2195.75
407.331	2287.75
407.555	2343.75
407.778	2354.75
408.002	2344.75
408.226	2265.75
408.449	2238.75
408.673	2191.75
408.896	2110.75
409.12	2075.75
409.344	2090.75
409.567	2048.75
409.791	2077.75
410.014	2065.75
410.238	2053.75
410.461	2041.75
410.685	2035.75
410.908	2024.75
411.132	1959.75
411.355	1937.75
411.578	1979.75
411.802	1925.75
412.025	1912.75
412.249	1945.75
412.472	1964.75
412.695	1909.75
412.919	1877.75
413.142	1911.75
413.365	1886.75
413.589	1913.75
413.812	1868.75
414.035	1877.75
414.258	1824.75
414.482	1880.75
414.705	1850.75
414.928	1879.75
415.151	1863.75
415.374	1871.75
415.597	1814.75
415.821	1839.75
416.044	1799.75
416.267	1795.75
416.49	1797.75
416.713	1811.75
416.936	1815.75
417.159	1807.75
417.382	1733.75
417.605	1782.75
417.828	1759.75
418.051	1829.75
418.274	1802.75
418.497	1800.75
418.72	1842.75
418.943	1820.75
419.166	1934.75
419.389	2071.75
419.611	2025.75
419.834	1919.75
420.057	1867.75
420.28	1841.75
420.503	1804.75
420.726	1776.75
420.948	1804.75
421.171	1800.75
421.394	1795.75
421.617	1778.75
421.839	1774.75
422.062	1863.75
422.285	1773.75
422.507	1828.75
422.73	1827.75
422.953	1843.75
423.175	1830.75
423.398	1840.75
423.621	1826.75
423.843	1856.75
424.066	1852.75
424.288	1856.75
424.511	1852.75
424.733	1811.75
424.956	1811.75
425.178	1808.75
425.401	1819.75
425.623	1833.75
425.846	1769.75
426.068	1769.75
426.291	1763.75
426.513	1747.75
426.735	1737.75
426.958	1746.75
427.18	1686.75
427.402	1677.75
427.625	1695.75
427.847	1630.75
428.069	1659.75
428.292	1719.75
428.514	1645.75
428.736	1642.75
428.958	1655.75
429.181	1613.75
429.403	1583.75
429.625	1588.75
429.847	1587.75
430.069	1609.75
430.292	1650.75
430.514	1595.75
430.736	1603.75
430.958	1607.75
431.18	1643.75
431.402	1642.75
431.624	1624.75
431.846	1632.75
432.068	1645.75
432.29	1676.75
432.512	1669.75
432.734	1675.75
432.956	1633.75
433.178	1657.75
433.4	1649.75
433.622	1637.75
433.844	1676.75
434.066	1707.75
434.287	1683.75
434.509	1734.75
434.731	1818.75
434.953	1805.75
435.175	1847.75
435.397	1807.75
435.618	1747.75
435.84	1727.75
436.062	1657.75
436.284	1642.75
436.505	1611.75
436.727	1617.75
436.949	1652.75
437.17	1627.75
437.392	1636.75
437.614	1603.75
437.835	1567.75
438.057	1616.75
438.278	1579.75
438.5	1585.75
438.721	1597.75
438.943	1587.75
439.165	1558.75
439.386	1595.75
439.608	1606.75
439.829	1600.75
440.05	1637.75
440.272	1661.75
440.493	1609.75
440.715	1629.75
440.936	1666.75
441.158	1659.75
441.379	1709.75
441.6	1808.75
441.822	1793.75
442.043	1826.75
442.264	1764.75
442.486	1771.75
442.707	1712.75
442.928	1736.75
443.149	1802.75
443.371	1733.75
443.592	1770.75
443.813	1797.75
444.034	1792.75
444.255	1863.75
444.476	1909.75
444.698	1995.75
444.919	2019.75
445.14	2049.75
445.361	1899.75
445.582	1859.75
445.803	1768.75
446.024	1713.75
446.245	1665.75
446.466	1677.75
446.687	1636.75
446.908	1619.75
447.129	1592.75
447.35	1545.75
447.571	1572.75
447.792	1503.75
448.013	1521.75
448.234	1498.75
448.455	1535.75
448.675	1480.75
448.896	1504.75
449.117	1502.75
449.338	1517.75
449.559	1480.75
449.779	1455.75
450	1439.75
450.221	1491.75
450.442	1472.75
450.662	1472.75
450.883	1457.75
451.104	1465.75
451.324	1472.75
451.545	1486.75
451.766	1486.75
451.986	1447.75
452.207	1471.75
452.428	1489.75
452.648	1481.75
452.869	1402.75
453.089	1419.75
453.31	1433.75
453.53	1419.75
453.751	1395.75
453.971	1399.75
454.192	1456.75
454.412	1361.75
454.633	1363.75
454.853	1384.75
455.073	1388.75
455.294	1376.75
455.514	1370.75
455.734	1353.75
455.955	1344.75
456.175	1384.75
456.395	1365.75
456.616	1361.75
456.836	1380.75
457.056	1374.75
457.276	1408.75
457.497	1405.75
457.717	1394.75
457.937	1385.75
458.157	1397.75
458.377	1463.75
458.598	1459.75
458.818	1504.75
459.038	1535.75
459.258	1587.75
459.478	1657.75
459.698	1687.75
459.918	1663.75
460.138	1730.75
460.358	1820.75
460.578	1833.75
460.798	1890.75
461.018	1887.75
461.238	1802.75
461.458	1848.75
461.678	1808.75
461.898	1841.75
462.118	1891.75
462.338	1991.75
462.558	2057.75
462.777	2076.75
462.997	2197.75
463.217	2320.75
463.437	2317.75
463.657	2237.75
463.876	2173.75
464.096	2146.75
464.316	2099.75
464.536	2104.75
464.755	2027.75
464.975	2043.75
465.195	1893.75
465.414	1808.75
465.634	1742.75
465.854	1655.75
466.073	1673.75
466.293	1610.75
466.512	1552.75
466.732	1575.75
466.951	1567.75
467.171	1602.75
467.391	1553.75
467.61	1564.75
467.829	1563.75
468.049	1489.75
468.268	1517.75
468.488	1465.75
468.707	1505.75
468.927	1519.75
469.146	1496.75
469.365	1522.75
469.585	1533.75
469.804	1521.75
470.023	1552.75
470.243	1526.75
470.462	1572.75
470.681	1600.75
470.901	1611.75
471.12	1600.75
471.339	1531.75
471.558	1520.75
471.777	1525.75
471.997	1524.75
472.216	1536.75
472.435	1508.75
472.654	1502.75
472.873	1483.75
473.092	1504.75
473.311	1485.75
473.53	1499.75
473.749	1449.75
473.968	1451.75
474.187	1465.75
474.406	1459.75
474.625	1441.75
474.844	1461.75
475.063	1499.75
475.282	1499.75
475.501	1528.75
475.72	1525.75
475.939	1515.75
476.158	1560.75
476.377	1562.75
476.596	1560.75
476.814	1584.75
477.033	1580.75
477.252	1626.75
477.471	1649.75
477.69	1663.75
477.908	1705.75
478.127	1727.75
478.346	1751.75
478.564	1772.75
478.783	1768.75
479.002	1810.75
479.22	1833.75
479.439	1847.75
479.658	1841.75
479.876	1852.75
480.095	1861.75
480.313	1953.75
480.532	1977.75
480.751	1969.75
480.969	1904.75
481.188	1890.75
481.406	1848.75
481.624	1795.75
481.843	1785.75
482.061	1779.75
482.28	1779.75
482.498	1792.75
482.717	1731.75
482.935	1770.75
483.153	1767.75
483.372	1791.75
483.59	1805.75
483.808	1788.75
484.027	1812.75
484.245	1830.75
484.463	1811.75
484.681	1886.75
484.9	1843.75
485.118	1891.75
485.336	1863.75
485.554	1877.75
485.772	1914.75
485.99	1908.75
486.209	1926.75
486.427	1905.75
486.645	1866.75
486.863	1879.75
487.081	1876.75
487.299	1881.75
487.517	1872.75
487.735	1874.75
487.953	1894.75
488.171	1873.75
488.389	1867.75
488.607	1891.75
488.825	1832.75
489.043	1824.75
489.261	1872.75
489.479	1851.75
489.696	1855.75
489.914	1850.75
490.132	1855.75
490.35	1828.75
490.568	1864.75
490.786	1864.75
491.003	1831.75
491.221	1886.75
491.439	1846.75
491.657	1850.75
491.874	1841.75
492.092	1854.75
492.31	1848.75
492.527	1861.75
492.745	1832.75
492.963	1855.75
493.18	1880.75
493.398	1875.75
493.615	1837.75
493.833	1861.75
494.05	1852.75
494.268	1906.75
494.485	1888.75
494.703	1901.75
494.92	1871.75
495.138	1938.75
495.355	1896.75
495.573	1933.75
495.79	1930.75
496.008	1999.75
496.225	1953.75
496.442	1993.75
496.66	1983.75
496.877	2013.75
497.094	2005.75
497.312	2085.75
497.529	2105.75
497.746	2128.75
497.963	2215.75
498.181	2315.75
498.398	2408.75
498.615	2483.75
498.832	2631.75
499.049	2800.75
499.267	2948.75
499.484	3175.75
499.701	3489.75
499.918	3806.75
500.135	4195.75
500.352	4628.75
500.569	4779.75
500.786	4654.75
501.003	4447.75
501.22	4172.75
501.437	3757.75
501.654	3407.75
501.871	3151.75
502.088	2955.75
502.305	2757.75
502.522	2656.75
502.739	2533.75
502.956	2415.75
503.172	2309.75
503.389	2240.75
503.606	2181.75
503.823	2177.75
504.04	2118.75
504.256	2138.75
504.473	2152.75
504.69	2156.75
504.907	2103.75
505.123	1975.75
505.34	1903.75
505.557	1851.75
505.773	1809.75
505.99	1805.75
506.207	1728.75
506.423	1722.75
506.64	1692.75
506.856	1681.75
507.073	1638.75
507.289	1657.75
507.506	1615.75
507.722	1640.75
507.939	1618.75
508.155	1586.75
508.372	1566.75
508.588	1560.75
508.805	1543.75
509.021	1545.75
509.238	1527.75
509.454	1507.75
509.67	1503.75
509.887	1507.75
510.103	1485.75
510.319	1527.75
510.536	1524.75
510.752	1467.75
510.968	1483.75
511.184	1519.75
511.401	1506.75
511.617	1467.75
511.833	1461.75
512.049	1474.75
512.265	1474.75
512.481	1493.75
512.698	1461.75
512.914	1503.75
513.13	1494.75
513.346	1456.75
513.562	1489.75
513.778	1484.75
513.994	1466.75
514.21	1487.75
514.426	1469.75
514.642	1515.75
514.858	1505.75
515.074	1545.75
515.29	1512.75
515.506	1551.75
515.721	1578.75
515.937	1577.75
516.153	1628.75
516.369	1612.75
516.585	1650.75
516.801	1696.75
517.016	1766.75
517.232	1822.75
517.448	1899.75
517.664	1928.75
517.879	1933.75
518.095	1953.75
518.311	1901.75
518.527	1842.75
518.742	1786.75
518.958	1705.75
519.173	1688.75
519.389	1669.75
519.605	1609.75
519.82	1562.75
520.036	1568.75
520.251	1506.75
520.467	1485.75
520.682	1448.75
520.898	1486.75
521.113	1456.75
521.329	1452.75
521.544	1404.75
521.76	1465.75
521.975	1393.75
522.19	1386.75
522.406	1372.75
522.621	1369.75
522.836	1370.75
523.052	1376.75
523.267	1350.75
523.482	1382.75
523.698	1337.75
523.913	1293.75
524.128	1348.75
524.343	1316.75
524.559	1319.75
524.774	1338.75
524.989	1331.75
525.204	1352.75
525.419	1313.75
525.634	1297.75
525.849	1345.75
526.064	1311.75
526.28	1317.75
526.495	1309.75
526.71	1311.75
526.925	1267.75
527.14	1317.75
527.355	1287.75
527.57	1300.75
527.785	1274.75
527.999	1319.75
528.214	1321.75
528.429	1331.75
528.644	1297.75
528.859	1306.75
529.074	1270.75
529.289	1290.75
529.503	1284.75
529.718	1277.75
529.933	1298.75
530.148	1263.75
530.363	1285.75
530.577	1269.75
530.792	1252.75
531.007	1289.75
531.221	1317.75
531.436	1301.75
531.651	1305.75
531.865	1284.75
532.08	1285.75
532.295	1301.75
532.509	1297.75
532.724	1298.75
532.938	1292.75
533.153	1269.75
533.367	1264.75
533.582	1267.75
533.796	1289.75
534.011	1283.75
534.225	1261.75
534.44	1262.75
534.654	1216.75
534.868	1242.75
535.083	1241.75
535.297	1251.75
535.511	1230.75
535.726	1220.75
535.94	1208.75
536.154	1187.75
536.369	1203.75
536.583	1190.75
536.797	1226.75
537.011	1232.75
537.225	1191.75
537.44	1205.75
537.654	1187.75
537.868	1167.75
538.082	1183.75
538.296	1154.75
538.51	1142.75
538.724	1165.75
538.938	1139.75
539.153	1179.75
539.367	1183.75
539.581	1190.75
539.795	1132.75
540.009	1173.75
540.222	1175.75
540.436	1126.75
540.65	1136.75
540.864	1132.75
541.078	1132.75
541.292	1101.75
541.506	1138.75
541.72	1169.75
541.934	1115.75
542.147	1165.75
542.361	1143.75
542.575	1148.75
542.789	1112.75
543.002	1101.75
543.216	1140.75
543.43	1130.75
543.644	1079.75
543.857	1118.75
544.071	1144.75
544.285	1123.75
544.498	1125.75
544.712	1120.75
544.925	1164.75
545.139	1164.75
545.352	1121.75
545.566	1177.75
545.779	1164.75
545.993	1148.75
546.206	1159.75
546.42	1137.75
546.633	1154.75
546.847	1165.75
547.06	1140.75
547.274	1130.75
547.487	1128.75
547.7	1151.75
547.914	1140.75
548.127	1173.75
548.34	1157.75
548.554	1154.75
548.767	1149.75
548.98	1138.75
549.193	1159.75
549.407	1190.75
549.62	1207.75
549.833	1171.75
550.046	1210.75
550.259	1169.75
550.473	1123.75
550.686	1118.75
550.899	1128.75
551.112	1131.75
551.325	1104.75
551.538	1132.75
551.751	1150.75
551.964	1141.75
552.177	1144.75
552.39	1140.75
552.603	1194.75
552.816	1208.75
553.029	1228.75
553.242	1213.75
553.455	1263.75
553.667	1222.75
553.88	1224.75
554.093	1182.75
554.306	1157.75
554.519	1157.75
554.732	1123.75
554.944	1122.75
555.157	1096.75
555.37	1083.75
555.583	1084.75
555.795	1073.75
556.008	1033.75
556.221	1008.75
556.433	1003.75
556.646	1032.75
556.859	1029.75
557.071	1032.75
557.284	994.75
557.496	955.75
557.709	1021.75
557.921	1013.75
558.134	965.75
558.346	980.75
558.559	970.75
558.771	959.75
558.984	956.75
559.196	947.75
559.409	973.75
559.621	949.75
559.833	964.75
560.046	947.75
560.258	935.75
560.47	938.75
560.683	944.75
560.895	924.75
561.107	956.75
561.32	948.75
561.532	971.75
561.744	939.75
561.956	929.75
562.168	921.75
562.381	947.75
562.593	945.75
562.805	968.75
563.017	972.75
563.229	960.75
563.441	963.75
563.653	997.75
563.865	971.75
564.077	992.75
564.289	981.75
564.501	992.75
564.713	1042.75
564.925	1055.75
565.137	1041.75
565.349	1071.75
565.561	1085.75
565.773	1127.75
565.985	1169.75
566.197	1207.75
566.408	1273.75
566.62	1353.75
566.832	1448.75
567.044	1455.75
567.255	1461.75
567.467	1503.75
567.679	1560.75
567.891	1681.75
568.102	1645.75
568.314	1567.75
568.526	1449.75
568.737	1351.75
568.949	1252.75
569.161	1164.75
569.372	1127.75
569.584	1105.75
569.795	1045.75
570.007	1007.75
570.218	986.75
570.43	981.75
570.641	967.75
570.853	963.75
571.064	968.75
571.276	967.75
571.487	961.75
571.698	909.75
571.91	890.75
572.121	856.75
572.333	854.75
572.544	855.75
572.755	832.75
572.966	846.75
573.178	803.75
573.389	808.75
573.6	763.75
573.811	764.75
574.023	773.75
574.234	764.75
574.445	783.75
574.656	762.75
574.867	779.75
575.078	761.75
575.289	751.75
575.501	724.75
575.712	736.75
575.923	739.75
576.134	725.75
576.345	725.75
576.556	734.75
576.767	712.75
576.978	706.75
577.188	716.75
577.399	697.75
577.61	699.75
577.821	691.75
578.032	704.75
578.243	707.75
578.454	694.75
578.665	699.75
578.875	672.75
579.086	695.75
579.297	681.75
579.508	663.75
579.718	674.75
579.929	673.75
580.14	674.75
580.35	660.75
580.561	663.75
580.772	677.75
580.982	662.75
581.193	665.75
581.403	653.75
581.614	661.75
581.825	655.75
582.035	657.75
582.246	634.75
582.456	655.75
582.667	666.75
582.877	640.75
583.087	635.75
583.298	633.75
583.508	650.75
583.719	624.75
583.929	645.75
584.139	641.75
584.35	628.75
584.56	616.75
584.77	612.75
584.981	627.75
585.191	623.75
585.401	619.75
585.611	607.75
585.821	629.75
586.032	635.75
586.242	629.75
586.452	608.75
586.662	590.75
586.872	617.75
587.082	619.75
587.292	616.75
587.502	614.75
587.713	616.75
587.923	623.75
588.133	627.75
588.343	617.75
588.553	604.75
588.762	611.75
588.972	609.75
589.182	635.75
589.392	603.75
589.602	611.75
589.812	617.75
590.022	634.75
590.232	612.75
590.441	600.75
590.651	630.75
590.861	601.75
591.071	613.75
591.281	615.75
591.49	662.75
591.7	659.75
591.91	632.75
592.119	654.75
592.329	653.75
592.539	693.75
592.748	705.75
592.958	728.75
593.167	733.75
593.377	726.75
593.587	735.75
593.796	727.75
594.006	747.75
594.215	730.75
594.424	734.75
594.634	745.75
594.843	693.75
595.053	689.75
595.262	661.75
595.472	647.75
595.681	635.75
595.89	619.75
596.1	609.75
596.309	613.75
596.518	595.75
596.727	579.75
596.937	584.75
597.146	568.75
597.355	570.75
597.564	562.75
597.774	540.75
597.983	535.75
598.192	518.75
598.401	537.75
598.61	546.75
598.819	543.75
599.028	540.75
599.237	542.75
599.446	528.75
599.655	534.75
599.864	531.75
600.073	506.75
600.282	512.75
600.491	503.75
600.7	502.75
600.909	516.75
601.118	502.75
601.327	488.75
601.536	512.75
601.745	517.75
601.953	504.75
602.162	496.75
602.371	490.75
602.58	495.75
602.789	475.75
602.997	499.75
603.206	472.75
603.415	486.75
603.623	455.75
603.832	442.75
604.041	463.75
604.249	448.75
604.458	486.75
604.666	483.75
604.875	462.75
605.084	481.75
605.292	468.75
605.501	463.75
605.709	481.75
605.918	466.75
606.126	456.75
606.334	467.75
606.543	465.75
606.751	468.75
606.96	445.75
607.168	467.75
607.376	453.75
607.585	433.75
607.793	450.75
608.001	451.75
608.21	459.75
608.418	433.75
608.626	455.75
608.834	443.75
609.043	442.75
609.251	440.75
609.459	433.75
609.667	414.75
609.875	421.75
610.083	435.75
610.291	453.75
610.499	451.75
610.707	451.75
610.916	437.75
611.124	443.75
611.332	430.75
611.54	439.75
611.748	418.75
611.955	443.75
612.163	432.75
612.371	429.75
612.579	438.75
612.787	441.75
612.995	432.75
613.203	425.75
613.411	427.75
613.618	436.75
613.826	414.75
614.034	457.75
614.242	417.75
614.449	417.75
614.657	402.75
614.865	416.75
615.072	417.75
615.28	413.75
615.488	409.75
615.695	423.75
615.903	417.75
616.111	428.75
616.318	425.75
616.526	431.75
616.733	436.75
616.941	435.75
617.148	420.75
617.356	411.75
617.563	420.75
617.771	428.75
617.978	404.75
618.185	418.75
618.393	411.75
618.6	410.75
618.807	419.75
619.015	436.75
619.222	415.75
619.429	431.75
619.637	417.75
619.844	409.75
620.051	394.75
620.258	398.75
620.466	395.75
620.673	393.75
620.88	379.75
621.087	401.75
621.294	403.75
621.501	392.75
621.708	376.75
621.915	405.75
622.122	407.75
622.329	393.75
622.536	396.75
622.743	396.75
622.95	387.75
623.157	372.75
623.364	359.75
623.571	377.75
623.778	378.75
623.985	374.75
624.192	373.75
624.399	362.75
624.606	378.75
624.812	381.75
625.019	374.75
625.226	367.75
625.433	371.75
625.639	349.75
625.846	355.75
626.053	359.75
626.259	354.75
626.466	367.75
626.673	353.75
626.879	364.75
627.086	357.75
627.293	356.75
627.499	359.75
627.706	367.75
627.912	350.75
628.119	353.75
628.325	339.75
628.532	357.75
628.738	344.75
628.945	341.75
629.151	338.75
629.357	332.75
629.564	337.75
629.77	326.75
629.976	323.75
630.183	324.75
630.389	326.75
630.595	319.75
630.802	329.75
631.008	335.75
631.214	328.75
631.42	320.75
631.627	326.75
631.833	342.75
632.039	326.75
632.245	313.75
632.451	315.75
632.657	309.75
632.863	314.75
633.069	323.75
633.275	330.75
633.481	311.75
633.688	315.75
633.893	293.75
634.099	311.75
634.305	311.75
634.511	302.75
634.717	333.75
634.923	322.75
635.129	308.75
635.335	296.75
635.541	296.75
635.747	301.75
635.952	302.75
636.158	304.75
636.364	307.75
636.57	295.75
636.775	311.75
636.981	317.75
637.187	331.75
637.392	283.75
637.598	303.75
637.804	312.75
638.009	299.75
638.215	287.75
638.421	300.75
638.626	296.75
638.832	305.75
639.037	285.75
639.243	297.75
639.448	315.75
639.654	301.75
639.859	282.75
640.065	280.75
640.27	295.75
640.475	288.75
640.681	278.75
640.886	287.75
641.091	279.75
641.297	291.75
641.502	292.75
641.707	282.75
641.913	275.75
642.118	275.75
642.323	283.75
642.528	284.75
642.733	297.75
642.939	307.75
643.144	265.75
643.349	290.75
643.554	268.75
643.759	278.75
643.964	280.75
644.169	299.75
644.374	277.75
644.579	289.75
644.784	297.75
644.989	286.75
645.194	283.75
645.399	282.75
645.604	268.75
645.809	288.75
646.014	301.75
646.219	296.75
646.423	299.75
646.628	289.75
646.833	276.75
647.038	297.75
647.243	287.75
647.447	292.75
647.652	307.75
647.857	309.75
648.062	300.75
648.266	313.75
648.471	317.75
648.676	304.75
648.88	316.75
649.085	307.75
649.289	315.75
649.494	305.75
649.698	295.75
649.903	293.75
650.107	280.75
650.312	293.75
650.516	298.75
650.721	274.75
650.925	275.75
651.13	261.75
651.334	280.75
651.539	284.75
651.743	292.75
651.947	287.75
652.152	275.75
652.356	265.75
652.56	267.75
652.764	266.75
652.969	275.75
653.173	251.75
653.377	270.75
653.581	261.75
653.785	279.75
653.99	273.75
654.194	263.75
654.398	284.75
654.602	279.75
654.806	277.75
655.01	276.75
655.214	279.75
655.418	273.75
655.622	294.75
655.826	304.75
656.03	317.75
656.234	320.75
656.438	300.75
656.642	318.75
656.846	317.75
657.049	295.75
657.253	286.75
657.457	242.75
657.661	236.75
657.865	215.75
658.068	212.75
658.272	211.75
658.476	179.75
658.68	162.75
658.883	162.75
659.087	151.75
659.291	157.75
659.494	135.75
659.698	132.75
659.901	130.75
660.105	126.75
660.309	125.75
660.512	132.75
660.716	125.75
660.919	112.75
661.123	99.75
661.326	115.75
661.53	114.75
661.733	97.75
661.936	113.75
662.14	91.75
662.343	105.75
662.546	83.75
662.75	99.75
662.953	98.75
663.156	81.75
663.36	78.75
663.563	72.75
663.766	97.75
663.969	83.75
664.173	82.75
664.376	76.75
664.579	82.75
664.782	97.75
664.985	78.75
665.188	89.75
665.391	68.75
665.594	68.75
665.797	86.75
666	87.75
666.203	72.75
666.406	83.75
666.609	99.75
666.812	84.75
667.015	83.75
667.218	77.75
667.421	65.75
667.624	83.75
667.827	72.75
668.03	86.75
668.232	81.75
668.435	87.75
668.638	87.75
668.841	87.75
669.043	71.75
669.246	79.75
669.449	79.75
669.651	77.75
669.854	69.75
670.057	83.75
670.259	73.75
670.462	79.75
670.665	91.75
670.867	71.75
671.07	88.75
671.272	85.75
671.475	87.75
671.677	72.75
671.88	72.75
672.082	86.75
672.284	81.75
672.487	72.75
672.689	64.75
672.892	73.75
