Data from NiCl2@0.0625M.TitratingCurve.Agarose3%dH2O.NegLispCup.LampEnergy10.LIBS07252019_HRD10591_18-33-35-576.txt Node
Date: Thu Jul 25 18:33:35 EDT 2019
User: cochatt
Spectrometer: HR+D1059
Trigger mode: 1
Integration Time (sec): 1.000000E-1
Scans to average: 1
Electric dark correction enabled: true
Nonlinearity correction enabled: false
Boxcar width: 0
XAxis mode: Wavelengths
Number of Pixels in Spectrum: 2048
>>>>>Begin Spectral Data<<<<<
223.165	-19.75
223.4	-19.75
223.635	-19.75
223.869	-22.75
224.104	-22.75
224.338	-10.75
224.573	-4.75
224.808	-18.75
225.042	-15.75
225.277	-11.75
225.511	-1.75
225.746	10.25
225.98	7.25
226.215	12.25
226.449	21.25
226.683	22.25
226.918	22.25
227.152	33.25
227.387	31.25
227.621	41.25
227.856	42.25
228.09	33.25
228.324	56.25
228.559	57.25
228.793	75.25
229.027	143.25
229.262	154.25
229.496	172.25
229.73	186.25
229.964	197.25
230.199	193.25
230.433	196.25
230.667	188.25
230.901	188.25
231.136	191.25
231.37	186.25
231.604	170.25
231.838	212.25
232.072	196.25
232.306	212.25
232.541	211.25
232.775	213.25
233.009	215.25
233.243	213.25
233.477	206.25
233.711	218.25
233.945	232.25
234.179	215.25
234.413	222.25
234.647	220.25
234.881	232.25
235.115	221.25
235.349	241.25
235.583	236.25
235.817	208.25
236.051	211.25
236.285	231.25
236.519	228.25
236.753	245.25
236.987	230.25
237.221	237.25
237.455	228.25
237.689	235.25
237.922	256.25
238.156	250.25
238.39	252.25
238.624	253.25
238.858	256.25
239.091	262.25
239.325	274.25
239.559	280.25
239.793	284.25
240.027	257.25
240.26	278.25
240.494	282.25
240.728	286.25
240.961	283.25
241.195	276.25
241.429	296.25
241.662	298.25
241.896	290.25
242.13	297.25
242.363	289.25
242.597	313.25
242.83	315.25
243.064	315.25
243.298	316.25
243.531	322.25
243.765	334.25
243.998	327.25
244.232	333.25
244.465	327.25
244.699	330.25
244.932	348.25
245.166	360.25
245.399	369.25
245.633	356.25
245.866	358.25
246.099	354.25
246.333	345.25
246.566	364.25
246.8	370.25
247.033	368.25
247.266	375.25
247.5	353.25
247.733	382.25
247.966	386.25
248.2	425.25
248.433	404.25
248.666	385.25
248.899	378.25
249.133	386.25
249.366	412.25
249.599	396.25
249.832	378.25
250.066	416.25
250.299	425.25
250.532	406.25
250.765	417.25
250.998	429.25
251.231	419.25
251.465	438.25
251.698	436.25
251.931	408.25
252.164	405.25
252.397	451.25
252.63	441.25
252.863	448.25
253.096	454.25
253.329	458.25
253.562	456.25
253.795	465.25
254.028	460.25
254.261	468.25
254.494	463.25
254.727	468.25
254.96	476.25
255.193	476.25
255.426	497.25
255.659	476.25
255.892	471.25
256.124	489.25
256.357	481.25
256.59	488.25
256.823	493.25
257.056	499.25
257.289	483.25
257.521	492.25
257.754	509.25
257.987	522.25
258.22	514.25
258.452	508.25
258.685	525.25
258.918	509.25
259.151	527.25
259.383	523.25
259.616	525.25
259.849	529.25
260.081	536.25
260.314	538.25
260.547	537.25
260.779	548.25
261.012	558.25
261.244	587.25
261.477	564.25
261.71	582.25
261.942	575.25
262.175	564.25
262.407	549.25
262.64	553.25
262.872	569.25
263.105	578.25
263.337	575.25
263.57	592.25
263.802	586.25
264.035	576.25
264.267	580.25
264.499	583.25
264.732	593.25
264.964	588.25
265.197	593.25
265.429	600.25
265.661	602.25
265.894	600.25
266.126	609.25
266.358	587.25
266.591	624.25
266.823	639.25
267.055	603.25
267.287	610.25
267.52	610.25
267.752	628.25
267.984	629.25
268.216	655.25
268.448	628.25
268.681	641.25
268.913	629.25
269.145	637.25
269.377	643.25
269.609	640.25
269.841	643.25
270.073	644.25
270.306	655.25
270.538	661.25
270.77	650.25
271.002	652.25
271.234	640.25
271.466	662.25
271.698	673.25
271.93	670.25
272.162	675.25
272.394	669.25
272.626	667.25
272.858	711.25
273.09	696.25
273.322	700.25
273.553	689.25
273.785	712.25
274.017	731.25
274.249	717.25
274.481	704.25
274.713	724.25
274.945	722.25
275.176	725.25
275.408	743.25
275.64	733.25
275.872	740.25
276.104	741.25
276.335	758.25
276.567	762.25
276.799	760.25
277.031	787.25
277.262	746.25
277.494	759.25
277.726	738.25
277.957	772.25
278.189	769.25
278.421	760.25
278.652	756.25
278.884	776.25
279.115	772.25
279.347	785.25
279.579	793.25
279.81	786.25
280.042	764.25
280.273	792.25
280.505	798.25
280.736	802.25
280.968	806.25
281.199	809.25
281.431	816.25
281.662	818.25
281.894	811.25
282.125	832.25
282.356	847.25
282.588	808.25
282.819	822.25
283.051	836.25
283.282	856.25
283.513	852.25
283.745	841.25
283.976	828.25
284.207	884.25
284.439	861.25
284.67	845.25
284.901	857.25
285.132	884.25
285.364	884.25
285.595	864.25
285.826	882.25
286.057	868.25
286.288	873.25
286.52	866.25
286.751	868.25
286.982	877.25
287.213	885.25
287.444	871.25
287.675	896.25
287.906	892.25
288.138	911.25
288.369	907.25
288.6	923.25
288.831	922.25
289.062	902.25
289.293	914.25
289.524	913.25
289.755	901.25
289.986	883.25
290.217	913.25
290.448	933.25
290.679	913.25
290.91	929.25
291.141	902.25
291.371	923.25
291.602	918.25
291.833	945.25
292.064	933.25
292.295	922.25
292.526	925.25
292.757	919.25
292.987	912.25
293.218	901.25
293.449	927.25
293.68	928.25
293.91	967.25
294.141	941.25
294.372	896.25
294.603	942.25
294.833	936.25
295.064	945.25
295.295	942.25
295.525	925.25
295.756	956.25
295.987	939.25
296.217	984.25
296.448	978.25
296.679	963.25
296.909	966.25
297.14	987.25
297.37	996.25
297.601	979.25
297.831	999.25
298.062	1002.25
298.292	969.25
298.523	1027.25
298.753	1029.25
298.984	988.25
299.214	1022.25
299.445	997.25
299.675	1019.25
299.905	995.25
300.136	971.25
300.366	1020.25
300.597	985.25
300.827	1033.25
301.057	1067.25
301.288	1037.25
301.518	1058.25
301.748	1056.25
301.979	1046.25
302.209	1080.25
302.439	1047.25
302.669	1027.25
302.9	1051.25
303.13	1044.25
303.36	1043.25
303.59	1032.25
303.82	1050.25
304.051	1046.25
304.281	1083.25
304.511	1050.25
304.741	1067.25
304.971	1032.25
305.201	1062.25
305.431	1069.25
305.661	1063.25
305.891	1039.25
306.121	1027.25
306.352	1020.25
306.582	1041.25
306.812	1052.25
307.042	1042.25
307.272	1025.25
307.502	1024.25
307.731	1063.25
307.961	1059.25
308.191	1026.25
308.421	1056.25
308.651	1044.25
308.881	1068.25
309.111	1055.25
309.341	1044.25
309.571	1088.25
309.8	1075.25
310.03	1063.25
310.26	1048.25
310.49	1033.25
310.72	1044.25
310.949	1069.25
311.179	1070.25
311.409	1061.25
311.639	1062.25
311.868	1085.25
312.098	1113.25
312.328	1088.25
312.557	1099.25
312.787	1082.25
313.017	1114.25
313.246	1111.25
313.476	1096.25
313.706	1133.25
313.935	1143.25
314.165	1128.25
314.394	1150.25
314.624	1122.25
314.853	1144.25
315.083	1125.25
315.312	1146.25
315.542	1139.25
315.771	1118.25
316.001	1124.25
316.23	1122.25
316.46	1117.25
316.689	1159.25
316.919	1108.25
317.148	1123.25
317.377	1170.25
317.607	1121.25
317.836	1108.25
318.065	1131.25
318.295	1137.25
318.524	1136.25
318.753	1108.25
318.983	1103.25
319.212	1117.25
319.441	1112.25
319.67	1115.25
319.9	1136.25
320.129	1111.25
320.358	1123.25
320.587	1139.25
320.816	1127.25
321.046	1140.25
321.275	1152.25
321.504	1128.25
321.733	1111.25
321.962	1142.25
322.191	1141.25
322.42	1149.25
322.649	1148.25
322.878	1148.25
323.108	1148.25
323.337	1133.25
323.566	1132.25
323.795	1195.25
324.024	1193.25
324.253	1188.25
324.482	1174.25
324.71	1162.25
324.939	1150.25
325.168	1191.25
325.397	1146.25
325.626	1204.25
325.855	1206.25
326.084	1225.25
326.313	1230.25
326.542	1217.25
326.77	1261.25
326.999	1232.25
327.228	1207.25
327.457	1173.25
327.686	1209.25
327.914	1216.25
328.143	1186.25
328.372	1226.25
328.6	1225.25
328.829	1230.25
329.058	1275.25
329.287	1226.25
329.515	1210.25
329.744	1229.25
329.972	1276.25
330.201	1260.25
330.43	1284.25
330.658	1243.25
330.887	1255.25
331.115	1277.25
331.344	1297.25
331.572	1296.25
331.801	1330.25
332.03	1344.25
332.258	1372.25
332.486	1357.25
332.715	1420.25
332.943	1425.25
333.172	1462.25
333.4	1508.25
333.629	1491.25
333.857	1562.25
334.085	1570.25
334.314	1543.25
334.542	1550.25
334.771	1521.25
334.999	1525.25
335.227	1505.25
335.455	1517.25
335.684	1484.25
335.912	1512.25
336.14	1482.25
336.369	1488.25
336.597	1475.25
336.825	1467.25
337.053	1468.25
337.281	1445.25
337.51	1430.25
337.738	1456.25
337.966	1398.25
338.194	1392.25
338.422	1373.25
338.65	1332.25
338.878	1351.25
339.106	1360.25
339.334	1370.25
339.562	1338.25
339.79	1320.25
340.018	1304.25
340.246	1283.25
340.474	1304.25
340.702	1293.25
340.93	1301.25
341.158	1310.25
341.386	1301.25
341.614	1315.25
341.842	1284.25
342.07	1248.25
342.298	1289.25
342.526	1263.25
342.754	1284.25
342.981	1289.25
343.209	1296.25
343.437	1384.25
343.665	1427.25
343.893	1478.25
344.12	1509.25
344.348	1460.25
344.576	1435.25
344.804	1397.25
345.031	1354.25
345.259	1346.25
345.487	1275.25
345.714	1287.25
345.942	1269.25
346.17	1314.25
346.397	1275.25
346.625	1252.25
346.853	1266.25
347.08	1256.25
347.308	1209.25
347.535	1238.25
347.763	1267.25
347.99	1227.25
348.218	1234.25
348.445	1223.25
348.673	1222.25
348.9	1220.25
349.128	1249.25
349.355	1240.25
349.583	1211.25
349.81	1222.25
350.037	1181.25
350.265	1226.25
350.492	1198.25
350.72	1206.25
350.947	1224.25
351.174	1201.25
351.402	1226.25
351.629	1220.25
351.856	1180.25
352.083	1194.25
352.311	1165.25
352.538	1187.25
352.765	1196.25
352.992	1203.25
353.22	1191.25
353.447	1193.25
353.674	1186.25
353.901	1196.25
354.128	1187.25
354.355	1167.25
354.583	1213.25
354.81	1169.25
355.037	1219.25
355.264	1193.25
355.491	1183.25
355.718	1191.25
355.945	1216.25
356.172	1197.25
356.399	1202.25
356.626	1210.25
356.853	1197.25
357.08	1174.25
357.307	1218.25
357.534	1208.25
357.761	1176.25
357.988	1207.25
358.215	1148.25
358.441	1189.25
358.668	1200.25
358.895	1210.25
359.122	1193.25
359.349	1212.25
359.576	1172.25
359.802	1158.25
360.029	1195.25
360.256	1214.25
360.483	1197.25
360.709	1160.25
360.936	1208.25
361.163	1222.25
361.39	1202.25
361.616	1211.25
361.843	1202.25
362.07	1219.25
362.296	1232.25
362.523	1207.25
362.749	1226.25
362.976	1208.25
363.203	1189.25
363.429	1213.25
363.656	1190.25
363.882	1198.25
364.109	1195.25
364.335	1212.25
364.562	1201.25
364.788	1221.25
365.015	1238.25
365.241	1225.25
365.468	1203.25
365.694	1180.25
365.92	1229.25
366.147	1176.25
366.373	1202.25
366.599	1197.25
366.826	1225.25
367.052	1192.25
367.278	1197.25
367.505	1211.25
367.731	1220.25
367.957	1225.25
368.184	1226.25
368.41	1256.25
368.636	1226.25
368.862	1213.25
369.089	1213.25
369.315	1256.25
369.541	1271.25
369.767	1244.25
369.993	1233.25
370.219	1244.25
370.445	1246.25
370.672	1250.25
370.898	1295.25
371.124	1237.25
371.35	1274.25
371.576	1316.25
371.802	1269.25
372.028	1316.25
372.254	1307.25
372.48	1298.25
372.706	1312.25
372.932	1308.25
373.158	1352.25
373.384	1338.25
373.61	1333.25
373.835	1273.25
374.061	1293.25
374.287	1327.25
374.513	1316.25
374.739	1388.25
374.965	1436.25
375.191	1434.25
375.416	1399.25
375.642	1401.25
375.868	1383.25
376.094	1337.25
376.319	1364.25
376.545	1346.25
376.771	1312.25
376.997	1255.25
377.222	1304.25
377.448	1259.25
377.674	1290.25
377.899	1256.25
378.125	1295.25
378.35	1283.25
378.576	1298.25
378.802	1300.25
379.027	1309.25
379.253	1269.25
379.478	1272.25
379.704	1245.25
379.929	1300.25
380.155	1298.25
380.38	1286.25
380.606	1292.25
380.831	1252.25
381.057	1288.25
381.282	1299.25
381.507	1311.25
381.733	1287.25
381.958	1294.25
382.184	1324.25
382.409	1319.25
382.634	1345.25
382.86	1336.25
383.085	1392.25
383.31	1345.25
383.535	1375.25
383.761	1388.25
383.986	1449.25
384.211	1450.25
384.436	1483.25
384.662	1447.25
384.887	1487.25
385.112	1511.25
385.337	1542.25
385.562	1558.25
385.787	1536.25
386.013	1562.25
386.238	1558.25
386.463	1580.25
386.688	1515.25
386.913	1524.25
387.138	1541.25
387.363	1527.25
387.588	1521.25
387.813	1536.25
388.038	1529.25
388.263	1548.25
388.488	1525.25
388.713	1543.25
388.938	1510.25
389.163	1540.25
389.387	1514.25
389.612	1512.25
389.837	1506.25
390.062	1515.25
390.287	1539.25
390.512	1545.25
390.736	1534.25
390.961	1574.25
391.186	1576.25
391.411	1630.25
391.636	1625.25
391.86	1642.25
392.085	1671.25
392.31	1707.25
392.534	1672.25
392.759	1635.25
392.984	1624.25
393.208	1630.25
393.433	1652.25
393.658	1650.25
393.882	1600.25
394.107	1623.25
394.331	1657.25
394.556	1612.25
394.78	1658.25
395.005	1648.25
395.229	1657.25
395.454	1683.25
395.678	1726.25
395.903	1725.25
396.127	1710.25
396.352	1650.25
396.576	1669.25
396.801	1625.25
397.025	1670.25
397.249	1716.25
397.474	1712.25
397.698	1683.25
397.922	1752.25
398.147	1732.25
398.371	1758.25
398.595	1768.25
398.82	1916.25
399.044	1962.25
399.268	2108.25
399.492	2380.25
399.717	2589.25
399.941	2623.25
400.165	2412.25
400.389	2246.25
400.613	2104.25
400.837	2038.25
401.062	1946.25
401.286	1946.25
401.51	1924.25
401.734	1912.25
401.958	1909.25
402.182	1954.25
402.406	1909.25
402.63	1932.25
402.854	1977.25
403.078	1959.25
403.302	2008.25
403.526	2009.25
403.75	2057.25
403.974	2092.25
404.198	2081.25
404.422	2046.25
404.645	2036.25
404.869	2059.25
405.093	2056.25
405.317	2062.25
405.541	2012.25
405.765	2025.25
405.988	2005.25
406.212	2032.25
406.436	2070.25
406.66	2081.25
406.883	2126.25
407.107	2260.25
407.331	2345.25
407.555	2388.25
407.778	2339.25
408.002	2365.25
408.226	2324.25
408.449	2226.25
408.673	2189.25
408.896	2176.25
409.12	2145.25
409.344	2146.25
409.567	2098.25
409.791	2127.25
410.014	2087.25
410.238	2037.25
410.461	2072.25
410.685	2101.25
410.908	2070.25
411.132	2030.25
411.355	1960.25
411.578	1970.25
411.802	1970.25
412.025	1946.25
412.249	2019.25
412.472	1990.25
412.695	1943.25
412.919	1942.25
413.142	1917.25
413.365	1869.25
413.589	1935.25
413.812	1884.25
414.035	1904.25
414.258	1908.25
414.482	1881.25
414.705	1946.25
414.928	1940.25
415.151	1921.25
415.374	1889.25
415.597	1920.25
415.821	1872.25
416.044	1833.25
416.267	1843.25
416.49	1800.25
416.713	1816.25
416.936	1842.25
417.159	1794.25
417.382	1821.25
417.605	1792.25
417.828	1818.25
418.051	1829.25
418.274	1822.25
418.497	1828.25
418.72	1901.25
418.943	1874.25
419.166	1939.25
419.389	2072.25
419.611	2075.25
419.834	1972.25
420.057	1936.25
420.28	1854.25
420.503	1845.25
420.726	1804.25
420.948	1773.25
421.171	1845.25
421.394	1809.25
421.617	1802.25
421.839	1813.25
422.062	1832.25
422.285	1847.25
422.507	1877.25
422.73	1868.25
422.953	1861.25
423.175	1905.25
423.398	1890.25
423.621	1848.25
423.843	1874.25
424.066	1907.25
424.288	1847.25
424.511	1893.25
424.733	1840.25
424.956	1850.25
425.178	1850.25
425.401	1818.25
425.623	1828.25
425.846	1776.25
426.068	1804.25
426.291	1767.25
426.513	1758.25
426.735	1750.25
426.958	1744.25
427.18	1718.25
427.402	1749.25
427.625	1679.25
427.847	1709.25
428.069	1694.25
428.292	1698.25
428.514	1673.25
428.736	1663.25
428.958	1692.25
429.181	1649.25
429.403	1645.25
429.625	1662.25
429.847	1643.25
430.069	1660.25
430.292	1677.25
430.514	1609.25
430.736	1642.25
430.958	1679.25
431.18	1657.25
431.402	1673.25
431.624	1656.25
431.846	1611.25
432.068	1716.25
432.29	1726.25
432.512	1681.25
432.734	1712.25
432.956	1672.25
433.178	1701.25
433.4	1720.25
433.622	1705.25
433.844	1748.25
434.066	1706.25
434.287	1757.25
434.509	1797.25
434.731	1812.25
434.953	1845.25
435.175	1882.25
435.397	1849.25
435.618	1812.25
435.84	1766.25
436.062	1684.25
436.284	1656.25
436.505	1686.25
436.727	1672.25
436.949	1673.25
437.17	1661.25
437.392	1670.25
437.614	1646.25
437.835	1602.25
438.057	1622.25
438.278	1601.25
438.5	1584.25
438.721	1606.25
438.943	1624.25
439.165	1608.25
439.386	1629.25
439.608	1629.25
439.829	1611.25
440.05	1655.25
440.272	1660.25
440.493	1653.25
440.715	1659.25
440.936	1693.25
441.158	1666.25
441.379	1698.25
441.6	1785.25
441.822	1813.25
442.043	1814.25
442.264	1809.25
442.486	1716.25
442.707	1744.25
442.928	1745.25
443.149	1801.25
443.371	1731.25
443.592	1809.25
443.813	1810.25
444.034	1789.25
444.255	1841.25
444.476	1890.25
444.698	1978.25
444.919	2029.25
445.14	2102.25
445.361	1993.25
445.582	1844.25
445.803	1749.25
446.024	1726.25
446.245	1732.25
446.466	1669.25
446.687	1638.25
446.908	1632.25
447.129	1602.25
447.35	1549.25
447.571	1577.25
447.792	1541.25
448.013	1529.25
448.234	1532.25
448.455	1519.25
448.675	1533.25
448.896	1490.25
449.117	1476.25
449.338	1501.25
449.559	1445.25
449.779	1479.25
450	1460.25
450.221	1470.25
450.442	1513.25
450.662	1487.25
450.883	1461.25
451.104	1518.25
451.324	1514.25
451.545	1474.25
451.766	1490.25
451.986	1441.25
452.207	1454.25
452.428	1459.25
452.648	1478.25
452.869	1418.25
453.089	1413.25
453.31	1453.25
453.53	1429.25
453.751	1417.25
453.971	1407.25
454.192	1413.25
454.412	1413.25
454.633	1417.25
454.853	1422.25
455.073	1375.25
455.294	1390.25
455.514	1372.25
455.734	1422.25
455.955	1385.25
456.175	1381.25
456.395	1371.25
456.616	1378.25
456.836	1403.25
457.056	1400.25
457.276	1402.25
457.497	1413.25
457.717	1422.25
457.937	1442.25
458.157	1423.25
458.377	1446.25
458.598	1484.25
458.818	1498.25
459.038	1536.25
459.258	1586.25
459.478	1641.25
459.698	1628.25
459.918	1734.25
460.138	1773.25
460.358	1828.25
460.578	1817.25
460.798	1874.25
461.018	1907.25
461.238	1869.25
461.458	1805.25
461.678	1882.25
461.898	1869.25
462.118	1864.25
462.338	2051.25
462.558	2031.25
462.777	2105.25
462.997	2242.25
463.217	2348.25
463.437	2371.25
463.657	2240.25
463.876	2143.25
464.096	2147.25
464.316	2129.25
464.536	2133.25
464.755	2148.25
464.975	1991.25
465.195	1948.25
465.414	1842.25
465.634	1738.25
465.854	1690.25
466.073	1654.25
466.293	1631.25
466.512	1636.25
466.732	1566.25
466.951	1608.25
467.171	1568.25
467.391	1568.25
467.61	1554.25
467.829	1557.25
468.049	1570.25
468.268	1505.25
468.488	1476.25
468.707	1520.25
468.927	1526.25
469.146	1531.25
469.365	1555.25
469.585	1501.25
469.804	1552.25
470.023	1549.25
470.243	1598.25
470.462	1600.25
470.681	1590.25
470.901	1634.25
471.12	1584.25
471.339	1549.25
471.558	1507.25
471.777	1547.25
471.997	1584.25
472.216	1539.25
472.435	1511.25
472.654	1521.25
472.873	1499.25
473.092	1497.25
473.311	1538.25
473.53	1494.25
473.749	1500.25
473.968	1472.25
474.187	1495.25
474.406	1466.25
474.625	1504.25
474.844	1506.25
475.063	1517.25
475.282	1553.25
475.501	1500.25
475.72	1551.25
475.939	1549.25
476.158	1591.25
476.377	1558.25
476.596	1615.25
476.814	1607.25
477.033	1583.25
477.252	1648.25
477.471	1666.25
477.69	1719.25
477.908	1742.25
478.127	1764.25
478.346	1770.25
478.564	1795.25
478.783	1819.25
479.002	1859.25
479.22	1918.25
479.439	1890.25
479.658	1893.25
479.876	1916.25
480.095	1928.25
480.313	1947.25
480.532	2029.25
480.751	2001.25
480.969	1944.25
481.188	1948.25
481.406	1909.25
481.624	1881.25
481.843	1877.25
482.061	1852.25
482.28	1853.25
482.498	1852.25
482.717	1833.25
482.935	1847.25
483.153	1818.25
483.372	1845.25
483.59	1869.25
483.808	1889.25
484.027	1920.25
484.245	1928.25
484.463	1969.25
484.681	1987.25
484.9	1997.25
485.118	2011.25
485.336	2018.25
485.554	1998.25
485.772	2017.25
485.99	2072.25
486.209	2060.25
486.427	2011.25
486.645	2038.25
486.863	2050.25
487.081	1997.25
487.299	1976.25
487.517	1991.25
487.735	2012.25
487.953	1997.25
488.171	1981.25
488.389	1965.25
488.607	1962.25
488.825	1910.25
489.043	1917.25
489.261	1906.25
489.479	1949.25
489.696	1938.25
489.914	1999.25
490.132	1929.25
490.35	1944.25
490.568	1927.25
490.786	1890.25
491.003	1911.25
491.221	1926.25
491.439	1894.25
491.657	1904.25
491.874	1900.25
492.092	1898.25
492.31	1940.25
492.527	1928.25
492.745	1883.25
492.963	1907.25
493.18	1888.25
493.398	1940.25
493.615	1930.25
493.833	1924.25
494.05	1940.25
494.268	1956.25
494.485	1956.25
494.703	1934.25
494.92	1941.25
495.138	1945.25
495.355	1930.25
495.573	1950.25
495.79	1956.25
496.008	2001.25
496.225	2030.25
496.442	2030.25
496.66	2037.25
496.877	2057.25
497.094	2023.25
497.312	2076.25
497.529	2113.25
497.746	2190.25
497.963	2200.25
498.181	2282.25
498.398	2416.25
498.615	2523.25
498.832	2671.25
499.049	2830.25
499.267	3013.25
499.484	3237.25
499.701	3477.25
499.918	3782.25
500.135	4187.25
500.352	4516.25
500.569	4670.25
500.786	4671.25
501.003	4388.25
501.22	4151.25
501.437	3773.25
501.654	3433.25
501.871	3113.25
502.088	2963.25
502.305	2779.25
502.522	2677.25
502.739	2523.25
502.956	2434.25
503.172	2356.25
503.389	2258.25
503.606	2216.25
503.823	2163.25
504.04	2140.25
504.256	2167.25
504.473	2147.25
504.69	2173.25
504.907	2122.25
505.123	2024.25
505.34	1944.25
505.557	1908.25
505.773	1840.25
505.99	1791.25
506.207	1771.25
506.423	1738.25
506.64	1699.25
506.856	1682.25
507.073	1648.25
507.289	1630.25
507.506	1645.25
507.722	1670.25
507.939	1657.25
508.155	1601.25
508.372	1604.25
508.588	1597.25
508.805	1584.25
509.021	1549.25
509.238	1569.25
509.454	1546.25
509.67	1524.25
509.887	1535.25
510.103	1549.25
510.319	1521.25
510.536	1499.25
510.752	1524.25
510.968	1476.25
511.184	1500.25
511.401	1531.25
511.617	1501.25
511.833	1536.25
512.049	1477.25
512.265	1505.25
512.481	1457.25
512.698	1459.25
512.914	1516.25
513.13	1506.25
513.346	1488.25
513.562	1503.25
513.778	1486.25
513.994	1505.25
514.21	1543.25
514.426	1525.25
514.642	1546.25
514.858	1523.25
515.074	1553.25
515.29	1544.25
515.506	1576.25
515.721	1586.25
515.937	1583.25
516.153	1633.25
516.369	1670.25
516.585	1678.25
516.801	1720.25
517.016	1798.25
517.232	1854.25
517.448	1935.25
517.664	1946.25
517.879	1932.25
518.095	1953.25
518.311	1947.25
518.527	1874.25
518.742	1830.25
518.958	1755.25
519.173	1679.25
519.389	1636.25
519.605	1640.25
519.82	1556.25
520.036	1598.25
520.251	1546.25
520.467	1527.25
520.682	1532.25
520.898	1482.25
521.113	1453.25
521.329	1469.25
521.544	1466.25
521.76	1453.25
521.975	1463.25
522.19	1429.25
522.406	1430.25
522.621	1423.25
522.836	1393.25
523.052	1425.25
523.267	1368.25
523.482	1373.25
523.698	1402.25
523.913	1367.25
524.128	1360.25
524.343	1350.25
524.559	1355.25
524.774	1341.25
524.989	1377.25
525.204	1331.25
525.419	1352.25
525.634	1346.25
525.849	1333.25
526.064	1299.25
526.28	1330.25
526.495	1330.25
526.71	1347.25
526.925	1348.25
527.14	1332.25
527.355	1304.25
527.57	1319.25
527.785	1309.25
527.999	1313.25
528.214	1318.25
528.429	1351.25
528.644	1311.25
528.859	1328.25
529.074	1311.25
529.289	1319.25
529.503	1341.25
529.718	1308.25
529.933	1319.25
530.148	1323.25
530.363	1309.25
530.577	1267.25
530.792	1301.25
531.007	1312.25
531.221	1343.25
531.436	1299.25
531.651	1336.25
531.865	1306.25
532.08	1310.25
532.295	1326.25
532.509	1320.25
532.724	1312.25
532.938	1312.25
533.153	1318.25
533.367	1325.25
533.582	1277.25
533.796	1301.25
534.011	1313.25
534.225	1310.25
534.44	1266.25
534.654	1280.25
534.868	1289.25
535.083	1283.25
535.297	1238.25
535.511	1257.25
535.726	1308.25
535.94	1242.25
536.154	1266.25
536.369	1211.25
536.583	1230.25
536.797	1240.25
537.011	1233.25
537.225	1225.25
537.44	1207.25
537.654	1213.25
537.868	1216.25
538.082	1202.25
538.296	1149.25
538.51	1192.25
538.724	1222.25
538.938	1154.25
539.153	1130.25
539.367	1177.25
539.581	1177.25
539.795	1203.25
540.009	1169.25
540.222	1196.25
540.436	1149.25
540.65	1121.25
540.864	1136.25
541.078	1116.25
541.292	1162.25
541.506	1179.25
541.72	1149.25
541.934	1171.25
542.147	1147.25
542.361	1140.25
542.575	1138.25
542.789	1148.25
543.002	1140.25
543.216	1186.25
543.43	1154.25
543.644	1137.25
543.857	1146.25
544.071	1145.25
544.285	1163.25
544.498	1187.25
544.712	1136.25
544.925	1161.25
545.139	1183.25
545.352	1180.25
545.566	1158.25
545.779	1170.25
545.993	1186.25
546.206	1183.25
546.42	1153.25
546.633	1172.25
546.847	1174.25
547.06	1169.25
547.274	1155.25
547.487	1162.25
547.7	1181.25
547.914	1180.25
548.127	1139.25
548.34	1145.25
548.554	1184.25
548.767	1163.25
548.98	1204.25
549.193	1180.25
549.407	1173.25
549.62	1204.25
549.833	1177.25
550.046	1150.25
550.259	1168.25
550.473	1159.25
550.686	1167.25
550.899	1148.25
551.112	1164.25
551.325	1169.25
551.538	1145.25
551.751	1136.25
551.964	1157.25
552.177	1154.25
552.39	1174.25
552.603	1198.25
552.816	1212.25
553.029	1225.25
553.242	1241.25
553.455	1244.25
553.667	1230.25
553.88	1255.25
554.093	1190.25
554.306	1150.25
554.519	1162.25
554.732	1170.25
554.944	1117.25
555.157	1107.25
555.37	1113.25
555.583	1106.25
555.795	1075.25
556.008	1037.25
556.221	1048.25
556.433	1032.25
556.646	1049.25
556.859	1026.25
557.071	1056.25
557.284	1035.25
557.496	1002.25
557.709	1024.25
557.921	1007.25
558.134	989.25
558.346	987.25
558.559	1019.25
558.771	1005.25
558.984	988.25
559.196	989.25
559.409	986.25
559.621	950.25
559.833	974.25
560.046	946.25
560.258	970.25
560.47	945.25
560.683	962.25
560.895	972.25
561.107	946.25
561.32	955.25
561.532	942.25
561.744	953.25
561.956	991.25
562.168	948.25
562.381	997.25
562.593	953.25
562.805	976.25
563.017	984.25
563.229	1008.25
563.441	970.25
563.653	967.25
563.865	965.25
564.077	993.25
564.289	968.25
564.501	1028.25
564.713	1020.25
564.925	1027.25
565.137	1063.25
565.349	1076.25
565.561	1112.25
565.773	1127.25
565.985	1171.25
566.197	1216.25
566.408	1287.25
566.62	1384.25
566.832	1449.25
567.044	1477.25
567.255	1481.25
567.467	1533.25
567.679	1533.25
567.891	1596.25
568.102	1640.25
568.314	1586.25
568.526	1450.25
568.737	1344.25
568.949	1275.25
569.161	1194.25
569.372	1152.25
569.584	1056.25
569.795	1072.25
570.007	1035.25
570.218	992.25
570.43	977.25
570.641	981.25
570.853	979.25
571.064	960.25
571.276	970.25
571.487	917.25
571.698	946.25
571.91	904.25
572.121	861.25
572.333	869.25
572.544	860.25
572.755	853.25
572.966	803.25
573.178	836.25
573.389	800.25
573.6	785.25
573.811	790.25
574.023	771.25
574.234	781.25
574.445	785.25
574.656	773.25
574.867	780.25
575.078	779.25
575.289	802.25
575.501	758.25
575.712	739.25
575.923	762.25
576.134	759.25
576.345	754.25
576.556	736.25
576.767	731.25
576.978	718.25
577.188	719.25
577.399	730.25
577.61	706.25
577.821	726.25
578.032	696.25
578.243	700.25
578.454	702.25
578.665	689.25
578.875	710.25
579.086	681.25
579.297	712.25
579.508	692.25
579.718	689.25
579.929	692.25
580.14	658.25
580.35	670.25
580.561	655.25
580.772	699.25
580.982	661.25
581.193	688.25
581.403	681.25
581.614	666.25
581.825	660.25
582.035	646.25
582.246	658.25
582.456	645.25
582.667	676.25
582.877	663.25
583.087	647.25
583.298	643.25
583.508	665.25
583.719	650.25
583.929	642.25
584.139	651.25
584.35	636.25
584.56	655.25
584.77	641.25
584.981	636.25
585.191	635.25
585.401	603.25
585.611	637.25
585.821	640.25
586.032	636.25
586.242	634.25
586.452	629.25
586.662	643.25
586.872	620.25
587.082	644.25
587.292	625.25
587.502	620.25
587.713	619.25
587.923	612.25
588.133	617.25
588.343	616.25
588.553	618.25
588.762	618.25
588.972	612.25
589.182	607.25
589.392	625.25
589.602	630.25
589.812	625.25
590.022	617.25
590.232	624.25
590.441	628.25
590.651	629.25
590.861	627.25
591.071	646.25
591.281	634.25
591.49	630.25
591.7	635.25
591.91	664.25
592.119	648.25
592.329	654.25
592.539	702.25
592.748	717.25
592.958	707.25
593.167	737.25
593.377	744.25
593.587	737.25
593.796	745.25
594.006	745.25
594.215	748.25
594.424	752.25
594.634	741.25
594.843	699.25
595.053	696.25
595.262	680.25
595.472	691.25
595.681	621.25
595.89	613.25
596.1	597.25
596.309	605.25
596.518	602.25
596.727	590.25
596.937	566.25
597.146	582.25
597.355	567.25
597.564	550.25
597.774	564.25
597.983	566.25
598.192	542.25
598.401	525.25
598.61	535.25
598.819	537.25
599.028	541.25
599.237	535.25
599.446	521.25
599.655	542.25
599.864	507.25
600.073	530.25
600.282	509.25
600.491	538.25
600.7	522.25
600.909	514.25
601.118	507.25
601.327	509.25
601.536	493.25
601.745	499.25
601.953	510.25
602.162	500.25
602.371	519.25
602.58	484.25
602.789	485.25
602.997	486.25
603.206	499.25
603.415	496.25
603.623	486.25
603.832	460.25
604.041	488.25
604.249	480.25
604.458	471.25
604.666	471.25
604.875	489.25
605.084	472.25
605.292	477.25
605.501	472.25
605.709	477.25
605.918	456.25
606.126	472.25
606.334	472.25
606.543	459.25
606.751	461.25
606.96	471.25
607.168	455.25
607.376	458.25
607.585	452.25
607.793	466.25
608.001	491.25
608.21	448.25
608.418	451.25
608.626	460.25
608.834	456.25
609.043	455.25
609.251	470.25
609.459	460.25
609.667	470.25
609.875	454.25
610.083	455.25
610.291	455.25
610.499	458.25
610.707	446.25
610.916	457.25
611.124	441.25
611.332	437.25
611.54	454.25
611.748	440.25
611.955	455.25
612.163	437.25
612.371	438.25
612.579	435.25
612.787	444.25
612.995	432.25
613.203	429.25
613.411	437.25
613.618	418.25
613.826	428.25
614.034	436.25
614.242	429.25
614.449	429.25
614.657	436.25
614.865	424.25
615.072	420.25
615.28	434.25
615.488	422.25
615.695	436.25
615.903	437.25
616.111	438.25
616.318	441.25
616.526	453.25
616.733	435.25
616.941	427.25
617.148	441.25
617.356	442.25
617.563	443.25
617.771	441.25
617.978	422.25
618.185	435.25
618.393	426.25
618.6	451.25
618.807	435.25
619.015	427.25
619.222	446.25
619.429	422.25
619.637	412.25
619.844	426.25
620.051	402.25
620.258	417.25
620.466	378.25
620.673	372.25
620.88	367.25
621.087	379.25
621.294	386.25
621.501	388.25
621.708	405.25
621.915	405.25
622.122	412.25
622.329	403.25
622.536	392.25
622.743	398.25
622.95	388.25
623.157	396.25
623.364	374.25
623.571	376.25
623.778	400.25
623.985	382.25
624.192	382.25
624.399	384.25
624.606	379.25
624.812	386.25
625.019	373.25
625.226	359.25
625.433	356.25
625.639	363.25
625.846	387.25
626.053	346.25
626.259	366.25
626.466	348.25
626.673	355.25
626.879	362.25
627.086	365.25
627.293	356.25
627.499	343.25
627.706	358.25
627.912	358.25
628.119	352.25
628.325	363.25
628.532	356.25
628.738	363.25
628.945	331.25
629.151	367.25
629.357	335.25
629.564	354.25
629.77	345.25
629.976	329.25
630.183	338.25
630.389	324.25
630.595	352.25
630.802	342.25
631.008	342.25
631.214	331.25
631.42	342.25
631.627	345.25
631.833	335.25
632.039	329.25
632.245	327.25
632.451	332.25
632.657	321.25
632.863	332.25
633.069	311.25
633.275	327.25
633.481	316.25
633.688	311.25
633.893	315.25
634.099	326.25
634.305	310.25
634.511	325.25
634.717	297.25
634.923	310.25
635.129	322.25
635.335	314.25
635.541	318.25
635.747	313.25
635.952	309.25
636.158	320.25
636.364	304.25
636.57	312.25
636.775	298.25
636.981	298.25
637.187	306.25
637.392	320.25
637.598	317.25
637.804	300.25
638.009	308.25
638.215	313.25
638.421	308.25
638.626	311.25
638.832	309.25
639.037	296.25
639.243	299.25
639.448	289.25
639.654	308.25
639.859	287.25
640.065	281.25
640.27	304.25
640.475	304.25
640.681	296.25
640.886	281.25
641.091	288.25
641.297	298.25
641.502	290.25
641.707	293.25
641.913	292.25
642.118	301.25
642.323	308.25
642.528	300.25
642.733	278.25
642.939	287.25
643.144	263.25
643.349	288.25
643.554	293.25
643.759	272.25
643.964	291.25
644.169	296.25
644.374	289.25
644.579	267.25
644.784	294.25
644.989	292.25
645.194	284.25
645.399	284.25
645.604	284.25
645.809	274.25
646.014	290.25
646.219	294.25
646.423	306.25
646.628	299.25
646.833	301.25
647.038	281.25
647.243	304.25
647.447	314.25
647.652	305.25
647.857	313.25
648.062	311.25
648.266	316.25
648.471	316.25
648.676	311.25
648.88	321.25
649.085	331.25
649.289	322.25
649.494	296.25
649.698	313.25
649.903	306.25
650.107	317.25
650.312	316.25
650.516	293.25
650.721	276.25
650.925	294.25
651.13	291.25
651.334	283.25
651.539	286.25
651.743	306.25
651.947	271.25
652.152	285.25
652.356	278.25
652.56	284.25
652.764	276.25
652.969	294.25
653.173	279.25
653.377	259.25
653.581	290.25
653.785	284.25
653.99	282.25
654.194	293.25
654.398	291.25
654.602	320.25
654.806	295.25
655.01	315.25
655.214	288.25
655.418	334.25
655.622	355.25
655.826	352.25
656.03	366.25
656.234	381.25
656.438	419.25
656.642	429.25
656.846	404.25
657.049	361.25
657.253	324.25
657.457	304.25
657.661	259.25
657.865	233.25
658.068	217.25
658.272	218.25
658.476	198.25
658.68	182.25
658.883	169.25
659.087	152.25
659.291	171.25
659.494	158.25
659.698	140.25
659.901	148.25
660.105	140.25
660.309	133.25
660.512	121.25
660.716	114.25
660.919	109.25
661.123	108.25
661.326	110.25
661.53	113.25
661.733	103.25
661.936	112.25
662.14	102.25
662.343	101.25
662.546	103.25
662.75	92.25
662.953	103.25
663.156	89.25
663.36	85.25
663.563	90.25
663.766	90.25
663.969	95.25
664.173	88.25
664.376	95.25
664.579	79.25
664.782	78.25
664.985	81.25
665.188	88.25
665.391	82.25
665.594	74.25
665.797	88.25
666	65.25
666.203	90.25
666.406	77.25
666.609	71.25
666.812	82.25
667.015	82.25
667.218	71.25
667.421	100.25
667.624	89.25
667.827	78.25
668.03	82.25
668.232	87.25
668.435	93.25
668.638	68.25
668.841	94.25
669.043	81.25
669.246	78.25
669.449	73.25
669.651	90.25
669.854	69.25
670.057	93.25
670.259	87.25
670.462	76.25
670.665	76.25
670.867	85.25
671.07	79.25
671.272	89.25
671.475	89.25
671.677	83.25
671.88	78.25
672.082	69.25
672.284	67.25
672.487	89.25
672.689	87.25
672.892	81.25
