Data from NiCl2@0.125M.TitratingCurve.Agarose3%dH2O.NegLispCup.LampEnergy10.LIBS07252019_HRD10591_18-29-29-575.txt Node
Date: Thu Jul 25 18:29:29 EDT 2019
User: cochatt
Spectrometer: HR+D1059
Trigger mode: 1
Integration Time (sec): 1.000000E-1
Scans to average: 1
Electric dark correction enabled: true
Nonlinearity correction enabled: false
Boxcar width: 0
XAxis mode: Wavelengths
Number of Pixels in Spectrum: 2048
>>>>>Begin Spectral Data<<<<<
223.165	-19.62
223.4	-19.62
223.635	-19.62
223.869	-13.62
224.104	-23.62
224.338	-2.62
224.573	-20.62
224.808	-10.62
225.042	1.38
225.277	-4.62
225.511	-2.62
225.746	7.38
225.98	1.38
226.215	15.38
226.449	-0.62
226.683	18.38
226.918	29.38
227.152	25.38
227.387	31.38
227.621	41.38
227.856	36.38
228.09	32.38
228.324	45.38
228.559	41.38
228.793	81.38
229.027	98.38
229.262	114.38
229.496	124.38
229.73	123.38
229.964	120.38
230.199	133.38
230.433	141.38
230.667	131.38
230.901	139.38
231.136	121.38
231.37	133.38
231.604	135.38
231.838	140.38
232.072	149.38
232.306	153.38
232.541	138.38
232.775	129.38
233.009	148.38
233.243	152.38
233.477	149.38
233.711	146.38
233.945	148.38
234.179	146.38
234.413	139.38
234.647	152.38
234.881	157.38
235.115	139.38
235.349	157.38
235.583	159.38
235.817	143.38
236.051	169.38
236.285	152.38
236.519	175.38
236.753	148.38
236.987	161.38
237.221	160.38
237.455	163.38
237.689	164.38
237.922	170.38
238.156	150.38
238.39	153.38
238.624	171.38
238.858	163.38
239.091	169.38
239.325	150.38
239.559	163.38
239.793	178.38
240.027	185.38
240.26	172.38
240.494	182.38
240.728	177.38
240.961	169.38
241.195	179.38
241.429	189.38
241.662	185.38
241.896	174.38
242.13	199.38
242.363	178.38
242.597	191.38
242.83	206.38
243.064	202.38
243.298	192.38
243.531	207.38
243.765	202.38
243.998	214.38
244.232	208.38
244.465	220.38
244.699	203.38
244.932	186.38
245.166	227.38
245.399	228.38
245.633	212.38
245.866	212.38
246.099	210.38
246.333	223.38
246.566	206.38
246.8	219.38
247.033	245.38
247.266	220.38
247.5	230.38
247.733	240.38
247.966	244.38
248.2	239.38
248.433	226.38
248.666	254.38
248.899	239.38
249.133	231.38
249.366	241.38
249.599	241.38
249.832	231.38
250.066	263.38
250.299	256.38
250.532	246.38
250.765	239.38
250.998	240.38
251.231	257.38
251.465	249.38
251.698	261.38
251.931	257.38
252.164	262.38
252.397	280.38
252.63	255.38
252.863	263.38
253.096	267.38
253.329	281.38
253.562	282.38
253.795	260.38
254.028	282.38
254.261	276.38
254.494	273.38
254.727	270.38
254.96	286.38
255.193	287.38
255.426	284.38
255.659	293.38
255.892	288.38
256.124	288.38
256.357	300.38
256.59	275.38
256.823	285.38
257.056	276.38
257.289	286.38
257.521	291.38
257.754	303.38
257.987	313.38
258.22	317.38
258.452	296.38
258.685	298.38
258.918	301.38
259.151	304.38
259.383	301.38
259.616	305.38
259.849	309.38
260.081	321.38
260.314	334.38
260.547	313.38
260.779	310.38
261.012	317.38
261.244	303.38
261.477	315.38
261.71	321.38
261.942	306.38
262.175	313.38
262.407	341.38
262.64	329.38
262.872	324.38
263.105	349.38
263.337	333.38
263.57	324.38
263.802	323.38
264.035	349.38
264.267	345.38
264.499	335.38
264.732	351.38
264.964	355.38
265.197	329.38
265.429	354.38
265.661	343.38
265.894	349.38
266.126	358.38
266.358	351.38
266.591	347.38
266.823	369.38
267.055	361.38
267.287	370.38
267.52	384.38
267.752	361.38
267.984	370.38
268.216	379.38
268.448	367.38
268.681	353.38
268.913	357.38
269.145	364.38
269.377	349.38
269.609	355.38
269.841	371.38
270.073	385.38
270.306	369.38
270.538	373.38
270.77	361.38
271.002	369.38
271.234	360.38
271.466	390.38
271.698	371.38
271.93	371.38
272.162	390.38
272.394	400.38
272.626	381.38
272.858	359.38
273.09	384.38
273.322	393.38
273.553	384.38
273.785	390.38
274.017	398.38
274.249	385.38
274.481	403.38
274.713	398.38
274.945	401.38
275.176	409.38
275.408	410.38
275.64	406.38
275.872	411.38
276.104	416.38
276.335	405.38
276.567	409.38
276.799	407.38
277.031	422.38
277.262	421.38
277.494	421.38
277.726	428.38
277.957	419.38
278.189	440.38
278.421	437.38
278.652	408.38
278.884	423.38
279.115	415.38
279.347	437.38
279.579	423.38
279.81	430.38
280.042	425.38
280.273	418.38
280.505	441.38
280.736	434.38
280.968	466.38
281.199	437.38
281.431	435.38
281.662	462.38
281.894	439.38
282.125	465.38
282.356	456.38
282.588	461.38
282.819	439.38
283.051	456.38
283.282	455.38
283.513	463.38
283.745	476.38
283.976	437.38
284.207	476.38
284.439	488.38
284.67	486.38
284.901	478.38
285.132	475.38
285.364	481.38
285.595	485.38
285.826	483.38
286.057	493.38
286.288	492.38
286.52	486.38
286.751	489.38
286.982	480.38
287.213	486.38
287.444	495.38
287.675	518.38
287.906	497.38
288.138	501.38
288.369	518.38
288.6	508.38
288.831	507.38
289.062	510.38
289.293	484.38
289.524	502.38
289.755	503.38
289.986	506.38
290.217	496.38
290.448	513.38
290.679	530.38
290.91	537.38
291.141	498.38
291.371	517.38
291.602	515.38
291.833	516.38
292.064	522.38
292.295	519.38
292.526	515.38
292.757	535.38
292.987	530.38
293.218	519.38
293.449	515.38
293.68	544.38
293.91	519.38
294.141	533.38
294.372	515.38
294.603	510.38
294.833	527.38
295.064	543.38
295.295	515.38
295.525	526.38
295.756	537.38
295.987	543.38
296.217	561.38
296.448	574.38
296.679	563.38
296.909	536.38
297.14	551.38
297.37	567.38
297.601	562.38
297.831	569.38
298.062	566.38
298.292	587.38
298.523	583.38
298.753	597.38
298.984	583.38
299.214	583.38
299.445	576.38
299.675	571.38
299.905	591.38
300.136	549.38
300.366	580.38
300.597	573.38
300.827	565.38
301.057	593.38
301.288	599.38
301.518	577.38
301.748	609.38
301.979	626.38
302.209	610.38
302.439	604.38
302.669	598.38
302.9	573.38
303.13	583.38
303.36	589.38
303.59	576.38
303.82	571.38
304.051	554.38
304.281	600.38
304.511	573.38
304.741	575.38
304.971	586.38
305.201	578.38
305.431	581.38
305.661	543.38
305.891	569.38
306.121	546.38
306.352	567.38
306.582	579.38
306.812	554.38
307.042	587.38
307.272	574.38
307.502	590.38
307.731	581.38
307.961	562.38
308.191	560.38
308.421	551.38
308.651	562.38
308.881	561.38
309.111	573.38
309.341	554.38
309.571	586.38
309.8	552.38
310.03	571.38
310.26	563.38
310.49	579.38
310.72	571.38
310.949	580.38
311.179	569.38
311.409	571.38
311.639	569.38
311.868	576.38
312.098	566.38
312.328	613.38
312.557	581.38
312.787	607.38
313.017	584.38
313.246	594.38
313.476	580.38
313.706	601.38
313.935	633.38
314.165	606.38
314.394	614.38
314.624	610.38
314.853	606.38
315.083	591.38
315.312	625.38
315.542	580.38
315.771	585.38
316.001	614.38
316.23	589.38
316.46	606.38
316.689	598.38
316.919	595.38
317.148	586.38
317.377	592.38
317.607	581.38
317.836	582.38
318.065	593.38
318.295	581.38
318.524	583.38
318.753	596.38
318.983	602.38
319.212	566.38
319.441	582.38
319.67	582.38
319.9	578.38
320.129	589.38
320.358	601.38
320.587	587.38
320.816	581.38
321.046	599.38
321.275	611.38
321.504	607.38
321.733	554.38
321.962	609.38
322.191	592.38
322.42	584.38
322.649	613.38
322.878	608.38
323.108	589.38
323.337	593.38
323.566	601.38
323.795	597.38
324.024	609.38
324.253	607.38
324.482	601.38
324.71	605.38
324.939	629.38
325.168	605.38
325.397	621.38
325.626	643.38
325.855	635.38
326.084	627.38
326.313	646.38
326.542	630.38
326.77	663.38
326.999	651.38
327.228	651.38
327.457	648.38
327.686	652.38
327.914	641.38
328.143	647.38
328.372	632.38
328.6	623.38
328.829	634.38
329.058	627.38
329.287	660.38
329.515	666.38
329.744	658.38
329.972	666.38
330.201	659.38
330.43	653.38
330.658	650.38
330.887	685.38
331.115	651.38
331.344	672.38
331.572	697.38
331.801	691.38
332.03	711.38
332.258	714.38
332.486	737.38
332.715	779.38
332.943	809.38
333.172	861.38
333.4	865.38
333.629	911.38
333.857	913.38
334.085	878.38
334.314	846.38
334.542	830.38
334.771	837.38
334.999	845.38
335.227	806.38
335.455	800.38
335.684	794.38
335.912	801.38
336.14	798.38
336.369	782.38
336.597	769.38
336.825	784.38
337.053	770.38
337.281	773.38
337.51	737.38
337.738	727.38
337.966	721.38
338.194	727.38
338.422	683.38
338.65	698.38
338.878	726.38
339.106	689.38
339.334	701.38
339.562	684.38
339.79	653.38
340.018	641.38
340.246	645.38
340.474	697.38
340.702	682.38
340.93	679.38
341.158	678.38
341.386	684.38
341.614	670.38
341.842	676.38
342.07	680.38
342.298	671.38
342.526	647.38
342.754	681.38
342.981	655.38
343.209	704.38
343.437	746.38
343.665	749.38
343.893	791.38
344.12	855.38
344.348	806.38
344.576	750.38
344.804	739.38
345.031	693.38
345.259	694.38
345.487	691.38
345.714	671.38
345.942	652.38
346.17	656.38
346.397	662.38
346.625	657.38
346.853	663.38
347.08	658.38
347.308	681.38
347.535	664.38
347.763	675.38
347.99	695.38
348.218	693.38
348.445	661.38
348.673	639.38
348.9	630.38
349.128	641.38
349.355	643.38
349.583	640.38
349.81	639.38
350.037	642.38
350.265	639.38
350.492	630.38
350.72	614.38
350.947	614.38
351.174	628.38
351.402	615.38
351.629	635.38
351.856	622.38
352.083	622.38
352.311	606.38
352.538	609.38
352.765	597.38
352.992	610.38
353.22	611.38
353.447	608.38
353.674	632.38
353.901	599.38
354.128	630.38
354.355	637.38
354.583	617.38
354.81	593.38
355.037	634.38
355.264	641.38
355.491	625.38
355.718	623.38
355.945	648.38
356.172	631.38
356.399	616.38
356.626	627.38
356.853	634.38
357.08	643.38
357.307	635.38
357.534	621.38
357.761	609.38
357.988	609.38
358.215	636.38
358.441	639.38
358.668	633.38
358.895	630.38
359.122	646.38
359.349	618.38
359.576	643.38
359.802	606.38
360.029	598.38
360.256	639.38
360.483	637.38
360.709	628.38
360.936	624.38
361.163	613.38
361.39	627.38
361.616	611.38
361.843	617.38
362.07	603.38
362.296	632.38
362.523	617.38
362.749	652.38
362.976	618.38
363.203	630.38
363.429	611.38
363.656	624.38
363.882	618.38
364.109	617.38
364.335	613.38
364.562	630.38
364.788	610.38
365.015	615.38
365.241	618.38
365.468	628.38
365.694	624.38
365.92	632.38
366.147	612.38
366.373	633.38
366.599	635.38
366.826	618.38
367.052	624.38
367.278	643.38
367.505	599.38
367.731	647.38
367.957	616.38
368.184	625.38
368.41	618.38
368.636	634.38
368.862	636.38
369.089	635.38
369.315	659.38
369.541	635.38
369.767	655.38
369.993	618.38
370.219	632.38
370.445	669.38
370.672	663.38
370.898	658.38
371.124	675.38
371.35	688.38
371.576	671.38
371.802	682.38
372.028	687.38
372.254	709.38
372.48	678.38
372.706	681.38
372.932	712.38
373.158	695.38
373.384	707.38
373.61	699.38
373.835	662.38
374.061	683.38
374.287	689.38
374.513	713.38
374.739	723.38
374.965	731.38
375.191	771.38
375.416	761.38
375.642	762.38
375.868	730.38
376.094	726.38
376.319	704.38
376.545	676.38
376.771	693.38
376.997	700.38
377.222	703.38
377.448	673.38
377.674	670.38
377.899	653.38
378.125	668.38
378.35	681.38
378.576	667.38
378.802	693.38
379.027	677.38
379.253	664.38
379.478	674.38
379.704	659.38
379.929	687.38
380.155	674.38
380.38	663.38
380.606	683.38
380.831	680.38
381.057	672.38
381.282	653.38
381.507	686.38
381.733	671.38
381.958	673.38
382.184	651.38
382.409	689.38
382.634	711.38
382.86	704.38
383.085	715.38
383.31	726.38
383.535	734.38
383.761	754.38
383.986	751.38
384.211	776.38
384.436	794.38
384.662	802.38
384.887	813.38
385.112	833.38
385.337	845.38
385.562	851.38
385.787	810.38
386.013	810.38
386.238	834.38
386.463	854.38
386.688	827.38
386.913	811.38
387.138	805.38
387.363	804.38
387.588	817.38
387.813	791.38
388.038	799.38
388.263	810.38
388.488	813.38
388.713	809.38
388.938	809.38
389.163	804.38
389.387	791.38
389.612	787.38
389.837	793.38
390.062	791.38
390.287	777.38
390.512	767.38
390.736	801.38
390.961	843.38
391.186	815.38
391.411	839.38
391.636	888.38
391.86	901.38
392.085	936.38
392.31	921.38
392.534	907.38
392.759	896.38
392.984	862.38
393.208	888.38
393.433	873.38
393.658	883.38
393.882	883.38
394.107	866.38
394.331	861.38
394.556	861.38
394.78	877.38
395.005	874.38
395.229	884.38
395.454	913.38
395.678	917.38
395.903	927.38
396.127	900.38
396.352	878.38
396.576	845.38
396.801	848.38
397.025	840.38
397.249	869.38
397.474	923.38
397.698	901.38
397.922	902.38
398.147	886.38
398.371	913.38
398.595	935.38
398.82	975.38
399.044	1065.38
399.268	1171.38
399.492	1400.38
399.717	1615.38
399.941	1627.38
400.165	1409.38
400.389	1239.38
400.613	1146.38
400.837	1088.38
401.062	1070.38
401.286	1043.38
401.51	998.38
401.734	1025.38
401.958	1023.38
402.182	1001.38
402.406	1036.38
402.63	1087.38
402.854	1096.38
403.078	1099.38
403.302	1142.38
403.526	1199.38
403.75	1181.38
403.974	1223.38
404.198	1226.38
404.422	1226.38
404.645	1233.38
404.869	1206.38
405.093	1201.38
405.317	1137.38
405.541	1166.38
405.765	1133.38
405.988	1107.38
406.212	1151.38
406.436	1121.38
406.66	1145.38
406.883	1156.38
407.107	1227.38
407.331	1320.38
407.555	1334.38
407.778	1316.38
408.002	1337.38
408.226	1253.38
408.449	1263.38
408.673	1188.38
408.896	1171.38
409.12	1143.38
409.344	1192.38
409.567	1184.38
409.791	1233.38
410.014	1186.38
410.238	1194.38
410.461	1171.38
410.685	1147.38
410.908	1110.38
411.132	1109.38
411.355	1041.38
411.578	1094.38
411.802	1063.38
412.025	1069.38
412.249	1105.38
412.472	1086.38
412.695	1071.38
412.919	1013.38
413.142	1022.38
413.365	1027.38
413.589	1028.38
413.812	1016.38
414.035	985.38
414.258	1034.38
414.482	1022.38
414.705	1049.38
414.928	1051.38
415.151	1044.38
415.374	1033.38
415.597	1032.38
415.821	987.38
416.044	999.38
416.267	1006.38
416.49	1014.38
416.713	999.38
416.936	1013.38
417.159	1035.38
417.382	1019.38
417.605	985.38
417.828	1031.38
418.051	1027.38
418.274	1024.38
418.497	1029.38
418.72	1065.38
418.943	1039.38
419.166	1104.38
419.389	1247.38
419.611	1157.38
419.834	1122.38
420.057	1070.38
420.28	1018.38
420.503	1030.38
420.726	1033.38
420.948	1021.38
421.171	1025.38
421.394	1041.38
421.617	1000.38
421.839	1031.38
422.062	1036.38
422.285	1009.38
422.507	1053.38
422.73	1080.38
422.953	1073.38
423.175	1077.38
423.398	1078.38
423.621	1104.38
423.843	1083.38
424.066	1112.38
424.288	1119.38
424.511	1105.38
424.733	1075.38
424.956	1099.38
425.178	1056.38
425.401	1055.38
425.623	1023.38
425.846	994.38
426.068	984.38
426.291	977.38
426.513	959.38
426.735	978.38
426.958	932.38
427.18	930.38
427.402	923.38
427.625	912.38
427.847	920.38
428.069	942.38
428.292	913.38
428.514	915.38
428.736	897.38
428.958	923.38
429.181	903.38
429.403	882.38
429.625	897.38
429.847	881.38
430.069	887.38
430.292	891.38
430.514	898.38
430.736	901.38
430.958	905.38
431.18	889.38
431.402	884.38
431.624	907.38
431.846	922.38
432.068	946.38
432.29	947.38
432.512	915.38
432.734	920.38
432.956	904.38
433.178	950.38
433.4	910.38
433.622	925.38
433.844	934.38
434.066	922.38
434.287	901.38
434.509	953.38
434.731	987.38
434.953	1063.38
435.175	1049.38
435.397	1020.38
435.618	954.38
435.84	929.38
436.062	937.38
436.284	891.38
436.505	909.38
436.727	938.38
436.949	934.38
437.17	905.38
437.392	905.38
437.614	896.38
437.835	888.38
438.057	888.38
438.278	865.38
438.5	908.38
438.721	903.38
438.943	906.38
439.165	877.38
439.386	931.38
439.608	926.38
439.829	906.38
440.05	930.38
440.272	952.38
440.493	937.38
440.715	949.38
440.936	950.38
441.158	949.38
441.379	1005.38
441.6	1035.38
441.822	1066.38
442.043	1061.38
442.264	1046.38
442.486	1010.38
442.707	1013.38
442.928	1025.38
443.149	1034.38
443.371	1033.38
443.592	1031.38
443.813	1044.38
444.034	1075.38
444.255	1091.38
444.476	1117.38
444.698	1231.38
444.919	1288.38
445.14	1333.38
445.361	1197.38
445.582	1103.38
445.803	1014.38
446.024	991.38
446.245	980.38
446.466	937.38
446.687	947.38
446.908	928.38
447.129	919.38
447.35	935.38
447.571	896.38
447.792	868.38
448.013	899.38
448.234	884.38
448.455	870.38
448.675	843.38
448.896	848.38
449.117	857.38
449.338	839.38
449.559	841.38
449.779	844.38
450	845.38
450.221	849.38
450.442	874.38
450.662	895.38
450.883	884.38
451.104	901.38
451.324	910.38
451.545	883.38
451.766	885.38
451.986	884.38
452.207	857.38
452.428	842.38
452.648	855.38
452.869	839.38
453.089	839.38
453.31	857.38
453.53	849.38
453.751	837.38
453.971	833.38
454.192	836.38
454.412	798.38
454.633	812.38
454.853	803.38
455.073	793.38
455.294	806.38
455.514	813.38
455.734	840.38
455.955	765.38
456.175	796.38
456.395	796.38
456.616	787.38
456.836	791.38
457.056	802.38
457.276	797.38
457.497	782.38
457.717	784.38
457.937	810.38
458.157	804.38
458.377	805.38
458.598	819.38
458.818	839.38
459.038	882.38
459.258	888.38
459.478	925.38
459.698	974.38
459.918	992.38
460.138	997.38
460.358	1058.38
460.578	1107.38
460.798	1135.38
461.018	1147.38
461.238	1106.38
461.458	1067.38
461.678	1102.38
461.898	1129.38
462.118	1133.38
462.338	1177.38
462.558	1233.38
462.777	1279.38
462.997	1365.38
463.217	1528.38
463.437	1535.38
463.657	1361.38
463.876	1331.38
464.096	1304.38
464.316	1289.38
464.536	1340.38
464.755	1289.38
464.975	1190.38
465.195	1151.38
465.414	1095.38
465.634	998.38
465.854	952.38
466.073	969.38
466.293	922.38
466.512	895.38
466.732	881.38
466.951	903.38
467.171	890.38
467.391	895.38
467.61	861.38
467.829	895.38
468.049	881.38
468.268	866.38
468.488	829.38
468.707	864.38
468.927	875.38
469.146	857.38
469.365	863.38
469.585	874.38
469.804	890.38
470.023	925.38
470.243	908.38
470.462	929.38
470.681	933.38
470.901	925.38
471.12	895.38
471.339	896.38
471.558	837.38
471.777	843.38
471.997	851.38
472.216	857.38
472.435	855.38
472.654	821.38
472.873	802.38
473.092	810.38
473.311	838.38
473.53	835.38
473.749	811.38
473.968	806.38
474.187	787.38
474.406	815.38
474.625	837.38
474.844	817.38
475.063	811.38
475.282	815.38
475.501	832.38
475.72	824.38
475.939	832.38
476.158	886.38
476.377	839.38
476.596	809.38
476.814	875.38
477.033	897.38
477.252	886.38
477.471	903.38
477.69	925.38
477.908	960.38
478.127	977.38
478.346	1005.38
478.564	1008.38
478.783	1025.38
479.002	1029.38
479.22	1078.38
479.439	1005.38
479.658	1023.38
479.876	1015.38
480.095	1072.38
480.313	1095.38
480.532	1142.38
480.751	1139.38
480.969	1043.38
481.188	1029.38
481.406	1002.38
481.624	943.38
481.843	966.38
482.061	985.38
482.28	917.38
482.498	931.38
482.717	919.38
482.935	939.38
483.153	955.38
483.372	940.38
483.59	925.38
483.808	918.38
484.027	938.38
484.245	928.38
484.463	961.38
484.681	944.38
484.9	961.38
485.118	987.38
485.336	957.38
485.554	974.38
485.772	985.38
485.99	1014.38
486.209	1011.38
486.427	1031.38
486.645	968.38
486.863	988.38
487.081	1009.38
487.299	991.38
487.517	970.38
487.735	998.38
487.953	988.38
488.171	978.38
488.389	999.38
488.607	980.38
488.825	959.38
489.043	960.38
489.261	955.38
489.479	981.38
489.696	965.38
489.914	992.38
490.132	975.38
490.35	990.38
490.568	973.38
490.786	982.38
491.003	970.38
491.221	992.38
491.439	988.38
491.657	984.38
491.874	996.38
492.092	1009.38
492.31	993.38
492.527	1031.38
492.745	1011.38
492.963	992.38
493.18	991.38
493.398	1003.38
493.615	993.38
493.833	1012.38
494.05	1037.38
494.268	1046.38
494.485	1045.38
494.703	1031.38
494.92	1033.38
495.138	1031.38
495.355	1049.38
495.573	1044.38
495.79	1046.38
496.008	1058.38
496.225	1026.38
496.442	1046.38
496.66	1081.38
496.877	1085.38
497.094	1101.38
497.312	1100.38
497.529	1152.38
497.746	1167.38
497.963	1185.38
498.181	1253.38
498.398	1321.38
498.615	1344.38
498.832	1430.38
499.049	1575.38
499.267	1727.38
499.484	1897.38
499.701	2161.38
499.918	2356.38
500.135	2765.38
500.352	3242.38
500.569	3404.38
500.786	3366.38
501.003	3044.38
501.22	2738.38
501.437	2357.38
501.654	2029.38
501.871	1853.38
502.088	1657.38
502.305	1562.38
502.522	1495.38
502.739	1457.38
502.956	1377.38
503.172	1291.38
503.389	1242.38
503.606	1215.38
503.823	1194.38
504.04	1189.38
504.256	1227.38
504.473	1217.38
504.69	1279.38
504.907	1246.38
505.123	1165.38
505.34	1102.38
505.557	999.38
505.773	1003.38
505.99	974.38
506.207	963.38
506.423	959.38
506.64	950.38
506.856	948.38
507.073	948.38
507.289	923.38
507.506	916.38
507.722	915.38
507.939	887.38
508.155	900.38
508.372	887.38
508.588	875.38
508.805	873.38
509.021	872.38
509.238	871.38
509.454	859.38
509.67	875.38
509.887	878.38
510.103	848.38
510.319	841.38
510.536	831.38
510.752	826.38
510.968	862.38
511.184	847.38
511.401	867.38
511.617	841.38
511.833	828.38
512.049	827.38
512.265	849.38
512.481	865.38
512.698	858.38
512.914	842.38
513.13	853.38
513.346	833.38
513.562	847.38
513.778	841.38
513.994	855.38
514.21	831.38
514.426	875.38
514.642	846.38
514.858	888.38
515.074	871.38
515.29	884.38
515.506	871.38
515.721	893.38
515.937	897.38
516.153	932.38
516.369	906.38
516.585	943.38
516.801	991.38
517.016	1047.38
517.232	1073.38
517.448	1138.38
517.664	1213.38
517.879	1220.38
518.095	1215.38
518.311	1183.38
518.527	1116.38
518.742	1108.38
518.958	1002.38
519.173	1005.38
519.389	969.38
519.605	933.38
519.82	898.38
520.036	892.38
520.251	885.38
520.467	867.38
520.682	863.38
520.898	838.38
521.113	825.38
521.329	838.38
521.544	837.38
521.76	821.38
521.975	811.38
522.19	801.38
522.406	818.38
522.621	803.38
522.836	796.38
523.052	799.38
523.267	774.38
523.482	802.38
523.698	783.38
523.913	785.38
524.128	795.38
524.343	794.38
524.559	783.38
524.774	770.38
524.989	789.38
525.204	775.38
525.419	775.38
525.634	791.38
525.849	802.38
526.064	797.38
526.28	779.38
526.495	788.38
526.71	771.38
526.925	781.38
527.14	770.38
527.355	745.38
527.57	752.38
527.785	787.38
527.999	779.38
528.214	754.38
528.429	749.38
528.644	756.38
528.859	795.38
529.074	794.38
529.289	774.38
529.503	776.38
529.718	755.38
529.933	756.38
530.148	757.38
530.363	747.38
530.577	762.38
530.792	755.38
531.007	777.38
531.221	780.38
531.436	751.38
531.651	741.38
531.865	773.38
532.08	782.38
532.295	763.38
532.509	793.38
532.724	779.38
532.938	760.38
533.153	770.38
533.367	785.38
533.582	742.38
533.796	739.38
534.011	770.38
534.225	739.38
534.44	744.38
534.654	762.38
534.868	757.38
535.083	724.38
535.297	739.38
535.511	738.38
535.726	749.38
535.94	755.38
536.154	722.38
536.369	716.38
536.583	715.38
536.797	711.38
537.011	703.38
537.225	713.38
537.44	713.38
537.654	706.38
537.868	719.38
538.082	671.38
538.296	705.38
538.51	689.38
538.724	682.38
538.938	687.38
539.153	691.38
539.367	689.38
539.581	671.38
539.795	699.38
540.009	679.38
540.222	698.38
540.436	685.38
540.65	681.38
540.864	675.38
541.078	681.38
541.292	690.38
541.506	671.38
541.72	674.38
541.934	686.38
542.147	663.38
542.361	683.38
542.575	666.38
542.789	690.38
543.002	660.38
543.216	687.38
543.43	673.38
543.644	649.38
543.857	677.38
544.071	677.38
544.285	708.38
544.498	687.38
544.712	685.38
544.925	695.38
545.139	715.38
545.352	725.38
545.566	699.38
545.779	698.38
545.993	729.38
546.206	733.38
546.42	699.38
546.633	714.38
546.847	691.38
547.06	698.38
547.274	682.38
547.487	691.38
547.7	691.38
547.914	698.38
548.127	722.38
548.34	712.38
548.554	717.38
548.767	714.38
548.98	697.38
549.193	705.38
549.407	693.38
549.62	726.38
549.833	719.38
550.046	712.38
550.259	714.38
550.473	691.38
550.686	660.38
550.899	682.38
551.112	675.38
551.325	663.38
551.538	678.38
551.751	675.38
551.964	675.38
552.177	701.38
552.39	691.38
552.603	727.38
552.816	727.38
553.029	778.38
553.242	760.38
553.455	778.38
553.667	769.38
553.88	778.38
554.093	744.38
554.306	746.38
554.519	739.38
554.732	703.38
554.944	677.38
555.157	643.38
555.37	682.38
555.583	661.38
555.795	665.38
556.008	646.38
556.221	624.38
556.433	619.38
556.646	622.38
556.859	633.38
557.071	611.38
557.284	616.38
557.496	601.38
557.709	600.38
557.921	610.38
558.134	590.38
558.346	597.38
558.559	575.38
558.771	575.38
558.984	581.38
559.196	572.38
559.409	595.38
559.621	585.38
559.833	565.38
560.046	590.38
560.258	601.38
560.47	593.38
560.683	581.38
560.895	589.38
561.107	585.38
561.32	578.38
561.532	575.38
561.744	574.38
561.956	584.38
562.168	568.38
562.381	577.38
562.593	574.38
562.805	566.38
563.017	575.38
563.229	559.38
563.441	592.38
563.653	580.38
563.865	591.38
564.077	598.38
564.289	599.38
564.501	616.38
564.713	618.38
564.925	624.38
565.137	639.38
565.349	633.38
565.561	690.38
565.773	709.38
565.985	685.38
566.197	739.38
566.408	795.38
566.62	913.38
566.832	921.38
567.044	995.38
567.255	976.38
567.467	1034.38
567.679	1069.38
567.891	1174.38
568.102	1232.38
568.314	1137.38
568.526	1002.38
568.737	944.38
568.949	837.38
569.161	743.38
569.372	697.38
569.584	642.38
569.795	651.38
570.007	585.38
570.218	613.38
570.43	598.38
570.641	619.38
570.853	598.38
571.064	616.38
571.276	583.38
571.487	591.38
571.698	569.38
571.91	549.38
572.121	555.38
572.333	546.38
572.544	505.38
572.755	528.38
572.966	484.38
573.178	512.38
573.389	509.38
573.6	495.38
573.811	496.38
574.023	472.38
574.234	478.38
574.445	502.38
574.656	495.38
574.867	493.38
575.078	490.38
575.289	479.38
575.501	482.38
575.712	463.38
575.923	480.38
576.134	468.38
576.345	473.38
576.556	465.38
576.767	447.38
576.978	443.38
577.188	450.38
577.399	458.38
577.61	462.38
577.821	447.38
578.032	421.38
578.243	433.38
578.454	451.38
578.665	447.38
578.875	431.38
579.086	445.38
579.297	421.38
579.508	445.38
579.718	421.38
579.929	443.38
580.14	424.38
580.35	411.38
580.561	410.38
580.772	437.38
580.982	422.38
581.193	414.38
581.403	415.38
581.614	393.38
581.825	413.38
582.035	399.38
582.246	396.38
582.456	415.38
582.667	417.38
582.877	399.38
583.087	388.38
583.298	408.38
583.508	388.38
583.719	408.38
583.929	401.38
584.139	416.38
584.35	398.38
584.56	386.38
584.77	388.38
584.981	396.38
585.191	394.38
585.401	390.38
585.611	397.38
585.821	390.38
586.032	390.38
586.242	383.38
586.452	387.38
586.662	390.38
586.872	366.38
587.082	392.38
587.292	392.38
587.502	381.38
587.713	401.38
587.923	392.38
588.133	374.38
588.343	399.38
588.553	401.38
588.762	391.38
588.972	396.38
589.182	372.38
589.392	403.38
589.602	427.38
589.812	394.38
590.022	403.38
590.232	387.38
590.441	388.38
590.651	399.38
590.861	398.38
591.071	389.38
591.281	374.38
591.49	405.38
591.7	426.38
591.91	405.38
592.119	427.38
592.329	434.38
592.539	439.38
592.748	473.38
592.958	471.38
593.167	494.38
593.377	505.38
593.587	501.38
593.796	518.38
594.006	505.38
594.215	517.38
594.424	521.38
594.634	513.38
594.843	473.38
595.053	442.38
595.262	430.38
595.472	429.38
595.681	416.38
595.89	410.38
596.1	411.38
596.309	374.38
596.518	395.38
596.727	359.38
596.937	357.38
597.146	370.38
597.355	343.38
597.564	352.38
597.774	362.38
597.983	351.38
598.192	359.38
598.401	338.38
598.61	329.38
598.819	355.38
599.028	338.38
599.237	331.38
599.446	328.38
599.655	315.38
599.864	339.38
600.073	336.38
600.282	337.38
600.491	323.38
600.7	336.38
600.909	315.38
601.118	328.38
601.327	330.38
601.536	336.38
601.745	342.38
601.953	323.38
602.162	323.38
602.371	321.38
602.58	323.38
602.789	323.38
602.997	318.38
603.206	311.38
603.415	318.38
603.623	307.38
603.832	320.38
604.041	312.38
604.249	311.38
604.458	306.38
604.666	302.38
604.875	331.38
605.084	290.38
605.292	294.38
605.501	313.38
605.709	298.38
605.918	332.38
606.126	305.38
606.334	290.38
606.543	307.38
606.751	283.38
606.96	317.38
607.168	315.38
607.376	311.38
607.585	298.38
607.793	304.38
608.001	305.38
608.21	291.38
608.418	305.38
608.626	280.38
608.834	292.38
609.043	291.38
609.251	324.38
609.459	285.38
609.667	307.38
609.875	289.38
610.083	298.38
610.291	280.38
610.499	290.38
610.707	279.38
610.916	292.38
611.124	298.38
611.332	283.38
611.54	297.38
611.748	303.38
611.955	265.38
612.163	296.38
612.371	287.38
612.579	312.38
612.787	265.38
612.995	304.38
613.203	293.38
613.411	283.38
613.618	298.38
613.826	290.38
614.034	297.38
614.242	294.38
614.449	295.38
614.657	283.38
614.865	297.38
615.072	290.38
615.28	292.38
615.488	305.38
615.695	281.38
615.903	282.38
616.111	276.38
616.318	291.38
616.526	282.38
616.733	287.38
616.941	272.38
617.148	294.38
617.356	271.38
617.563	277.38
617.771	294.38
617.978	285.38
618.185	288.38
618.393	273.38
618.6	302.38
618.807	286.38
619.015	282.38
619.222	278.38
619.429	279.38
619.637	276.38
619.844	293.38
620.051	284.38
620.258	255.38
620.466	267.38
620.673	267.38
620.88	254.38
621.087	283.38
621.294	264.38
621.501	279.38
621.708	266.38
621.915	277.38
622.122	261.38
622.329	263.38
622.536	262.38
622.743	253.38
622.95	263.38
623.157	278.38
623.364	260.38
623.571	267.38
623.778	265.38
623.985	227.38
624.192	267.38
624.399	262.38
624.606	264.38
624.812	263.38
625.019	260.38
625.226	255.38
625.433	230.38
625.639	234.38
625.846	261.38
626.053	239.38
626.259	233.38
626.466	234.38
626.673	266.38
626.879	247.38
627.086	241.38
627.293	251.38
627.499	245.38
627.706	248.38
627.912	215.38
628.119	226.38
628.325	238.38
628.532	248.38
628.738	218.38
628.945	253.38
629.151	255.38
629.357	242.38
629.564	245.38
629.77	223.38
629.976	227.38
630.183	239.38
630.389	229.38
630.595	228.38
630.802	216.38
631.008	222.38
631.214	220.38
631.42	211.38
631.627	226.38
631.833	233.38
632.039	210.38
632.245	210.38
632.451	227.38
632.657	219.38
632.863	231.38
633.069	202.38
633.275	217.38
633.481	215.38
633.688	209.38
633.893	227.38
634.099	227.38
634.305	212.38
634.511	209.38
634.717	203.38
634.923	205.38
635.129	218.38
635.335	207.38
635.541	220.38
635.747	206.38
635.952	204.38
636.158	202.38
636.364	203.38
636.57	211.38
636.775	195.38
636.981	206.38
637.187	211.38
637.392	222.38
637.598	209.38
637.804	201.38
638.009	203.38
638.215	210.38
638.421	164.38
638.626	202.38
638.832	200.38
639.037	196.38
639.243	201.38
639.448	206.38
639.654	182.38
639.859	197.38
640.065	200.38
640.27	193.38
640.475	210.38
640.681	190.38
640.886	195.38
641.091	194.38
641.297	175.38
641.502	189.38
641.707	185.38
641.913	182.38
642.118	176.38
642.323	193.38
642.528	197.38
642.733	191.38
642.939	174.38
643.144	182.38
643.349	194.38
643.554	183.38
643.759	174.38
643.964	187.38
644.169	179.38
644.374	182.38
644.579	193.38
644.784	189.38
644.989	175.38
645.194	174.38
645.399	188.38
645.604	186.38
645.809	173.38
646.014	177.38
646.219	184.38
646.423	192.38
646.628	199.38
646.833	170.38
647.038	181.38
647.243	171.38
647.447	192.38
647.652	190.38
647.857	197.38
648.062	191.38
648.266	199.38
648.471	202.38
648.676	217.38
648.88	198.38
649.085	191.38
649.289	163.38
649.494	166.38
649.698	186.38
649.903	174.38
650.107	170.38
650.312	161.38
650.516	182.38
650.721	159.38
650.925	156.38
651.13	178.38
651.334	157.38
651.539	153.38
651.743	161.38
651.947	164.38
652.152	157.38
652.356	164.38
652.56	143.38
652.764	145.38
652.969	149.38
653.173	143.38
653.377	153.38
653.581	152.38
653.785	137.38
653.99	125.38
654.194	150.38
654.398	147.38
654.602	121.38
654.806	127.38
655.01	145.38
655.214	132.38
655.418	144.38
655.622	118.38
655.826	132.38
656.03	148.38
656.234	134.38
656.438	150.38
656.642	133.38
656.846	134.38
657.049	132.38
657.253	123.38
657.457	114.38
657.661	118.38
657.865	118.38
658.068	102.38
658.272	105.38
658.476	112.38
658.68	101.38
658.883	94.38
659.087	96.38
659.291	100.38
659.494	94.38
659.698	99.38
659.901	105.38
660.105	105.38
660.309	81.38
660.512	94.38
660.716	87.38
660.919	93.38
661.123	100.38
661.326	94.38
661.53	85.38
661.733	79.38
661.936	67.38
662.14	74.38
662.343	76.38
662.546	79.38
662.75	89.38
662.953	85.38
663.156	81.38
663.36	88.38
663.563	81.38
663.766	83.38
663.969	83.38
664.173	85.38
664.376	95.38
664.579	74.38
664.782	78.38
664.985	85.38
665.188	89.38
665.391	93.38
665.594	89.38
665.797	73.38
666	69.38
666.203	97.38
666.406	78.38
666.609	90.38
666.812	78.38
667.015	81.38
667.218	74.38
667.421	67.38
667.624	77.38
667.827	89.38
668.03	86.38
668.232	75.38
668.435	78.38
668.638	74.38
668.841	74.38
669.043	66.38
669.246	73.38
669.449	73.38
669.651	78.38
669.854	70.38
670.057	73.38
670.259	79.38
670.462	81.38
670.665	81.38
670.867	98.38
671.07	87.38
671.272	89.38
671.475	94.38
671.677	68.38
671.88	90.38
672.082	91.38
672.284	91.38
672.487	93.38
672.689	83.38
672.892	88.38
