Data from NiCl2@0.25M.TitratingCurve.Agarose3%dH2O.NegLispCup.LampEnergy10.LIBS07252019_HRD10591_18-24-08-572.txt Node
Date: Thu Jul 25 18:24:08 EDT 2019
User: cochatt
Spectrometer: HR+D1059
Trigger mode: 1
Integration Time (sec): 1.000000E-1
Scans to average: 1
Electric dark correction enabled: true
Nonlinearity correction enabled: false
Boxcar width: 0
XAxis mode: Wavelengths
Number of Pixels in Spectrum: 2048
>>>>>Begin Spectral Data<<<<<
223.165	-24.25
223.4	-24.25
223.635	-24.25
223.869	-18.25
224.104	-12.25
224.338	-12.25
224.573	-14.25
224.808	-9.25
225.042	-1.25
225.277	-0.25
225.511	-4.25
225.746	10.75
225.98	2.75
226.215	8.75
226.449	5.75
226.683	18.75
226.918	24.75
227.152	24.75
227.387	44.75
227.621	44.75
227.856	30.75
228.09	42.75
228.324	41.75
228.559	50.75
228.793	60.75
229.027	91.75
229.262	108.75
229.496	119.75
229.73	113.75
229.964	116.75
230.199	132.75
230.433	130.75
230.667	118.75
230.901	123.75
231.136	130.75
231.37	126.75
231.604	135.75
231.838	120.75
232.072	129.75
232.306	142.75
232.541	158.75
232.775	154.75
233.009	138.75
233.243	145.75
233.477	132.75
233.711	136.75
233.945	155.75
234.179	144.75
234.413	156.75
234.647	162.75
234.881	150.75
235.115	153.75
235.349	144.75
235.583	137.75
235.817	129.75
236.051	155.75
236.285	157.75
236.519	159.75
236.753	144.75
236.987	139.75
237.221	150.75
237.455	161.75
237.689	162.75
237.922	144.75
238.156	156.75
238.39	142.75
238.624	169.75
238.858	156.75
239.091	166.75
239.325	157.75
239.559	180.75
239.793	163.75
240.027	160.75
240.26	175.75
240.494	164.75
240.728	180.75
240.961	178.75
241.195	170.75
241.429	164.75
241.662	174.75
241.896	176.75
242.13	188.75
242.363	181.75
242.597	201.75
242.83	189.75
243.064	182.75
243.298	192.75
243.531	182.75
243.765	189.75
243.998	189.75
244.232	189.75
244.465	201.75
244.699	193.75
244.932	209.75
245.166	201.75
245.399	210.75
245.633	211.75
245.866	204.75
246.099	200.75
246.333	196.75
246.566	194.75
246.8	223.75
247.033	216.75
247.266	202.75
247.5	205.75
247.733	212.75
247.966	211.75
248.2	224.75
248.433	223.75
248.666	202.75
248.899	220.75
249.133	213.75
249.366	213.75
249.599	249.75
249.832	223.75
250.066	218.75
250.299	227.75
250.532	235.75
250.765	259.75
250.998	242.75
251.231	232.75
251.465	244.75
251.698	226.75
251.931	254.75
252.164	246.75
252.397	253.75
252.63	241.75
252.863	253.75
253.096	245.75
253.329	266.75
253.562	261.75
253.795	264.75
254.028	262.75
254.261	257.75
254.494	257.75
254.727	256.75
254.96	244.75
255.193	262.75
255.426	271.75
255.659	283.75
255.892	270.75
256.124	272.75
256.357	272.75
256.59	240.75
256.823	267.75
257.056	278.75
257.289	279.75
257.521	272.75
257.754	292.75
257.987	274.75
258.22	294.75
258.452	283.75
258.685	291.75
258.918	286.75
259.151	286.75
259.383	286.75
259.616	295.75
259.849	314.75
260.081	290.75
260.314	299.75
260.547	290.75
260.779	286.75
261.012	282.75
261.244	307.75
261.477	306.75
261.71	298.75
261.942	306.75
262.175	318.75
262.407	308.75
262.64	308.75
262.872	296.75
263.105	304.75
263.337	314.75
263.57	320.75
263.802	315.75
264.035	338.75
264.267	313.75
264.499	320.75
264.732	316.75
264.964	339.75
265.197	341.75
265.429	327.75
265.661	330.75
265.894	318.75
266.126	304.75
266.358	331.75
266.591	332.75
266.823	343.75
267.055	339.75
267.287	339.75
267.52	345.75
267.752	347.75
267.984	338.75
268.216	342.75
268.448	355.75
268.681	339.75
268.913	334.75
269.145	344.75
269.377	346.75
269.609	354.75
269.841	353.75
270.073	323.75
270.306	329.75
270.538	359.75
270.77	339.75
271.002	360.75
271.234	351.75
271.466	349.75
271.698	373.75
271.93	362.75
272.162	343.75
272.394	381.75
272.626	361.75
272.858	379.75
273.09	362.75
273.322	361.75
273.553	377.75
273.785	395.75
274.017	390.75
274.249	387.75
274.481	357.75
274.713	382.75
274.945	388.75
275.176	375.75
275.408	384.75
275.64	391.75
275.872	385.75
276.104	412.75
276.335	386.75
276.567	391.75
276.799	397.75
277.031	398.75
277.262	393.75
277.494	408.75
277.726	405.75
277.957	414.75
278.189	437.75
278.421	430.75
278.652	388.75
278.884	396.75
279.115	419.75
279.347	393.75
279.579	384.75
279.81	424.75
280.042	412.75
280.273	412.75
280.505	436.75
280.736	426.75
280.968	425.75
281.199	434.75
281.431	440.75
281.662	439.75
281.894	424.75
282.125	436.75
282.356	436.75
282.588	451.75
282.819	447.75
283.051	460.75
283.282	434.75
283.513	439.75
283.745	435.75
283.976	460.75
284.207	440.75
284.439	427.75
284.67	463.75
284.901	455.75
285.132	456.75
285.364	458.75
285.595	460.75
285.826	453.75
286.057	473.75
286.288	460.75
286.52	465.75
286.751	471.75
286.982	454.75
287.213	482.75
287.444	476.75
287.675	464.75
287.906	486.75
288.138	480.75
288.369	457.75
288.6	467.75
288.831	471.75
289.062	496.75
289.293	479.75
289.524	469.75
289.755	486.75
289.986	487.75
290.217	481.75
290.448	500.75
290.679	477.75
290.91	485.75
291.141	480.75
291.371	487.75
291.602	496.75
291.833	476.75
292.064	492.75
292.295	497.75
292.526	487.75
292.757	474.75
292.987	488.75
293.218	497.75
293.449	498.75
293.68	489.75
293.91	504.75
294.141	494.75
294.372	488.75
294.603	502.75
294.833	513.75
295.064	516.75
295.295	500.75
295.525	507.75
295.756	496.75
295.987	493.75
296.217	512.75
296.448	502.75
296.679	490.75
296.909	502.75
297.14	523.75
297.37	522.75
297.601	528.75
297.831	526.75
298.062	531.75
298.292	544.75
298.523	553.75
298.753	556.75
298.984	524.75
299.214	516.75
299.445	530.75
299.675	537.75
299.905	532.75
300.136	535.75
300.366	561.75
300.597	546.75
300.827	577.75
301.057	541.75
301.288	551.75
301.518	563.75
301.748	587.75
301.979	577.75
302.209	586.75
302.439	556.75
302.669	562.75
302.9	569.75
303.13	536.75
303.36	562.75
303.59	564.75
303.82	552.75
304.051	555.75
304.281	578.75
304.511	577.75
304.741	549.75
304.971	575.75
305.201	556.75
305.431	544.75
305.661	539.75
305.891	549.75
306.121	562.75
306.352	567.75
306.582	540.75
306.812	543.75
307.042	532.75
307.272	534.75
307.502	545.75
307.731	531.75
307.961	552.75
308.191	537.75
308.421	550.75
308.651	545.75
308.881	550.75
309.111	515.75
309.341	544.75
309.571	562.75
309.8	540.75
310.03	555.75
310.26	531.75
310.49	572.75
310.72	557.75
310.949	551.75
311.179	568.75
311.409	556.75
311.639	562.75
311.868	562.75
312.098	555.75
312.328	579.75
312.557	558.75
312.787	560.75
313.017	589.75
313.246	577.75
313.476	544.75
313.706	572.75
313.935	598.75
314.165	603.75
314.394	608.75
314.624	596.75
314.853	569.75
315.083	566.75
315.312	591.75
315.542	585.75
315.771	584.75
316.001	583.75
316.23	585.75
316.46	567.75
316.689	584.75
316.919	577.75
317.148	567.75
317.377	566.75
317.607	570.75
317.836	571.75
318.065	584.75
318.295	566.75
318.524	586.75
318.753	581.75
318.983	549.75
319.212	571.75
319.441	581.75
319.67	580.75
319.9	571.75
320.129	553.75
320.358	582.75
320.587	601.75
320.816	600.75
321.046	576.75
321.275	579.75
321.504	591.75
321.733	599.75
321.962	569.75
322.191	577.75
322.42	570.75
322.649	584.75
322.878	598.75
323.108	587.75
323.337	581.75
323.566	580.75
323.795	592.75
324.024	600.75
324.253	591.75
324.482	603.75
324.71	600.75
324.939	606.75
325.168	602.75
325.397	595.75
325.626	586.75
325.855	610.75
326.084	605.75
326.313	650.75
326.542	662.75
326.77	647.75
326.999	639.75
327.228	631.75
327.457	616.75
327.686	613.75
327.914	640.75
328.143	620.75
328.372	635.75
328.6	633.75
328.829	636.75
329.058	640.75
329.287	638.75
329.515	640.75
329.744	650.75
329.972	642.75
330.201	648.75
330.43	650.75
330.658	659.75
330.887	662.75
331.115	671.75
331.344	662.75
331.572	666.75
331.801	710.75
332.03	717.75
332.258	706.75
332.486	724.75
332.715	755.75
332.943	776.75
333.172	800.75
333.4	816.75
333.629	842.75
333.857	854.75
334.085	848.75
334.314	836.75
334.542	840.75
334.771	825.75
334.999	793.75
335.227	799.75
335.455	791.75
335.684	800.75
335.912	787.75
336.14	761.75
336.369	789.75
336.597	794.75
336.825	796.75
337.053	743.75
337.281	743.75
337.51	724.75
337.738	723.75
337.966	712.75
338.194	719.75
338.422	704.75
338.65	700.75
338.878	693.75
339.106	679.75
339.334	706.75
339.562	697.75
339.79	688.75
340.018	680.75
340.246	638.75
340.474	644.75
340.702	674.75
340.93	666.75
341.158	667.75
341.386	670.75
341.614	662.75
341.842	647.75
342.07	656.75
342.298	653.75
342.526	665.75
342.754	670.75
342.981	663.75
343.209	688.75
343.437	704.75
343.665	725.75
343.893	772.75
344.12	822.75
344.348	807.75
344.576	756.75
344.804	731.75
345.031	694.75
345.259	676.75
345.487	652.75
345.714	653.75
345.942	634.75
346.17	653.75
346.397	648.75
346.625	635.75
346.853	637.75
347.08	663.75
347.308	630.75
347.535	637.75
347.763	650.75
347.99	650.75
348.218	617.75
348.445	636.75
348.673	674.75
348.9	636.75
349.128	635.75
349.355	638.75
349.583	628.75
349.81	607.75
350.037	602.75
350.265	622.75
350.492	614.75
350.72	616.75
350.947	624.75
351.174	624.75
351.402	628.75
351.629	629.75
351.856	609.75
352.083	622.75
352.311	645.75
352.538	630.75
352.765	623.75
352.992	600.75
353.22	598.75
353.447	599.75
353.674	598.75
353.901	623.75
354.128	587.75
354.355	613.75
354.583	599.75
354.81	635.75
355.037	613.75
355.264	642.75
355.491	638.75
355.718	632.75
355.945	619.75
356.172	618.75
356.399	637.75
356.626	626.75
356.853	632.75
357.08	603.75
357.307	642.75
357.534	634.75
357.761	633.75
357.988	626.75
358.215	614.75
358.441	610.75
358.668	603.75
358.895	630.75
359.122	617.75
359.349	626.75
359.576	640.75
359.802	620.75
360.029	630.75
360.256	630.75
360.483	622.75
360.709	649.75
360.936	632.75
361.163	616.75
361.39	620.75
361.616	602.75
361.843	597.75
362.07	631.75
362.296	640.75
362.523	626.75
362.749	617.75
362.976	627.75
363.203	608.75
363.429	607.75
363.656	627.75
363.882	626.75
364.109	616.75
364.335	623.75
364.562	631.75
364.788	602.75
365.015	601.75
365.241	619.75
365.468	643.75
365.694	646.75
365.92	613.75
366.147	621.75
366.373	609.75
366.599	623.75
366.826	597.75
367.052	610.75
367.278	626.75
367.505	622.75
367.731	631.75
367.957	632.75
368.184	633.75
368.41	634.75
368.636	631.75
368.862	633.75
369.089	619.75
369.315	651.75
369.541	643.75
369.767	617.75
369.993	663.75
370.219	627.75
370.445	650.75
370.672	642.75
370.898	680.75
371.124	656.75
371.35	690.75
371.576	672.75
371.802	665.75
372.028	660.75
372.254	684.75
372.48	692.75
372.706	712.75
372.932	708.75
373.158	698.75
373.384	667.75
373.61	669.75
373.835	668.75
374.061	667.75
374.287	662.75
374.513	709.75
374.739	707.75
374.965	715.75
375.191	739.75
375.416	755.75
375.642	726.75
375.868	715.75
376.094	708.75
376.319	668.75
376.545	690.75
376.771	688.75
376.997	681.75
377.222	689.75
377.448	677.75
377.674	690.75
377.899	651.75
378.125	673.75
378.35	688.75
378.576	673.75
378.802	672.75
379.027	660.75
379.253	642.75
379.478	655.75
379.704	666.75
379.929	665.75
380.155	651.75
380.38	684.75
380.606	682.75
380.831	668.75
381.057	651.75
381.282	666.75
381.507	681.75
381.733	672.75
381.958	677.75
382.184	678.75
382.409	708.75
382.634	679.75
382.86	675.75
383.085	691.75
383.31	723.75
383.535	737.75
383.761	721.75
383.986	753.75
384.211	746.75
384.436	788.75
384.662	777.75
384.887	795.75
385.112	801.75
385.337	811.75
385.562	814.75
385.787	834.75
386.013	838.75
386.238	831.75
386.463	820.75
386.688	818.75
386.913	818.75
387.138	817.75
387.363	826.75
387.588	801.75
387.813	790.75
388.038	818.75
388.263	793.75
388.488	796.75
388.713	795.75
388.938	800.75
389.163	788.75
389.387	788.75
389.612	781.75
389.837	792.75
390.062	797.75
390.287	806.75
390.512	783.75
390.736	800.75
390.961	801.75
391.186	807.75
391.411	840.75
391.636	873.75
391.86	891.75
392.085	946.75
392.31	924.75
392.534	894.75
392.759	890.75
392.984	894.75
393.208	856.75
393.433	852.75
393.658	856.75
393.882	871.75
394.107	856.75
394.331	870.75
394.556	874.75
394.78	854.75
395.005	892.75
395.229	882.75
395.454	876.75
395.678	892.75
395.903	918.75
396.127	900.75
396.352	893.75
396.576	876.75
396.801	874.75
397.025	887.75
397.249	914.75
397.474	900.75
397.698	959.75
397.922	931.75
398.147	924.75
398.371	929.75
398.595	973.75
398.82	1032.75
399.044	1067.75
399.268	1172.75
399.492	1371.75
399.717	1545.75
399.941	1542.75
400.165	1403.75
400.389	1242.75
400.613	1132.75
400.837	1089.75
401.062	1076.75
401.286	1050.75
401.51	1023.75
401.734	1032.75
401.958	1063.75
402.182	1047.75
402.406	1058.75
402.63	1040.75
402.854	1089.75
403.078	1090.75
403.302	1125.75
403.526	1125.75
403.75	1143.75
403.974	1202.75
404.198	1200.75
404.422	1150.75
404.645	1190.75
404.869	1150.75
405.093	1155.75
405.317	1099.75
405.541	1148.75
405.765	1152.75
405.988	1107.75
406.212	1113.75
406.436	1105.75
406.66	1154.75
406.883	1194.75
407.107	1233.75
407.331	1303.75
407.555	1322.75
407.778	1332.75
408.002	1249.75
408.226	1269.75
408.449	1246.75
408.673	1182.75
408.896	1180.75
409.12	1151.75
409.344	1183.75
409.567	1187.75
409.791	1156.75
410.014	1165.75
410.238	1143.75
410.461	1138.75
410.685	1113.75
410.908	1099.75
411.132	1107.75
411.355	1058.75
411.578	1081.75
411.802	1062.75
412.025	1079.75
412.249	1067.75
412.472	1079.75
412.695	999.75
412.919	1051.75
413.142	1009.75
413.365	1025.75
413.589	1043.75
413.812	1048.75
414.035	1003.75
414.258	995.75
414.482	1013.75
414.705	1048.75
414.928	1039.75
415.151	1024.75
415.374	1045.75
415.597	1013.75
415.821	1013.75
416.044	955.75
416.267	989.75
416.49	1022.75
416.713	1021.75
416.936	999.75
417.159	1021.75
417.382	980.75
417.605	1030.75
417.828	1019.75
418.051	1007.75
418.274	1006.75
418.497	1024.75
418.72	1021.75
418.943	1026.75
419.166	1107.75
419.389	1167.75
419.611	1163.75
419.834	1107.75
420.057	1066.75
420.28	1039.75
420.503	1015.75
420.726	1019.75
420.948	997.75
421.171	987.75
421.394	1023.75
421.617	1020.75
421.839	990.75
422.062	1011.75
422.285	986.75
422.507	1007.75
422.73	1046.75
422.953	1046.75
423.175	1020.75
423.398	1036.75
423.621	1058.75
423.843	1066.75
424.066	1097.75
424.288	1092.75
424.511	1048.75
424.733	1027.75
424.956	998.75
425.178	1016.75
425.401	1012.75
425.623	1004.75
425.846	974.75
426.068	996.75
426.291	990.75
426.513	956.75
426.735	972.75
426.958	966.75
427.18	934.75
427.402	919.75
427.625	936.75
427.847	924.75
428.069	884.75
428.292	922.75
428.514	900.75
428.736	894.75
428.958	933.75
429.181	881.75
429.403	876.75
429.625	891.75
429.847	862.75
430.069	894.75
430.292	856.75
430.514	864.75
430.736	879.75
430.958	908.75
431.18	870.75
431.402	898.75
431.624	896.75
431.846	914.75
432.068	898.75
432.29	909.75
432.512	876.75
432.734	930.75
432.956	890.75
433.178	886.75
433.4	920.75
433.622	896.75
433.844	911.75
434.066	905.75
434.287	944.75
434.509	955.75
434.731	994.75
434.953	1014.75
435.175	994.75
435.397	972.75
435.618	955.75
435.84	927.75
436.062	900.75
436.284	865.75
436.505	904.75
436.727	901.75
436.949	890.75
437.17	924.75
437.392	894.75
437.614	871.75
437.835	876.75
438.057	872.75
438.278	865.75
438.5	858.75
438.721	853.75
438.943	869.75
439.165	848.75
439.386	867.75
439.608	878.75
439.829	898.75
440.05	900.75
440.272	888.75
440.493	936.75
440.715	915.75
440.936	945.75
441.158	928.75
441.379	956.75
441.6	1011.75
441.822	1016.75
442.043	1036.75
442.264	991.75
442.486	964.75
442.707	971.75
442.928	978.75
443.149	964.75
443.371	1005.75
443.592	1026.75
443.813	1030.75
444.034	1034.75
444.255	1049.75
444.476	1104.75
444.698	1141.75
444.919	1200.75
445.14	1326.75
445.361	1164.75
445.582	1048.75
445.803	1027.75
446.024	963.75
446.245	918.75
446.466	950.75
446.687	898.75
446.908	918.75
447.129	904.75
447.35	867.75
447.571	885.75
447.792	836.75
448.013	838.75
448.234	835.75
448.455	844.75
448.675	816.75
448.896	839.75
449.117	832.75
449.338	824.75
449.559	812.75
449.779	819.75
450	838.75
450.221	833.75
450.442	790.75
450.662	841.75
450.883	815.75
451.104	855.75
451.324	856.75
451.545	838.75
451.766	860.75
451.986	836.75
452.207	844.75
452.428	822.75
452.648	795.75
452.869	810.75
453.089	811.75
453.31	829.75
453.53	790.75
453.751	799.75
453.971	796.75
454.192	794.75
454.412	735.75
454.633	780.75
454.853	784.75
455.073	782.75
455.294	761.75
455.514	759.75
455.734	765.75
455.955	738.75
456.175	802.75
456.395	755.75
456.616	788.75
456.836	766.75
457.056	758.75
457.276	746.75
457.497	759.75
457.717	774.75
457.937	767.75
458.157	785.75
458.377	799.75
458.598	806.75
458.818	851.75
459.038	836.75
459.258	886.75
459.478	907.75
459.698	930.75
459.918	952.75
460.138	992.75
460.358	1052.75
460.578	1066.75
460.798	1077.75
461.018	1068.75
461.238	1066.75
461.458	1066.75
461.678	1049.75
461.898	1079.75
462.118	1097.75
462.338	1108.75
462.558	1133.75
462.777	1220.75
462.997	1300.75
463.217	1390.75
463.437	1410.75
463.657	1334.75
463.876	1264.75
464.096	1235.75
464.316	1249.75
464.536	1248.75
464.755	1177.75
464.975	1153.75
465.195	1109.75
465.414	1026.75
465.634	954.75
465.854	935.75
466.073	926.75
466.293	896.75
466.512	879.75
466.732	844.75
466.951	865.75
467.171	839.75
467.391	857.75
467.61	859.75
467.829	857.75
468.049	841.75
468.268	830.75
468.488	846.75
468.707	826.75
468.927	836.75
469.146	825.75
469.365	843.75
469.585	832.75
469.804	863.75
470.023	881.75
470.243	862.75
470.462	883.75
470.681	910.75
470.901	888.75
471.12	885.75
471.339	883.75
471.558	867.75
471.777	856.75
471.997	809.75
472.216	854.75
472.435	824.75
472.654	807.75
472.873	776.75
473.092	792.75
473.311	818.75
473.53	791.75
473.749	792.75
473.968	816.75
474.187	815.75
474.406	815.75
474.625	829.75
474.844	818.75
475.063	798.75
475.282	806.75
475.501	795.75
475.72	836.75
475.939	827.75
476.158	823.75
476.377	850.75
476.596	841.75
476.814	852.75
477.033	865.75
477.252	851.75
477.471	896.75
477.69	902.75
477.908	942.75
478.127	977.75
478.346	968.75
478.564	962.75
478.783	984.75
479.002	1030.75
479.22	1011.75
479.439	1003.75
479.658	1001.75
479.876	1025.75
480.095	1011.75
480.313	1033.75
480.532	1111.75
480.751	1074.75
480.969	1071.75
481.188	1019.75
481.406	964.75
481.624	962.75
481.843	938.75
482.061	915.75
482.28	890.75
482.498	923.75
482.717	903.75
482.935	939.75
483.153	935.75
483.372	909.75
483.59	919.75
483.808	934.75
484.027	921.75
484.245	922.75
484.463	938.75
484.681	978.75
484.9	963.75
485.118	970.75
485.336	927.75
485.554	963.75
485.772	965.75
485.99	992.75
486.209	983.75
486.427	995.75
486.645	948.75
486.863	965.75
487.081	955.75
487.299	926.75
487.517	956.75
487.735	967.75
487.953	976.75
488.171	981.75
488.389	972.75
488.607	967.75
488.825	943.75
489.043	939.75
489.261	934.75
489.479	934.75
489.696	983.75
489.914	960.75
490.132	971.75
490.35	937.75
490.568	960.75
490.786	972.75
491.003	969.75
491.221	985.75
491.439	990.75
491.657	960.75
491.874	966.75
492.092	1001.75
492.31	1013.75
492.527	989.75
492.745	989.75
492.963	991.75
493.18	1031.75
493.398	996.75
493.615	1023.75
493.833	988.75
494.05	1056.75
494.268	1040.75
494.485	1076.75
494.703	1038.75
494.92	1076.75
495.138	1007.75
495.355	1060.75
495.573	1053.75
495.79	1062.75
496.008	1055.75
496.225	1046.75
496.442	1072.75
496.66	1076.75
496.877	1105.75
497.094	1164.75
497.312	1134.75
497.529	1160.75
497.746	1198.75
497.963	1227.75
498.181	1277.75
498.398	1358.75
498.615	1445.75
498.832	1499.75
499.049	1637.75
499.267	1761.75
499.484	1955.75
499.701	2164.75
499.918	2385.75
500.135	2684.75
500.352	2985.75
500.569	3168.75
500.786	3097.75
501.003	2921.75
501.22	2615.75
501.437	2344.75
501.654	2069.75
501.871	1875.75
502.088	1707.75
502.305	1601.75
502.522	1506.75
502.739	1440.75
502.956	1370.75
503.172	1332.75
503.389	1264.75
503.606	1256.75
503.823	1190.75
504.04	1178.75
504.256	1199.75
504.473	1224.75
504.69	1229.75
504.907	1201.75
505.123	1162.75
505.34	1086.75
505.557	1067.75
505.773	1047.75
505.99	965.75
506.207	954.75
506.423	981.75
506.64	953.75
506.856	932.75
507.073	938.75
507.289	906.75
507.506	919.75
507.722	922.75
507.939	921.75
508.155	885.75
508.372	872.75
508.588	887.75
508.805	873.75
509.021	879.75
509.238	853.75
509.454	834.75
509.67	843.75
509.887	847.75
510.103	850.75
510.319	859.75
510.536	843.75
510.752	831.75
510.968	852.75
511.184	850.75
511.401	840.75
511.617	820.75
511.833	844.75
512.049	848.75
512.265	847.75
512.481	841.75
512.698	843.75
512.914	824.75
513.13	802.75
513.346	846.75
513.562	826.75
513.778	842.75
513.994	842.75
514.21	833.75
514.426	865.75
514.642	879.75
514.858	842.75
515.074	862.75
515.29	874.75
515.506	889.75
515.721	875.75
515.937	896.75
516.153	906.75
516.369	936.75
516.585	965.75
516.801	996.75
517.016	1028.75
517.232	1095.75
517.448	1109.75
517.664	1183.75
517.879	1202.75
518.095	1156.75
518.311	1130.75
518.527	1097.75
518.742	1045.75
518.958	989.75
519.173	989.75
519.389	971.75
519.605	911.75
519.82	904.75
520.036	881.75
520.251	871.75
520.467	871.75
520.682	839.75
520.898	847.75
521.113	831.75
521.329	850.75
521.544	811.75
521.76	809.75
521.975	795.75
522.19	806.75
522.406	812.75
522.621	805.75
522.836	780.75
523.052	774.75
523.267	778.75
523.482	783.75
523.698	788.75
523.913	755.75
524.128	800.75
524.343	800.75
524.559	787.75
524.774	757.75
524.989	772.75
525.204	777.75
525.419	745.75
525.634	771.75
525.849	731.75
526.064	750.75
526.28	768.75
526.495	745.75
526.71	735.75
526.925	754.75
527.14	730.75
527.355	739.75
527.57	758.75
527.785	776.75
527.999	755.75
528.214	748.75
528.429	743.75
528.644	730.75
528.859	766.75
529.074	745.75
529.289	754.75
529.503	762.75
529.718	756.75
529.933	740.75
530.148	740.75
530.363	745.75
530.577	736.75
530.792	749.75
531.007	758.75
531.221	739.75
531.436	754.75
531.651	760.75
531.865	739.75
532.08	773.75
532.295	764.75
532.509	715.75
532.724	744.75
532.938	747.75
533.153	747.75
533.367	738.75
533.582	737.75
533.796	762.75
534.011	734.75
534.225	753.75
534.44	760.75
534.654	739.75
534.868	756.75
535.083	737.75
535.297	720.75
535.511	720.75
535.726	704.75
535.94	745.75
536.154	707.75
536.369	703.75
536.583	707.75
536.797	678.75
537.011	674.75
537.225	681.75
537.44	682.75
537.654	696.75
537.868	683.75
538.082	699.75
538.296	707.75
538.51	691.75
538.724	684.75
538.938	704.75
539.153	671.75
539.367	671.75
539.581	672.75
539.795	694.75
540.009	686.75
540.222	670.75
540.436	709.75
540.65	670.75
540.864	661.75
541.078	676.75
541.292	681.75
541.506	694.75
541.72	681.75
541.934	679.75
542.147	659.75
542.361	667.75
542.575	682.75
542.789	680.75
543.002	652.75
543.216	667.75
543.43	679.75
543.644	671.75
543.857	652.75
544.071	660.75
544.285	665.75
544.498	658.75
544.712	647.75
544.925	670.75
545.139	688.75
545.352	690.75
545.566	688.75
545.779	695.75
545.993	687.75
546.206	711.75
546.42	684.75
546.633	666.75
546.847	679.75
547.06	692.75
547.274	665.75
547.487	690.75
547.7	721.75
547.914	689.75
548.127	698.75
548.34	700.75
548.554	705.75
548.767	719.75
548.98	686.75
549.193	686.75
549.407	693.75
549.62	710.75
549.833	704.75
550.046	703.75
550.259	708.75
550.473	664.75
550.686	673.75
550.899	672.75
551.112	648.75
551.325	664.75
551.538	679.75
551.751	678.75
551.964	690.75
552.177	682.75
552.39	691.75
552.603	709.75
552.816	731.75
553.029	765.75
553.242	776.75
553.455	786.75
553.667	750.75
553.88	764.75
554.093	729.75
554.306	687.75
554.519	723.75
554.732	680.75
554.944	679.75
555.157	662.75
555.37	644.75
555.583	648.75
555.795	647.75
556.008	663.75
556.221	611.75
556.433	592.75
556.646	630.75
556.859	603.75
557.071	588.75
557.284	585.75
557.496	589.75
557.709	603.75
557.921	585.75
558.134	588.75
558.346	586.75
558.559	588.75
558.771	581.75
558.984	599.75
559.196	584.75
559.409	598.75
559.621	571.75
559.833	596.75
560.046	578.75
560.258	579.75
560.47	580.75
560.683	582.75
560.895	563.75
561.107	586.75
561.32	567.75
561.532	572.75
561.744	568.75
561.956	561.75
562.168	560.75
562.381	561.75
562.593	573.75
562.805	588.75
563.017	582.75
563.229	591.75
563.441	577.75
563.653	558.75
563.865	581.75
564.077	589.75
564.289	581.75
564.501	592.75
564.713	622.75
564.925	608.75
565.137	617.75
565.349	642.75
565.561	678.75
565.773	682.75
565.985	707.75
566.197	753.75
566.408	796.75
566.62	855.75
566.832	934.75
567.044	920.75
567.255	937.75
567.467	973.75
567.679	991.75
567.891	1096.75
568.102	1081.75
568.314	998.75
568.526	934.75
568.737	865.75
568.949	785.75
569.161	713.75
569.372	698.75
569.584	667.75
569.795	632.75
570.007	602.75
570.218	600.75
570.43	576.75
570.641	580.75
570.853	582.75
571.064	591.75
571.276	612.75
571.487	574.75
571.698	574.75
571.91	521.75
572.121	535.75
572.333	523.75
572.544	479.75
572.755	475.75
572.966	494.75
573.178	496.75
573.389	481.75
573.6	466.75
573.811	493.75
574.023	470.75
574.234	469.75
574.445	464.75
574.656	475.75
574.867	481.75
575.078	480.75
575.289	483.75
575.501	466.75
575.712	439.75
575.923	452.75
576.134	449.75
576.345	464.75
576.556	441.75
576.767	435.75
576.978	458.75
577.188	433.75
577.399	455.75
577.61	445.75
577.821	441.75
578.032	438.75
578.243	430.75
578.454	420.75
578.665	415.75
578.875	416.75
579.086	427.75
579.297	425.75
579.508	406.75
579.718	421.75
579.929	411.75
580.14	414.75
580.35	411.75
580.561	395.75
580.772	410.75
580.982	408.75
581.193	391.75
581.403	392.75
581.614	410.75
581.825	392.75
582.035	416.75
582.246	401.75
582.456	409.75
582.667	407.75
582.877	405.75
583.087	388.75
583.298	378.75
583.508	390.75
583.719	381.75
583.929	394.75
584.139	394.75
584.35	383.75
584.56	384.75
584.77	380.75
584.981	374.75
585.191	372.75
585.401	420.75
585.611	368.75
585.821	384.75
586.032	367.75
586.242	379.75
586.452	376.75
586.662	392.75
586.872	400.75
587.082	393.75
587.292	384.75
587.502	369.75
587.713	369.75
587.923	379.75
588.133	368.75
588.343	377.75
588.553	379.75
588.762	369.75
588.972	357.75
589.182	386.75
589.392	394.75
589.602	392.75
589.812	385.75
590.022	387.75
590.232	375.75
590.441	392.75
590.651	369.75
590.861	378.75
591.071	407.75
591.281	377.75
591.49	411.75
591.7	403.75
591.91	403.75
592.119	419.75
592.329	408.75
592.539	423.75
592.748	445.75
592.958	436.75
593.167	459.75
593.377	486.75
593.587	471.75
593.796	485.75
594.006	482.75
594.215	507.75
594.424	496.75
594.634	486.75
594.843	456.75
595.053	448.75
595.262	435.75
595.472	404.75
595.681	415.75
595.89	387.75
596.1	366.75
596.309	351.75
596.518	370.75
596.727	356.75
596.937	366.75
597.146	354.75
597.355	349.75
597.564	355.75
597.774	340.75
597.983	334.75
598.192	329.75
598.401	337.75
598.61	340.75
598.819	333.75
599.028	335.75
599.237	317.75
599.446	318.75
599.655	328.75
599.864	302.75
600.073	303.75
600.282	321.75
600.491	313.75
600.7	335.75
600.909	307.75
601.118	311.75
601.327	323.75
601.536	318.75
601.745	317.75
601.953	304.75
602.162	302.75
602.371	305.75
602.58	294.75
602.789	314.75
602.997	320.75
603.206	308.75
603.415	312.75
603.623	306.75
603.832	303.75
604.041	297.75
604.249	312.75
604.458	311.75
604.666	299.75
604.875	290.75
605.084	288.75
605.292	296.75
605.501	282.75
605.709	288.75
605.918	302.75
606.126	314.75
606.334	290.75
606.543	287.75
606.751	291.75
606.96	288.75
607.168	288.75
607.376	284.75
607.585	282.75
607.793	291.75
608.001	278.75
608.21	274.75
608.418	289.75
608.626	280.75
608.834	298.75
609.043	281.75
609.251	279.75
609.459	265.75
609.667	282.75
609.875	290.75
610.083	277.75
610.291	275.75
610.499	284.75
610.707	274.75
610.916	277.75
611.124	276.75
611.332	290.75
611.54	292.75
611.748	268.75
611.955	268.75
612.163	273.75
612.371	281.75
612.579	269.75
612.787	280.75
612.995	269.75
613.203	274.75
613.411	293.75
613.618	276.75
613.826	259.75
614.034	262.75
614.242	276.75
614.449	271.75
614.657	276.75
614.865	243.75
615.072	272.75
615.28	268.75
615.488	293.75
615.695	275.75
615.903	262.75
616.111	262.75
616.318	271.75
616.526	265.75
616.733	283.75
616.941	269.75
617.148	264.75
617.356	289.75
617.563	274.75
617.771	270.75
617.978	272.75
618.185	300.75
618.393	283.75
618.6	281.75
618.807	271.75
619.015	268.75
619.222	260.75
619.429	277.75
619.637	286.75
619.844	250.75
620.051	258.75
620.258	273.75
620.466	246.75
620.673	259.75
620.88	254.75
621.087	254.75
621.294	252.75
621.501	272.75
621.708	260.75
621.915	245.75
622.122	256.75
622.329	247.75
622.536	250.75
622.743	242.75
622.95	235.75
623.157	237.75
623.364	239.75
623.571	264.75
623.778	221.75
623.985	246.75
624.192	211.75
624.399	239.75
624.606	240.75
624.812	225.75
625.019	235.75
625.226	265.75
625.433	233.75
625.639	232.75
625.846	250.75
626.053	234.75
626.259	242.75
626.466	240.75
626.673	243.75
626.879	234.75
627.086	245.75
627.293	243.75
627.499	242.75
627.706	242.75
627.912	249.75
628.119	238.75
628.325	228.75
628.532	228.75
628.738	226.75
628.945	226.75
629.151	229.75
629.357	225.75
629.564	204.75
629.77	218.75
629.976	228.75
630.183	219.75
630.389	206.75
630.595	220.75
630.802	206.75
631.008	203.75
631.214	213.75
631.42	221.75
631.627	208.75
631.833	202.75
632.039	203.75
632.245	212.75
632.451	212.75
632.657	220.75
632.863	218.75
633.069	204.75
633.275	195.75
633.481	208.75
633.688	203.75
633.893	204.75
634.099	210.75
634.305	201.75
634.511	199.75
634.717	206.75
634.923	208.75
635.129	194.75
635.335	196.75
635.541	192.75
635.747	207.75
635.952	200.75
636.158	203.75
636.364	223.75
636.57	201.75
636.775	193.75
636.981	205.75
637.187	203.75
637.392	201.75
637.598	186.75
637.804	190.75
638.009	186.75
638.215	187.75
638.421	204.75
638.626	200.75
638.832	187.75
639.037	199.75
639.243	188.75
639.448	192.75
639.654	188.75
639.859	182.75
640.065	184.75
640.27	191.75
640.475	185.75
640.681	200.75
640.886	186.75
641.091	178.75
641.297	195.75
641.502	180.75
641.707	177.75
641.913	191.75
642.118	178.75
642.323	179.75
642.528	185.75
642.733	165.75
642.939	184.75
643.144	187.75
643.349	188.75
643.554	179.75
643.759	179.75
643.964	162.75
644.169	172.75
644.374	178.75
644.579	170.75
644.784	179.75
644.989	192.75
645.194	195.75
645.399	167.75
645.604	163.75
645.809	179.75
646.014	177.75
646.219	186.75
646.423	182.75
646.628	195.75
646.833	182.75
647.038	193.75
647.243	179.75
647.447	181.75
647.652	187.75
647.857	190.75
648.062	190.75
648.266	190.75
648.471	198.75
648.676	198.75
648.88	192.75
649.085	170.75
649.289	194.75
649.494	175.75
649.698	167.75
649.903	183.75
650.107	168.75
650.312	174.75
650.516	164.75
650.721	175.75
650.925	170.75
651.13	163.75
651.334	148.75
651.539	155.75
651.743	156.75
651.947	156.75
652.152	151.75
652.356	153.75
652.56	139.75
652.764	146.75
652.969	154.75
653.173	141.75
653.377	157.75
653.581	149.75
653.785	139.75
653.99	144.75
654.194	138.75
654.398	138.75
654.602	146.75
654.806	132.75
655.01	144.75
655.214	132.75
655.418	121.75
655.622	133.75
655.826	137.75
656.03	129.75
656.234	144.75
656.438	128.75
656.642	117.75
656.846	118.75
657.049	119.75
657.253	123.75
657.457	114.75
657.661	118.75
657.865	112.75
658.068	103.75
658.272	106.75
658.476	110.75
658.68	108.75
658.883	100.75
659.087	103.75
659.291	110.75
659.494	101.75
659.698	106.75
659.901	102.75
660.105	92.75
660.309	103.75
660.512	90.75
660.716	99.75
660.919	89.75
661.123	107.75
661.326	97.75
661.53	87.75
661.733	83.75
661.936	83.75
662.14	94.75
662.343	91.75
662.546	83.75
662.75	84.75
662.953	75.75
663.156	86.75
663.36	74.75
663.563	75.75
663.766	77.75
663.969	82.75
664.173	82.75
664.376	104.75
664.579	75.75
664.782	91.75
664.985	85.75
665.188	82.75
665.391	67.75
665.594	77.75
665.797	84.75
666	85.75
666.203	90.75
666.406	67.75
666.609	81.75
666.812	81.75
667.015	72.75
667.218	69.75
667.421	85.75
667.624	90.75
667.827	78.75
668.03	73.75
668.232	88.75
668.435	82.75
668.638	78.75
668.841	83.75
669.043	89.75
669.246	86.75
669.449	78.75
669.651	70.75
669.854	75.75
670.057	72.75
670.259	77.75
670.462	97.75
670.665	70.75
670.867	97.75
671.07	82.75
671.272	68.75
671.475	75.75
671.677	70.75
671.88	75.75
672.082	94.75
672.284	62.75
672.487	70.75
672.689	81.75
672.892	80.75
