Data from NiCl2@0.25M.TitratingCurve.Agarose3%dH2O.NegLispCup.LampEnergy10.LIBS07252019_HRD10591_18-25-51-573.txt Node
Date: Thu Jul 25 18:25:51 EDT 2019
User: cochatt
Spectrometer: HR+D1059
Trigger mode: 1
Integration Time (sec): 1.000000E-1
Scans to average: 1
Electric dark correction enabled: true
Nonlinearity correction enabled: false
Boxcar width: 0
XAxis mode: Wavelengths
Number of Pixels in Spectrum: 2048
>>>>>Begin Spectral Data<<<<<
223.165	-8.06
223.4	-8.06
223.635	-8.06
223.869	-32.06
224.104	-19.06
224.338	-20.06
224.573	-10.06
224.808	-18.06
225.042	3.94
225.277	-10.06
225.511	-0.06
225.746	5.94
225.98	9.94
226.215	23.94
226.449	0.94
226.683	15.94
226.918	22.94
227.152	33.94
227.387	35.94
227.621	35.94
227.856	44.94
228.09	42.94
228.324	54.94
228.559	67.94
228.793	65.94
229.027	115.94
229.262	113.94
229.496	131.94
229.73	130.94
229.964	151.94
230.199	135.94
230.433	147.94
230.667	146.94
230.901	147.94
231.136	153.94
231.37	157.94
231.604	153.94
231.838	146.94
232.072	159.94
232.306	167.94
232.541	159.94
232.775	178.94
233.009	178.94
233.243	162.94
233.477	165.94
233.711	156.94
233.945	168.94
234.179	170.94
234.413	169.94
234.647	175.94
234.881	171.94
235.115	168.94
235.349	165.94
235.583	170.94
235.817	168.94
236.051	159.94
236.285	173.94
236.519	164.94
236.753	176.94
236.987	164.94
237.221	183.94
237.455	180.94
237.689	167.94
237.922	171.94
238.156	188.94
238.39	185.94
238.624	180.94
238.858	201.94
239.091	197.94
239.325	172.94
239.559	197.94
239.793	183.94
240.027	182.94
240.26	204.94
240.494	193.94
240.728	217.94
240.961	192.94
241.195	215.94
241.429	211.94
241.662	226.94
241.896	207.94
242.13	227.94
242.363	229.94
242.597	215.94
242.83	226.94
243.064	236.94
243.298	231.94
243.531	233.94
243.765	228.94
243.998	236.94
244.232	232.94
244.465	242.94
244.699	225.94
244.932	238.94
245.166	240.94
245.399	234.94
245.633	248.94
245.866	253.94
246.099	253.94
246.333	249.94
246.566	259.94
246.8	272.94
247.033	269.94
247.266	263.94
247.5	266.94
247.733	265.94
247.966	278.94
248.2	275.94
248.433	265.94
248.666	261.94
248.899	282.94
249.133	278.94
249.366	292.94
249.599	306.94
249.832	286.94
250.066	279.94
250.299	290.94
250.532	296.94
250.765	289.94
250.998	296.94
251.231	303.94
251.465	317.94
251.698	302.94
251.931	322.94
252.164	313.94
252.397	313.94
252.63	335.94
252.863	295.94
253.096	308.94
253.329	316.94
253.562	317.94
253.795	321.94
254.028	322.94
254.261	337.94
254.494	320.94
254.727	303.94
254.96	313.94
255.193	322.94
255.426	321.94
255.659	335.94
255.892	352.94
256.124	337.94
256.357	344.94
256.59	323.94
256.823	341.94
257.056	337.94
257.289	324.94
257.521	356.94
257.754	349.94
257.987	344.94
258.22	364.94
258.452	360.94
258.685	357.94
258.918	354.94
259.151	368.94
259.383	361.94
259.616	358.94
259.849	369.94
260.081	377.94
260.314	362.94
260.547	365.94
260.779	379.94
261.012	377.94
261.244	383.94
261.477	391.94
261.71	386.94
261.942	392.94
262.175	369.94
262.407	375.94
262.64	370.94
262.872	392.94
263.105	390.94
263.337	377.94
263.57	389.94
263.802	405.94
264.035	396.94
264.267	401.94
264.499	407.94
264.732	410.94
264.964	400.94
265.197	407.94
265.429	407.94
265.661	397.94
265.894	400.94
266.126	420.94
266.358	419.94
266.591	415.94
266.823	406.94
267.055	421.94
267.287	439.94
267.52	417.94
267.752	433.94
267.984	441.94
268.216	434.94
268.448	457.94
268.681	440.94
268.913	436.94
269.145	427.94
269.377	441.94
269.609	439.94
269.841	425.94
270.073	435.94
270.306	437.94
270.538	445.94
270.77	427.94
271.002	445.94
271.234	461.94
271.466	441.94
271.698	452.94
271.93	450.94
272.162	459.94
272.394	459.94
272.626	464.94
272.858	449.94
273.09	485.94
273.322	476.94
273.553	452.94
273.785	478.94
274.017	465.94
274.249	492.94
274.481	472.94
274.713	465.94
274.945	493.94
275.176	468.94
275.408	492.94
275.64	472.94
275.872	469.94
276.104	517.94
276.335	495.94
276.567	499.94
276.799	495.94
277.031	498.94
277.262	510.94
277.494	498.94
277.726	499.94
277.957	524.94
278.189	504.94
278.421	517.94
278.652	495.94
278.884	513.94
279.115	505.94
279.347	524.94
279.579	532.94
279.81	529.94
280.042	533.94
280.273	521.94
280.505	545.94
280.736	529.94
280.968	539.94
281.199	541.94
281.431	570.94
281.662	541.94
281.894	567.94
282.125	565.94
282.356	544.94
282.588	553.94
282.819	555.94
283.051	559.94
283.282	563.94
283.513	568.94
283.745	575.94
283.976	581.94
284.207	553.94
284.439	568.94
284.67	583.94
284.901	585.94
285.132	596.94
285.364	568.94
285.595	580.94
285.826	573.94
286.057	575.94
286.288	574.94
286.52	595.94
286.751	579.94
286.982	589.94
287.213	581.94
287.444	596.94
287.675	594.94
287.906	587.94
288.138	587.94
288.369	610.94
288.6	628.94
288.831	618.94
289.062	599.94
289.293	594.94
289.524	610.94
289.755	599.94
289.986	611.94
290.217	598.94
290.448	618.94
290.679	627.94
290.91	626.94
291.141	625.94
291.371	602.94
291.602	649.94
291.833	637.94
292.064	613.94
292.295	609.94
292.526	634.94
292.757	631.94
292.987	636.94
293.218	639.94
293.449	621.94
293.68	647.94
293.91	631.94
294.141	610.94
294.372	634.94
294.603	642.94
294.833	619.94
295.064	635.94
295.295	634.94
295.525	628.94
295.756	644.94
295.987	651.94
296.217	664.94
296.448	634.94
296.679	653.94
296.909	657.94
297.14	657.94
297.37	654.94
297.601	667.94
297.831	665.94
298.062	675.94
298.292	682.94
298.523	675.94
298.753	662.94
298.984	673.94
299.214	685.94
299.445	679.94
299.675	683.94
299.905	667.94
300.136	679.94
300.366	676.94
300.597	708.94
300.827	704.94
301.057	702.94
301.288	744.94
301.518	699.94
301.748	708.94
301.979	733.94
302.209	722.94
302.439	712.94
302.669	694.94
302.9	698.94
303.13	713.94
303.36	717.94
303.59	675.94
303.82	729.94
304.051	700.94
304.281	735.94
304.511	724.94
304.741	714.94
304.971	692.94
305.201	727.94
305.431	695.94
305.661	705.94
305.891	684.94
306.121	718.94
306.352	683.94
306.582	698.94
306.812	678.94
307.042	709.94
307.272	699.94
307.502	682.94
307.731	662.94
307.961	694.94
308.191	680.94
308.421	710.94
308.651	684.94
308.881	705.94
309.111	689.94
309.341	703.94
309.571	703.94
309.8	689.94
310.03	713.94
310.26	711.94
310.49	728.94
310.72	705.94
310.949	690.94
311.179	721.94
311.409	708.94
311.639	695.94
311.868	695.94
312.098	715.94
312.328	731.94
312.557	731.94
312.787	751.94
313.017	744.94
313.246	717.94
313.476	759.94
313.706	755.94
313.935	768.94
314.165	743.94
314.394	749.94
314.624	741.94
314.853	735.94
315.083	747.94
315.312	755.94
315.542	727.94
315.771	723.94
316.001	741.94
316.23	742.94
316.46	732.94
316.689	733.94
316.919	739.94
317.148	742.94
317.377	737.94
317.607	693.94
317.836	710.94
318.065	737.94
318.295	714.94
318.524	717.94
318.753	711.94
318.983	737.94
319.212	717.94
319.441	752.94
319.67	733.94
319.9	711.94
320.129	712.94
320.358	714.94
320.587	738.94
320.816	740.94
321.046	730.94
321.275	759.94
321.504	720.94
321.733	730.94
321.962	722.94
322.191	730.94
322.42	741.94
322.649	752.94
322.878	758.94
323.108	720.94
323.337	759.94
323.566	743.94
323.795	769.94
324.024	772.94
324.253	747.94
324.482	751.94
324.71	786.94
324.939	769.94
325.168	752.94
325.397	772.94
325.626	764.94
325.855	781.94
326.084	780.94
326.313	830.94
326.542	789.94
326.77	815.94
326.999	796.94
327.228	789.94
327.457	794.94
327.686	803.94
327.914	788.94
328.143	807.94
328.372	826.94
328.6	805.94
328.829	785.94
329.058	831.94
329.287	819.94
329.515	821.94
329.744	810.94
329.972	810.94
330.201	826.94
330.43	842.94
330.658	835.94
330.887	840.94
331.115	838.94
331.344	856.94
331.572	871.94
331.801	889.94
332.03	872.94
332.258	897.94
332.486	928.94
332.715	964.94
332.943	1003.94
333.172	1066.94
333.4	1113.94
333.629	1120.94
333.857	1112.94
334.085	1099.94
334.314	1089.94
334.542	1052.94
334.771	1063.94
334.999	1008.94
335.227	1000.94
335.455	1003.94
335.684	1015.94
335.912	1001.94
336.14	972.94
336.369	985.94
336.597	1006.94
336.825	961.94
337.053	984.94
337.281	961.94
337.51	956.94
337.738	891.94
337.966	906.94
338.194	861.94
338.422	885.94
338.65	907.94
338.878	889.94
339.106	862.94
339.334	893.94
339.562	846.94
339.79	803.94
340.018	838.94
340.246	828.94
340.474	830.94
340.702	818.94
340.93	837.94
341.158	836.94
341.386	844.94
341.614	848.94
341.842	847.94
342.07	826.94
342.298	841.94
342.526	829.94
342.754	792.94
342.981	831.94
343.209	877.94
343.437	907.94
343.665	955.94
343.893	1041.94
344.12	1059.94
344.348	1009.94
344.576	949.94
344.804	931.94
345.031	872.94
345.259	847.94
345.487	863.94
345.714	841.94
345.942	839.94
346.17	831.94
346.397	821.94
346.625	808.94
346.853	815.94
347.08	792.94
347.308	793.94
347.535	807.94
347.763	830.94
347.99	829.94
348.218	827.94
348.445	798.94
348.673	815.94
348.9	795.94
349.128	815.94
349.355	815.94
349.583	812.94
349.81	795.94
350.037	791.94
350.265	788.94
350.492	768.94
350.72	751.94
350.947	778.94
351.174	781.94
351.402	801.94
351.629	789.94
351.856	761.94
352.083	779.94
352.311	734.94
352.538	752.94
352.765	757.94
352.992	778.94
353.22	768.94
353.447	779.94
353.674	767.94
353.901	768.94
354.128	769.94
354.355	791.94
354.583	764.94
354.81	773.94
355.037	772.94
355.264	765.94
355.491	759.94
355.718	771.94
355.945	770.94
356.172	779.94
356.399	780.94
356.626	769.94
356.853	783.94
357.08	779.94
357.307	760.94
357.534	772.94
357.761	786.94
357.988	775.94
358.215	765.94
358.441	796.94
358.668	776.94
358.895	778.94
359.122	776.94
359.349	773.94
359.576	796.94
359.802	794.94
360.029	767.94
360.256	759.94
360.483	779.94
360.709	784.94
360.936	769.94
361.163	755.94
361.39	791.94
361.616	792.94
361.843	813.94
362.07	788.94
362.296	791.94
362.523	780.94
362.749	777.94
362.976	787.94
363.203	770.94
363.429	763.94
363.656	781.94
363.882	769.94
364.109	755.94
364.335	787.94
364.562	748.94
364.788	757.94
365.015	777.94
365.241	759.94
365.468	775.94
365.694	772.94
365.92	794.94
366.147	744.94
366.373	780.94
366.599	761.94
366.826	781.94
367.052	765.94
367.278	798.94
367.505	776.94
367.731	784.94
367.957	786.94
368.184	784.94
368.41	797.94
368.636	793.94
368.862	794.94
369.089	788.94
369.315	792.94
369.541	821.94
369.767	811.94
369.993	809.94
370.219	805.94
370.445	822.94
370.672	803.94
370.898	832.94
371.124	820.94
371.35	863.94
371.576	889.94
371.802	847.94
372.028	820.94
372.254	832.94
372.48	874.94
372.706	879.94
372.932	884.94
373.158	895.94
373.384	879.94
373.61	864.94
373.835	861.94
374.061	862.94
374.287	869.94
374.513	868.94
374.739	906.94
374.965	959.94
375.191	962.94
375.416	923.94
375.642	921.94
375.868	905.94
376.094	907.94
376.319	873.94
376.545	844.94
376.771	883.94
376.997	860.94
377.222	856.94
377.448	840.94
377.674	868.94
377.899	843.94
378.125	867.94
378.35	811.94
378.576	849.94
378.802	837.94
379.027	842.94
379.253	855.94
379.478	819.94
379.704	843.94
379.929	834.94
380.155	840.94
380.38	839.94
380.606	820.94
380.831	843.94
381.057	829.94
381.282	852.94
381.507	853.94
381.733	862.94
381.958	841.94
382.184	865.94
382.409	868.94
382.634	881.94
382.86	882.94
383.085	876.94
383.31	924.94
383.535	909.94
383.761	924.94
383.986	942.94
384.211	961.94
384.436	959.94
384.662	1015.94
384.887	1027.94
385.112	1009.94
385.337	1003.94
385.562	1035.94
385.787	1065.94
386.013	1046.94
386.238	1034.94
386.463	1064.94
386.688	1037.94
386.913	1031.94
387.138	1016.94
387.363	1031.94
387.588	1020.94
387.813	1017.94
388.038	1000.94
388.263	1007.94
388.488	1052.94
388.713	1039.94
388.938	985.94
389.163	1014.94
389.387	1023.94
389.612	973.94
389.837	995.94
390.062	990.94
390.287	988.94
390.512	1012.94
390.736	1018.94
390.961	1036.94
391.186	1031.94
391.411	1092.94
391.636	1092.94
391.86	1154.94
392.085	1173.94
392.31	1147.94
392.534	1129.94
392.759	1126.94
392.984	1109.94
393.208	1115.94
393.433	1078.94
393.658	1130.94
393.882	1075.94
394.107	1097.94
394.331	1103.94
394.556	1141.94
394.78	1138.94
395.005	1104.94
395.229	1128.94
395.454	1151.94
395.678	1154.94
395.903	1171.94
396.127	1171.94
396.352	1117.94
396.576	1085.94
396.801	1086.94
397.025	1111.94
397.249	1135.94
397.474	1152.94
397.698	1141.94
397.922	1159.94
398.147	1141.94
398.371	1175.94
398.595	1229.94
398.82	1265.94
399.044	1369.94
399.268	1514.94
399.492	1839.94
399.717	2039.94
399.941	2020.94
400.165	1779.94
400.389	1567.94
400.613	1438.94
400.837	1372.94
401.062	1315.94
401.286	1297.94
401.51	1297.94
401.734	1316.94
401.958	1311.94
402.182	1352.94
402.406	1327.94
402.63	1358.94
402.854	1394.94
403.078	1421.94
403.302	1451.94
403.526	1492.94
403.75	1511.94
403.974	1537.94
404.198	1537.94
404.422	1532.94
404.645	1543.94
404.869	1503.94
405.093	1490.94
405.317	1455.94
405.541	1483.94
405.765	1419.94
405.988	1396.94
406.212	1450.94
406.436	1411.94
406.66	1453.94
406.883	1480.94
407.107	1579.94
407.331	1641.94
407.555	1700.94
407.778	1673.94
408.002	1658.94
408.226	1589.94
408.449	1579.94
408.673	1491.94
408.896	1489.94
409.12	1464.94
409.344	1483.94
409.567	1491.94
409.791	1483.94
410.014	1464.94
410.238	1433.94
410.461	1453.94
410.685	1431.94
410.908	1395.94
411.132	1391.94
411.355	1295.94
411.578	1351.94
411.802	1358.94
412.025	1343.94
412.249	1359.94
412.472	1368.94
412.695	1304.94
412.919	1293.94
413.142	1290.94
413.365	1254.94
413.589	1305.94
413.812	1271.94
414.035	1240.94
414.258	1290.94
414.482	1283.94
414.705	1280.94
414.928	1285.94
415.151	1302.94
415.374	1248.94
415.597	1287.94
415.821	1257.94
416.044	1223.94
416.267	1258.94
416.49	1228.94
416.713	1259.94
416.936	1297.94
417.159	1244.94
417.382	1265.94
417.605	1247.94
417.828	1286.94
418.051	1305.94
418.274	1302.94
418.497	1297.94
418.72	1319.94
418.943	1334.94
419.166	1393.94
419.389	1493.94
419.611	1459.94
419.834	1418.94
420.057	1369.94
420.28	1283.94
420.503	1275.94
420.726	1276.94
420.948	1234.94
421.171	1260.94
421.394	1259.94
421.617	1257.94
421.839	1297.94
422.062	1275.94
422.285	1257.94
422.507	1296.94
422.73	1319.94
422.953	1319.94
423.175	1340.94
423.398	1323.94
423.621	1365.94
423.843	1373.94
424.066	1363.94
424.288	1338.94
424.511	1344.94
424.733	1356.94
424.956	1348.94
425.178	1321.94
425.401	1281.94
425.623	1303.94
425.846	1231.94
426.068	1220.94
426.291	1215.94
426.513	1191.94
426.735	1196.94
426.958	1188.94
427.18	1164.94
427.402	1168.94
427.625	1158.94
427.847	1143.94
428.069	1142.94
428.292	1129.94
428.514	1095.94
428.736	1131.94
428.958	1147.94
429.181	1093.94
429.403	1087.94
429.625	1128.94
429.847	1075.94
430.069	1087.94
430.292	1105.94
430.514	1085.94
430.736	1084.94
430.958	1087.94
431.18	1109.94
431.402	1103.94
431.624	1117.94
431.846	1113.94
432.068	1097.94
432.29	1139.94
432.512	1121.94
432.734	1117.94
432.956	1110.94
433.178	1125.94
433.4	1101.94
433.622	1133.94
433.844	1133.94
434.066	1142.94
434.287	1129.94
434.509	1202.94
434.731	1254.94
434.953	1253.94
435.175	1276.94
435.397	1232.94
435.618	1201.94
435.84	1145.94
436.062	1130.94
436.284	1128.94
436.505	1088.94
436.727	1112.94
436.949	1115.94
437.17	1138.94
437.392	1092.94
437.614	1058.94
437.835	1084.94
438.057	1085.94
438.278	1061.94
438.5	1057.94
438.721	1068.94
438.943	1072.94
439.165	1067.94
439.386	1073.94
439.608	1109.94
439.829	1124.94
440.05	1129.94
440.272	1117.94
440.493	1108.94
440.715	1168.94
440.936	1149.94
441.158	1153.94
441.379	1190.94
441.6	1284.94
441.822	1295.94
442.043	1255.94
442.264	1252.94
442.486	1233.94
442.707	1223.94
442.928	1212.94
443.149	1251.94
443.371	1205.94
443.592	1207.94
443.813	1268.94
444.034	1283.94
444.255	1311.94
444.476	1408.94
444.698	1461.94
444.919	1548.94
445.14	1604.94
445.361	1432.94
445.582	1306.94
445.803	1216.94
446.024	1185.94
446.245	1159.94
446.466	1139.94
446.687	1127.94
446.908	1120.94
447.129	1120.94
447.35	1090.94
447.571	1082.94
447.792	1067.94
448.013	1067.94
448.234	1032.94
448.455	1017.94
448.675	1008.94
448.896	1020.94
449.117	978.94
449.338	1018.94
449.559	986.94
449.779	1001.94
450	985.94
450.221	1010.94
450.442	1023.94
450.662	1033.94
450.883	1034.94
451.104	1037.94
451.324	995.94
451.545	1059.94
451.766	1046.94
451.986	1031.94
452.207	1036.94
452.428	1039.94
452.648	1027.94
452.869	987.94
453.089	999.94
453.31	1001.94
453.53	996.94
453.751	981.94
453.971	983.94
454.192	1001.94
454.412	961.94
454.633	961.94
454.853	960.94
455.073	971.94
455.294	969.94
455.514	948.94
455.734	920.94
455.955	924.94
456.175	954.94
456.395	933.94
456.616	917.94
456.836	968.94
457.056	947.94
457.276	933.94
457.497	970.94
457.717	937.94
457.937	943.94
458.157	951.94
458.377	983.94
458.598	1003.94
458.818	1004.94
459.038	1056.94
459.258	1103.94
459.478	1103.94
459.698	1131.94
459.918	1188.94
460.138	1279.94
460.358	1324.94
460.578	1339.94
460.798	1359.94
461.018	1381.94
461.238	1342.94
461.458	1333.94
461.678	1288.94
461.898	1316.94
462.118	1357.94
462.338	1443.94
462.558	1427.94
462.777	1509.94
462.997	1669.94
463.217	1828.94
463.437	1819.94
463.657	1645.94
463.876	1609.94
464.096	1613.94
464.316	1535.94
464.536	1579.94
464.755	1528.94
464.975	1457.94
465.195	1399.94
465.414	1292.94
465.634	1217.94
465.854	1164.94
466.073	1134.94
466.293	1140.94
466.512	1081.94
466.732	1079.94
466.951	1090.94
467.171	1083.94
467.391	1108.94
467.61	1048.94
467.829	1033.94
468.049	1058.94
468.268	1030.94
468.488	1031.94
468.707	991.94
468.927	1012.94
469.146	997.94
469.365	1037.94
469.585	1037.94
469.804	1056.94
470.023	1106.94
470.243	1092.94
470.462	1114.94
470.681	1109.94
470.901	1099.94
471.12	1108.94
471.339	1101.94
471.558	1043.94
471.777	1030.94
471.997	1029.94
472.216	1010.94
472.435	1012.94
472.654	994.94
472.873	984.94
473.092	1015.94
473.311	1016.94
473.53	994.94
473.749	1007.94
473.968	985.94
474.187	979.94
474.406	974.94
474.625	1002.94
474.844	979.94
475.063	986.94
475.282	989.94
475.501	995.94
475.72	1009.94
475.939	1006.94
476.158	1021.94
476.377	1027.94
476.596	1031.94
476.814	1066.94
477.033	1030.94
477.252	1046.94
477.471	1074.94
477.69	1135.94
477.908	1170.94
478.127	1192.94
478.346	1192.94
478.564	1215.94
478.783	1266.94
479.002	1281.94
479.22	1257.94
479.439	1244.94
479.658	1247.94
479.876	1267.94
480.095	1292.94
480.313	1323.94
480.532	1371.94
480.751	1346.94
480.969	1317.94
481.188	1209.94
481.406	1200.94
481.624	1148.94
481.843	1139.94
482.061	1157.94
482.28	1140.94
482.498	1153.94
482.717	1124.94
482.935	1122.94
483.153	1140.94
483.372	1123.94
483.59	1132.94
483.808	1132.94
484.027	1143.94
484.245	1135.94
484.463	1111.94
484.681	1149.94
484.9	1185.94
485.118	1146.94
485.336	1188.94
485.554	1176.94
485.772	1234.94
485.99	1187.94
486.209	1183.94
486.427	1175.94
486.645	1191.94
486.863	1202.94
487.081	1183.94
487.299	1178.94
487.517	1184.94
487.735	1187.94
487.953	1206.94
488.171	1196.94
488.389	1192.94
488.607	1169.94
488.825	1163.94
489.043	1181.94
489.261	1166.94
489.479	1214.94
489.696	1196.94
489.914	1171.94
490.132	1188.94
490.35	1221.94
490.568	1199.94
490.786	1178.94
491.003	1197.94
491.221	1224.94
491.439	1196.94
491.657	1207.94
491.874	1203.94
492.092	1218.94
492.31	1199.94
492.527	1229.94
492.745	1245.94
492.963	1239.94
493.18	1216.94
493.398	1253.94
493.615	1239.94
493.833	1220.94
494.05	1256.94
494.268	1299.94
494.485	1266.94
494.703	1301.94
494.92	1276.94
495.138	1276.94
495.355	1260.94
495.573	1307.94
495.79	1286.94
496.008	1304.94
496.225	1292.94
496.442	1309.94
496.66	1337.94
496.877	1341.94
497.094	1345.94
497.312	1381.94
497.529	1407.94
497.746	1455.94
497.963	1484.94
498.181	1553.94
498.398	1604.94
498.615	1713.94
498.832	1867.94
499.049	2015.94
499.267	2193.94
499.484	2435.94
499.701	2707.94
499.918	2996.94
500.135	3461.94
500.352	4011.94
500.569	4153.94
500.786	4100.94
501.003	3804.94
501.22	3402.94
501.437	2940.94
501.654	2591.94
501.871	2341.94
502.088	2139.94
502.305	1977.94
502.522	1904.94
502.739	1806.94
502.956	1721.94
503.172	1624.94
503.389	1545.94
503.606	1513.94
503.823	1447.94
504.04	1496.94
504.256	1491.94
504.473	1542.94
504.69	1580.94
504.907	1531.94
505.123	1433.94
505.34	1341.94
505.557	1279.94
505.773	1256.94
505.99	1233.94
506.207	1209.94
506.423	1172.94
506.64	1168.94
506.856	1151.94
507.073	1159.94
507.289	1140.94
507.506	1138.94
507.722	1086.94
507.939	1067.94
508.155	1109.94
508.372	1091.94
508.588	1080.94
508.805	1093.94
509.021	1055.94
509.238	1089.94
509.454	1041.94
509.67	1024.94
509.887	1043.94
510.103	1021.94
510.319	1011.94
510.536	1036.94
510.752	1013.94
510.968	1039.94
511.184	1021.94
511.401	1018.94
511.617	1037.94
511.833	1025.94
512.049	1013.94
512.265	1013.94
512.481	1022.94
512.698	1027.94
512.914	1021.94
513.13	1029.94
513.346	1008.94
513.562	988.94
513.778	1060.94
513.994	1046.94
514.21	1031.94
514.426	1052.94
514.642	1037.94
514.858	1043.94
515.074	1036.94
515.29	1032.94
515.506	1027.94
515.721	1087.94
515.937	1145.94
516.153	1139.94
516.369	1147.94
516.585	1192.94
516.801	1211.94
517.016	1305.94
517.232	1343.94
517.448	1432.94
517.664	1457.94
517.879	1461.94
518.095	1483.94
518.311	1437.94
518.527	1374.94
518.742	1327.94
518.958	1279.94
519.173	1213.94
519.389	1162.94
519.605	1160.94
519.82	1105.94
520.036	1096.94
520.251	1062.94
520.467	1050.94
520.682	1002.94
520.898	1025.94
521.113	1014.94
521.329	1018.94
521.544	968.94
521.76	992.94
521.975	984.94
522.19	950.94
522.406	985.94
522.621	973.94
522.836	946.94
523.052	964.94
523.267	951.94
523.482	931.94
523.698	945.94
523.913	938.94
524.128	963.94
524.343	941.94
524.559	945.94
524.774	957.94
524.989	928.94
525.204	950.94
525.419	923.94
525.634	942.94
525.849	925.94
526.064	928.94
526.28	933.94
526.495	931.94
526.71	936.94
526.925	935.94
527.14	913.94
527.355	915.94
527.57	892.94
527.785	903.94
527.999	927.94
528.214	897.94
528.429	901.94
528.644	912.94
528.859	907.94
529.074	917.94
529.289	920.94
529.503	905.94
529.718	918.94
529.933	903.94
530.148	896.94
530.363	949.94
530.577	867.94
530.792	904.94
531.007	916.94
531.221	931.94
531.436	898.94
531.651	925.94
531.865	934.94
532.08	911.94
532.295	913.94
532.509	884.94
532.724	923.94
532.938	916.94
533.153	891.94
533.367	916.94
533.582	907.94
533.796	901.94
534.011	929.94
534.225	934.94
534.44	880.94
534.654	878.94
534.868	879.94
535.083	892.94
535.297	881.94
535.511	911.94
535.726	898.94
535.94	885.94
536.154	863.94
536.369	850.94
536.583	874.94
536.797	809.94
537.011	845.94
537.225	848.94
537.44	853.94
537.654	840.94
537.868	831.94
538.082	819.94
538.296	831.94
538.51	808.94
538.724	833.94
538.938	815.94
539.153	822.94
539.367	828.94
539.581	853.94
539.795	805.94
540.009	851.94
540.222	812.94
540.436	814.94
540.65	823.94
540.864	832.94
541.078	804.94
541.292	833.94
541.506	822.94
541.72	819.94
541.934	819.94
542.147	831.94
542.361	792.94
542.575	799.94
542.789	806.94
543.002	797.94
543.216	806.94
543.43	811.94
543.644	808.94
543.857	811.94
544.071	796.94
544.285	818.94
544.498	823.94
544.712	834.94
544.925	824.94
545.139	840.94
545.352	844.94
545.566	851.94
545.779	855.94
545.993	845.94
546.206	823.94
546.42	844.94
546.633	840.94
546.847	838.94
547.06	832.94
547.274	813.94
547.487	820.94
547.7	851.94
547.914	841.94
548.127	842.94
548.34	843.94
548.554	861.94
548.767	861.94
548.98	846.94
549.193	851.94
549.407	867.94
549.62	842.94
549.833	897.94
550.046	840.94
550.259	860.94
550.473	837.94
550.686	841.94
550.899	804.94
551.112	838.94
551.325	793.94
551.538	807.94
551.751	818.94
551.964	821.94
552.177	861.94
552.39	838.94
552.603	871.94
552.816	877.94
553.029	907.94
553.242	945.94
553.455	929.94
553.667	956.94
553.88	931.94
554.093	858.94
554.306	879.94
554.519	843.94
554.732	838.94
554.944	833.94
555.157	801.94
555.37	811.94
555.583	782.94
555.795	754.94
556.008	746.94
556.221	740.94
556.433	714.94
556.646	753.94
556.859	725.94
557.071	737.94
557.284	722.94
557.496	701.94
557.709	728.94
557.921	712.94
558.134	716.94
558.346	713.94
558.559	698.94
558.771	713.94
558.984	708.94
559.196	698.94
559.409	691.94
559.621	689.94
559.833	689.94
560.046	680.94
560.258	674.94
560.47	690.94
560.683	722.94
560.895	690.94
561.107	672.94
561.32	660.94
561.532	676.94
561.744	667.94
561.956	676.94
562.168	675.94
562.381	696.94
562.593	676.94
562.805	684.94
563.017	691.94
563.229	671.94
563.441	664.94
563.653	671.94
563.865	731.94
564.077	711.94
564.289	694.94
564.501	715.94
564.713	754.94
564.925	745.94
565.137	767.94
565.349	797.94
565.561	808.94
565.773	827.94
565.985	875.94
566.197	898.94
566.408	983.94
566.62	1059.94
566.832	1113.94
567.044	1169.94
567.255	1157.94
567.467	1228.94
567.679	1281.94
567.891	1372.94
568.102	1414.94
568.314	1329.94
568.526	1203.94
568.737	1087.94
568.949	993.94
569.161	901.94
569.372	865.94
569.584	796.94
569.795	797.94
570.007	714.94
570.218	693.94
570.43	709.94
570.641	716.94
570.853	683.94
571.064	708.94
571.276	736.94
571.487	696.94
571.698	672.94
571.91	641.94
572.121	638.94
572.333	629.94
572.544	608.94
572.755	600.94
572.966	575.94
573.178	598.94
573.389	566.94
573.6	564.94
573.811	556.94
574.023	561.94
574.234	571.94
574.445	561.94
574.656	563.94
574.867	562.94
575.078	555.94
575.289	545.94
575.501	539.94
575.712	529.94
575.923	513.94
576.134	513.94
576.345	526.94
576.556	531.94
576.767	535.94
576.978	540.94
577.188	545.94
577.399	537.94
577.61	511.94
577.821	497.94
578.032	516.94
578.243	517.94
578.454	525.94
578.665	497.94
578.875	493.94
579.086	510.94
579.297	487.94
579.508	479.94
579.718	496.94
579.929	491.94
580.14	467.94
580.35	480.94
580.561	490.94
580.772	487.94
580.982	466.94
581.193	475.94
581.403	477.94
581.614	490.94
581.825	459.94
582.035	472.94
582.246	482.94
582.456	469.94
582.667	480.94
582.877	475.94
583.087	475.94
583.298	460.94
583.508	468.94
583.719	452.94
583.929	480.94
584.139	484.94
584.35	456.94
584.56	461.94
584.77	464.94
584.981	458.94
585.191	471.94
585.401	428.94
585.611	459.94
585.821	454.94
586.032	441.94
586.242	452.94
586.452	447.94
586.662	467.94
586.872	439.94
587.082	468.94
587.292	449.94
587.502	447.94
587.713	448.94
587.923	457.94
588.133	450.94
588.343	447.94
588.553	447.94
588.762	454.94
588.972	445.94
589.182	457.94
589.392	472.94
589.602	468.94
589.812	446.94
590.022	463.94
590.232	447.94
590.441	460.94
590.651	455.94
590.861	447.94
591.071	470.94
591.281	479.94
591.49	462.94
591.7	494.94
591.91	488.94
592.119	476.94
592.329	478.94
592.539	517.94
592.748	504.94
592.958	529.94
593.167	559.94
593.377	566.94
593.587	563.94
593.796	578.94
594.006	581.94
594.215	600.94
594.424	604.94
594.634	587.94
594.843	561.94
595.053	537.94
595.262	512.94
595.472	487.94
595.681	476.94
595.89	467.94
596.1	466.94
596.309	448.94
596.518	447.94
596.727	450.94
596.937	436.94
597.146	409.94
597.355	400.94
597.564	398.94
597.774	393.94
597.983	421.94
598.192	387.94
598.401	399.94
598.61	383.94
598.819	375.94
599.028	377.94
599.237	381.94
599.446	374.94
599.655	391.94
599.864	389.94
600.073	377.94
600.282	387.94
600.491	383.94
600.7	373.94
600.909	378.94
601.118	381.94
601.327	358.94
601.536	354.94
601.745	354.94
601.953	376.94
602.162	375.94
602.371	370.94
602.58	352.94
602.789	360.94
602.997	367.94
603.206	363.94
603.415	355.94
603.623	349.94
603.832	351.94
604.041	367.94
604.249	338.94
604.458	356.94
604.666	343.94
604.875	346.94
605.084	357.94
605.292	336.94
605.501	361.94
605.709	340.94
605.918	333.94
606.126	348.94
606.334	341.94
606.543	344.94
606.751	337.94
606.96	345.94
607.168	329.94
607.376	330.94
607.585	348.94
607.793	334.94
608.001	331.94
608.21	335.94
608.418	336.94
608.626	341.94
608.834	315.94
609.043	326.94
609.251	333.94
609.459	331.94
609.667	337.94
609.875	327.94
610.083	336.94
610.291	341.94
610.499	331.94
610.707	310.94
610.916	339.94
611.124	336.94
611.332	335.94
611.54	325.94
611.748	315.94
611.955	325.94
612.163	321.94
612.371	303.94
612.579	332.94
612.787	316.94
612.995	303.94
613.203	321.94
613.411	324.94
613.618	312.94
613.826	311.94
614.034	321.94
614.242	311.94
614.449	312.94
614.657	325.94
614.865	303.94
615.072	311.94
615.28	300.94
615.488	319.94
615.695	311.94
615.903	318.94
616.111	303.94
616.318	305.94
616.526	313.94
616.733	326.94
616.941	324.94
617.148	311.94
617.356	305.94
617.563	305.94
617.771	336.94
617.978	331.94
618.185	324.94
618.393	323.94
618.6	328.94
618.807	298.94
619.015	307.94
619.222	312.94
619.429	303.94
619.637	303.94
619.844	306.94
620.051	320.94
620.258	310.94
620.466	303.94
620.673	303.94
620.88	283.94
621.087	275.94
621.294	302.94
621.501	290.94
621.708	291.94
621.915	296.94
622.122	287.94
622.329	270.94
622.536	292.94
622.743	287.94
622.95	293.94
623.157	279.94
623.364	276.94
623.571	271.94
623.778	283.94
623.985	295.94
624.192	269.94
624.399	286.94
624.606	270.94
624.812	281.94
625.019	277.94
625.226	275.94
625.433	277.94
625.639	278.94
625.846	303.94
626.053	265.94
626.259	275.94
626.466	255.94
626.673	279.94
626.879	269.94
627.086	261.94
627.293	273.94
627.499	264.94
627.706	279.94
627.912	286.94
628.119	256.94
628.325	267.94
628.532	267.94
628.738	265.94
628.945	267.94
629.151	263.94
629.357	257.94
629.564	259.94
629.77	248.94
629.976	261.94
630.183	243.94
630.389	239.94
630.595	249.94
630.802	251.94
631.008	257.94
631.214	244.94
631.42	229.94
631.627	229.94
631.833	251.94
632.039	251.94
632.245	232.94
632.451	243.94
632.657	232.94
632.863	234.94
633.069	236.94
633.275	237.94
633.481	224.94
633.688	252.94
633.893	232.94
634.099	224.94
634.305	220.94
634.511	243.94
634.717	239.94
634.923	220.94
635.129	215.94
635.335	232.94
635.541	217.94
635.747	235.94
635.952	237.94
636.158	242.94
636.364	235.94
636.57	227.94
636.775	238.94
636.981	234.94
637.187	219.94
637.392	215.94
637.598	230.94
637.804	232.94
638.009	213.94
638.215	211.94
638.421	240.94
638.626	206.94
638.832	219.94
639.037	214.94
639.243	221.94
639.448	199.94
639.654	215.94
639.859	219.94
640.065	209.94
640.27	204.94
640.475	207.94
640.681	225.94
640.886	209.94
641.091	226.94
641.297	218.94
641.502	220.94
641.707	214.94
641.913	203.94
642.118	208.94
642.323	199.94
642.528	211.94
642.733	223.94
642.939	199.94
643.144	203.94
643.349	224.94
643.554	197.94
643.759	209.94
643.964	207.94
644.169	217.94
644.374	205.94
644.579	226.94
644.784	201.94
644.989	194.94
645.194	200.94
645.399	192.94
645.604	195.94
645.809	193.94
646.014	209.94
646.219	205.94
646.423	193.94
646.628	212.94
646.833	192.94
647.038	189.94
647.243	219.94
647.447	212.94
647.652	210.94
647.857	212.94
648.062	230.94
648.266	205.94
648.471	203.94
648.676	205.94
648.88	214.94
649.085	202.94
649.289	206.94
649.494	199.94
649.698	194.94
649.903	196.94
650.107	180.94
650.312	185.94
650.516	185.94
650.721	199.94
650.925	198.94
651.13	187.94
651.334	192.94
651.539	191.94
651.743	171.94
651.947	192.94
652.152	192.94
652.356	176.94
652.56	176.94
652.764	159.94
652.969	161.94
653.173	170.94
653.377	168.94
653.581	155.94
653.785	153.94
653.99	156.94
654.194	170.94
654.398	154.94
654.602	147.94
654.806	163.94
655.01	153.94
655.214	165.94
655.418	154.94
655.622	137.94
655.826	149.94
656.03	151.94
656.234	157.94
656.438	145.94
656.642	136.94
656.846	124.94
657.049	125.94
657.253	125.94
657.457	116.94
657.661	113.94
657.865	123.94
658.068	115.94
658.272	123.94
658.476	112.94
658.68	108.94
658.883	125.94
659.087	122.94
659.291	97.94
659.494	102.94
659.698	108.94
659.901	111.94
660.105	100.94
660.309	100.94
660.512	99.94
660.716	98.94
660.919	99.94
661.123	91.94
661.326	93.94
661.53	78.94
661.733	97.94
661.936	84.94
662.14	86.94
662.343	82.94
662.546	71.94
662.75	78.94
662.953	94.94
663.156	91.94
663.36	85.94
663.563	82.94
663.766	90.94
663.969	99.94
664.173	65.94
664.376	87.94
664.579	91.94
664.782	84.94
664.985	91.94
665.188	85.94
665.391	73.94
665.594	84.94
665.797	84.94
666	86.94
666.203	85.94
666.406	76.94
666.609	83.94
666.812	87.94
667.015	87.94
667.218	81.94
667.421	73.94
667.624	78.94
667.827	88.94
668.03	79.94
668.232	88.94
668.435	73.94
668.638	72.94
668.841	87.94
669.043	88.94
669.246	75.94
669.449	88.94
669.651	84.94
669.854	94.94
670.057	78.94
670.259	91.94
670.462	89.94
670.665	74.94
670.867	75.94
671.07	88.94
671.272	95.94
671.475	80.94
671.677	96.94
671.88	87.94
672.082	63.94
672.284	80.94
672.487	80.94
672.689	88.94
672.892	80.94
