Data from NiCl2@0.5M.TitratingCurve.Agarose3%dH2O.NegLispCup.LampEnergy10.LIBS07252019_HRD10591_18-21-45-573.txt Node
Date: Thu Jul 25 18:21:45 EDT 2019
User: cochatt
Spectrometer: HR+D1059
Trigger mode: 1
Integration Time (sec): 1.000000E-1
Scans to average: 1
Electric dark correction enabled: true
Nonlinearity correction enabled: false
Boxcar width: 0
XAxis mode: Wavelengths
Number of Pixels in Spectrum: 2048
>>>>>Begin Spectral Data<<<<<
223.165	-19.75
223.4	-19.75
223.635	-19.75
223.869	-5.75
224.104	-16.75
224.338	-15.75
224.573	-16.75
224.808	-28.75
225.042	-4.75
225.277	7.25
225.511	-12.75
225.746	3.25
225.98	13.25
226.215	25.25
226.449	7.25
226.683	19.25
226.918	20.25
227.152	25.25
227.387	21.25
227.621	53.25
227.856	55.25
228.09	41.25
228.324	47.25
228.559	46.25
228.793	59.25
229.027	98.25
229.262	106.25
229.496	111.25
229.73	106.25
229.964	118.25
230.199	95.25
230.433	106.25
230.667	115.25
230.901	114.25
231.136	116.25
231.37	114.25
231.604	119.25
231.838	114.25
232.072	117.25
232.306	139.25
232.541	124.25
232.775	126.25
233.009	122.25
233.243	118.25
233.477	132.25
233.711	113.25
233.945	128.25
234.179	122.25
234.413	128.25
234.647	131.25
234.881	118.25
235.115	131.25
235.349	129.25
235.583	124.25
235.817	141.25
236.051	128.25
236.285	123.25
236.519	128.25
236.753	136.25
236.987	141.25
237.221	126.25
237.455	123.25
237.689	133.25
237.922	130.25
238.156	132.25
238.39	130.25
238.624	141.25
238.858	138.25
239.091	149.25
239.325	135.25
239.559	142.25
239.793	131.25
240.027	149.25
240.26	160.25
240.494	140.25
240.728	147.25
240.961	154.25
241.195	135.25
241.429	171.25
241.662	162.25
241.896	163.25
242.13	158.25
242.363	159.25
242.597	145.25
242.83	174.25
243.064	154.25
243.298	178.25
243.531	160.25
243.765	178.25
243.998	162.25
244.232	171.25
244.465	176.25
244.699	178.25
244.932	177.25
245.166	169.25
245.399	181.25
245.633	185.25
245.866	189.25
246.099	162.25
246.333	175.25
246.566	188.25
246.8	187.25
247.033	183.25
247.266	171.25
247.5	185.25
247.733	181.25
247.966	198.25
248.2	186.25
248.433	181.25
248.666	183.25
248.899	203.25
249.133	187.25
249.366	199.25
249.599	204.25
249.832	191.25
250.066	202.25
250.299	195.25
250.532	200.25
250.765	195.25
250.998	216.25
251.231	206.25
251.465	199.25
251.698	213.25
251.931	213.25
252.164	201.25
252.397	188.25
252.63	220.25
252.863	214.25
253.096	222.25
253.329	217.25
253.562	208.25
253.795	204.25
254.028	210.25
254.261	206.25
254.494	219.25
254.727	210.25
254.96	217.25
255.193	217.25
255.426	221.25
255.659	215.25
255.892	217.25
256.124	200.25
256.357	213.25
256.59	225.25
256.823	236.25
257.056	236.25
257.289	239.25
257.521	238.25
257.754	234.25
257.987	236.25
258.22	230.25
258.452	228.25
258.685	232.25
258.918	240.25
259.151	239.25
259.383	253.25
259.616	236.25
259.849	242.25
260.081	233.25
260.314	263.25
260.547	239.25
260.779	244.25
261.012	243.25
261.244	256.25
261.477	257.25
261.71	254.25
261.942	254.25
262.175	248.25
262.407	257.25
262.64	249.25
262.872	262.25
263.105	254.25
263.337	256.25
263.57	251.25
263.802	275.25
264.035	260.25
264.267	271.25
264.499	256.25
264.732	261.25
264.964	272.25
265.197	269.25
265.429	264.25
265.661	274.25
265.894	268.25
266.126	276.25
266.358	284.25
266.591	288.25
266.823	275.25
267.055	283.25
267.287	287.25
267.52	263.25
267.752	286.25
267.984	263.25
268.216	286.25
268.448	299.25
268.681	297.25
268.913	307.25
269.145	286.25
269.377	288.25
269.609	274.25
269.841	284.25
270.073	280.25
270.306	300.25
270.538	283.25
270.77	291.25
271.002	300.25
271.234	300.25
271.466	275.25
271.698	278.25
271.93	313.25
272.162	297.25
272.394	305.25
272.626	283.25
272.858	299.25
273.09	312.25
273.322	302.25
273.553	305.25
273.785	311.25
274.017	320.25
274.249	316.25
274.481	303.25
274.713	336.25
274.945	309.25
275.176	322.25
275.408	327.25
275.64	306.25
275.872	328.25
276.104	326.25
276.335	309.25
276.567	326.25
276.799	321.25
277.031	330.25
277.262	340.25
277.494	325.25
277.726	328.25
277.957	324.25
278.189	324.25
278.421	327.25
278.652	322.25
278.884	331.25
279.115	316.25
279.347	342.25
279.579	331.25
279.81	325.25
280.042	352.25
280.273	338.25
280.505	351.25
280.736	344.25
280.968	341.25
281.199	346.25
281.431	346.25
281.662	348.25
281.894	348.25
282.125	369.25
282.356	361.25
282.588	344.25
282.819	364.25
283.051	373.25
283.282	350.25
283.513	362.25
283.745	359.25
283.976	363.25
284.207	369.25
284.439	370.25
284.67	381.25
284.901	367.25
285.132	356.25
285.364	361.25
285.595	380.25
285.826	370.25
286.057	380.25
286.288	366.25
286.52	370.25
286.751	359.25
286.982	390.25
287.213	394.25
287.444	377.25
287.675	382.25
287.906	386.25
288.138	412.25
288.369	398.25
288.6	406.25
288.831	387.25
289.062	390.25
289.293	392.25
289.524	396.25
289.755	391.25
289.986	387.25
290.217	406.25
290.448	383.25
290.679	404.25
290.91	395.25
291.141	404.25
291.371	403.25
291.602	402.25
291.833	387.25
292.064	406.25
292.295	418.25
292.526	398.25
292.757	424.25
292.987	402.25
293.218	388.25
293.449	389.25
293.68	413.25
293.91	408.25
294.141	418.25
294.372	407.25
294.603	412.25
294.833	408.25
295.064	421.25
295.295	409.25
295.525	402.25
295.756	425.25
295.987	409.25
296.217	391.25
296.448	429.25
296.679	436.25
296.909	425.25
297.14	433.25
297.37	415.25
297.601	439.25
297.831	428.25
298.062	420.25
298.292	442.25
298.523	455.25
298.753	451.25
298.984	450.25
299.214	432.25
299.445	425.25
299.675	438.25
299.905	427.25
300.136	450.25
300.366	459.25
300.597	456.25
300.827	465.25
301.057	453.25
301.288	459.25
301.518	457.25
301.748	489.25
301.979	470.25
302.209	467.25
302.439	471.25
302.669	484.25
302.9	466.25
303.13	462.25
303.36	439.25
303.59	434.25
303.82	446.25
304.051	466.25
304.281	474.25
304.511	465.25
304.741	457.25
304.971	484.25
305.201	479.25
305.431	466.25
305.661	456.25
305.891	457.25
306.121	449.25
306.352	464.25
306.582	462.25
306.812	439.25
307.042	467.25
307.272	451.25
307.502	451.25
307.731	457.25
307.961	456.25
308.191	442.25
308.421	448.25
308.651	455.25
308.881	469.25
309.111	442.25
309.341	451.25
309.571	448.25
309.8	452.25
310.03	452.25
310.26	461.25
310.49	461.25
310.72	467.25
310.949	470.25
311.179	446.25
311.409	442.25
311.639	437.25
311.868	466.25
312.098	458.25
312.328	471.25
312.557	474.25
312.787	506.25
313.017	481.25
313.246	491.25
313.476	476.25
313.706	502.25
313.935	496.25
314.165	489.25
314.394	502.25
314.624	510.25
314.853	482.25
315.083	502.25
315.312	488.25
315.542	500.25
315.771	510.25
316.001	481.25
316.23	491.25
316.46	482.25
316.689	491.25
316.919	467.25
317.148	470.25
317.377	484.25
317.607	487.25
317.836	468.25
318.065	479.25
318.295	450.25
318.524	474.25
318.753	480.25
318.983	478.25
319.212	465.25
319.441	494.25
319.67	494.25
319.9	491.25
320.129	459.25
320.358	476.25
320.587	483.25
320.816	479.25
321.046	484.25
321.275	471.25
321.504	479.25
321.733	488.25
321.962	481.25
322.191	518.25
322.42	502.25
322.649	507.25
322.878	494.25
323.108	498.25
323.337	495.25
323.566	499.25
323.795	489.25
324.024	494.25
324.253	490.25
324.482	508.25
324.71	488.25
324.939	506.25
325.168	501.25
325.397	513.25
325.626	501.25
325.855	517.25
326.084	528.25
326.313	547.25
326.542	540.25
326.77	516.25
326.999	505.25
327.228	522.25
327.457	518.25
327.686	524.25
327.914	518.25
328.143	512.25
328.372	488.25
328.6	551.25
328.829	532.25
329.058	520.25
329.287	514.25
329.515	534.25
329.744	564.25
329.972	541.25
330.201	532.25
330.43	537.25
330.658	520.25
330.887	542.25
331.115	547.25
331.344	543.25
331.572	548.25
331.801	576.25
332.03	554.25
332.258	615.25
332.486	607.25
332.715	634.25
332.943	656.25
333.172	662.25
333.4	676.25
333.629	694.25
333.857	700.25
334.085	697.25
334.314	670.25
334.542	686.25
334.771	687.25
334.999	670.25
335.227	682.25
335.455	677.25
335.684	658.25
335.912	647.25
336.14	645.25
336.369	641.25
336.597	643.25
336.825	637.25
337.053	635.25
337.281	623.25
337.51	606.25
337.738	588.25
337.966	599.25
338.194	587.25
338.422	587.25
338.65	566.25
338.878	562.25
339.106	603.25
339.334	572.25
339.562	579.25
339.79	559.25
340.018	540.25
340.246	561.25
340.474	547.25
340.702	539.25
340.93	569.25
341.158	545.25
341.386	562.25
341.614	568.25
341.842	549.25
342.07	556.25
342.298	548.25
342.526	566.25
342.754	546.25
342.981	568.25
343.209	567.25
343.437	599.25
343.665	599.25
343.893	666.25
344.12	660.25
344.348	645.25
344.576	614.25
344.804	615.25
345.031	570.25
345.259	555.25
345.487	561.25
345.714	556.25
345.942	564.25
346.17	576.25
346.397	564.25
346.625	540.25
346.853	538.25
347.08	533.25
347.308	560.25
347.535	529.25
347.763	548.25
347.99	541.25
348.218	552.25
348.445	521.25
348.673	536.25
348.9	532.25
349.128	555.25
349.355	537.25
349.583	531.25
349.81	535.25
350.037	529.25
350.265	528.25
350.492	513.25
350.72	508.25
350.947	504.25
351.174	536.25
351.402	518.25
351.629	538.25
351.856	515.25
352.083	507.25
352.311	498.25
352.538	512.25
352.765	514.25
352.992	515.25
353.22	516.25
353.447	513.25
353.674	515.25
353.901	518.25
354.128	509.25
354.355	478.25
354.583	518.25
354.81	506.25
355.037	514.25
355.264	527.25
355.491	514.25
355.718	514.25
355.945	527.25
356.172	526.25
356.399	510.25
356.626	529.25
356.853	519.25
357.08	513.25
357.307	534.25
357.534	521.25
357.761	508.25
357.988	516.25
358.215	513.25
358.441	504.25
358.668	514.25
358.895	527.25
359.122	516.25
359.349	491.25
359.576	518.25
359.802	518.25
360.029	525.25
360.256	481.25
360.483	517.25
360.709	496.25
360.936	485.25
361.163	507.25
361.39	531.25
361.616	507.25
361.843	516.25
362.07	498.25
362.296	532.25
362.523	499.25
362.749	497.25
362.976	506.25
363.203	519.25
363.429	509.25
363.656	517.25
363.882	506.25
364.109	503.25
364.335	501.25
364.562	508.25
364.788	510.25
365.015	495.25
365.241	500.25
365.468	519.25
365.694	514.25
365.92	513.25
366.147	494.25
366.373	523.25
366.599	495.25
366.826	495.25
367.052	511.25
367.278	518.25
367.505	512.25
367.731	489.25
367.957	517.25
368.184	518.25
368.41	498.25
368.636	517.25
368.862	524.25
369.089	504.25
369.315	518.25
369.541	531.25
369.767	545.25
369.993	541.25
370.219	532.25
370.445	518.25
370.672	529.25
370.898	558.25
371.124	539.25
371.35	553.25
371.576	534.25
371.802	528.25
372.028	554.25
372.254	556.25
372.48	555.25
372.706	541.25
372.932	578.25
373.158	562.25
373.384	579.25
373.61	546.25
373.835	544.25
374.061	566.25
374.287	563.25
374.513	551.25
374.739	558.25
374.965	579.25
375.191	600.25
375.416	606.25
375.642	589.25
375.868	568.25
376.094	574.25
376.319	572.25
376.545	532.25
376.771	553.25
376.997	544.25
377.222	525.25
377.448	558.25
377.674	562.25
377.899	551.25
378.125	546.25
378.35	556.25
378.576	547.25
378.802	515.25
379.027	539.25
379.253	540.25
379.478	538.25
379.704	545.25
379.929	546.25
380.155	536.25
380.38	541.25
380.606	542.25
380.831	542.25
381.057	515.25
381.282	545.25
381.507	551.25
381.733	549.25
381.958	565.25
382.184	575.25
382.409	560.25
382.634	560.25
382.86	565.25
383.085	571.25
383.31	590.25
383.535	584.25
383.761	620.25
383.986	593.25
384.211	595.25
384.436	622.25
384.662	621.25
384.887	631.25
385.112	629.25
385.337	651.25
385.562	627.25
385.787	648.25
386.013	656.25
386.238	644.25
386.463	642.25
386.688	630.25
386.913	643.25
387.138	626.25
387.363	654.25
387.588	639.25
387.813	638.25
388.038	659.25
388.263	652.25
388.488	636.25
388.713	650.25
388.938	638.25
389.163	608.25
389.387	627.25
389.612	619.25
389.837	646.25
390.062	642.25
390.287	634.25
390.512	630.25
390.736	642.25
390.961	647.25
391.186	660.25
391.411	670.25
391.636	706.25
391.86	718.25
392.085	694.25
392.31	729.25
392.534	702.25
392.759	690.25
392.984	691.25
393.208	664.25
393.433	694.25
393.658	641.25
393.882	677.25
394.107	688.25
394.331	690.25
394.556	672.25
394.78	670.25
395.005	699.25
395.229	698.25
395.454	716.25
395.678	729.25
395.903	727.25
396.127	705.25
396.352	708.25
396.576	697.25
396.801	683.25
397.025	697.25
397.249	716.25
397.474	720.25
397.698	729.25
397.922	739.25
398.147	726.25
398.371	737.25
398.595	758.25
398.82	820.25
399.044	862.25
399.268	920.25
399.492	1060.25
399.717	1174.25
399.941	1154.25
400.165	1021.25
400.389	971.25
400.613	913.25
400.837	836.25
401.062	827.25
401.286	818.25
401.51	786.25
401.734	790.25
401.958	828.25
402.182	834.25
402.406	799.25
402.63	827.25
402.854	853.25
403.078	862.25
403.302	866.25
403.526	935.25
403.75	916.25
403.974	931.25
404.198	909.25
404.422	906.25
404.645	922.25
404.869	894.25
405.093	891.25
405.317	898.25
405.541	906.25
405.765	898.25
405.988	882.25
406.212	902.25
406.436	871.25
406.66	882.25
406.883	904.25
407.107	990.25
407.331	1026.25
407.555	1045.25
407.778	1077.25
408.002	1028.25
408.226	1035.25
408.449	996.25
408.673	921.25
408.896	934.25
409.12	915.25
409.344	915.25
409.567	932.25
409.791	939.25
410.014	930.25
410.238	898.25
410.461	902.25
410.685	895.25
410.908	890.25
411.132	842.25
411.355	845.25
411.578	852.25
411.802	854.25
412.025	843.25
412.249	888.25
412.472	865.25
412.695	854.25
412.919	820.25
413.142	804.25
413.365	790.25
413.589	796.25
413.812	793.25
414.035	804.25
414.258	786.25
414.482	829.25
414.705	862.25
414.928	824.25
415.151	821.25
415.374	827.25
415.597	838.25
415.821	810.25
416.044	784.25
416.267	784.25
416.49	784.25
416.713	790.25
416.936	791.25
417.159	809.25
417.382	807.25
417.605	820.25
417.828	787.25
418.051	812.25
418.274	820.25
418.497	826.25
418.72	876.25
418.943	834.25
419.166	859.25
419.389	914.25
419.611	903.25
419.834	876.25
420.057	846.25
420.28	834.25
420.503	820.25
420.726	807.25
420.948	799.25
421.171	794.25
421.394	778.25
421.617	801.25
421.839	805.25
422.062	827.25
422.285	822.25
422.507	832.25
422.73	812.25
422.953	823.25
423.175	856.25
423.398	833.25
423.621	854.25
423.843	848.25
424.066	827.25
424.288	841.25
424.511	844.25
424.733	841.25
424.956	825.25
425.178	809.25
425.401	805.25
425.623	825.25
425.846	798.25
426.068	796.25
426.291	785.25
426.513	769.25
426.735	762.25
426.958	766.25
427.18	765.25
427.402	730.25
427.625	755.25
427.847	760.25
428.069	737.25
428.292	732.25
428.514	725.25
428.736	715.25
428.958	744.25
429.181	726.25
429.403	694.25
429.625	710.25
429.847	724.25
430.069	700.25
430.292	692.25
430.514	723.25
430.736	715.25
430.958	719.25
431.18	725.25
431.402	727.25
431.624	731.25
431.846	720.25
432.068	758.25
432.29	762.25
432.512	719.25
432.734	737.25
432.956	742.25
433.178	720.25
433.4	747.25
433.622	764.25
433.844	761.25
434.066	736.25
434.287	748.25
434.509	781.25
434.731	814.25
434.953	826.25
435.175	847.25
435.397	802.25
435.618	795.25
435.84	760.25
436.062	766.25
436.284	737.25
436.505	745.25
436.727	741.25
436.949	765.25
437.17	737.25
437.392	754.25
437.614	737.25
437.835	705.25
438.057	716.25
438.278	701.25
438.5	720.25
438.721	726.25
438.943	727.25
439.165	730.25
439.386	745.25
439.608	728.25
439.829	747.25
440.05	726.25
440.272	747.25
440.493	747.25
440.715	754.25
440.936	780.25
441.158	811.25
441.379	806.25
441.6	838.25
441.822	833.25
442.043	835.25
442.264	800.25
442.486	778.25
442.707	816.25
442.928	821.25
443.149	790.25
443.371	806.25
443.592	852.25
443.813	828.25
444.034	839.25
444.255	840.25
444.476	906.25
444.698	948.25
444.919	957.25
445.14	1010.25
445.361	953.25
445.582	852.25
445.803	810.25
446.024	786.25
446.245	770.25
446.466	782.25
446.687	767.25
446.908	735.25
447.129	739.25
447.35	713.25
447.571	737.25
447.792	740.25
448.013	692.25
448.234	683.25
448.455	702.25
448.675	714.25
448.896	718.25
449.117	707.25
449.338	686.25
449.559	702.25
449.779	676.25
450	674.25
450.221	665.25
450.442	715.25
450.662	680.25
450.883	703.25
451.104	699.25
451.324	717.25
451.545	711.25
451.766	704.25
451.986	699.25
452.207	676.25
452.428	702.25
452.648	712.25
452.869	676.25
453.089	684.25
453.31	674.25
453.53	662.25
453.751	686.25
453.971	684.25
454.192	700.25
454.412	648.25
454.633	660.25
454.853	679.25
455.073	630.25
455.294	672.25
455.514	628.25
455.734	629.25
455.955	630.25
456.175	646.25
456.395	644.25
456.616	642.25
456.836	657.25
457.056	653.25
457.276	625.25
457.497	648.25
457.717	642.25
457.937	656.25
458.157	666.25
458.377	679.25
458.598	666.25
458.818	678.25
459.038	695.25
459.258	727.25
459.478	758.25
459.698	772.25
459.918	791.25
460.138	818.25
460.358	864.25
460.578	866.25
460.798	885.25
461.018	866.25
461.238	861.25
461.458	868.25
461.678	854.25
461.898	868.25
462.118	880.25
462.338	951.25
462.558	963.25
462.777	991.25
462.997	1076.25
463.217	1105.25
463.437	1151.25
463.657	1054.25
463.876	1042.25
464.096	1046.25
464.316	1022.25
464.536	1042.25
464.755	996.25
464.975	966.25
465.195	898.25
465.414	859.25
465.634	816.25
465.854	780.25
466.073	768.25
466.293	764.25
466.512	779.25
466.732	746.25
466.951	740.25
467.171	730.25
467.391	726.25
467.61	710.25
467.829	707.25
468.049	701.25
468.268	687.25
468.488	703.25
468.707	704.25
468.927	712.25
469.146	711.25
469.365	736.25
469.585	695.25
469.804	734.25
470.023	722.25
470.243	746.25
470.462	755.25
470.681	755.25
470.901	749.25
471.12	732.25
471.339	720.25
471.558	706.25
471.777	726.25
471.997	724.25
472.216	696.25
472.435	711.25
472.654	688.25
472.873	688.25
473.092	702.25
473.311	690.25
473.53	688.25
473.749	693.25
473.968	674.25
474.187	688.25
474.406	682.25
474.625	696.25
474.844	689.25
475.063	712.25
475.282	657.25
475.501	682.25
475.72	672.25
475.939	711.25
476.158	688.25
476.377	713.25
476.596	716.25
476.814	742.25
477.033	702.25
477.252	698.25
477.471	740.25
477.69	745.25
477.908	764.25
478.127	823.25
478.346	788.25
478.564	806.25
478.783	820.25
479.002	815.25
479.22	841.25
479.439	822.25
479.658	834.25
479.876	853.25
480.095	852.25
480.313	880.25
480.532	889.25
480.751	897.25
480.969	850.25
481.188	828.25
481.406	801.25
481.624	794.25
481.843	794.25
482.061	790.25
482.28	789.25
482.498	762.25
482.717	798.25
482.935	793.25
483.153	792.25
483.372	751.25
483.59	789.25
483.808	770.25
484.027	798.25
484.245	795.25
484.463	803.25
484.681	784.25
484.9	793.25
485.118	786.25
485.336	779.25
485.554	793.25
485.772	821.25
485.99	779.25
486.209	830.25
486.427	809.25
486.645	796.25
486.863	803.25
487.081	830.25
487.299	811.25
487.517	803.25
487.735	791.25
487.953	818.25
488.171	827.25
488.389	788.25
488.607	783.25
488.825	798.25
489.043	792.25
489.261	820.25
489.479	814.25
489.696	815.25
489.914	809.25
490.132	805.25
490.35	826.25
490.568	821.25
490.786	849.25
491.003	819.25
491.221	837.25
491.439	832.25
491.657	834.25
491.874	847.25
492.092	833.25
492.31	883.25
492.527	845.25
492.745	858.25
492.963	850.25
493.18	843.25
493.398	873.25
493.615	841.25
493.833	873.25
494.05	875.25
494.268	892.25
494.485	850.25
494.703	858.25
494.92	844.25
495.138	878.25
495.355	894.25
495.573	840.25
495.79	898.25
496.008	889.25
496.225	891.25
496.442	880.25
496.66	906.25
496.877	936.25
497.094	918.25
497.312	933.25
497.529	974.25
497.746	957.25
497.963	1025.25
498.181	1067.25
498.398	1086.25
498.615	1154.25
498.832	1249.25
499.049	1327.25
499.267	1416.25
499.484	1586.25
499.701	1743.25
499.918	1954.25
500.135	2143.25
500.352	2475.25
500.569	2487.25
500.786	2464.25
501.003	2294.25
501.22	2085.25
501.437	1872.25
501.654	1653.25
501.871	1515.25
502.088	1405.25
502.305	1271.25
502.522	1240.25
502.739	1185.25
502.956	1121.25
503.172	1081.25
503.389	1034.25
503.606	971.25
503.823	977.25
504.04	985.25
504.256	953.25
504.473	1030.25
504.69	998.25
504.907	1017.25
505.123	933.25
505.34	896.25
505.557	870.25
505.773	860.25
505.99	815.25
506.207	800.25
506.423	798.25
506.64	791.25
506.856	764.25
507.073	757.25
507.289	775.25
507.506	751.25
507.722	774.25
507.939	747.25
508.155	722.25
508.372	735.25
508.588	734.25
508.805	742.25
509.021	728.25
509.238	718.25
509.454	728.25
509.67	710.25
509.887	702.25
510.103	716.25
510.319	690.25
510.536	700.25
510.752	669.25
510.968	708.25
511.184	678.25
511.401	679.25
511.617	679.25
511.833	690.25
512.049	708.25
512.265	710.25
512.481	680.25
512.698	671.25
512.914	688.25
513.13	688.25
513.346	703.25
513.562	685.25
513.778	706.25
513.994	692.25
514.21	696.25
514.426	706.25
514.642	689.25
514.858	719.25
515.074	709.25
515.29	703.25
515.506	714.25
515.721	713.25
515.937	738.25
516.153	742.25
516.369	747.25
516.585	798.25
516.801	822.25
517.016	839.25
517.232	890.25
517.448	912.25
517.664	932.25
517.879	958.25
518.095	924.25
518.311	915.25
518.527	893.25
518.742	874.25
518.958	830.25
519.173	790.25
519.389	767.25
519.605	748.25
519.82	748.25
520.036	721.25
520.251	708.25
520.467	711.25
520.682	669.25
520.898	698.25
521.113	683.25
521.329	666.25
521.544	656.25
521.76	702.25
521.975	663.25
522.19	667.25
522.406	658.25
522.621	633.25
522.836	638.25
523.052	662.25
523.267	656.25
523.482	664.25
523.698	642.25
523.913	641.25
524.128	632.25
524.343	642.25
524.559	650.25
524.774	635.25
524.989	655.25
525.204	638.25
525.419	631.25
525.634	622.25
525.849	648.25
526.064	633.25
526.28	626.25
526.495	622.25
526.71	629.25
526.925	604.25
527.14	606.25
527.355	601.25
527.57	615.25
527.785	624.25
527.999	626.25
528.214	641.25
528.429	620.25
528.644	630.25
528.859	606.25
529.074	619.25
529.289	660.25
529.503	633.25
529.718	610.25
529.933	629.25
530.148	603.25
530.363	628.25
530.577	630.25
530.792	626.25
531.007	616.25
531.221	628.25
531.436	620.25
531.651	628.25
531.865	629.25
532.08	634.25
532.295	618.25
532.509	614.25
532.724	639.25
532.938	618.25
533.153	630.25
533.367	593.25
533.582	591.25
533.796	614.25
534.011	626.25
534.225	616.25
534.44	604.25
534.654	610.25
534.868	585.25
535.083	610.25
535.297	580.25
535.511	584.25
535.726	614.25
535.94	594.25
536.154	604.25
536.369	591.25
536.583	570.25
536.797	575.25
537.011	579.25
537.225	580.25
537.44	576.25
537.654	579.25
537.868	595.25
538.082	588.25
538.296	594.25
538.51	582.25
538.724	585.25
538.938	578.25
539.153	572.25
539.367	594.25
539.581	555.25
539.795	560.25
540.009	559.25
540.222	567.25
540.436	574.25
540.65	547.25
540.864	553.25
541.078	532.25
541.292	574.25
541.506	574.25
541.72	564.25
541.934	558.25
542.147	574.25
542.361	562.25
542.575	586.25
542.789	574.25
543.002	565.25
543.216	552.25
543.43	544.25
543.644	559.25
543.857	564.25
544.071	571.25
544.285	553.25
544.498	553.25
544.712	559.25
544.925	583.25
545.139	583.25
545.352	579.25
545.566	552.25
545.779	574.25
545.993	592.25
546.206	567.25
546.42	565.25
546.633	587.25
546.847	598.25
547.06	577.25
547.274	584.25
547.487	592.25
547.7	592.25
547.914	591.25
548.127	583.25
548.34	583.25
548.554	567.25
548.767	577.25
548.98	585.25
549.193	595.25
549.407	597.25
549.62	601.25
549.833	600.25
550.046	611.25
550.259	582.25
550.473	566.25
550.686	564.25
550.899	576.25
551.112	578.25
551.325	560.25
551.538	569.25
551.751	553.25
551.964	584.25
552.177	560.25
552.39	571.25
552.603	587.25
552.816	634.25
553.029	632.25
553.242	625.25
553.455	617.25
553.667	627.25
553.88	618.25
554.093	601.25
554.306	599.25
554.519	572.25
554.732	595.25
554.944	579.25
555.157	560.25
555.37	554.25
555.583	547.25
555.795	542.25
556.008	523.25
556.221	509.25
556.433	518.25
556.646	514.25
556.859	522.25
557.071	486.25
557.284	507.25
557.496	506.25
557.709	470.25
557.921	463.25
558.134	486.25
558.346	479.25
558.559	514.25
558.771	478.25
558.984	483.25
559.196	487.25
559.409	498.25
559.621	502.25
559.833	478.25
560.046	481.25
560.258	476.25
560.47	484.25
560.683	478.25
560.895	490.25
561.107	466.25
561.32	487.25
561.532	469.25
561.744	497.25
561.956	476.25
562.168	467.25
562.381	473.25
562.593	471.25
562.805	495.25
563.017	512.25
563.229	503.25
563.441	467.25
563.653	489.25
563.865	498.25
564.077	471.25
564.289	492.25
564.501	510.25
564.713	502.25
564.925	511.25
565.137	515.25
565.349	551.25
565.561	555.25
565.773	570.25
565.985	574.25
566.197	607.25
566.408	666.25
566.62	686.25
566.832	729.25
567.044	747.25
567.255	762.25
567.467	771.25
567.679	803.25
567.891	848.25
568.102	864.25
568.314	828.25
568.526	766.25
568.737	698.25
568.949	630.25
569.161	587.25
569.372	555.25
569.584	540.25
569.795	515.25
570.007	507.25
570.218	495.25
570.43	483.25
570.641	478.25
570.853	471.25
571.064	494.25
571.276	491.25
571.487	466.25
571.698	474.25
571.91	448.25
572.121	444.25
572.333	438.25
572.544	402.25
572.755	406.25
572.966	412.25
573.178	411.25
573.389	397.25
573.6	399.25
573.811	403.25
574.023	393.25
574.234	405.25
574.445	396.25
574.656	392.25
574.867	396.25
575.078	395.25
575.289	390.25
575.501	391.25
575.712	382.25
575.923	362.25
576.134	386.25
576.345	376.25
576.556	379.25
576.767	370.25
576.978	374.25
577.188	380.25
577.399	374.25
577.61	358.25
577.821	345.25
578.032	363.25
578.243	355.25
578.454	371.25
578.665	330.25
578.875	350.25
579.086	358.25
579.297	344.25
579.508	338.25
579.718	352.25
579.929	354.25
580.14	330.25
580.35	348.25
580.561	351.25
580.772	326.25
580.982	327.25
581.193	344.25
581.403	338.25
581.614	351.25
581.825	330.25
582.035	338.25
582.246	330.25
582.456	346.25
582.667	329.25
582.877	333.25
583.087	334.25
583.298	332.25
583.508	336.25
583.719	324.25
583.929	311.25
584.139	336.25
584.35	338.25
584.56	302.25
584.77	335.25
584.981	319.25
585.191	326.25
585.401	342.25
585.611	316.25
585.821	336.25
586.032	314.25
586.242	332.25
586.452	310.25
586.662	304.25
586.872	315.25
587.082	335.25
587.292	316.25
587.502	324.25
587.713	318.25
587.923	313.25
588.133	319.25
588.343	320.25
588.553	324.25
588.762	332.25
588.972	342.25
589.182	363.25
589.392	345.25
589.602	324.25
589.812	351.25
590.022	338.25
590.232	298.25
590.441	306.25
590.651	331.25
590.861	342.25
591.071	325.25
591.281	332.25
591.49	324.25
591.7	342.25
591.91	337.25
592.119	348.25
592.329	355.25
592.539	368.25
592.748	375.25
592.958	394.25
593.167	378.25
593.377	402.25
593.587	393.25
593.796	409.25
594.006	417.25
594.215	388.25
594.424	385.25
594.634	399.25
594.843	373.25
595.053	373.25
595.262	347.25
595.472	359.25
595.681	352.25
595.89	331.25
596.1	326.25
596.309	322.25
596.518	314.25
596.727	304.25
596.937	306.25
597.146	302.25
597.355	297.25
597.564	293.25
597.774	295.25
597.983	283.25
598.192	280.25
598.401	280.25
598.61	278.25
598.819	275.25
599.028	283.25
599.237	276.25
599.446	284.25
599.655	284.25
599.864	282.25
600.073	274.25
600.282	280.25
600.491	273.25
600.7	273.25
600.909	278.25
601.118	272.25
601.327	265.25
601.536	258.25
601.745	275.25
601.953	269.25
602.162	244.25
602.371	253.25
602.58	274.25
602.789	254.25
602.997	255.25
603.206	250.25
603.415	274.25
603.623	261.25
603.832	268.25
604.041	274.25
604.249	251.25
604.458	240.25
604.666	249.25
604.875	259.25
605.084	238.25
605.292	263.25
605.501	263.25
605.709	265.25
605.918	262.25
606.126	252.25
606.334	259.25
606.543	254.25
606.751	247.25
606.96	235.25
607.168	235.25
607.376	244.25
607.585	272.25
607.793	234.25
608.001	246.25
608.21	258.25
608.418	229.25
608.626	232.25
608.834	235.25
609.043	242.25
609.251	240.25
609.459	247.25
609.667	267.25
609.875	243.25
610.083	244.25
610.291	227.25
610.499	243.25
610.707	250.25
610.916	240.25
611.124	229.25
611.332	235.25
611.54	230.25
611.748	246.25
611.955	240.25
612.163	231.25
612.371	241.25
612.579	237.25
612.787	240.25
612.995	243.25
613.203	252.25
613.411	230.25
613.618	226.25
613.826	232.25
614.034	228.25
614.242	242.25
614.449	225.25
614.657	227.25
614.865	239.25
615.072	223.25
615.28	223.25
615.488	224.25
615.695	236.25
615.903	241.25
616.111	250.25
616.318	236.25
616.526	227.25
616.733	231.25
616.941	218.25
617.148	251.25
617.356	224.25
617.563	219.25
617.771	240.25
617.978	227.25
618.185	223.25
618.393	218.25
618.6	222.25
618.807	226.25
619.015	232.25
619.222	232.25
619.429	226.25
619.637	235.25
619.844	237.25
620.051	233.25
620.258	231.25
620.466	215.25
620.673	215.25
620.88	211.25
621.087	201.25
621.294	208.25
621.501	216.25
621.708	216.25
621.915	212.25
622.122	220.25
622.329	215.25
622.536	214.25
622.743	218.25
622.95	202.25
623.157	211.25
623.364	213.25
623.571	216.25
623.778	216.25
623.985	201.25
624.192	204.25
624.399	212.25
624.606	202.25
624.812	201.25
625.019	209.25
625.226	207.25
625.433	199.25
625.639	190.25
625.846	206.25
626.053	197.25
626.259	209.25
626.466	195.25
626.673	195.25
626.879	210.25
627.086	185.25
627.293	211.25
627.499	207.25
627.706	208.25
627.912	196.25
628.119	203.25
628.325	191.25
628.532	179.25
628.738	211.25
628.945	185.25
629.151	197.25
629.357	199.25
629.564	201.25
629.77	191.25
629.976	190.25
630.183	196.25
630.389	182.25
630.595	203.25
630.802	178.25
631.008	192.25
631.214	200.25
631.42	187.25
631.627	192.25
631.833	183.25
632.039	185.25
632.245	190.25
632.451	176.25
632.657	173.25
632.863	190.25
633.069	202.25
633.275	187.25
633.481	169.25
633.688	181.25
633.893	185.25
634.099	179.25
634.305	190.25
634.511	179.25
634.717	171.25
634.923	170.25
635.129	180.25
635.335	180.25
635.541	170.25
635.747	170.25
635.952	188.25
636.158	180.25
636.364	169.25
636.57	156.25
636.775	173.25
636.981	186.25
637.187	167.25
637.392	162.25
637.598	179.25
637.804	181.25
638.009	163.25
638.215	162.25
638.421	161.25
638.626	176.25
638.832	178.25
639.037	181.25
639.243	177.25
639.448	155.25
639.654	179.25
639.859	159.25
640.065	173.25
640.27	169.25
640.475	190.25
640.681	148.25
640.886	174.25
641.091	176.25
641.297	170.25
641.502	167.25
641.707	162.25
641.913	176.25
642.118	171.25
642.323	167.25
642.528	174.25
642.733	160.25
642.939	162.25
643.144	180.25
643.349	165.25
643.554	140.25
643.759	153.25
643.964	165.25
644.169	176.25
644.374	158.25
644.579	161.25
644.784	161.25
644.989	163.25
645.194	159.25
645.399	158.25
645.604	160.25
645.809	157.25
646.014	155.25
646.219	166.25
646.423	168.25
646.628	153.25
646.833	160.25
647.038	171.25
647.243	151.25
647.447	153.25
647.652	164.25
647.857	176.25
648.062	162.25
648.266	158.25
648.471	172.25
648.676	179.25
648.88	166.25
649.085	162.25
649.289	155.25
649.494	175.25
649.698	147.25
649.903	153.25
650.107	157.25
650.312	160.25
650.516	158.25
650.721	146.25
650.925	149.25
651.13	129.25
651.334	145.25
651.539	147.25
651.743	125.25
651.947	139.25
652.152	140.25
652.356	134.25
652.56	135.25
652.764	134.25
652.969	127.25
653.173	126.25
653.377	146.25
653.581	141.25
653.785	141.25
653.99	132.25
654.194	128.25
654.398	129.25
654.602	116.25
654.806	136.25
655.01	129.25
655.214	119.25
655.418	129.25
655.622	130.25
655.826	137.25
656.03	131.25
656.234	128.25
656.438	136.25
656.642	135.25
656.846	114.25
657.049	124.25
657.253	105.25
657.457	120.25
657.661	108.25
657.865	118.25
658.068	110.25
658.272	99.25
658.476	102.25
658.68	96.25
658.883	89.25
659.087	113.25
659.291	102.25
659.494	93.25
659.698	98.25
659.901	92.25
660.105	87.25
660.309	88.25
660.512	113.25
660.716	94.25
660.919	93.25
661.123	106.25
661.326	98.25
661.53	88.25
661.733	103.25
661.936	88.25
662.14	84.25
662.343	79.25
662.546	79.25
662.75	77.25
662.953	65.25
663.156	72.25
663.36	77.25
663.563	95.25
663.766	81.25
663.969	85.25
664.173	76.25
664.376	89.25
664.579	83.25
664.782	82.25
664.985	78.25
665.188	87.25
665.391	74.25
665.594	70.25
665.797	79.25
666	77.25
666.203	68.25
666.406	86.25
666.609	64.25
666.812	77.25
667.015	75.25
667.218	81.25
667.421	84.25
667.624	78.25
667.827	79.25
668.03	71.25
668.232	72.25
668.435	81.25
668.638	75.25
668.841	74.25
669.043	73.25
669.246	79.25
669.449	95.25
669.651	79.25
669.854	76.25
670.057	84.25
670.259	71.25
670.462	87.25
670.665	74.25
670.867	92.25
671.07	84.25
671.272	85.25
671.475	87.25
671.677	88.25
671.88	72.25
672.082	87.25
672.284	98.25
672.487	90.25
672.689	87.25
672.892	84.25
