Data from NiCl2@0.125M.TitratingCurve.Agarose3%dH2O.NegLispCup.LampEnergy10.LIBS07252019_HRD10591_18-28-28-574.txt Node
Date: Thu Jul 25 18:28:28 EDT 2019
User: cochatt
Spectrometer: HR+D1059
Trigger mode: 1
Integration Time (sec): 1.000000E-1
Scans to average: 1
Electric dark correction enabled: true
Nonlinearity correction enabled: false
Boxcar width: 0
XAxis mode: Wavelengths
Number of Pixels in Spectrum: 2048
>>>>>Begin Spectral Data<<<<<
223.165	-20.5
223.4	-20.5
223.635	-20.5
223.869	-24.5
224.104	-24.5
224.338	-16.5
224.573	-15.5
224.808	-3.5
225.042	-18.5
225.277	-3.5
225.511	-0.5
225.746	18.5
225.98	12.5
226.215	15.5
226.449	3.5
226.683	26.5
226.918	13.5
227.152	37.5
227.387	32.5
227.621	30.5
227.856	35.5
228.09	32.5
228.324	37.5
228.559	45.5
228.793	53.5
229.027	88.5
229.262	95.5
229.496	117.5
229.73	109.5
229.964	121.5
230.199	131.5
230.433	127.5
230.667	129.5
230.901	136.5
231.136	152.5
231.37	142.5
231.604	147.5
231.838	138.5
232.072	130.5
232.306	146.5
232.541	123.5
232.775	149.5
233.009	138.5
233.243	134.5
233.477	144.5
233.711	155.5
233.945	148.5
234.179	141.5
234.413	160.5
234.647	143.5
234.881	136.5
235.115	161.5
235.349	153.5
235.583	133.5
235.817	136.5
236.051	164.5
236.285	154.5
236.519	150.5
236.753	152.5
236.987	159.5
237.221	151.5
237.455	141.5
237.689	157.5
237.922	161.5
238.156	156.5
238.39	153.5
238.624	168.5
238.858	178.5
239.091	173.5
239.325	188.5
239.559	175.5
239.793	194.5
240.027	168.5
240.26	182.5
240.494	178.5
240.728	178.5
240.961	179.5
241.195	180.5
241.429	172.5
241.662	186.5
241.896	195.5
242.13	190.5
242.363	204.5
242.597	199.5
242.83	198.5
243.064	207.5
243.298	179.5
243.531	200.5
243.765	200.5
243.998	192.5
244.232	210.5
244.465	197.5
244.699	196.5
244.932	202.5
245.166	209.5
245.399	207.5
245.633	232.5
245.866	232.5
246.099	225.5
246.333	218.5
246.566	227.5
246.8	213.5
247.033	218.5
247.266	231.5
247.5	224.5
247.733	229.5
247.966	244.5
248.2	232.5
248.433	219.5
248.666	250.5
248.899	230.5
249.133	238.5
249.366	253.5
249.599	244.5
249.832	258.5
250.066	261.5
250.299	247.5
250.532	259.5
250.765	254.5
250.998	227.5
251.231	254.5
251.465	260.5
251.698	262.5
251.931	274.5
252.164	278.5
252.397	256.5
252.63	267.5
252.863	293.5
253.096	280.5
253.329	299.5
253.562	278.5
253.795	284.5
254.028	290.5
254.261	286.5
254.494	285.5
254.727	293.5
254.96	271.5
255.193	278.5
255.426	282.5
255.659	301.5
255.892	309.5
256.124	296.5
256.357	300.5
256.59	300.5
256.823	262.5
257.056	295.5
257.289	293.5
257.521	303.5
257.754	309.5
257.987	307.5
258.22	293.5
258.452	311.5
258.685	327.5
258.918	288.5
259.151	306.5
259.383	327.5
259.616	296.5
259.849	333.5
260.081	314.5
260.314	306.5
260.547	305.5
260.779	347.5
261.012	329.5
261.244	345.5
261.477	323.5
261.71	335.5
261.942	327.5
262.175	334.5
262.407	339.5
262.64	329.5
262.872	332.5
263.105	348.5
263.337	343.5
263.57	355.5
263.802	333.5
264.035	345.5
264.267	328.5
264.499	367.5
264.732	355.5
264.964	360.5
265.197	340.5
265.429	347.5
265.661	359.5
265.894	352.5
266.126	362.5
266.358	338.5
266.591	349.5
266.823	381.5
267.055	393.5
267.287	369.5
267.52	373.5
267.752	357.5
267.984	367.5
268.216	364.5
268.448	374.5
268.681	373.5
268.913	371.5
269.145	383.5
269.377	374.5
269.609	374.5
269.841	374.5
270.073	388.5
270.306	374.5
270.538	372.5
270.77	386.5
271.002	398.5
271.234	386.5
271.466	391.5
271.698	393.5
271.93	393.5
272.162	403.5
272.394	386.5
272.626	389.5
272.858	392.5
273.09	409.5
273.322	421.5
273.553	408.5
273.785	386.5
274.017	416.5
274.249	412.5
274.481	426.5
274.713	421.5
274.945	414.5
275.176	420.5
275.408	424.5
275.64	416.5
275.872	423.5
276.104	436.5
276.335	407.5
276.567	450.5
276.799	421.5
277.031	439.5
277.262	451.5
277.494	419.5
277.726	418.5
277.957	427.5
278.189	435.5
278.421	447.5
278.652	451.5
278.884	455.5
279.115	445.5
279.347	464.5
279.579	457.5
279.81	449.5
280.042	447.5
280.273	448.5
280.505	439.5
280.736	459.5
280.968	461.5
281.199	467.5
281.431	441.5
281.662	480.5
281.894	476.5
282.125	447.5
282.356	483.5
282.588	463.5
282.819	498.5
283.051	483.5
283.282	485.5
283.513	495.5
283.745	453.5
283.976	481.5
284.207	468.5
284.439	494.5
284.67	465.5
284.901	496.5
285.132	498.5
285.364	498.5
285.595	510.5
285.826	495.5
286.057	515.5
286.288	509.5
286.52	512.5
286.751	512.5
286.982	518.5
287.213	503.5
287.444	507.5
287.675	530.5
287.906	533.5
288.138	534.5
288.369	526.5
288.6	515.5
288.831	533.5
289.062	524.5
289.293	533.5
289.524	525.5
289.755	540.5
289.986	522.5
290.217	524.5
290.448	524.5
290.679	524.5
290.91	509.5
291.141	541.5
291.371	543.5
291.602	535.5
291.833	535.5
292.064	533.5
292.295	543.5
292.526	541.5
292.757	545.5
292.987	532.5
293.218	534.5
293.449	526.5
293.68	543.5
293.91	526.5
294.141	527.5
294.372	540.5
294.603	524.5
294.833	557.5
295.064	538.5
295.295	555.5
295.525	545.5
295.756	535.5
295.987	528.5
296.217	580.5
296.448	544.5
296.679	558.5
296.909	575.5
297.14	586.5
297.37	594.5
297.601	588.5
297.831	569.5
298.062	582.5
298.292	603.5
298.523	595.5
298.753	614.5
298.984	591.5
299.214	590.5
299.445	591.5
299.675	579.5
299.905	587.5
300.136	601.5
300.366	626.5
300.597	605.5
300.827	594.5
301.057	629.5
301.288	622.5
301.518	623.5
301.748	635.5
301.979	620.5
302.209	629.5
302.439	617.5
302.669	623.5
302.9	604.5
303.13	600.5
303.36	600.5
303.59	599.5
303.82	603.5
304.051	613.5
304.281	596.5
304.511	595.5
304.741	595.5
304.971	597.5
305.201	632.5
305.431	600.5
305.661	632.5
305.891	623.5
306.121	594.5
306.352	609.5
306.582	615.5
306.812	564.5
307.042	618.5
307.272	602.5
307.502	587.5
307.731	599.5
307.961	598.5
308.191	596.5
308.421	611.5
308.651	595.5
308.881	575.5
309.111	592.5
309.341	588.5
309.571	610.5
309.8	601.5
310.03	621.5
310.26	624.5
310.49	618.5
310.72	579.5
310.949	596.5
311.179	613.5
311.409	626.5
311.639	611.5
311.868	598.5
312.098	606.5
312.328	637.5
312.557	634.5
312.787	611.5
313.017	627.5
313.246	631.5
313.476	621.5
313.706	649.5
313.935	622.5
314.165	648.5
314.394	642.5
314.624	648.5
314.853	619.5
315.083	631.5
315.312	627.5
315.542	628.5
315.771	618.5
316.001	637.5
316.23	643.5
316.46	612.5
316.689	615.5
316.919	639.5
317.148	640.5
317.377	627.5
317.607	631.5
317.836	612.5
318.065	630.5
318.295	619.5
318.524	610.5
318.753	642.5
318.983	608.5
319.212	609.5
319.441	613.5
319.67	624.5
319.9	644.5
320.129	614.5
320.358	640.5
320.587	631.5
320.816	638.5
321.046	630.5
321.275	654.5
321.504	627.5
321.733	640.5
321.962	666.5
322.191	634.5
322.42	638.5
322.649	624.5
322.878	628.5
323.108	636.5
323.337	642.5
323.566	621.5
323.795	641.5
324.024	638.5
324.253	652.5
324.482	643.5
324.71	633.5
324.939	642.5
325.168	634.5
325.397	641.5
325.626	639.5
325.855	664.5
326.084	677.5
326.313	694.5
326.542	693.5
326.77	704.5
326.999	713.5
327.228	679.5
327.457	671.5
327.686	658.5
327.914	670.5
328.143	695.5
328.372	694.5
328.6	691.5
328.829	684.5
329.058	672.5
329.287	677.5
329.515	675.5
329.744	683.5
329.972	706.5
330.201	720.5
330.43	688.5
330.658	723.5
330.887	704.5
331.115	721.5
331.344	752.5
331.572	715.5
331.801	700.5
332.03	758.5
332.258	765.5
332.486	780.5
332.715	812.5
332.943	830.5
333.172	881.5
333.4	891.5
333.629	916.5
333.857	922.5
334.085	917.5
334.314	919.5
334.542	888.5
334.771	888.5
334.999	864.5
335.227	867.5
335.455	882.5
335.684	858.5
335.912	846.5
336.14	836.5
336.369	814.5
336.597	859.5
336.825	812.5
337.053	803.5
337.281	826.5
337.51	788.5
337.738	788.5
337.966	772.5
338.194	782.5
338.422	754.5
338.65	780.5
338.878	750.5
339.106	762.5
339.334	763.5
339.562	731.5
339.79	719.5
340.018	731.5
340.246	721.5
340.474	720.5
340.702	719.5
340.93	732.5
341.158	746.5
341.386	750.5
341.614	728.5
341.842	726.5
342.07	701.5
342.298	706.5
342.526	710.5
342.754	726.5
342.981	733.5
343.209	717.5
343.437	766.5
343.665	806.5
343.893	838.5
344.12	910.5
344.348	872.5
344.576	826.5
344.804	786.5
345.031	732.5
345.259	750.5
345.487	742.5
345.714	716.5
345.942	742.5
346.17	733.5
346.397	703.5
346.625	705.5
346.853	709.5
347.08	683.5
347.308	733.5
347.535	723.5
347.763	710.5
347.99	705.5
348.218	700.5
348.445	716.5
348.673	702.5
348.9	697.5
349.128	704.5
349.355	701.5
349.583	693.5
349.81	685.5
350.037	669.5
350.265	675.5
350.492	666.5
350.72	683.5
350.947	666.5
351.174	683.5
351.402	693.5
351.629	663.5
351.856	669.5
352.083	692.5
352.311	666.5
352.538	700.5
352.765	668.5
352.992	656.5
353.22	645.5
353.447	666.5
353.674	665.5
353.901	684.5
354.128	653.5
354.355	710.5
354.583	705.5
354.81	667.5
355.037	685.5
355.264	649.5
355.491	687.5
355.718	662.5
355.945	676.5
356.172	667.5
356.399	695.5
356.626	689.5
356.853	693.5
357.08	683.5
357.307	684.5
357.534	690.5
357.761	683.5
357.988	684.5
358.215	643.5
358.441	689.5
358.668	644.5
358.895	666.5
359.122	667.5
359.349	695.5
359.576	657.5
359.802	669.5
360.029	691.5
360.256	671.5
360.483	676.5
360.709	693.5
360.936	660.5
361.163	666.5
361.39	667.5
361.616	661.5
361.843	666.5
362.07	688.5
362.296	674.5
362.523	667.5
362.749	677.5
362.976	660.5
363.203	677.5
363.429	654.5
363.656	692.5
363.882	688.5
364.109	682.5
364.335	689.5
364.562	666.5
364.788	652.5
365.015	679.5
365.241	661.5
365.468	667.5
365.694	660.5
365.92	669.5
366.147	665.5
366.373	682.5
366.599	677.5
366.826	643.5
367.052	651.5
367.278	676.5
367.505	678.5
367.731	684.5
367.957	675.5
368.184	675.5
368.41	658.5
368.636	709.5
368.862	674.5
369.089	696.5
369.315	688.5
369.541	706.5
369.767	713.5
369.993	700.5
370.219	705.5
370.445	698.5
370.672	729.5
370.898	723.5
371.124	726.5
371.35	723.5
371.576	732.5
371.802	725.5
372.028	728.5
372.254	720.5
372.48	723.5
372.706	758.5
372.932	783.5
373.158	794.5
373.384	772.5
373.61	730.5
373.835	721.5
374.061	750.5
374.287	773.5
374.513	771.5
374.739	766.5
374.965	789.5
375.191	823.5
375.416	832.5
375.642	795.5
375.868	784.5
376.094	786.5
376.319	763.5
376.545	763.5
376.771	751.5
376.997	759.5
377.222	727.5
377.448	735.5
377.674	723.5
377.899	716.5
378.125	720.5
378.35	694.5
378.576	707.5
378.802	712.5
379.027	703.5
379.253	739.5
379.478	701.5
379.704	740.5
379.929	749.5
380.155	727.5
380.38	714.5
380.606	718.5
380.831	738.5
381.057	738.5
381.282	719.5
381.507	736.5
381.733	738.5
381.958	748.5
382.184	756.5
382.409	790.5
382.634	770.5
382.86	767.5
383.085	804.5
383.31	810.5
383.535	799.5
383.761	822.5
383.986	817.5
384.211	823.5
384.436	849.5
384.662	880.5
384.887	859.5
385.112	887.5
385.337	884.5
385.562	871.5
385.787	887.5
386.013	895.5
386.238	889.5
386.463	894.5
386.688	894.5
386.913	879.5
387.138	867.5
387.363	871.5
387.588	854.5
387.813	902.5
388.038	886.5
388.263	877.5
388.488	891.5
388.713	883.5
388.938	884.5
389.163	877.5
389.387	881.5
389.612	850.5
389.837	866.5
390.062	859.5
390.287	891.5
390.512	899.5
390.736	903.5
390.961	882.5
391.186	889.5
391.411	923.5
391.636	939.5
391.86	986.5
392.085	1030.5
392.31	1028.5
392.534	988.5
392.759	940.5
392.984	926.5
393.208	924.5
393.433	932.5
393.658	960.5
393.882	947.5
394.107	940.5
394.331	954.5
394.556	941.5
394.78	966.5
395.005	950.5
395.229	951.5
395.454	982.5
395.678	991.5
395.903	1009.5
396.127	983.5
396.352	966.5
396.576	937.5
396.801	966.5
397.025	950.5
397.249	959.5
397.474	1000.5
397.698	984.5
397.922	1008.5
398.147	993.5
398.371	1014.5
398.595	1070.5
398.82	1092.5
399.044	1206.5
399.268	1277.5
399.492	1468.5
399.717	1644.5
399.941	1706.5
400.165	1568.5
400.389	1404.5
400.613	1287.5
400.837	1246.5
401.062	1158.5
401.286	1136.5
401.51	1122.5
401.734	1109.5
401.958	1127.5
402.182	1112.5
402.406	1165.5
402.63	1144.5
402.854	1178.5
403.078	1188.5
403.302	1229.5
403.526	1198.5
403.75	1244.5
403.974	1260.5
404.198	1250.5
404.422	1290.5
404.645	1275.5
404.869	1276.5
405.093	1296.5
405.317	1258.5
405.541	1250.5
405.765	1246.5
405.988	1248.5
406.212	1234.5
406.436	1223.5
406.66	1249.5
406.883	1244.5
407.107	1330.5
407.331	1400.5
407.555	1454.5
407.778	1417.5
408.002	1398.5
408.226	1387.5
408.449	1330.5
408.673	1294.5
408.896	1298.5
409.12	1263.5
409.344	1286.5
409.567	1248.5
409.791	1258.5
410.014	1266.5
410.238	1242.5
410.461	1219.5
410.685	1236.5
410.908	1198.5
411.132	1205.5
411.355	1142.5
411.578	1147.5
411.802	1154.5
412.025	1182.5
412.249	1187.5
412.472	1207.5
412.695	1127.5
412.919	1103.5
413.142	1125.5
413.365	1143.5
413.589	1125.5
413.812	1087.5
414.035	1158.5
414.258	1109.5
414.482	1114.5
414.705	1147.5
414.928	1134.5
415.151	1094.5
415.374	1126.5
415.597	1128.5
415.821	1118.5
416.044	1085.5
416.267	1108.5
416.49	1090.5
416.713	1066.5
416.936	1086.5
417.159	1079.5
417.382	1071.5
417.605	1102.5
417.828	1082.5
418.051	1122.5
418.274	1115.5
418.497	1094.5
418.72	1134.5
418.943	1126.5
419.166	1215.5
419.389	1283.5
419.611	1259.5
419.834	1200.5
420.057	1170.5
420.28	1102.5
420.503	1102.5
420.726	1099.5
420.948	1079.5
421.171	1106.5
421.394	1073.5
421.617	1088.5
421.839	1098.5
422.062	1114.5
422.285	1093.5
422.507	1126.5
422.73	1108.5
422.953	1104.5
423.175	1152.5
423.398	1148.5
423.621	1142.5
423.843	1180.5
424.066	1168.5
424.288	1167.5
424.511	1154.5
424.733	1136.5
424.956	1121.5
425.178	1140.5
425.401	1134.5
425.623	1109.5
425.846	1140.5
426.068	1081.5
426.291	1093.5
426.513	1051.5
426.735	1060.5
426.958	1047.5
427.18	1014.5
427.402	1011.5
427.625	1009.5
427.847	978.5
428.069	1022.5
428.292	1014.5
428.514	1004.5
428.736	958.5
428.958	1029.5
429.181	963.5
429.403	998.5
429.625	969.5
429.847	959.5
430.069	963.5
430.292	974.5
430.514	973.5
430.736	979.5
430.958	973.5
431.18	971.5
431.402	954.5
431.624	946.5
431.846	991.5
432.068	1028.5
432.29	1022.5
432.512	1021.5
432.734	987.5
432.956	999.5
433.178	1016.5
433.4	1026.5
433.622	1019.5
433.844	1001.5
434.066	1036.5
434.287	1014.5
434.509	1040.5
434.731	1102.5
434.953	1124.5
435.175	1107.5
435.397	1111.5
435.618	1055.5
435.84	1063.5
436.062	1039.5
436.284	1017.5
436.505	1032.5
436.727	1018.5
436.949	1018.5
437.17	1008.5
437.392	1002.5
437.614	976.5
437.835	955.5
438.057	958.5
438.278	953.5
438.5	952.5
438.721	980.5
438.943	951.5
439.165	950.5
439.386	1006.5
439.608	1003.5
439.829	981.5
440.05	976.5
440.272	1005.5
440.493	1042.5
440.715	1018.5
440.936	1034.5
441.158	1042.5
441.379	1095.5
441.6	1134.5
441.822	1140.5
442.043	1160.5
442.264	1133.5
442.486	1083.5
442.707	1132.5
442.928	1109.5
443.149	1130.5
443.371	1070.5
443.592	1103.5
443.813	1141.5
444.034	1134.5
444.255	1169.5
444.476	1243.5
444.698	1318.5
444.919	1336.5
445.14	1409.5
445.361	1278.5
445.582	1221.5
445.803	1127.5
446.024	1070.5
446.245	1098.5
446.466	1040.5
446.687	1018.5
446.908	1028.5
447.129	995.5
447.35	979.5
447.571	1005.5
447.792	949.5
448.013	942.5
448.234	943.5
448.455	928.5
448.675	932.5
448.896	934.5
449.117	943.5
449.338	922.5
449.559	921.5
449.779	934.5
450	927.5
450.221	925.5
450.442	918.5
450.662	910.5
450.883	939.5
451.104	954.5
451.324	950.5
451.545	933.5
451.766	948.5
451.986	916.5
452.207	925.5
452.428	906.5
452.648	926.5
452.869	906.5
453.089	901.5
453.31	905.5
453.53	889.5
453.751	883.5
453.971	877.5
454.192	905.5
454.412	854.5
454.633	882.5
454.853	868.5
455.073	880.5
455.294	878.5
455.514	838.5
455.734	877.5
455.955	876.5
456.175	854.5
456.395	855.5
456.616	858.5
456.836	855.5
457.056	861.5
457.276	866.5
457.497	888.5
457.717	878.5
457.937	884.5
458.157	897.5
458.377	914.5
458.598	924.5
458.818	922.5
459.038	948.5
459.258	1001.5
459.478	993.5
459.698	1053.5
459.918	1068.5
460.138	1106.5
460.358	1152.5
460.578	1188.5
460.798	1201.5
461.018	1188.5
461.238	1194.5
461.458	1196.5
461.678	1184.5
461.898	1208.5
462.118	1200.5
462.338	1232.5
462.558	1282.5
462.777	1363.5
462.997	1439.5
463.217	1551.5
463.437	1616.5
463.657	1518.5
463.876	1451.5
464.096	1419.5
464.316	1396.5
464.536	1387.5
464.755	1360.5
464.975	1267.5
465.195	1218.5
465.414	1174.5
465.634	1114.5
465.854	1090.5
466.073	1072.5
466.293	1030.5
466.512	995.5
466.732	997.5
466.951	988.5
467.171	970.5
467.391	1005.5
467.61	950.5
467.829	972.5
468.049	924.5
468.268	934.5
468.488	959.5
468.707	936.5
468.927	922.5
469.146	914.5
469.365	959.5
469.585	958.5
469.804	968.5
470.023	978.5
470.243	974.5
470.462	1020.5
470.681	983.5
470.901	1035.5
471.12	1005.5
471.339	996.5
471.558	980.5
471.777	956.5
471.997	949.5
472.216	955.5
472.435	963.5
472.654	904.5
472.873	916.5
473.092	905.5
473.311	902.5
473.53	917.5
473.749	914.5
473.968	896.5
474.187	904.5
474.406	899.5
474.625	909.5
474.844	923.5
475.063	902.5
475.282	887.5
475.501	922.5
475.72	919.5
475.939	919.5
476.158	936.5
476.377	962.5
476.596	961.5
476.814	972.5
477.033	949.5
477.252	987.5
477.471	999.5
477.69	1026.5
477.908	1036.5
478.127	1043.5
478.346	1112.5
478.564	1112.5
478.783	1091.5
479.002	1111.5
479.22	1124.5
479.439	1163.5
479.658	1134.5
479.876	1114.5
480.095	1130.5
480.313	1182.5
480.532	1232.5
480.751	1209.5
480.969	1194.5
481.188	1135.5
481.406	1090.5
481.624	1074.5
481.843	1052.5
482.061	1057.5
482.28	1091.5
482.498	1061.5
482.717	1078.5
482.935	1046.5
483.153	1047.5
483.372	1058.5
483.59	1088.5
483.808	1044.5
484.027	1053.5
484.245	1042.5
484.463	1067.5
484.681	1070.5
484.9	1083.5
485.118	1128.5
485.336	1106.5
485.554	1103.5
485.772	1110.5
485.99	1107.5
486.209	1105.5
486.427	1087.5
486.645	1139.5
486.863	1125.5
487.081	1127.5
487.299	1137.5
487.517	1122.5
487.735	1116.5
487.953	1111.5
488.171	1090.5
488.389	1088.5
488.607	1092.5
488.825	1054.5
489.043	1070.5
489.261	1109.5
489.479	1106.5
489.696	1095.5
489.914	1056.5
490.132	1094.5
490.35	1101.5
490.568	1104.5
490.786	1149.5
491.003	1106.5
491.221	1110.5
491.439	1126.5
491.657	1101.5
491.874	1116.5
492.092	1137.5
492.31	1156.5
492.527	1141.5
492.745	1125.5
492.963	1122.5
493.18	1142.5
493.398	1140.5
493.615	1134.5
493.833	1156.5
494.05	1143.5
494.268	1170.5
494.485	1156.5
494.703	1183.5
494.92	1153.5
495.138	1152.5
495.355	1197.5
495.573	1150.5
495.79	1156.5
496.008	1156.5
496.225	1192.5
496.442	1196.5
496.66	1224.5
496.877	1228.5
497.094	1234.5
497.312	1269.5
497.529	1276.5
497.746	1318.5
497.963	1350.5
498.181	1414.5
498.398	1475.5
498.615	1568.5
498.832	1660.5
499.049	1793.5
499.267	1900.5
499.484	2110.5
499.701	2310.5
499.918	2547.5
500.135	2852.5
500.352	3217.5
500.569	3372.5
500.786	3389.5
501.003	3194.5
501.22	2863.5
501.437	2591.5
501.654	2245.5
501.871	2058.5
502.088	1891.5
502.305	1795.5
502.522	1702.5
502.739	1619.5
502.956	1504.5
503.172	1454.5
503.389	1408.5
503.606	1359.5
503.823	1330.5
504.04	1348.5
504.256	1335.5
504.473	1365.5
504.69	1394.5
504.907	1359.5
505.123	1258.5
505.34	1206.5
505.557	1165.5
505.773	1160.5
505.99	1106.5
506.207	1055.5
506.423	1050.5
506.64	1063.5
506.856	1050.5
507.073	1040.5
507.289	1042.5
507.506	1044.5
507.722	1053.5
507.939	1010.5
508.155	979.5
508.372	981.5
508.588	981.5
508.805	971.5
509.021	922.5
509.238	972.5
509.454	981.5
509.67	927.5
509.887	938.5
510.103	943.5
510.319	938.5
510.536	940.5
510.752	955.5
510.968	939.5
511.184	920.5
511.401	931.5
511.617	958.5
511.833	932.5
512.049	942.5
512.265	963.5
512.481	947.5
512.698	927.5
512.914	916.5
513.13	924.5
513.346	920.5
513.562	918.5
513.778	939.5
513.994	919.5
514.21	946.5
514.426	976.5
514.642	957.5
514.858	956.5
515.074	942.5
515.29	965.5
515.506	961.5
515.721	977.5
515.937	998.5
516.153	990.5
516.369	1039.5
516.585	1048.5
516.801	1068.5
517.016	1142.5
517.232	1194.5
517.448	1243.5
517.664	1288.5
517.879	1290.5
518.095	1291.5
518.311	1296.5
518.527	1230.5
518.742	1157.5
518.958	1111.5
519.173	1072.5
519.389	1059.5
519.605	1023.5
519.82	999.5
520.036	1008.5
520.251	977.5
520.467	958.5
520.682	945.5
520.898	935.5
521.113	932.5
521.329	960.5
521.544	935.5
521.76	912.5
521.975	910.5
522.19	901.5
522.406	875.5
522.621	890.5
522.836	884.5
523.052	892.5
523.267	890.5
523.482	895.5
523.698	882.5
523.913	886.5
524.128	856.5
524.343	876.5
524.559	838.5
524.774	875.5
524.989	865.5
525.204	850.5
525.419	861.5
525.634	877.5
525.849	851.5
526.064	835.5
526.28	852.5
526.495	845.5
526.71	823.5
526.925	851.5
527.14	847.5
527.355	836.5
527.57	869.5
527.785	831.5
527.999	849.5
528.214	865.5
528.429	864.5
528.644	849.5
528.859	850.5
529.074	834.5
529.289	867.5
529.503	871.5
529.718	830.5
529.933	817.5
530.148	812.5
530.363	845.5
530.577	847.5
530.792	856.5
531.007	846.5
531.221	847.5
531.436	827.5
531.651	835.5
531.865	844.5
532.08	850.5
532.295	850.5
532.509	856.5
532.724	835.5
532.938	846.5
533.153	840.5
533.367	826.5
533.582	828.5
533.796	827.5
534.011	828.5
534.225	829.5
534.44	821.5
534.654	811.5
534.868	844.5
535.083	808.5
535.297	823.5
535.511	833.5
535.726	807.5
535.94	820.5
536.154	837.5
536.369	812.5
536.583	801.5
536.797	780.5
537.011	755.5
537.225	788.5
537.44	770.5
537.654	766.5
537.868	774.5
538.082	781.5
538.296	785.5
538.51	750.5
538.724	771.5
538.938	781.5
539.153	772.5
539.367	784.5
539.581	773.5
539.795	740.5
540.009	760.5
540.222	764.5
540.436	745.5
540.65	762.5
540.864	758.5
541.078	752.5
541.292	780.5
541.506	775.5
541.72	759.5
541.934	763.5
542.147	788.5
542.361	768.5
542.575	757.5
542.789	784.5
543.002	744.5
543.216	772.5
543.43	761.5
543.644	750.5
543.857	739.5
544.071	743.5
544.285	775.5
544.498	770.5
544.712	744.5
544.925	790.5
545.139	783.5
545.352	754.5
545.566	778.5
545.779	776.5
545.993	788.5
546.206	801.5
546.42	775.5
546.633	791.5
546.847	799.5
547.06	800.5
547.274	788.5
547.487	765.5
547.7	793.5
547.914	782.5
548.127	787.5
548.34	789.5
548.554	764.5
548.767	784.5
548.98	781.5
549.193	794.5
549.407	773.5
549.62	805.5
549.833	818.5
550.046	811.5
550.259	779.5
550.473	792.5
550.686	788.5
550.899	770.5
551.112	720.5
551.325	753.5
551.538	763.5
551.751	762.5
551.964	758.5
552.177	781.5
552.39	811.5
552.603	786.5
552.816	818.5
553.029	826.5
553.242	826.5
553.455	866.5
553.667	857.5
553.88	827.5
554.093	832.5
554.306	787.5
554.519	780.5
554.732	791.5
554.944	763.5
555.157	775.5
555.37	770.5
555.583	748.5
555.795	727.5
556.008	724.5
556.221	724.5
556.433	712.5
556.646	700.5
556.859	695.5
557.071	649.5
557.284	640.5
557.496	673.5
557.709	675.5
557.921	675.5
558.134	675.5
558.346	660.5
558.559	657.5
558.771	645.5
558.984	650.5
559.196	659.5
559.409	626.5
559.621	647.5
559.833	648.5
560.046	643.5
560.258	642.5
560.47	625.5
560.683	627.5
560.895	627.5
561.107	657.5
561.32	651.5
561.532	627.5
561.744	640.5
561.956	650.5
562.168	672.5
562.381	644.5
562.593	640.5
562.805	652.5
563.017	653.5
563.229	675.5
563.441	646.5
563.653	658.5
563.865	659.5
564.077	642.5
564.289	682.5
564.501	704.5
564.713	688.5
564.925	721.5
565.137	726.5
565.349	730.5
565.561	742.5
565.773	760.5
565.985	808.5
566.197	858.5
566.408	918.5
566.62	912.5
566.832	1053.5
567.044	1089.5
567.255	1092.5
567.467	1118.5
567.679	1133.5
567.891	1217.5
568.102	1233.5
568.314	1200.5
568.526	1068.5
568.737	964.5
568.949	897.5
569.161	824.5
569.372	803.5
569.584	767.5
569.795	739.5
570.007	691.5
570.218	677.5
570.43	683.5
570.641	674.5
570.853	670.5
571.064	685.5
571.276	685.5
571.487	639.5
571.698	650.5
571.91	611.5
572.121	597.5
572.333	596.5
572.544	575.5
572.755	566.5
572.966	564.5
573.178	569.5
573.389	553.5
573.6	548.5
573.811	546.5
574.023	554.5
574.234	552.5
574.445	532.5
574.656	532.5
574.867	554.5
575.078	542.5
575.289	558.5
575.501	515.5
575.712	528.5
575.923	520.5
576.134	523.5
576.345	550.5
576.556	495.5
576.767	492.5
576.978	494.5
577.188	497.5
577.399	477.5
577.61	492.5
577.821	489.5
578.032	476.5
578.243	490.5
578.454	481.5
578.665	490.5
578.875	478.5
579.086	473.5
579.297	446.5
579.508	465.5
579.718	468.5
579.929	478.5
580.14	459.5
580.35	485.5
580.561	486.5
580.772	468.5
580.982	460.5
581.193	470.5
581.403	460.5
581.614	442.5
581.825	454.5
582.035	451.5
582.246	456.5
582.456	446.5
582.667	450.5
582.877	440.5
583.087	435.5
583.298	458.5
583.508	446.5
583.719	455.5
583.929	465.5
584.139	456.5
584.35	435.5
584.56	432.5
584.77	440.5
584.981	456.5
585.191	434.5
585.401	442.5
585.611	437.5
585.821	435.5
586.032	447.5
586.242	431.5
586.452	435.5
586.662	434.5
586.872	433.5
587.082	432.5
587.292	441.5
587.502	431.5
587.713	436.5
587.923	423.5
588.133	438.5
588.343	414.5
588.553	430.5
588.762	427.5
588.972	435.5
589.182	445.5
589.392	442.5
589.602	454.5
589.812	452.5
590.022	447.5
590.232	437.5
590.441	436.5
590.651	442.5
590.861	454.5
591.071	451.5
591.281	455.5
591.49	469.5
591.7	456.5
591.91	454.5
592.119	466.5
592.329	485.5
592.539	493.5
592.748	491.5
592.958	520.5
593.167	526.5
593.377	543.5
593.587	546.5
593.796	538.5
594.006	576.5
594.215	554.5
594.424	543.5
594.634	563.5
594.843	508.5
595.053	509.5
595.262	495.5
595.472	498.5
595.681	453.5
595.89	455.5
596.1	429.5
596.309	418.5
596.518	422.5
596.727	404.5
596.937	416.5
597.146	412.5
597.355	409.5
597.564	389.5
597.774	404.5
597.983	378.5
598.192	378.5
598.401	382.5
598.61	376.5
598.819	388.5
599.028	375.5
599.237	374.5
599.446	367.5
599.655	389.5
599.864	398.5
600.073	370.5
600.282	376.5
600.491	378.5
600.7	356.5
600.909	365.5
601.118	355.5
601.327	364.5
601.536	384.5
601.745	381.5
601.953	355.5
602.162	371.5
602.371	356.5
602.58	356.5
602.789	366.5
602.997	360.5
603.206	352.5
603.415	351.5
603.623	346.5
603.832	362.5
604.041	340.5
604.249	362.5
604.458	355.5
604.666	340.5
604.875	342.5
605.084	332.5
605.292	346.5
605.501	345.5
605.709	324.5
605.918	318.5
606.126	347.5
606.334	320.5
606.543	326.5
606.751	334.5
606.96	332.5
607.168	341.5
607.376	334.5
607.585	338.5
607.793	324.5
608.001	318.5
608.21	347.5
608.418	332.5
608.626	336.5
608.834	312.5
609.043	323.5
609.251	337.5
609.459	318.5
609.667	318.5
609.875	325.5
610.083	316.5
610.291	325.5
610.499	329.5
610.707	346.5
610.916	326.5
611.124	334.5
611.332	331.5
611.54	327.5
611.748	330.5
611.955	320.5
612.163	324.5
612.371	330.5
612.579	315.5
612.787	324.5
612.995	341.5
613.203	326.5
613.411	328.5
613.618	304.5
613.826	309.5
614.034	318.5
614.242	304.5
614.449	313.5
614.657	302.5
614.865	319.5
615.072	319.5
615.28	308.5
615.488	307.5
615.695	308.5
615.903	317.5
616.111	322.5
616.318	323.5
616.526	331.5
616.733	315.5
616.941	304.5
617.148	300.5
617.356	325.5
617.563	328.5
617.771	322.5
617.978	307.5
618.185	314.5
618.393	307.5
618.6	290.5
618.807	309.5
619.015	310.5
619.222	304.5
619.429	307.5
619.637	309.5
619.844	282.5
620.051	323.5
620.258	302.5
620.466	305.5
620.673	283.5
620.88	263.5
621.087	289.5
621.294	292.5
621.501	298.5
621.708	283.5
621.915	296.5
622.122	298.5
622.329	308.5
622.536	295.5
622.743	284.5
622.95	276.5
623.157	283.5
623.364	282.5
623.571	279.5
623.778	294.5
623.985	272.5
624.192	269.5
624.399	305.5
624.606	304.5
624.812	279.5
625.019	264.5
625.226	283.5
625.433	284.5
625.639	264.5
625.846	258.5
626.053	263.5
626.259	278.5
626.466	280.5
626.673	274.5
626.879	254.5
627.086	269.5
627.293	278.5
627.499	276.5
627.706	255.5
627.912	282.5
628.119	268.5
628.325	268.5
628.532	267.5
628.738	271.5
628.945	244.5
629.151	257.5
629.357	256.5
629.564	248.5
629.77	252.5
629.976	254.5
630.183	266.5
630.389	273.5
630.595	254.5
630.802	254.5
631.008	236.5
631.214	243.5
631.42	242.5
631.627	241.5
631.833	246.5
632.039	232.5
632.245	221.5
632.451	241.5
632.657	227.5
632.863	240.5
633.069	232.5
633.275	235.5
633.481	225.5
633.688	241.5
633.893	239.5
634.099	223.5
634.305	229.5
634.511	239.5
634.717	246.5
634.923	231.5
635.129	233.5
635.335	226.5
635.541	228.5
635.747	216.5
635.952	228.5
636.158	236.5
636.364	219.5
636.57	228.5
636.775	237.5
636.981	219.5
637.187	208.5
637.392	222.5
637.598	215.5
637.804	218.5
638.009	219.5
638.215	235.5
638.421	234.5
638.626	223.5
638.832	216.5
639.037	224.5
639.243	228.5
639.448	214.5
639.654	204.5
639.859	220.5
640.065	219.5
640.27	228.5
640.475	222.5
640.681	206.5
640.886	206.5
641.091	234.5
641.297	206.5
641.502	210.5
641.707	210.5
641.913	222.5
642.118	198.5
642.323	194.5
642.528	210.5
642.733	214.5
642.939	207.5
643.144	195.5
643.349	223.5
643.554	204.5
643.759	226.5
643.964	222.5
644.169	200.5
644.374	193.5
644.579	209.5
644.784	187.5
644.989	207.5
645.194	200.5
645.399	220.5
645.604	200.5
645.809	208.5
646.014	203.5
646.219	204.5
646.423	211.5
646.628	202.5
646.833	206.5
647.038	208.5
647.243	206.5
647.447	210.5
647.652	198.5
647.857	221.5
648.062	223.5
648.266	238.5
648.471	207.5
648.676	215.5
648.88	227.5
649.085	212.5
649.289	208.5
649.494	213.5
649.698	197.5
649.903	196.5
650.107	225.5
650.312	209.5
650.516	208.5
650.721	201.5
650.925	181.5
651.13	200.5
651.334	172.5
651.539	194.5
651.743	179.5
651.947	174.5
652.152	172.5
652.356	182.5
652.56	171.5
652.764	188.5
652.969	183.5
653.173	163.5
653.377	176.5
653.581	187.5
653.785	167.5
653.99	161.5
654.194	166.5
654.398	148.5
654.602	158.5
654.806	175.5
655.01	147.5
655.214	155.5
655.418	158.5
655.622	161.5
655.826	142.5
656.03	158.5
656.234	165.5
656.438	149.5
656.642	175.5
656.846	168.5
657.049	147.5
657.253	141.5
657.457	147.5
657.661	131.5
657.865	123.5
658.068	116.5
658.272	101.5
658.476	116.5
658.68	114.5
658.883	136.5
659.087	105.5
659.291	106.5
659.494	108.5
659.698	108.5
659.901	104.5
660.105	95.5
660.309	92.5
660.512	94.5
660.716	89.5
660.919	85.5
661.123	103.5
661.326	89.5
661.53	85.5
661.733	91.5
661.936	87.5
662.14	85.5
662.343	88.5
662.546	76.5
662.75	85.5
662.953	86.5
663.156	84.5
663.36	68.5
663.563	70.5
663.766	66.5
663.969	85.5
664.173	85.5
664.376	53.5
664.579	67.5
664.782	72.5
664.985	71.5
665.188	74.5
665.391	70.5
665.594	70.5
665.797	67.5
666	85.5
666.203	87.5
666.406	84.5
666.609	82.5
666.812	75.5
667.015	80.5
667.218	67.5
667.421	74.5
667.624	80.5
667.827	79.5
668.03	81.5
668.232	80.5
668.435	86.5
668.638	72.5
668.841	90.5
669.043	90.5
669.246	79.5
669.449	69.5
669.651	90.5
669.854	79.5
670.057	62.5
670.259	75.5
670.462	66.5
670.665	71.5
670.867	82.5
671.07	68.5
671.272	72.5
671.475	70.5
671.677	93.5
671.88	83.5
672.082	70.5
672.284	63.5
672.487	76.5
672.689	71.5
672.892	75.5
