Data from NiCl2@0.0625M.TitratingCurve.Agarose3%dH2O.NegLispCup.LampEnergy10.LIBS07252019_HRD10591_18-32-30-576.txt Node
Date: Thu Jul 25 18:32:30 EDT 2019
User: cochatt
Spectrometer: HR+D1059
Trigger mode: 1
Integration Time (sec): 1.000000E-1
Scans to average: 1
Electric dark correction enabled: true
Nonlinearity correction enabled: false
Boxcar width: 0
XAxis mode: Wavelengths
Number of Pixels in Spectrum: 2048
>>>>>Begin Spectral Data<<<<<
223.165	-3.31
223.4	-3.31
223.635	-3.31
223.869	-30.31
224.104	-26.31
224.338	-15.31
224.573	-12.31
224.808	-21.31
225.042	-5.31
225.277	-7.31
225.511	3.69
225.746	8.69
225.98	5.69
226.215	14.69
226.449	16.69
226.683	17.69
226.918	25.69
227.152	28.69
227.387	36.69
227.621	47.69
227.856	50.69
228.09	36.69
228.324	39.69
228.559	54.69
228.793	82.69
229.027	145.69
229.262	170.69
229.496	169.69
229.73	176.69
229.964	188.69
230.199	204.69
230.433	204.69
230.667	202.69
230.901	198.69
231.136	192.69
231.37	203.69
231.604	214.69
231.838	208.69
232.072	229.69
232.306	209.69
232.541	209.69
232.775	210.69
233.009	226.69
233.243	222.69
233.477	209.69
233.711	231.69
233.945	239.69
234.179	247.69
234.413	216.69
234.647	233.69
234.881	248.69
235.115	239.69
235.349	244.69
235.583	231.69
235.817	253.69
236.051	253.69
236.285	234.69
236.519	244.69
236.753	261.69
236.987	247.69
237.221	246.69
237.455	256.69
237.689	260.69
237.922	269.69
238.156	273.69
238.39	268.69
238.624	266.69
238.858	288.69
239.091	290.69
239.325	269.69
239.559	295.69
239.793	290.69
240.027	318.69
240.26	286.69
240.494	299.69
240.728	308.69
240.961	301.69
241.195	305.69
241.429	323.69
241.662	308.69
241.896	336.69
242.13	324.69
242.363	317.69
242.597	330.69
242.83	329.69
243.064	335.69
243.298	362.69
243.531	321.69
243.765	343.69
243.998	349.69
244.232	366.69
244.465	367.69
244.699	353.69
244.932	364.69
245.166	388.69
245.399	384.69
245.633	363.69
245.866	378.69
246.099	375.69
246.333	378.69
246.566	372.69
246.8	396.69
247.033	387.69
247.266	376.69
247.5	373.69
247.733	408.69
247.966	399.69
248.2	430.69
248.433	441.69
248.666	420.69
248.899	436.69
249.133	426.69
249.366	433.69
249.599	408.69
249.832	439.69
250.066	433.69
250.299	403.69
250.532	434.69
250.765	444.69
250.998	443.69
251.231	438.69
251.465	448.69
251.698	470.69
251.931	447.69
252.164	463.69
252.397	477.69
252.63	490.69
252.863	473.69
253.096	476.69
253.329	495.69
253.562	481.69
253.795	496.69
254.028	492.69
254.261	486.69
254.494	501.69
254.727	487.69
254.96	490.69
255.193	489.69
255.426	498.69
255.659	496.69
255.892	513.69
256.124	507.69
256.357	525.69
256.59	520.69
256.823	496.69
257.056	531.69
257.289	544.69
257.521	544.69
257.754	529.69
257.987	531.69
258.22	562.69
258.452	554.69
258.685	562.69
258.918	542.69
259.151	523.69
259.383	563.69
259.616	551.69
259.849	538.69
260.081	584.69
260.314	568.69
260.547	560.69
260.779	589.69
261.012	582.69
261.244	600.69
261.477	593.69
261.71	578.69
261.942	558.69
262.175	587.69
262.407	598.69
262.64	583.69
262.872	623.69
263.105	606.69
263.337	603.69
263.57	590.69
263.802	635.69
264.035	627.69
264.267	625.69
264.499	616.69
264.732	625.69
264.964	624.69
265.197	623.69
265.429	600.69
265.661	629.69
265.894	634.69
266.126	635.69
266.358	623.69
266.591	635.69
266.823	648.69
267.055	644.69
267.287	645.69
267.52	649.69
267.752	672.69
267.984	656.69
268.216	673.69
268.448	666.69
268.681	677.69
268.913	697.69
269.145	665.69
269.377	683.69
269.609	672.69
269.841	700.69
270.073	708.69
270.306	674.69
270.538	689.69
270.77	678.69
271.002	702.69
271.234	676.69
271.466	709.69
271.698	712.69
271.93	717.69
272.162	692.69
272.394	686.69
272.626	738.69
272.858	725.69
273.09	727.69
273.322	741.69
273.553	728.69
273.785	774.69
274.017	796.69
274.249	774.69
274.481	732.69
274.713	765.69
274.945	771.69
275.176	750.69
275.408	738.69
275.64	773.69
275.872	753.69
276.104	786.69
276.335	758.69
276.567	780.69
276.799	762.69
277.031	802.69
277.262	816.69
277.494	799.69
277.726	781.69
277.957	806.69
278.189	787.69
278.421	792.69
278.652	797.69
278.884	822.69
279.115	830.69
279.347	809.69
279.579	818.69
279.81	864.69
280.042	842.69
280.273	852.69
280.505	844.69
280.736	820.69
280.968	840.69
281.199	859.69
281.431	872.69
281.662	843.69
281.894	868.69
282.125	850.69
282.356	839.69
282.588	873.69
282.819	873.69
283.051	889.69
283.282	856.69
283.513	889.69
283.745	884.69
283.976	920.69
284.207	849.69
284.439	892.69
284.67	881.69
284.901	918.69
285.132	916.69
285.364	908.69
285.595	896.69
285.826	892.69
286.057	913.69
286.288	899.69
286.52	907.69
286.751	919.69
286.982	952.69
287.213	937.69
287.444	930.69
287.675	945.69
287.906	942.69
288.138	944.69
288.369	937.69
288.6	930.69
288.831	964.69
289.062	960.69
289.293	949.69
289.524	945.69
289.755	975.69
289.986	948.69
290.217	929.69
290.448	957.69
290.679	965.69
290.91	1006.69
291.141	976.69
291.371	977.69
291.602	984.69
291.833	963.69
292.064	942.69
292.295	987.69
292.526	990.69
292.757	954.69
292.987	965.69
293.218	952.69
293.449	990.69
293.68	982.69
293.91	967.69
294.141	983.69
294.372	979.69
294.603	961.69
294.833	976.69
295.064	996.69
295.295	976.69
295.525	974.69
295.756	964.69
295.987	987.69
296.217	1033.69
296.448	999.69
296.679	1013.69
296.909	1014.69
297.14	1016.69
297.37	1032.69
297.601	1089.69
297.831	1013.69
298.062	1004.69
298.292	1038.69
298.523	1087.69
298.753	1067.69
298.984	1034.69
299.214	1070.69
299.445	1050.69
299.675	1042.69
299.905	1026.69
300.136	1041.69
300.366	1070.69
300.597	1095.69
300.827	1086.69
301.057	1102.69
301.288	1084.69
301.518	1121.69
301.748	1107.69
301.979	1140.69
302.209	1103.69
302.439	1110.69
302.669	1129.69
302.9	1098.69
303.13	1095.69
303.36	1129.69
303.59	1114.69
303.82	1081.69
304.051	1108.69
304.281	1113.69
304.511	1111.69
304.741	1104.69
304.971	1102.69
305.201	1131.69
305.431	1136.69
305.661	1119.69
305.891	1134.69
306.121	1109.69
306.352	1099.69
306.582	1070.69
306.812	1088.69
307.042	1124.69
307.272	1097.69
307.502	1081.69
307.731	1065.69
307.961	1109.69
308.191	1084.69
308.421	1099.69
308.651	1100.69
308.881	1074.69
309.111	1116.69
309.341	1133.69
309.571	1136.69
309.8	1097.69
310.03	1116.69
310.26	1104.69
310.49	1114.69
310.72	1106.69
310.949	1125.69
311.179	1108.69
311.409	1125.69
311.639	1141.69
311.868	1152.69
312.098	1146.69
312.328	1151.69
312.557	1164.69
312.787	1163.69
313.017	1137.69
313.246	1154.69
313.476	1160.69
313.706	1153.69
313.935	1153.69
314.165	1196.69
314.394	1172.69
314.624	1186.69
314.853	1168.69
315.083	1156.69
315.312	1166.69
315.542	1156.69
315.771	1172.69
316.001	1178.69
316.23	1187.69
316.46	1170.69
316.689	1181.69
316.919	1163.69
317.148	1164.69
317.377	1173.69
317.607	1170.69
317.836	1170.69
318.065	1184.69
318.295	1184.69
318.524	1179.69
318.753	1186.69
318.983	1214.69
319.212	1146.69
319.441	1162.69
319.67	1144.69
319.9	1168.69
320.129	1185.69
320.358	1175.69
320.587	1142.69
320.816	1150.69
321.046	1167.69
321.275	1184.69
321.504	1198.69
321.733	1212.69
321.962	1182.69
322.191	1196.69
322.42	1181.69
322.649	1184.69
322.878	1222.69
323.108	1182.69
323.337	1232.69
323.566	1196.69
323.795	1241.69
324.024	1250.69
324.253	1216.69
324.482	1242.69
324.71	1225.69
324.939	1223.69
325.168	1241.69
325.397	1237.69
325.626	1232.69
325.855	1236.69
326.084	1261.69
326.313	1274.69
326.542	1279.69
326.77	1317.69
326.999	1290.69
327.228	1276.69
327.457	1261.69
327.686	1260.69
327.914	1281.69
328.143	1294.69
328.372	1260.69
328.6	1294.69
328.829	1314.69
329.058	1284.69
329.287	1255.69
329.515	1309.69
329.744	1280.69
329.972	1285.69
330.201	1259.69
330.43	1307.69
330.658	1320.69
330.887	1328.69
331.115	1330.69
331.344	1332.69
331.572	1352.69
331.801	1371.69
332.03	1396.69
332.258	1410.69
332.486	1475.69
332.715	1438.69
332.943	1498.69
333.172	1558.69
333.4	1616.69
333.629	1586.69
333.857	1662.69
334.085	1677.69
334.314	1649.69
334.542	1649.69
334.771	1674.69
334.999	1605.69
335.227	1618.69
335.455	1608.69
335.684	1585.69
335.912	1610.69
336.14	1564.69
336.369	1560.69
336.597	1528.69
336.825	1519.69
337.053	1538.69
337.281	1504.69
337.51	1494.69
337.738	1495.69
337.966	1462.69
338.194	1422.69
338.422	1416.69
338.65	1406.69
338.878	1396.69
339.106	1415.69
339.334	1412.69
339.562	1389.69
339.79	1363.69
340.018	1349.69
340.246	1349.69
340.474	1312.69
340.702	1326.69
340.93	1374.69
341.158	1362.69
341.386	1348.69
341.614	1354.69
341.842	1346.69
342.07	1328.69
342.298	1376.69
342.526	1331.69
342.754	1356.69
342.981	1339.69
343.209	1361.69
343.437	1414.69
343.665	1489.69
343.893	1535.69
344.12	1582.69
344.348	1579.69
344.576	1498.69
344.804	1453.69
345.031	1404.69
345.259	1397.69
345.487	1360.69
345.714	1365.69
345.942	1344.69
346.17	1332.69
346.397	1307.69
346.625	1273.69
346.853	1296.69
347.08	1284.69
347.308	1311.69
347.535	1318.69
347.763	1354.69
347.99	1284.69
348.218	1286.69
348.445	1302.69
348.673	1292.69
348.9	1274.69
349.128	1276.69
349.355	1257.69
349.583	1268.69
349.81	1304.69
350.037	1252.69
350.265	1258.69
350.492	1250.69
350.72	1252.69
350.947	1243.69
351.174	1264.69
351.402	1229.69
351.629	1254.69
351.856	1251.69
352.083	1231.69
352.311	1214.69
352.538	1245.69
352.765	1262.69
352.992	1228.69
353.22	1230.69
353.447	1224.69
353.674	1251.69
353.901	1244.69
354.128	1246.69
354.355	1229.69
354.583	1255.69
354.81	1245.69
355.037	1237.69
355.264	1242.69
355.491	1239.69
355.718	1256.69
355.945	1279.69
356.172	1246.69
356.399	1230.69
356.626	1247.69
356.853	1272.69
357.08	1273.69
357.307	1229.69
357.534	1234.69
357.761	1263.69
357.988	1225.69
358.215	1239.69
358.441	1258.69
358.668	1265.69
358.895	1274.69
359.122	1245.69
359.349	1254.69
359.576	1253.69
359.802	1242.69
360.029	1237.69
360.256	1258.69
360.483	1231.69
360.709	1258.69
360.936	1258.69
361.163	1226.69
361.39	1258.69
361.616	1277.69
361.843	1270.69
362.07	1272.69
362.296	1280.69
362.523	1241.69
362.749	1214.69
362.976	1253.69
363.203	1248.69
363.429	1249.69
363.656	1232.69
363.882	1277.69
364.109	1273.69
364.335	1254.69
364.562	1185.69
364.788	1276.69
365.015	1236.69
365.241	1229.69
365.468	1233.69
365.694	1288.69
365.92	1275.69
366.147	1261.69
366.373	1280.69
366.599	1261.69
366.826	1235.69
367.052	1289.69
367.278	1267.69
367.505	1270.69
367.731	1261.69
367.957	1257.69
368.184	1274.69
368.41	1308.69
368.636	1285.69
368.862	1293.69
369.089	1279.69
369.315	1293.69
369.541	1300.69
369.767	1309.69
369.993	1281.69
370.219	1292.69
370.445	1314.69
370.672	1324.69
370.898	1323.69
371.124	1341.69
371.35	1338.69
371.576	1372.69
371.802	1351.69
372.028	1333.69
372.254	1372.69
372.48	1412.69
372.706	1404.69
372.932	1359.69
373.158	1400.69
373.384	1353.69
373.61	1378.69
373.835	1368.69
374.061	1387.69
374.287	1366.69
374.513	1386.69
374.739	1455.69
374.965	1477.69
375.191	1503.69
375.416	1450.69
375.642	1437.69
375.868	1422.69
376.094	1412.69
376.319	1402.69
376.545	1377.69
376.771	1366.69
376.997	1388.69
377.222	1351.69
377.448	1364.69
377.674	1373.69
377.899	1365.69
378.125	1334.69
378.35	1322.69
378.576	1343.69
378.802	1350.69
379.027	1325.69
379.253	1334.69
379.478	1335.69
379.704	1368.69
379.929	1340.69
380.155	1360.69
380.38	1360.69
380.606	1354.69
380.831	1366.69
381.057	1339.69
381.282	1334.69
381.507	1361.69
381.733	1380.69
381.958	1375.69
382.184	1368.69
382.409	1390.69
382.634	1407.69
382.86	1398.69
383.085	1394.69
383.31	1418.69
383.535	1440.69
383.761	1484.69
383.986	1521.69
384.211	1515.69
384.436	1531.69
384.662	1568.69
384.887	1597.69
385.112	1585.69
385.337	1628.69
385.562	1620.69
385.787	1630.69
386.013	1660.69
386.238	1622.69
386.463	1646.69
386.688	1660.69
386.913	1592.69
387.138	1616.69
387.363	1626.69
387.588	1606.69
387.813	1598.69
388.038	1620.69
388.263	1627.69
388.488	1638.69
388.713	1642.69
388.938	1623.69
389.163	1578.69
389.387	1608.69
389.612	1619.69
389.837	1607.69
390.062	1598.69
390.287	1588.69
390.512	1593.69
390.736	1621.69
390.961	1605.69
391.186	1658.69
391.411	1700.69
391.636	1720.69
391.86	1748.69
392.085	1792.69
392.31	1787.69
392.534	1770.69
392.759	1756.69
392.984	1721.69
393.208	1778.69
393.433	1848.69
393.658	1906.69
393.882	1736.69
394.107	1727.69
394.331	1734.69
394.556	1738.69
394.78	1730.69
395.005	1770.69
395.229	1754.69
395.454	1784.69
395.678	1762.69
395.903	1798.69
396.127	1826.69
396.352	1838.69
396.576	1773.69
396.801	1814.69
397.025	1883.69
397.249	1837.69
397.474	1844.69
397.698	1818.69
397.922	1856.69
398.147	1848.69
398.371	1880.69
398.595	1879.69
398.82	1997.69
399.044	2088.69
399.268	2270.69
399.492	2549.69
399.717	2782.69
399.941	2774.69
400.165	2604.69
400.389	2385.69
400.613	2232.69
400.837	2121.69
401.062	2100.69
401.286	2026.69
401.51	2043.69
401.734	2015.69
401.958	2070.69
402.182	2048.69
402.406	2059.69
402.63	2046.69
402.854	2072.69
403.078	2078.69
403.302	2173.69
403.526	2088.69
403.75	2186.69
403.974	2194.69
404.198	2183.69
404.422	2180.69
404.645	2185.69
404.869	2193.69
405.093	2168.69
405.317	2192.69
405.541	2126.69
405.765	2184.69
405.988	2152.69
406.212	2142.69
406.436	2183.69
406.66	2230.69
406.883	2243.69
407.107	2321.69
407.331	2444.69
407.555	2477.69
407.778	2501.69
408.002	2415.69
408.226	2398.69
408.449	2386.69
408.673	2262.69
408.896	2328.69
409.12	2249.69
409.344	2221.69
409.567	2192.69
409.791	2218.69
410.014	2152.69
410.238	2159.69
410.461	2160.69
410.685	2192.69
410.908	2166.69
411.132	2154.69
411.355	2085.69
411.578	2136.69
411.802	2092.69
412.025	2069.69
412.249	2087.69
412.472	2094.69
412.695	2047.69
412.919	2008.69
413.142	2006.69
413.365	2029.69
413.589	2021.69
413.812	1965.69
414.035	1984.69
414.258	1964.69
414.482	2024.69
414.705	2019.69
414.928	2012.69
415.151	1998.69
415.374	2005.69
415.597	1909.69
415.821	1926.69
416.044	1929.69
416.267	1898.69
416.49	1921.69
416.713	1918.69
416.936	1912.69
417.159	1908.69
417.382	1880.69
417.605	1895.69
417.828	1913.69
418.051	1932.69
418.274	1977.69
418.497	1946.69
418.72	1989.69
418.943	1936.69
419.166	2081.69
419.389	2210.69
419.611	2168.69
419.834	2063.69
420.057	2004.69
420.28	1966.69
420.503	1885.69
420.726	1894.69
420.948	1916.69
421.171	1924.69
421.394	1919.69
421.617	1901.69
421.839	1908.69
422.062	1983.69
422.285	1906.69
422.507	1990.69
422.73	1974.69
422.953	1964.69
423.175	1980.69
423.398	2002.69
423.621	1932.69
423.843	1965.69
424.066	2016.69
424.288	1980.69
424.511	1982.69
424.733	1932.69
424.956	1918.69
425.178	1947.69
425.401	1912.69
425.623	1926.69
425.846	1895.69
426.068	1920.69
426.291	1870.69
426.513	1878.69
426.735	1856.69
426.958	1838.69
427.18	1830.69
427.402	1806.69
427.625	1857.69
427.847	1746.69
428.069	1760.69
428.292	1750.69
428.514	1749.69
428.736	1772.69
428.958	1752.69
429.181	1701.69
429.403	1689.69
429.625	1723.69
429.847	1713.69
430.069	1740.69
430.292	1738.69
430.514	1692.69
430.736	1728.69
430.958	1746.69
431.18	1753.69
431.402	1771.69
431.624	1732.69
431.846	1756.69
432.068	1786.69
432.29	1822.69
432.512	1758.69
432.734	1766.69
432.956	1780.69
433.178	1750.69
433.4	1749.69
433.622	1793.69
433.844	1817.69
434.066	1808.69
434.287	1807.69
434.509	1863.69
434.731	1956.69
434.953	1968.69
435.175	1927.69
435.397	1926.69
435.618	1848.69
435.84	1826.69
436.062	1758.69
436.284	1791.69
436.505	1718.69
436.727	1768.69
436.949	1762.69
437.17	1758.69
437.392	1695.69
437.614	1734.69
437.835	1624.69
438.057	1659.69
438.278	1636.69
438.5	1646.69
438.721	1677.69
438.943	1695.69
439.165	1683.69
439.386	1671.69
439.608	1692.69
439.829	1719.69
440.05	1739.69
440.272	1724.69
440.493	1715.69
440.715	1774.69
440.936	1816.69
441.158	1819.69
441.379	1836.69
441.6	1908.69
441.822	1934.69
442.043	1906.69
442.264	1863.69
442.486	1855.69
442.707	1892.69
442.928	1844.69
443.149	1884.69
443.371	1866.69
443.592	1898.69
443.813	1882.69
444.034	1933.69
444.255	1986.69
444.476	2031.69
444.698	2093.69
444.919	2173.69
445.14	2191.69
445.361	2096.69
445.582	1960.69
445.803	1894.69
446.024	1826.69
446.245	1816.69
446.466	1787.69
446.687	1745.69
446.908	1733.69
447.129	1682.69
447.35	1674.69
447.571	1676.69
447.792	1656.69
448.013	1637.69
448.234	1604.69
448.455	1617.69
448.675	1568.69
448.896	1565.69
449.117	1568.69
449.338	1551.69
449.559	1566.69
449.779	1564.69
450	1518.69
450.221	1585.69
450.442	1578.69
450.662	1591.69
450.883	1596.69
451.104	1609.69
451.324	1590.69
451.545	1564.69
451.766	1578.69
451.986	1560.69
452.207	1560.69
452.428	1546.69
452.648	1573.69
452.869	1527.69
453.089	1539.69
453.31	1524.69
453.53	1475.69
453.751	1522.69
453.971	1481.69
454.192	1504.69
454.412	1494.69
454.633	1495.69
454.853	1484.69
455.073	1480.69
455.294	1476.69
455.514	1438.69
455.734	1450.69
455.955	1445.69
456.175	1500.69
456.395	1491.69
456.616	1502.69
456.836	1512.69
457.056	1444.69
457.276	1462.69
457.497	1527.69
457.717	1487.69
457.937	1486.69
458.157	1511.69
458.377	1542.69
458.598	1591.69
458.818	1580.69
459.038	1649.69
459.258	1685.69
459.478	1750.69
459.698	1769.69
459.918	1855.69
460.138	1853.69
460.358	1922.69
460.578	1929.69
460.798	2036.69
461.018	2033.69
461.238	2008.69
461.458	1951.69
461.678	1960.69
461.898	2047.69
462.118	2019.69
462.338	2129.69
462.558	2131.69
462.777	2237.69
462.997	2332.69
463.217	2486.69
463.437	2478.69
463.657	2322.69
463.876	2330.69
464.096	2250.69
464.316	2285.69
464.536	2284.69
464.755	2194.69
464.975	2146.69
465.195	2041.69
465.414	1985.69
465.634	1844.69
465.854	1774.69
466.073	1745.69
466.293	1723.69
466.512	1717.69
466.732	1673.69
466.951	1662.69
467.171	1624.69
467.391	1646.69
467.61	1632.69
467.829	1615.69
468.049	1606.69
468.268	1586.69
468.488	1586.69
468.707	1577.69
468.927	1603.69
469.146	1622.69
469.365	1634.69
469.585	1612.69
469.804	1643.69
470.023	1644.69
470.243	1701.69
470.462	1701.69
470.681	1660.69
470.901	1654.69
471.12	1649.69
471.339	1652.69
471.558	1630.69
471.777	1626.69
471.997	1621.69
472.216	1612.69
472.435	1598.69
472.654	1604.69
472.873	1579.69
473.092	1583.69
473.311	1553.69
473.53	1554.69
473.749	1541.69
473.968	1553.69
474.187	1565.69
474.406	1560.69
474.625	1579.69
474.844	1597.69
475.063	1589.69
475.282	1606.69
475.501	1627.69
475.72	1643.69
475.939	1600.69
476.158	1665.69
476.377	1662.69
476.596	1657.69
476.814	1692.69
477.033	1704.69
477.252	1719.69
477.471	1790.69
477.69	1767.69
477.908	1821.69
478.127	1881.69
478.346	1865.69
478.564	1911.69
478.783	1920.69
479.002	1980.69
479.22	1983.69
479.439	2017.69
479.658	1983.69
479.876	1983.69
480.095	2009.69
480.313	2121.69
480.532	2122.69
480.751	2124.69
480.969	2038.69
481.188	1982.69
481.406	1982.69
481.624	1895.69
481.843	1899.69
482.061	1919.69
482.28	1882.69
482.498	1918.69
482.717	1930.69
482.935	1940.69
483.153	1887.69
483.372	1951.69
483.59	1929.69
483.808	1949.69
484.027	1949.69
484.245	1970.69
484.463	1981.69
484.681	2028.69
484.9	2030.69
485.118	2020.69
485.336	2030.69
485.554	2090.69
485.772	2012.69
485.99	2017.69
486.209	2086.69
486.427	2075.69
486.645	2011.69
486.863	2026.69
487.081	2031.69
487.299	2041.69
487.517	2010.69
487.735	1994.69
487.953	2021.69
488.171	2009.69
488.389	1996.69
488.607	1969.69
488.825	1990.69
489.043	1998.69
489.261	1941.69
489.479	1942.69
489.696	1949.69
489.914	2003.69
490.132	1954.69
490.35	1994.69
490.568	1958.69
490.786	1992.69
491.003	1943.69
491.221	1950.69
491.439	2007.69
491.657	1950.69
491.874	1990.69
492.092	1932.69
492.31	1947.69
492.527	1969.69
492.745	1991.69
492.963	1990.69
493.18	1956.69
493.398	1947.69
493.615	1988.69
493.833	2019.69
494.05	2012.69
494.268	2004.69
494.485	2031.69
494.703	2015.69
494.92	2033.69
495.138	2001.69
495.355	2031.69
495.573	2063.69
495.79	2012.69
496.008	2073.69
496.225	2126.69
496.442	2122.69
496.66	2085.69
496.877	2127.69
497.094	2186.69
497.312	2204.69
497.529	2236.69
497.746	2281.69
497.963	2364.69
498.181	2436.69
498.398	2562.69
498.615	2661.69
498.832	2838.69
499.049	3001.69
499.267	3198.69
499.484	3471.69
499.701	3734.69
499.918	4036.69
500.135	4454.69
500.352	4857.69
500.569	5095.69
500.786	5016.69
501.003	4786.69
501.22	4388.69
501.437	3990.69
501.654	3669.69
501.871	3364.69
502.088	3146.69
502.305	2968.69
502.522	2815.69
502.739	2712.69
502.956	2610.69
503.172	2486.69
503.389	2358.69
503.606	2327.69
503.823	2309.69
504.04	2255.69
504.256	2293.69
504.473	2294.69
504.69	2294.69
504.907	2262.69
505.123	2113.69
505.34	2056.69
505.557	1999.69
505.773	1957.69
505.99	1903.69
506.207	1832.69
506.423	1849.69
506.64	1828.69
506.856	1798.69
507.073	1764.69
507.289	1785.69
507.506	1722.69
507.722	1747.69
507.939	1729.69
508.155	1666.69
508.372	1684.69
508.588	1657.69
508.805	1648.69
509.021	1657.69
509.238	1648.69
509.454	1668.69
509.67	1628.69
509.887	1637.69
510.103	1630.69
510.319	1572.69
510.536	1616.69
510.752	1579.69
510.968	1577.69
511.184	1581.69
511.401	1559.69
511.617	1563.69
511.833	1574.69
512.049	1575.69
512.265	1548.69
512.481	1572.69
512.698	1598.69
512.914	1532.69
513.13	1574.69
513.346	1560.69
513.562	1585.69
513.778	1580.69
513.994	1598.69
514.21	1578.69
514.426	1595.69
514.642	1591.69
514.858	1599.69
515.074	1626.69
515.29	1634.69
515.506	1660.69
515.721	1633.69
515.937	1738.69
516.153	1707.69
516.369	1760.69
516.585	1781.69
516.801	1888.69
517.016	1948.69
517.232	1946.69
517.448	2018.69
517.664	2030.69
517.879	2050.69
518.095	2079.69
518.311	1998.69
518.527	1994.69
518.742	1910.69
518.958	1854.69
519.173	1804.69
519.389	1770.69
519.605	1696.69
519.82	1661.69
520.036	1670.69
520.251	1595.69
520.467	1590.69
520.682	1548.69
520.898	1591.69
521.113	1546.69
521.329	1535.69
521.544	1487.69
521.76	1504.69
521.975	1505.69
522.19	1452.69
522.406	1478.69
522.621	1433.69
522.836	1489.69
523.052	1478.69
523.267	1425.69
523.482	1425.69
523.698	1433.69
523.913	1417.69
524.128	1434.69
524.343	1453.69
524.559	1401.69
524.774	1417.69
524.989	1437.69
525.204	1382.69
525.419	1388.69
525.634	1424.69
525.849	1419.69
526.064	1433.69
526.28	1402.69
526.495	1386.69
526.71	1373.69
526.925	1403.69
527.14	1357.69
527.355	1348.69
527.57	1334.69
527.785	1369.69
527.999	1365.69
528.214	1351.69
528.429	1406.69
528.644	1398.69
528.859	1354.69
529.074	1397.69
529.289	1358.69
529.503	1352.69
529.718	1381.69
529.933	1396.69
530.148	1364.69
530.363	1382.69
530.577	1365.69
530.792	1369.69
531.007	1356.69
531.221	1366.69
531.436	1381.69
531.651	1370.69
531.865	1348.69
532.08	1358.69
532.295	1387.69
532.509	1343.69
532.724	1369.69
532.938	1351.69
533.153	1382.69
533.367	1370.69
533.582	1326.69
533.796	1328.69
534.011	1383.69
534.225	1336.69
534.44	1310.69
534.654	1322.69
534.868	1290.69
535.083	1329.69
535.297	1329.69
535.511	1308.69
535.726	1346.69
535.94	1315.69
536.154	1308.69
536.369	1249.69
536.583	1290.69
536.797	1255.69
537.011	1261.69
537.225	1234.69
537.44	1257.69
537.654	1271.69
537.868	1234.69
538.082	1249.69
538.296	1275.69
538.51	1263.69
538.724	1257.69
538.938	1242.69
539.153	1247.69
539.367	1237.69
539.581	1224.69
539.795	1205.69
540.009	1212.69
540.222	1193.69
540.436	1210.69
540.65	1240.69
540.864	1180.69
541.078	1199.69
541.292	1206.69
541.506	1208.69
541.72	1193.69
541.934	1167.69
542.147	1188.69
542.361	1199.69
542.575	1168.69
542.789	1198.69
543.002	1239.69
543.216	1210.69
543.43	1203.69
543.644	1214.69
543.857	1195.69
544.071	1158.69
544.285	1190.69
544.498	1183.69
544.712	1216.69
544.925	1241.69
545.139	1233.69
545.352	1209.69
545.566	1225.69
545.779	1227.69
545.993	1222.69
546.206	1242.69
546.42	1215.69
546.633	1219.69
546.847	1225.69
547.06	1210.69
547.274	1234.69
547.487	1226.69
547.7	1201.69
547.914	1231.69
548.127	1197.69
548.34	1272.69
548.554	1234.69
548.767	1234.69
548.98	1214.69
549.193	1252.69
549.407	1226.69
549.62	1250.69
549.833	1260.69
550.046	1282.69
550.259	1258.69
550.473	1236.69
550.686	1195.69
550.899	1215.69
551.112	1252.69
551.325	1196.69
551.538	1210.69
551.751	1227.69
551.964	1206.69
552.177	1233.69
552.39	1213.69
552.603	1239.69
552.816	1282.69
553.029	1291.69
553.242	1292.69
553.455	1309.69
553.667	1342.69
553.88	1299.69
554.093	1257.69
554.306	1245.69
554.519	1197.69
554.732	1206.69
554.944	1170.69
555.157	1154.69
555.37	1151.69
555.583	1164.69
555.795	1127.69
556.008	1087.69
556.221	1068.69
556.433	1074.69
556.646	1097.69
556.859	1046.69
557.071	1052.69
557.284	1038.69
557.496	1033.69
557.709	1031.69
557.921	1051.69
558.134	1042.69
558.346	1016.69
558.559	998.69
558.771	1016.69
558.984	1012.69
559.196	1025.69
559.409	1018.69
559.621	1029.69
559.833	1002.69
560.046	986.69
560.258	1008.69
560.47	1003.69
560.683	1005.69
560.895	988.69
561.107	1025.69
561.32	974.69
561.532	1005.69
561.744	1012.69
561.956	988.69
562.168	1002.69
562.381	994.69
562.593	1033.69
562.805	1030.69
563.017	991.69
563.229	1028.69
563.441	1020.69
563.653	1028.69
563.865	1030.69
564.077	1052.69
564.289	1016.69
564.501	1066.69
564.713	1060.69
564.925	1088.69
565.137	1094.69
565.349	1154.69
565.561	1160.69
565.773	1190.69
565.985	1259.69
566.197	1300.69
566.408	1358.69
566.62	1446.69
566.832	1508.69
567.044	1567.69
567.255	1564.69
567.467	1631.69
567.679	1706.69
567.891	1736.69
568.102	1743.69
568.314	1716.69
568.526	1564.69
568.737	1416.69
568.949	1352.69
569.161	1254.69
569.372	1152.69
569.584	1162.69
569.795	1106.69
570.007	1084.69
570.218	1037.69
570.43	1025.69
570.641	1026.69
570.853	1041.69
571.064	1018.69
571.276	1002.69
571.487	979.69
571.698	966.69
571.91	954.69
572.121	942.69
572.333	920.69
572.544	901.69
572.755	892.69
572.966	881.69
573.178	859.69
573.389	876.69
573.6	833.69
573.811	836.69
574.023	835.69
574.234	837.69
574.445	825.69
574.656	813.69
574.867	818.69
575.078	866.69
575.289	804.69
575.501	805.69
575.712	765.69
575.923	775.69
576.134	796.69
576.345	780.69
576.556	783.69
576.767	779.69
576.978	749.69
577.188	749.69
577.399	760.69
577.61	750.69
577.821	775.69
578.032	718.69
578.243	711.69
578.454	722.69
578.665	723.69
578.875	702.69
579.086	689.69
579.297	720.69
579.508	717.69
579.718	730.69
579.929	719.69
580.14	694.69
580.35	700.69
580.561	729.69
580.772	733.69
580.982	700.69
581.193	702.69
581.403	710.69
581.614	686.69
581.825	680.69
582.035	696.69
582.246	690.69
582.456	662.69
582.667	682.69
582.877	692.69
583.087	659.69
583.298	676.69
583.508	697.69
583.719	657.69
583.929	679.69
584.139	698.69
584.35	656.69
584.56	662.69
584.77	654.69
584.981	643.69
585.191	673.69
585.401	640.69
585.611	658.69
585.821	691.69
586.032	682.69
586.242	656.69
586.452	656.69
586.662	673.69
586.872	638.69
587.082	668.69
587.292	656.69
587.502	642.69
587.713	662.69
587.923	649.69
588.133	649.69
588.343	646.69
588.553	637.69
588.762	648.69
588.972	652.69
589.182	679.69
589.392	650.69
589.602	655.69
589.812	667.69
590.022	661.69
590.232	639.69
590.441	662.69
590.651	672.69
590.861	665.69
591.071	665.69
591.281	684.69
591.49	664.69
591.7	684.69
591.91	688.69
592.119	707.69
592.329	712.69
592.539	722.69
592.748	733.69
592.958	736.69
593.167	755.69
593.377	785.69
593.587	798.69
593.796	781.69
594.006	779.69
594.215	791.69
594.424	788.69
594.634	777.69
594.843	743.69
595.053	733.69
595.262	715.69
595.472	673.69
595.681	668.69
595.89	668.69
596.1	639.69
596.309	644.69
596.518	610.69
596.727	624.69
596.937	623.69
597.146	622.69
597.355	610.69
597.564	597.69
597.774	574.69
597.983	593.69
598.192	576.69
598.401	586.69
598.61	527.69
598.819	540.69
599.028	557.69
599.237	567.69
599.446	572.69
599.655	557.69
599.864	545.69
600.073	548.69
600.282	562.69
600.491	544.69
600.7	540.69
600.909	544.69
601.118	528.69
601.327	522.69
601.536	515.69
601.745	523.69
601.953	520.69
602.162	533.69
602.371	534.69
602.58	512.69
602.789	493.69
602.997	531.69
603.206	526.69
603.415	529.69
603.623	489.69
603.832	503.69
604.041	505.69
604.249	513.69
604.458	504.69
604.666	513.69
604.875	497.69
605.084	504.69
605.292	498.69
605.501	486.69
605.709	474.69
605.918	481.69
606.126	484.69
606.334	477.69
606.543	486.69
606.751	484.69
606.96	458.69
607.168	481.69
607.376	474.69
607.585	483.69
607.793	481.69
608.001	480.69
608.21	463.69
608.418	482.69
608.626	456.69
608.834	479.69
609.043	458.69
609.251	477.69
609.459	456.69
609.667	462.69
609.875	466.69
610.083	468.69
610.291	477.69
610.499	474.69
610.707	478.69
610.916	456.69
611.124	460.69
611.332	455.69
611.54	459.69
611.748	482.69
611.955	469.69
612.163	452.69
612.371	461.69
612.579	453.69
612.787	461.69
612.995	449.69
613.203	447.69
613.411	435.69
613.618	443.69
613.826	452.69
614.034	454.69
614.242	466.69
614.449	445.69
614.657	444.69
614.865	436.69
615.072	454.69
615.28	440.69
615.488	436.69
615.695	458.69
615.903	448.69
616.111	432.69
616.318	457.69
616.526	455.69
616.733	451.69
616.941	443.69
617.148	425.69
617.356	437.69
617.563	448.69
617.771	423.69
617.978	466.69
618.185	435.69
618.393	429.69
618.6	449.69
618.807	426.69
619.015	448.69
619.222	454.69
619.429	432.69
619.637	446.69
619.844	438.69
620.051	451.69
620.258	433.69
620.466	412.69
620.673	420.69
620.88	409.69
621.087	415.69
621.294	417.69
621.501	420.69
621.708	408.69
621.915	406.69
622.122	403.69
622.329	418.69
622.536	431.69
622.743	401.69
622.95	409.69
623.157	400.69
623.364	410.69
623.571	426.69
623.778	387.69
623.985	396.69
624.192	397.69
624.399	399.69
624.606	406.69
624.812	405.69
625.019	387.69
625.226	382.69
625.433	388.69
625.639	376.69
625.846	376.69
626.053	405.69
626.259	382.69
626.466	376.69
626.673	356.69
626.879	369.69
627.086	374.69
627.293	376.69
627.499	390.69
627.706	365.69
627.912	361.69
628.119	379.69
628.325	372.69
628.532	384.69
628.738	360.69
628.945	368.69
629.151	362.69
629.357	354.69
629.564	351.69
629.77	357.69
629.976	350.69
630.183	346.69
630.389	358.69
630.595	355.69
630.802	363.69
631.008	350.69
631.214	338.69
631.42	343.69
631.627	335.69
631.833	362.69
632.039	344.69
632.245	336.69
632.451	335.69
632.657	345.69
632.863	354.69
633.069	327.69
633.275	345.69
633.481	332.69
633.688	342.69
633.893	339.69
634.099	327.69
634.305	340.69
634.511	326.69
634.717	321.69
634.923	320.69
635.129	318.69
635.335	313.69
635.541	326.69
635.747	325.69
635.952	308.69
636.158	324.69
636.364	318.69
636.57	329.69
636.775	320.69
636.981	327.69
637.187	302.69
637.392	337.69
637.598	321.69
637.804	305.69
638.009	337.69
638.215	315.69
638.421	298.69
638.626	308.69
638.832	297.69
639.037	310.69
639.243	301.69
639.448	315.69
639.654	309.69
639.859	315.69
640.065	322.69
640.27	321.69
640.475	310.69
640.681	303.69
640.886	266.69
641.091	312.69
641.297	290.69
641.502	298.69
641.707	305.69
641.913	303.69
642.118	303.69
642.323	322.69
642.528	298.69
642.733	282.69
642.939	286.69
643.144	296.69
643.349	296.69
643.554	313.69
643.759	299.69
643.964	312.69
644.169	296.69
644.374	296.69
644.579	291.69
644.784	312.69
644.989	295.69
645.194	301.69
645.399	312.69
645.604	304.69
645.809	297.69
646.014	296.69
646.219	311.69
646.423	314.69
646.628	308.69
646.833	302.69
647.038	300.69
647.243	312.69
647.447	334.69
647.652	316.69
647.857	326.69
648.062	308.69
648.266	324.69
648.471	325.69
648.676	320.69
648.88	321.69
649.085	336.69
649.289	317.69
649.494	292.69
649.698	340.69
649.903	312.69
650.107	295.69
650.312	325.69
650.516	310.69
650.721	302.69
650.925	284.69
651.13	290.69
651.334	273.69
651.539	289.69
651.743	316.69
651.947	293.69
652.152	294.69
652.356	293.69
652.56	300.69
652.764	276.69
652.969	287.69
653.173	295.69
653.377	285.69
653.581	282.69
653.785	282.69
653.99	285.69
654.194	294.69
654.398	309.69
654.602	295.69
654.806	291.69
655.01	303.69
655.214	300.69
655.418	295.69
655.622	316.69
655.826	308.69
656.03	332.69
656.234	363.69
656.438	364.69
656.642	355.69
656.846	357.69
657.049	322.69
657.253	289.69
657.457	278.69
657.661	235.69
657.865	232.69
658.068	220.69
658.272	197.69
658.476	208.69
658.68	193.69
658.883	183.69
659.087	172.69
659.291	152.69
659.494	156.69
659.698	143.69
659.901	148.69
660.105	133.69
660.309	133.69
660.512	133.69
660.716	118.69
660.919	124.69
661.123	122.69
661.326	113.69
661.53	136.69
661.733	113.69
661.936	83.69
662.14	100.69
662.343	112.69
662.546	95.69
662.75	92.69
662.953	92.69
663.156	96.69
663.36	93.69
663.563	89.69
663.766	71.69
663.969	101.69
664.173	92.69
664.376	90.69
664.579	91.69
664.782	86.69
664.985	87.69
665.188	93.69
665.391	96.69
665.594	94.69
665.797	81.69
666	93.69
666.203	97.69
666.406	91.69
666.609	68.69
666.812	91.69
667.015	92.69
667.218	90.69
667.421	93.69
667.624	89.69
667.827	88.69
668.03	92.69
668.232	98.69
668.435	95.69
668.638	93.69
668.841	101.69
669.043	93.69
669.246	85.69
669.449	100.69
669.651	96.69
669.854	76.69
670.057	83.69
670.259	88.69
670.462	86.69
670.665	82.69
670.867	82.69
671.07	92.69
671.272	86.69
671.475	87.69
671.677	82.69
671.88	90.69
672.082	98.69
672.284	95.69
672.487	78.69
672.689	96.69
672.892	80.69
