Data from NiCl2@0.125M.TitratingCurve.Agarose3%dH2O.NegLispCup.LampEnergy10.LIBS07252019_HRD10591_18-29-33-575.txt Node
Date: Thu Jul 25 18:29:33 EDT 2019
User: cochatt
Spectrometer: HR+D1059
Trigger mode: 1
Integration Time (sec): 1.000000E-1
Scans to average: 1
Electric dark correction enabled: true
Nonlinearity correction enabled: false
Boxcar width: 0
XAxis mode: Wavelengths
Number of Pixels in Spectrum: 2048
>>>>>Begin Spectral Data<<<<<
223.165	-12.5
223.4	-12.5
223.635	-12.5
223.869	-28.5
224.104	-21.5
224.338	-8.5
224.573	-30.5
224.808	-13.5
225.042	7.5
225.277	1.5
225.511	-4.5
225.746	-6.5
225.98	20.5
226.215	11.5
226.449	9.5
226.683	12.5
226.918	24.5
227.152	38.5
227.387	31.5
227.621	37.5
227.856	41.5
228.09	47.5
228.324	40.5
228.559	47.5
228.793	67.5
229.027	113.5
229.262	109.5
229.496	121.5
229.73	114.5
229.964	108.5
230.199	123.5
230.433	123.5
230.667	126.5
230.901	120.5
231.136	130.5
231.37	135.5
231.604	150.5
231.838	149.5
232.072	135.5
232.306	152.5
232.541	150.5
232.775	140.5
233.009	153.5
233.243	148.5
233.477	129.5
233.711	145.5
233.945	131.5
234.179	152.5
234.413	140.5
234.647	166.5
234.881	137.5
235.115	132.5
235.349	130.5
235.583	138.5
235.817	143.5
236.051	165.5
236.285	154.5
236.519	157.5
236.753	148.5
236.987	161.5
237.221	143.5
237.455	163.5
237.689	163.5
237.922	144.5
238.156	168.5
238.39	153.5
238.624	154.5
238.858	160.5
239.091	155.5
239.325	154.5
239.559	153.5
239.793	154.5
240.027	159.5
240.26	171.5
240.494	155.5
240.728	162.5
240.961	176.5
241.195	194.5
241.429	183.5
241.662	179.5
241.896	176.5
242.13	186.5
242.363	184.5
242.597	196.5
242.83	203.5
243.064	184.5
243.298	186.5
243.531	187.5
243.765	216.5
243.998	190.5
244.232	199.5
244.465	185.5
244.699	182.5
244.932	190.5
245.166	199.5
245.399	213.5
245.633	182.5
245.866	212.5
246.099	192.5
246.333	207.5
246.566	202.5
246.8	222.5
247.033	232.5
247.266	202.5
247.5	223.5
247.733	219.5
247.966	212.5
248.2	219.5
248.433	230.5
248.666	203.5
248.899	221.5
249.133	226.5
249.366	225.5
249.599	212.5
249.832	253.5
250.066	245.5
250.299	237.5
250.532	235.5
250.765	233.5
250.998	233.5
251.231	235.5
251.465	252.5
251.698	260.5
251.931	244.5
252.164	243.5
252.397	281.5
252.63	244.5
252.863	272.5
253.096	246.5
253.329	255.5
253.562	247.5
253.795	256.5
254.028	265.5
254.261	266.5
254.494	258.5
254.727	249.5
254.96	255.5
255.193	269.5
255.426	279.5
255.659	273.5
255.892	260.5
256.124	264.5
256.357	282.5
256.59	258.5
256.823	270.5
257.056	281.5
257.289	276.5
257.521	294.5
257.754	275.5
257.987	277.5
258.22	284.5
258.452	279.5
258.685	283.5
258.918	293.5
259.151	274.5
259.383	288.5
259.616	294.5
259.849	276.5
260.081	277.5
260.314	311.5
260.547	295.5
260.779	301.5
261.012	309.5
261.244	308.5
261.477	306.5
261.71	294.5
261.942	297.5
262.175	304.5
262.407	310.5
262.64	300.5
262.872	311.5
263.105	307.5
263.337	316.5
263.57	318.5
263.802	309.5
264.035	299.5
264.267	314.5
264.499	317.5
264.732	328.5
264.964	300.5
265.197	327.5
265.429	313.5
265.661	307.5
265.894	342.5
266.126	320.5
266.358	325.5
266.591	330.5
266.823	344.5
267.055	324.5
267.287	336.5
267.52	338.5
267.752	337.5
267.984	347.5
268.216	324.5
268.448	353.5
268.681	338.5
268.913	325.5
269.145	341.5
269.377	351.5
269.609	333.5
269.841	337.5
270.073	343.5
270.306	327.5
270.538	351.5
270.77	337.5
271.002	348.5
271.234	342.5
271.466	333.5
271.698	337.5
271.93	351.5
272.162	348.5
272.394	372.5
272.626	373.5
272.858	358.5
273.09	339.5
273.322	338.5
273.553	375.5
273.785	361.5
274.017	360.5
274.249	374.5
274.481	379.5
274.713	363.5
274.945	358.5
275.176	354.5
275.408	374.5
275.64	379.5
275.872	369.5
276.104	389.5
276.335	393.5
276.567	376.5
276.799	392.5
277.031	372.5
277.262	392.5
277.494	397.5
277.726	376.5
277.957	379.5
278.189	379.5
278.421	383.5
278.652	379.5
278.884	398.5
279.115	409.5
279.347	404.5
279.579	402.5
279.81	397.5
280.042	416.5
280.273	400.5
280.505	394.5
280.736	406.5
280.968	405.5
281.199	419.5
281.431	405.5
281.662	386.5
281.894	431.5
282.125	415.5
282.356	425.5
282.588	426.5
282.819	437.5
283.051	426.5
283.282	428.5
283.513	428.5
283.745	442.5
283.976	444.5
284.207	433.5
284.439	432.5
284.67	450.5
284.901	452.5
285.132	420.5
285.364	451.5
285.595	472.5
285.826	452.5
286.057	455.5
286.288	458.5
286.52	440.5
286.751	470.5
286.982	465.5
287.213	444.5
287.444	441.5
287.675	471.5
287.906	475.5
288.138	466.5
288.369	480.5
288.6	445.5
288.831	472.5
289.062	486.5
289.293	469.5
289.524	457.5
289.755	488.5
289.986	460.5
290.217	457.5
290.448	480.5
290.679	459.5
290.91	488.5
291.141	460.5
291.371	474.5
291.602	483.5
291.833	487.5
292.064	490.5
292.295	478.5
292.526	487.5
292.757	477.5
292.987	485.5
293.218	459.5
293.449	476.5
293.68	485.5
293.91	500.5
294.141	465.5
294.372	463.5
294.603	480.5
294.833	466.5
295.064	480.5
295.295	473.5
295.525	456.5
295.756	489.5
295.987	486.5
296.217	487.5
296.448	505.5
296.679	487.5
296.909	493.5
297.14	504.5
297.37	497.5
297.601	532.5
297.831	526.5
298.062	525.5
298.292	519.5
298.523	547.5
298.753	532.5
298.984	520.5
299.214	518.5
299.445	521.5
299.675	529.5
299.905	532.5
300.136	534.5
300.366	529.5
300.597	537.5
300.827	548.5
301.057	550.5
301.288	539.5
301.518	563.5
301.748	544.5
301.979	546.5
302.209	545.5
302.439	566.5
302.669	544.5
302.9	526.5
303.13	519.5
303.36	533.5
303.59	515.5
303.82	526.5
304.051	537.5
304.281	539.5
304.511	539.5
304.741	521.5
304.971	535.5
305.201	532.5
305.431	527.5
305.661	547.5
305.891	507.5
306.121	522.5
306.352	541.5
306.582	531.5
306.812	503.5
307.042	530.5
307.272	523.5
307.502	517.5
307.731	518.5
307.961	525.5
308.191	507.5
308.421	532.5
308.651	505.5
308.881	521.5
309.111	529.5
309.341	512.5
309.571	520.5
309.8	521.5
310.03	529.5
310.26	522.5
310.49	511.5
310.72	523.5
310.949	529.5
311.179	538.5
311.409	544.5
311.639	545.5
311.868	528.5
312.098	541.5
312.328	556.5
312.557	534.5
312.787	538.5
313.017	557.5
313.246	567.5
313.476	549.5
313.706	579.5
313.935	559.5
314.165	556.5
314.394	541.5
314.624	567.5
314.853	553.5
315.083	544.5
315.312	562.5
315.542	566.5
315.771	561.5
316.001	538.5
316.23	549.5
316.46	534.5
316.689	542.5
316.919	527.5
317.148	540.5
317.377	546.5
317.607	539.5
317.836	520.5
318.065	511.5
318.295	527.5
318.524	554.5
318.753	519.5
318.983	543.5
319.212	530.5
319.441	549.5
319.67	538.5
319.9	550.5
320.129	537.5
320.358	538.5
320.587	526.5
320.816	542.5
321.046	543.5
321.275	565.5
321.504	547.5
321.733	538.5
321.962	538.5
322.191	546.5
322.42	544.5
322.649	563.5
322.878	555.5
323.108	547.5
323.337	561.5
323.566	546.5
323.795	541.5
324.024	541.5
324.253	544.5
324.482	540.5
324.71	551.5
324.939	543.5
325.168	574.5
325.397	568.5
325.626	552.5
325.855	559.5
326.084	556.5
326.313	573.5
326.542	594.5
326.77	600.5
326.999	583.5
327.228	575.5
327.457	588.5
327.686	610.5
327.914	585.5
328.143	604.5
328.372	597.5
328.6	593.5
328.829	597.5
329.058	577.5
329.287	563.5
329.515	592.5
329.744	585.5
329.972	590.5
330.201	607.5
330.43	603.5
330.658	609.5
330.887	589.5
331.115	597.5
331.344	629.5
331.572	623.5
331.801	632.5
332.03	661.5
332.258	659.5
332.486	667.5
332.715	715.5
332.943	720.5
333.172	752.5
333.4	815.5
333.629	827.5
333.857	815.5
334.085	783.5
334.314	799.5
334.542	775.5
334.771	740.5
334.999	737.5
335.227	746.5
335.455	720.5
335.684	735.5
335.912	717.5
336.14	713.5
336.369	686.5
336.597	732.5
336.825	719.5
337.053	710.5
337.281	692.5
337.51	672.5
337.738	682.5
337.966	659.5
338.194	663.5
338.422	629.5
338.65	628.5
338.878	650.5
339.106	627.5
339.334	644.5
339.562	611.5
339.79	603.5
340.018	612.5
340.246	623.5
340.474	620.5
340.702	616.5
340.93	637.5
341.158	629.5
341.386	603.5
341.614	627.5
341.842	603.5
342.07	625.5
342.298	585.5
342.526	604.5
342.754	615.5
342.981	621.5
343.209	624.5
343.437	620.5
343.665	707.5
343.893	751.5
344.12	773.5
344.348	758.5
344.576	694.5
344.804	673.5
345.031	618.5
345.259	631.5
345.487	607.5
345.714	601.5
345.942	617.5
346.17	589.5
346.397	595.5
346.625	604.5
346.853	605.5
347.08	611.5
347.308	604.5
347.535	599.5
347.763	628.5
347.99	599.5
348.218	638.5
348.445	607.5
348.673	623.5
348.9	599.5
349.128	601.5
349.355	600.5
349.583	589.5
349.81	592.5
350.037	571.5
350.265	576.5
350.492	551.5
350.72	558.5
350.947	558.5
351.174	543.5
351.402	565.5
351.629	594.5
351.856	568.5
352.083	577.5
352.311	551.5
352.538	564.5
352.765	564.5
352.992	556.5
353.22	575.5
353.447	549.5
353.674	549.5
353.901	584.5
354.128	559.5
354.355	548.5
354.583	575.5
354.81	587.5
355.037	589.5
355.264	567.5
355.491	560.5
355.718	569.5
355.945	585.5
356.172	580.5
356.399	572.5
356.626	579.5
356.853	579.5
357.08	570.5
357.307	569.5
357.534	570.5
357.761	573.5
357.988	570.5
358.215	579.5
358.441	573.5
358.668	548.5
358.895	586.5
359.122	582.5
359.349	564.5
359.576	571.5
359.802	583.5
360.029	568.5
360.256	579.5
360.483	571.5
360.709	550.5
360.936	571.5
361.163	568.5
361.39	580.5
361.616	547.5
361.843	588.5
362.07	559.5
362.296	566.5
362.523	552.5
362.749	556.5
362.976	564.5
363.203	563.5
363.429	571.5
363.656	557.5
363.882	559.5
364.109	568.5
364.335	571.5
364.562	543.5
364.788	561.5
365.015	556.5
365.241	552.5
365.468	567.5
365.694	568.5
365.92	569.5
366.147	571.5
366.373	553.5
366.599	584.5
366.826	563.5
367.052	567.5
367.278	579.5
367.505	566.5
367.731	562.5
367.957	579.5
368.184	579.5
368.41	573.5
368.636	570.5
368.862	582.5
369.089	593.5
369.315	584.5
369.541	608.5
369.767	602.5
369.993	587.5
370.219	571.5
370.445	589.5
370.672	616.5
370.898	605.5
371.124	631.5
371.35	615.5
371.576	629.5
371.802	618.5
372.028	643.5
372.254	621.5
372.48	630.5
372.706	640.5
372.932	643.5
373.158	657.5
373.384	636.5
373.61	611.5
373.835	623.5
374.061	635.5
374.287	615.5
374.513	644.5
374.739	663.5
374.965	667.5
375.191	709.5
375.416	722.5
375.642	669.5
375.868	667.5
376.094	664.5
376.319	637.5
376.545	636.5
376.771	628.5
376.997	617.5
377.222	617.5
377.448	640.5
377.674	643.5
377.899	610.5
378.125	613.5
378.35	613.5
378.576	618.5
378.802	601.5
379.027	599.5
379.253	607.5
379.478	624.5
379.704	615.5
379.929	597.5
380.155	607.5
380.38	604.5
380.606	602.5
380.831	620.5
381.057	627.5
381.282	601.5
381.507	593.5
381.733	598.5
381.958	612.5
382.184	652.5
382.409	632.5
382.634	629.5
382.86	635.5
383.085	650.5
383.31	662.5
383.535	692.5
383.761	691.5
383.986	704.5
384.211	741.5
384.436	701.5
384.662	746.5
384.887	771.5
385.112	751.5
385.337	740.5
385.562	764.5
385.787	731.5
386.013	749.5
386.238	777.5
386.463	771.5
386.688	753.5
386.913	747.5
387.138	723.5
387.363	728.5
387.588	723.5
387.813	738.5
388.038	723.5
388.263	734.5
388.488	753.5
388.713	729.5
388.938	718.5
389.163	707.5
389.387	740.5
389.612	732.5
389.837	717.5
390.062	706.5
390.287	705.5
390.512	717.5
390.736	715.5
390.961	741.5
391.186	756.5
391.411	786.5
391.636	784.5
391.86	825.5
392.085	827.5
392.31	855.5
392.534	826.5
392.759	803.5
392.984	815.5
393.208	779.5
393.433	745.5
393.658	790.5
393.882	815.5
394.107	813.5
394.331	811.5
394.556	801.5
394.78	780.5
395.005	824.5
395.229	813.5
395.454	833.5
395.678	837.5
395.903	842.5
396.127	844.5
396.352	819.5
396.576	767.5
396.801	774.5
397.025	794.5
397.249	784.5
397.474	818.5
397.698	804.5
397.922	831.5
398.147	807.5
398.371	841.5
398.595	848.5
398.82	897.5
399.044	946.5
399.268	1070.5
399.492	1270.5
399.717	1489.5
399.941	1467.5
400.165	1249.5
400.389	1135.5
400.613	1065.5
400.837	973.5
401.062	968.5
401.286	915.5
401.51	903.5
401.734	928.5
401.958	960.5
402.182	958.5
402.406	937.5
402.63	1001.5
402.854	1015.5
403.078	997.5
403.302	1057.5
403.526	1053.5
403.75	1079.5
403.974	1150.5
404.198	1123.5
404.422	1095.5
404.645	1100.5
404.869	1107.5
405.093	1073.5
405.317	1045.5
405.541	1050.5
405.765	1029.5
405.988	1027.5
406.212	1065.5
406.436	1017.5
406.66	1023.5
406.883	1053.5
407.107	1136.5
407.331	1172.5
407.555	1213.5
407.778	1233.5
408.002	1201.5
408.226	1159.5
408.449	1096.5
408.673	1079.5
408.896	1054.5
409.12	1078.5
409.344	1098.5
409.567	1073.5
409.791	1088.5
410.014	1069.5
410.238	1099.5
410.461	1058.5
410.685	1045.5
410.908	1019.5
411.132	997.5
411.355	987.5
411.578	946.5
411.802	976.5
412.025	987.5
412.249	999.5
412.472	991.5
412.695	933.5
412.919	916.5
413.142	936.5
413.365	937.5
413.589	928.5
413.812	928.5
414.035	907.5
414.258	918.5
414.482	945.5
414.705	945.5
414.928	959.5
415.151	937.5
415.374	927.5
415.597	929.5
415.821	914.5
416.044	920.5
416.267	908.5
416.49	921.5
416.713	915.5
416.936	918.5
417.159	933.5
417.382	938.5
417.605	936.5
417.828	918.5
418.051	959.5
418.274	945.5
418.497	927.5
418.72	944.5
418.943	959.5
419.166	1047.5
419.389	1106.5
419.611	1043.5
419.834	1000.5
420.057	981.5
420.28	961.5
420.503	909.5
420.726	927.5
420.948	896.5
421.171	924.5
421.394	926.5
421.617	929.5
421.839	923.5
422.062	917.5
422.285	910.5
422.507	934.5
422.73	928.5
422.953	958.5
423.175	993.5
423.398	1000.5
423.621	985.5
423.843	1016.5
424.066	1023.5
424.288	1025.5
424.511	970.5
424.733	994.5
424.956	971.5
425.178	958.5
425.401	948.5
425.623	912.5
425.846	936.5
426.068	915.5
426.291	877.5
426.513	898.5
426.735	871.5
426.958	864.5
427.18	845.5
427.402	862.5
427.625	881.5
427.847	849.5
428.069	834.5
428.292	840.5
428.514	843.5
428.736	835.5
428.958	844.5
429.181	792.5
429.403	796.5
429.625	821.5
429.847	801.5
430.069	806.5
430.292	828.5
430.514	791.5
430.736	831.5
430.958	839.5
431.18	805.5
431.402	794.5
431.624	826.5
431.846	866.5
432.068	869.5
432.29	856.5
432.512	837.5
432.734	839.5
432.956	852.5
433.178	837.5
433.4	828.5
433.622	841.5
433.844	867.5
434.066	853.5
434.287	861.5
434.509	897.5
434.731	887.5
434.953	913.5
435.175	961.5
435.397	940.5
435.618	885.5
435.84	883.5
436.062	835.5
436.284	822.5
436.505	817.5
436.727	840.5
436.949	853.5
437.17	847.5
437.392	823.5
437.614	811.5
437.835	810.5
438.057	838.5
438.278	790.5
438.5	806.5
438.721	792.5
438.943	803.5
439.165	823.5
439.386	800.5
439.608	838.5
439.829	841.5
440.05	854.5
440.272	840.5
440.493	855.5
440.715	862.5
440.936	867.5
441.158	879.5
441.379	933.5
441.6	967.5
441.822	980.5
442.043	979.5
442.264	947.5
442.486	903.5
442.707	975.5
442.928	937.5
443.149	929.5
443.371	935.5
443.592	961.5
443.813	961.5
444.034	961.5
444.255	980.5
444.476	1064.5
444.698	1124.5
444.919	1151.5
445.14	1249.5
445.361	1076.5
445.582	986.5
445.803	931.5
446.024	918.5
446.245	901.5
446.466	880.5
446.687	873.5
446.908	860.5
447.129	840.5
447.35	825.5
447.571	843.5
447.792	781.5
448.013	801.5
448.234	788.5
448.455	788.5
448.675	768.5
448.896	774.5
449.117	785.5
449.338	775.5
449.559	764.5
449.779	753.5
450	747.5
450.221	760.5
450.442	798.5
450.662	791.5
450.883	808.5
451.104	825.5
451.324	835.5
451.545	807.5
451.766	799.5
451.986	815.5
452.207	771.5
452.428	793.5
452.648	791.5
452.869	738.5
453.089	751.5
453.31	759.5
453.53	764.5
453.751	772.5
453.971	777.5
454.192	745.5
454.412	749.5
454.633	756.5
454.853	739.5
455.073	754.5
455.294	769.5
455.514	752.5
455.734	752.5
455.955	735.5
456.175	703.5
456.395	720.5
456.616	717.5
456.836	703.5
457.056	733.5
457.276	696.5
457.497	718.5
457.717	711.5
457.937	756.5
458.157	745.5
458.377	714.5
458.598	775.5
458.818	785.5
459.038	781.5
459.258	811.5
459.478	841.5
459.698	864.5
459.918	915.5
460.138	926.5
460.358	985.5
460.578	989.5
460.798	1014.5
461.018	1050.5
461.238	1029.5
461.458	1014.5
461.678	1000.5
461.898	1023.5
462.118	999.5
462.338	1054.5
462.558	1087.5
462.777	1120.5
462.997	1239.5
463.217	1373.5
463.437	1384.5
463.657	1259.5
463.876	1204.5
464.096	1141.5
464.316	1194.5
464.536	1200.5
464.755	1125.5
464.975	1100.5
465.195	1057.5
465.414	1000.5
465.634	877.5
465.854	870.5
466.073	866.5
466.293	831.5
466.512	810.5
466.732	836.5
466.951	809.5
467.171	806.5
467.391	819.5
467.61	815.5
467.829	819.5
468.049	812.5
468.268	788.5
468.488	757.5
468.707	788.5
468.927	786.5
469.146	782.5
469.365	780.5
469.585	782.5
469.804	821.5
470.023	839.5
470.243	855.5
470.462	861.5
470.681	864.5
470.901	846.5
471.12	834.5
471.339	822.5
471.558	806.5
471.777	777.5
471.997	802.5
472.216	759.5
472.435	775.5
472.654	748.5
472.873	753.5
473.092	762.5
473.311	757.5
473.53	767.5
473.749	731.5
473.968	730.5
474.187	763.5
474.406	733.5
474.625	748.5
474.844	748.5
475.063	752.5
475.282	755.5
475.501	763.5
475.72	764.5
475.939	756.5
476.158	788.5
476.377	754.5
476.596	792.5
476.814	789.5
477.033	771.5
477.252	807.5
477.471	833.5
477.69	834.5
477.908	853.5
478.127	888.5
478.346	895.5
478.564	925.5
478.783	906.5
479.002	934.5
479.22	929.5
479.439	924.5
479.658	932.5
479.876	935.5
480.095	931.5
480.313	1001.5
480.532	1020.5
480.751	1023.5
480.969	963.5
481.188	916.5
481.406	927.5
481.624	867.5
481.843	844.5
482.061	847.5
482.28	849.5
482.498	817.5
482.717	831.5
482.935	869.5
483.153	882.5
483.372	831.5
483.59	864.5
483.808	842.5
484.027	844.5
484.245	860.5
484.463	870.5
484.681	887.5
484.9	891.5
485.118	866.5
485.336	857.5
485.554	876.5
485.772	905.5
485.99	893.5
486.209	908.5
486.427	921.5
486.645	929.5
486.863	916.5
487.081	913.5
487.299	881.5
487.517	904.5
487.735	897.5
487.953	911.5
488.171	882.5
488.389	881.5
488.607	876.5
488.825	877.5
489.043	856.5
489.261	886.5
489.479	907.5
489.696	898.5
489.914	892.5
490.132	861.5
490.35	885.5
490.568	908.5
490.786	905.5
491.003	917.5
491.221	875.5
491.439	885.5
491.657	909.5
491.874	885.5
492.092	903.5
492.31	920.5
492.527	891.5
492.745	916.5
492.963	911.5
493.18	937.5
493.398	931.5
493.615	932.5
493.833	922.5
494.05	935.5
494.268	945.5
494.485	950.5
494.703	940.5
494.92	952.5
495.138	936.5
495.355	951.5
495.573	954.5
495.79	961.5
496.008	951.5
496.225	947.5
496.442	940.5
496.66	992.5
496.877	964.5
497.094	996.5
497.312	1012.5
497.529	1039.5
497.746	1075.5
497.963	1079.5
498.181	1120.5
498.398	1170.5
498.615	1259.5
498.832	1322.5
499.049	1422.5
499.267	1541.5
499.484	1726.5
499.701	1934.5
499.918	2131.5
500.135	2465.5
500.352	2882.5
500.569	3093.5
500.786	3010.5
501.003	2801.5
501.22	2460.5
501.437	2135.5
501.654	1851.5
501.871	1668.5
502.088	1535.5
502.305	1399.5
502.522	1338.5
502.739	1281.5
502.956	1246.5
503.172	1180.5
503.389	1138.5
503.606	1056.5
503.823	1073.5
504.04	1078.5
504.256	1113.5
504.473	1102.5
504.69	1158.5
504.907	1152.5
505.123	1067.5
505.34	972.5
505.557	940.5
505.773	912.5
505.99	911.5
506.207	866.5
506.423	879.5
506.64	830.5
506.856	842.5
507.073	833.5
507.289	859.5
507.506	855.5
507.722	849.5
507.939	833.5
508.155	807.5
508.372	811.5
508.588	797.5
508.805	819.5
509.021	825.5
509.238	786.5
509.454	767.5
509.67	788.5
509.887	794.5
510.103	798.5
510.319	781.5
510.536	743.5
510.752	745.5
510.968	794.5
511.184	747.5
511.401	757.5
511.617	787.5
511.833	763.5
512.049	765.5
512.265	769.5
512.481	767.5
512.698	757.5
512.914	763.5
513.13	772.5
513.346	781.5
513.562	785.5
513.778	761.5
513.994	765.5
514.21	761.5
514.426	786.5
514.642	792.5
514.858	795.5
515.074	769.5
515.29	810.5
515.506	816.5
515.721	837.5
515.937	819.5
516.153	839.5
516.369	843.5
516.585	862.5
516.801	900.5
517.016	946.5
517.232	969.5
517.448	999.5
517.664	1086.5
517.879	1092.5
518.095	1129.5
518.311	1085.5
518.527	1031.5
518.742	982.5
518.958	930.5
519.173	885.5
519.389	892.5
519.605	851.5
519.82	833.5
520.036	808.5
520.251	780.5
520.467	786.5
520.682	800.5
520.898	795.5
521.113	741.5
521.329	753.5
521.544	739.5
521.76	749.5
521.975	745.5
522.19	741.5
522.406	740.5
522.621	700.5
522.836	707.5
523.052	727.5
523.267	697.5
523.482	723.5
523.698	715.5
523.913	708.5
524.128	716.5
524.343	701.5
524.559	735.5
524.774	691.5
524.989	707.5
525.204	727.5
525.419	688.5
525.634	709.5
525.849	690.5
526.064	708.5
526.28	690.5
526.495	687.5
526.71	702.5
526.925	697.5
527.14	699.5
527.355	708.5
527.57	695.5
527.785	672.5
527.999	738.5
528.214	688.5
528.429	684.5
528.644	699.5
528.859	701.5
529.074	703.5
529.289	709.5
529.503	716.5
529.718	703.5
529.933	693.5
530.148	693.5
530.363	692.5
530.577	709.5
530.792	677.5
531.007	666.5
531.221	712.5
531.436	679.5
531.651	684.5
531.865	705.5
532.08	722.5
532.295	697.5
532.509	695.5
532.724	674.5
532.938	698.5
533.153	721.5
533.367	697.5
533.582	696.5
533.796	701.5
534.011	697.5
534.225	706.5
534.44	699.5
534.654	700.5
534.868	679.5
535.083	675.5
535.297	655.5
535.511	650.5
535.726	668.5
535.94	669.5
536.154	668.5
536.369	668.5
536.583	637.5
536.797	670.5
537.011	663.5
537.225	643.5
537.44	669.5
537.654	639.5
537.868	638.5
538.082	627.5
538.296	631.5
538.51	636.5
538.724	639.5
538.938	633.5
539.153	644.5
539.367	637.5
539.581	622.5
539.795	623.5
540.009	638.5
540.222	619.5
540.436	609.5
540.65	627.5
540.864	629.5
541.078	613.5
541.292	643.5
541.506	656.5
541.72	629.5
541.934	635.5
542.147	635.5
542.361	611.5
542.575	618.5
542.789	605.5
543.002	609.5
543.216	605.5
543.43	610.5
543.644	611.5
543.857	625.5
544.071	600.5
544.285	635.5
544.498	610.5
544.712	639.5
544.925	629.5
545.139	623.5
545.352	658.5
545.566	653.5
545.779	649.5
545.993	649.5
546.206	641.5
546.42	644.5
546.633	625.5
546.847	641.5
547.06	639.5
547.274	604.5
547.487	622.5
547.7	627.5
547.914	645.5
548.127	657.5
548.34	663.5
548.554	631.5
548.767	635.5
548.98	616.5
549.193	645.5
549.407	647.5
549.62	689.5
549.833	658.5
550.046	654.5
550.259	654.5
550.473	648.5
550.686	630.5
550.899	644.5
551.112	611.5
551.325	617.5
551.538	630.5
551.751	627.5
551.964	633.5
552.177	631.5
552.39	625.5
552.603	651.5
552.816	660.5
553.029	679.5
553.242	690.5
553.455	720.5
553.667	734.5
553.88	703.5
554.093	676.5
554.306	674.5
554.519	653.5
554.732	657.5
554.944	633.5
555.157	607.5
555.37	633.5
555.583	611.5
555.795	603.5
556.008	583.5
556.221	579.5
556.433	568.5
556.646	575.5
556.859	560.5
557.071	555.5
557.284	567.5
557.496	577.5
557.709	547.5
557.921	550.5
558.134	547.5
558.346	556.5
558.559	547.5
558.771	535.5
558.984	544.5
559.196	536.5
559.409	534.5
559.621	524.5
559.833	525.5
560.046	536.5
560.258	556.5
560.47	532.5
560.683	541.5
560.895	535.5
561.107	522.5
561.32	529.5
561.532	530.5
561.744	544.5
561.956	540.5
562.168	545.5
562.381	536.5
562.593	519.5
562.805	545.5
563.017	543.5
563.229	537.5
563.441	553.5
563.653	529.5
563.865	554.5
564.077	553.5
564.289	548.5
564.501	570.5
564.713	551.5
564.925	570.5
565.137	589.5
565.349	598.5
565.561	589.5
565.773	589.5
565.985	662.5
566.197	685.5
566.408	753.5
566.62	810.5
566.832	879.5
567.044	903.5
567.255	890.5
567.467	904.5
567.679	952.5
567.891	1045.5
568.102	1083.5
568.314	1011.5
568.526	902.5
568.737	822.5
568.949	769.5
569.161	665.5
569.372	645.5
569.584	603.5
569.795	583.5
570.007	565.5
570.218	556.5
570.43	540.5
570.641	525.5
570.853	548.5
571.064	550.5
571.276	582.5
571.487	576.5
571.698	506.5
571.91	526.5
572.121	484.5
572.333	507.5
572.544	470.5
572.755	467.5
572.966	458.5
573.178	463.5
573.389	477.5
573.6	457.5
573.811	437.5
574.023	448.5
574.234	458.5
574.445	455.5
574.656	447.5
574.867	456.5
575.078	428.5
575.289	419.5
575.501	443.5
575.712	470.5
575.923	451.5
576.134	450.5
576.345	437.5
576.556	437.5
576.767	412.5
576.978	426.5
577.188	419.5
577.399	423.5
577.61	406.5
577.821	389.5
578.032	411.5
578.243	389.5
578.454	411.5
578.665	397.5
578.875	388.5
579.086	396.5
579.297	403.5
579.508	403.5
579.718	415.5
579.929	405.5
580.14	382.5
580.35	388.5
580.561	407.5
580.772	374.5
580.982	374.5
581.193	396.5
581.403	385.5
581.614	400.5
581.825	401.5
582.035	370.5
582.246	371.5
582.456	364.5
582.667	403.5
582.877	387.5
583.087	385.5
583.298	375.5
583.508	383.5
583.719	384.5
583.929	371.5
584.139	370.5
584.35	356.5
584.56	383.5
584.77	371.5
584.981	378.5
585.191	360.5
585.401	363.5
585.611	357.5
585.821	341.5
586.032	375.5
586.242	367.5
586.452	372.5
586.662	370.5
586.872	339.5
587.082	335.5
587.292	361.5
587.502	350.5
587.713	365.5
587.923	358.5
588.133	353.5
588.343	378.5
588.553	359.5
588.762	362.5
588.972	381.5
589.182	369.5
589.392	380.5
589.602	362.5
589.812	381.5
590.022	347.5
590.232	357.5
590.441	367.5
590.651	375.5
590.861	358.5
591.071	366.5
591.281	385.5
591.49	353.5
591.7	376.5
591.91	376.5
592.119	377.5
592.329	379.5
592.539	423.5
592.748	427.5
592.958	441.5
593.167	444.5
593.377	483.5
593.587	482.5
593.796	452.5
594.006	471.5
594.215	490.5
594.424	495.5
594.634	454.5
594.843	445.5
595.053	439.5
595.262	421.5
595.472	391.5
595.681	385.5
595.89	362.5
596.1	377.5
596.309	370.5
596.518	371.5
596.727	346.5
596.937	323.5
597.146	334.5
597.355	344.5
597.564	329.5
597.774	326.5
597.983	334.5
598.192	308.5
598.401	342.5
598.61	313.5
598.819	331.5
599.028	317.5
599.237	323.5
599.446	321.5
599.655	321.5
599.864	327.5
600.073	340.5
600.282	315.5
600.491	315.5
600.7	296.5
600.909	289.5
601.118	312.5
601.327	299.5
601.536	292.5
601.745	297.5
601.953	324.5
602.162	309.5
602.371	285.5
602.58	297.5
602.789	289.5
602.997	312.5
603.206	313.5
603.415	298.5
603.623	276.5
603.832	296.5
604.041	317.5
604.249	292.5
604.458	285.5
604.666	273.5
604.875	283.5
605.084	292.5
605.292	290.5
605.501	305.5
605.709	281.5
605.918	274.5
606.126	282.5
606.334	288.5
606.543	272.5
606.751	269.5
606.96	283.5
607.168	285.5
607.376	270.5
607.585	307.5
607.793	280.5
608.001	270.5
608.21	274.5
608.418	283.5
608.626	279.5
608.834	277.5
609.043	272.5
609.251	276.5
609.459	260.5
609.667	281.5
609.875	260.5
610.083	279.5
610.291	289.5
610.499	266.5
610.707	291.5
610.916	289.5
611.124	272.5
611.332	270.5
611.54	256.5
611.748	267.5
611.955	259.5
612.163	267.5
612.371	276.5
612.579	284.5
612.787	264.5
612.995	270.5
613.203	281.5
613.411	277.5
613.618	268.5
613.826	275.5
614.034	267.5
614.242	268.5
614.449	261.5
614.657	263.5
614.865	260.5
615.072	271.5
615.28	268.5
615.488	269.5
615.695	270.5
615.903	263.5
616.111	273.5
616.318	279.5
616.526	280.5
616.733	277.5
616.941	274.5
617.148	282.5
617.356	277.5
617.563	271.5
617.771	286.5
617.978	264.5
618.185	267.5
618.393	271.5
618.6	253.5
618.807	262.5
619.015	262.5
619.222	269.5
619.429	264.5
619.637	267.5
619.844	260.5
620.051	243.5
620.258	259.5
620.466	246.5
620.673	244.5
620.88	243.5
621.087	248.5
621.294	241.5
621.501	246.5
621.708	250.5
621.915	272.5
622.122	241.5
622.329	244.5
622.536	245.5
622.743	240.5
622.95	260.5
623.157	269.5
623.364	247.5
623.571	237.5
623.778	244.5
623.985	253.5
624.192	237.5
624.399	237.5
624.606	248.5
624.812	232.5
625.019	232.5
625.226	239.5
625.433	254.5
625.639	251.5
625.846	252.5
626.053	231.5
626.259	244.5
626.466	228.5
626.673	225.5
626.879	225.5
627.086	223.5
627.293	236.5
627.499	227.5
627.706	228.5
627.912	236.5
628.119	211.5
628.325	217.5
628.532	221.5
628.738	224.5
628.945	227.5
629.151	221.5
629.357	232.5
629.564	219.5
629.77	224.5
629.976	233.5
630.183	206.5
630.389	205.5
630.595	235.5
630.802	199.5
631.008	217.5
631.214	211.5
631.42	212.5
631.627	217.5
631.833	201.5
632.039	202.5
632.245	217.5
632.451	188.5
632.657	199.5
632.863	227.5
633.069	209.5
633.275	204.5
633.481	191.5
633.688	200.5
633.893	203.5
634.099	204.5
634.305	218.5
634.511	204.5
634.717	197.5
634.923	193.5
635.129	195.5
635.335	205.5
635.541	204.5
635.747	194.5
635.952	197.5
636.158	205.5
636.364	192.5
636.57	197.5
636.775	191.5
636.981	201.5
637.187	181.5
637.392	188.5
637.598	191.5
637.804	187.5
638.009	201.5
638.215	209.5
638.421	190.5
638.626	179.5
638.832	192.5
639.037	199.5
639.243	186.5
639.448	173.5
639.654	186.5
639.859	179.5
640.065	188.5
640.27	193.5
640.475	183.5
640.681	209.5
640.886	202.5
641.091	179.5
641.297	183.5
641.502	176.5
641.707	179.5
641.913	181.5
642.118	191.5
642.323	177.5
642.528	189.5
642.733	192.5
642.939	181.5
643.144	179.5
643.349	188.5
643.554	185.5
643.759	194.5
643.964	188.5
644.169	182.5
644.374	176.5
644.579	193.5
644.784	167.5
644.989	179.5
645.194	169.5
645.399	177.5
645.604	181.5
645.809	204.5
646.014	170.5
646.219	163.5
646.423	172.5
646.628	172.5
646.833	179.5
647.038	180.5
647.243	185.5
647.447	175.5
647.652	175.5
647.857	165.5
648.062	199.5
648.266	197.5
648.471	198.5
648.676	202.5
648.88	179.5
649.085	182.5
649.289	168.5
649.494	161.5
649.698	189.5
649.903	161.5
650.107	165.5
650.312	170.5
650.516	171.5
650.721	151.5
650.925	159.5
651.13	176.5
651.334	161.5
651.539	161.5
651.743	161.5
651.947	143.5
652.152	147.5
652.356	164.5
652.56	155.5
652.764	157.5
652.969	138.5
653.173	130.5
653.377	141.5
653.581	148.5
653.785	153.5
653.99	140.5
654.194	140.5
654.398	127.5
654.602	125.5
654.806	130.5
655.01	123.5
655.214	129.5
655.418	133.5
655.622	138.5
655.826	111.5
656.03	129.5
656.234	124.5
656.438	132.5
656.642	124.5
656.846	128.5
657.049	125.5
657.253	123.5
657.457	115.5
657.661	119.5
657.865	116.5
658.068	114.5
658.272	100.5
658.476	106.5
658.68	112.5
658.883	97.5
659.087	89.5
659.291	106.5
659.494	99.5
659.698	104.5
659.901	97.5
660.105	90.5
660.309	108.5
660.512	83.5
660.716	108.5
660.919	95.5
661.123	99.5
661.326	91.5
661.53	98.5
661.733	100.5
661.936	96.5
662.14	71.5
662.343	80.5
662.546	100.5
662.75	84.5
662.953	88.5
663.156	81.5
663.36	73.5
663.563	74.5
663.766	78.5
663.969	79.5
664.173	90.5
664.376	81.5
664.579	83.5
664.782	85.5
664.985	82.5
665.188	77.5
665.391	85.5
665.594	83.5
665.797	81.5
666	86.5
666.203	72.5
666.406	87.5
666.609	81.5
666.812	96.5
667.015	77.5
667.218	84.5
667.421	69.5
667.624	81.5
667.827	92.5
668.03	72.5
668.232	75.5
668.435	75.5
668.638	74.5
668.841	79.5
669.043	73.5
669.246	72.5
669.449	82.5
669.651	97.5
669.854	84.5
670.057	71.5
670.259	73.5
670.462	85.5
670.665	84.5
670.867	71.5
671.07	89.5
671.272	77.5
671.475	94.5
671.677	84.5
671.88	96.5
672.082	82.5
672.284	95.5
672.487	90.5
672.689	69.5
672.892	75.5
