Data from NiCl2@0.125M.TitratingCurve.Agarose3%dH2O.NegLispCup.LampEnergy10.LIBS07252019_HRD10591_18-27-33-575.txt Node
Date: Thu Jul 25 18:27:33 EDT 2019
User: cochatt
Spectrometer: HR+D1059
Trigger mode: 1
Integration Time (sec): 1.000000E-1
Scans to average: 1
Electric dark correction enabled: true
Nonlinearity correction enabled: false
Boxcar width: 0
XAxis mode: Wavelengths
Number of Pixels in Spectrum: 2048
>>>>>Begin Spectral Data<<<<<
223.165	-13.94
223.4	-13.94
223.635	-13.94
223.869	-23.94
224.104	-22.94
224.338	2.06
224.573	-17.94
224.808	-5.94
225.042	-3.94
225.277	-13.94
225.511	-9.94
225.746	-0.94
225.98	4.06
226.215	7.06
226.449	24.06
226.683	19.06
226.918	23.06
227.152	34.06
227.387	16.06
227.621	32.06
227.856	50.06
228.09	57.06
228.324	36.06
228.559	73.06
228.793	63.06
229.027	134.06
229.262	146.06
229.496	142.06
229.73	156.06
229.964	168.06
230.199	152.06
230.433	160.06
230.667	156.06
230.901	162.06
231.136	165.06
231.37	171.06
231.604	166.06
231.838	164.06
232.072	166.06
232.306	185.06
232.541	180.06
232.775	185.06
233.009	176.06
233.243	192.06
233.477	178.06
233.711	172.06
233.945	180.06
234.179	200.06
234.413	176.06
234.647	202.06
234.881	202.06
235.115	199.06
235.349	191.06
235.583	201.06
235.817	197.06
236.051	197.06
236.285	187.06
236.519	197.06
236.753	194.06
236.987	195.06
237.221	203.06
237.455	194.06
237.689	200.06
237.922	205.06
238.156	201.06
238.39	233.06
238.624	204.06
238.858	219.06
239.091	223.06
239.325	221.06
239.559	227.06
239.793	240.06
240.027	217.06
240.26	240.06
240.494	252.06
240.728	232.06
240.961	226.06
241.195	244.06
241.429	252.06
241.662	256.06
241.896	245.06
242.13	256.06
242.363	266.06
242.597	278.06
242.83	265.06
243.064	250.06
243.298	297.06
243.531	280.06
243.765	288.06
243.998	284.06
244.232	276.06
244.465	266.06
244.699	280.06
244.932	287.06
245.166	283.06
245.399	297.06
245.633	280.06
245.866	283.06
246.099	291.06
246.333	309.06
246.566	299.06
246.8	292.06
247.033	297.06
247.266	301.06
247.5	297.06
247.733	299.06
247.966	325.06
248.2	322.06
248.433	332.06
248.666	325.06
248.899	308.06
249.133	332.06
249.366	336.06
249.599	317.06
249.832	333.06
250.066	344.06
250.299	354.06
250.532	333.06
250.765	339.06
250.998	348.06
251.231	350.06
251.465	349.06
251.698	359.06
251.931	357.06
252.164	364.06
252.397	355.06
252.63	370.06
252.863	370.06
253.096	361.06
253.329	380.06
253.562	381.06
253.795	385.06
254.028	363.06
254.261	384.06
254.494	372.06
254.727	374.06
254.96	365.06
255.193	371.06
255.426	400.06
255.659	364.06
255.892	394.06
256.124	394.06
256.357	402.06
256.59	406.06
256.823	397.06
257.056	391.06
257.289	384.06
257.521	398.06
257.754	412.06
257.987	398.06
258.22	413.06
258.452	396.06
258.685	420.06
258.918	408.06
259.151	417.06
259.383	423.06
259.616	418.06
259.849	421.06
260.081	433.06
260.314	421.06
260.547	442.06
260.779	407.06
261.012	429.06
261.244	442.06
261.477	429.06
261.71	432.06
261.942	460.06
262.175	436.06
262.407	451.06
262.64	454.06
262.872	436.06
263.105	463.06
263.337	452.06
263.57	450.06
263.802	462.06
264.035	460.06
264.267	480.06
264.499	490.06
264.732	502.06
264.964	469.06
265.197	486.06
265.429	476.06
265.661	465.06
265.894	477.06
266.126	488.06
266.358	493.06
266.591	484.06
266.823	470.06
267.055	471.06
267.287	481.06
267.52	501.06
267.752	501.06
267.984	502.06
268.216	483.06
268.448	526.06
268.681	516.06
268.913	513.06
269.145	513.06
269.377	499.06
269.609	487.06
269.841	538.06
270.073	524.06
270.306	502.06
270.538	519.06
270.77	526.06
271.002	512.06
271.234	541.06
271.466	559.06
271.698	520.06
271.93	536.06
272.162	530.06
272.394	534.06
272.626	529.06
272.858	561.06
273.09	553.06
273.322	555.06
273.553	577.06
273.785	581.06
274.017	569.06
274.249	558.06
274.481	571.06
274.713	581.06
274.945	579.06
275.176	597.06
275.408	571.06
275.64	572.06
275.872	597.06
276.104	593.06
276.335	586.06
276.567	584.06
276.799	611.06
277.031	590.06
277.262	601.06
277.494	612.06
277.726	570.06
277.957	568.06
278.189	604.06
278.421	602.06
278.652	602.06
278.884	633.06
279.115	615.06
279.347	622.06
279.579	630.06
279.81	638.06
280.042	608.06
280.273	640.06
280.505	642.06
280.736	638.06
280.968	620.06
281.199	656.06
281.431	630.06
281.662	645.06
281.894	640.06
282.125	645.06
282.356	666.06
282.588	654.06
282.819	653.06
283.051	665.06
283.282	654.06
283.513	661.06
283.745	663.06
283.976	644.06
284.207	683.06
284.439	676.06
284.67	671.06
284.901	698.06
285.132	679.06
285.364	665.06
285.595	696.06
285.826	703.06
286.057	707.06
286.288	693.06
286.52	705.06
286.751	710.06
286.982	712.06
287.213	724.06
287.444	728.06
287.675	714.06
287.906	726.06
288.138	722.06
288.369	736.06
288.6	748.06
288.831	720.06
289.062	732.06
289.293	709.06
289.524	739.06
289.755	750.06
289.986	722.06
290.217	717.06
290.448	733.06
290.679	728.06
290.91	745.06
291.141	739.06
291.371	723.06
291.602	764.06
291.833	760.06
292.064	729.06
292.295	745.06
292.526	757.06
292.757	734.06
292.987	734.06
293.218	743.06
293.449	737.06
293.68	756.06
293.91	756.06
294.141	744.06
294.372	759.06
294.603	760.06
294.833	756.06
295.064	742.06
295.295	755.06
295.525	764.06
295.756	769.06
295.987	753.06
296.217	756.06
296.448	786.06
296.679	806.06
296.909	768.06
297.14	778.06
297.37	772.06
297.601	808.06
297.831	797.06
298.062	807.06
298.292	818.06
298.523	833.06
298.753	808.06
298.984	797.06
299.214	808.06
299.445	814.06
299.675	816.06
299.905	820.06
300.136	809.06
300.366	811.06
300.597	804.06
300.827	853.06
301.057	860.06
301.288	862.06
301.518	881.06
301.748	861.06
301.979	875.06
302.209	860.06
302.439	850.06
302.669	844.06
302.9	826.06
303.13	820.06
303.36	837.06
303.59	820.06
303.82	825.06
304.051	831.06
304.281	865.06
304.511	837.06
304.741	837.06
304.971	824.06
305.201	837.06
305.431	818.06
305.661	846.06
305.891	842.06
306.121	806.06
306.352	818.06
306.582	828.06
306.812	815.06
307.042	827.06
307.272	827.06
307.502	814.06
307.731	820.06
307.961	827.06
308.191	811.06
308.421	803.06
308.651	814.06
308.881	829.06
309.111	811.06
309.341	833.06
309.571	845.06
309.8	856.06
310.03	823.06
310.26	804.06
310.49	821.06
310.72	853.06
310.949	835.06
311.179	854.06
311.409	835.06
311.639	832.06
311.868	853.06
312.098	863.06
312.328	895.06
312.557	866.06
312.787	883.06
313.017	860.06
313.246	893.06
313.476	877.06
313.706	888.06
313.935	883.06
314.165	921.06
314.394	896.06
314.624	900.06
314.853	882.06
315.083	902.06
315.312	890.06
315.542	890.06
315.771	880.06
316.001	890.06
316.23	858.06
316.46	846.06
316.689	867.06
316.919	880.06
317.148	874.06
317.377	899.06
317.607	870.06
317.836	880.06
318.065	870.06
318.295	898.06
318.524	866.06
318.753	883.06
318.983	855.06
319.212	865.06
319.441	900.06
319.67	850.06
319.9	838.06
320.129	891.06
320.358	898.06
320.587	854.06
320.816	880.06
321.046	885.06
321.275	880.06
321.504	881.06
321.733	908.06
321.962	898.06
322.191	874.06
322.42	867.06
322.649	868.06
322.878	874.06
323.108	869.06
323.337	918.06
323.566	873.06
323.795	891.06
324.024	889.06
324.253	919.06
324.482	906.06
324.71	893.06
324.939	930.06
325.168	926.06
325.397	949.06
325.626	952.06
325.855	946.06
326.084	960.06
326.313	966.06
326.542	970.06
326.77	965.06
326.999	944.06
327.228	922.06
327.457	962.06
327.686	926.06
327.914	940.06
328.143	981.06
328.372	979.06
328.6	964.06
328.829	944.06
329.058	965.06
329.287	974.06
329.515	980.06
329.744	957.06
329.972	962.06
330.201	972.06
330.43	969.06
330.658	971.06
330.887	1009.06
331.115	1004.06
331.344	1009.06
331.572	1024.06
331.801	1072.06
332.03	1092.06
332.258	1083.06
332.486	1140.06
332.715	1138.06
332.943	1210.06
333.172	1269.06
333.4	1349.06
333.629	1346.06
333.857	1336.06
334.085	1304.06
334.314	1325.06
334.542	1294.06
334.771	1239.06
334.999	1208.06
335.227	1242.06
335.455	1221.06
335.684	1195.06
335.912	1198.06
336.14	1159.06
336.369	1153.06
336.597	1189.06
336.825	1153.06
337.053	1160.06
337.281	1120.06
337.51	1092.06
337.738	1097.06
337.966	1068.06
338.194	1084.06
338.422	1064.06
338.65	1063.06
338.878	1027.06
339.106	1046.06
339.334	1101.06
339.562	1043.06
339.79	1033.06
340.018	1008.06
340.246	998.06
340.474	994.06
340.702	1018.06
340.93	1021.06
341.158	1008.06
341.386	1018.06
341.614	996.06
341.842	997.06
342.07	1012.06
342.298	1024.06
342.526	985.06
342.754	1020.06
342.981	1005.06
343.209	1013.06
343.437	1078.06
343.665	1133.06
343.893	1223.06
344.12	1290.06
344.348	1210.06
344.576	1126.06
344.804	1072.06
345.031	1048.06
345.259	1022.06
345.487	992.06
345.714	984.06
345.942	961.06
346.17	992.06
346.397	972.06
346.625	966.06
346.853	947.06
347.08	955.06
347.308	955.06
347.535	971.06
347.763	982.06
347.99	963.06
348.218	964.06
348.445	962.06
348.673	956.06
348.9	949.06
349.128	932.06
349.355	930.06
349.583	973.06
349.81	978.06
350.037	954.06
350.265	901.06
350.492	930.06
350.72	916.06
350.947	936.06
351.174	946.06
351.402	922.06
351.629	892.06
351.856	914.06
352.083	909.06
352.311	939.06
352.538	917.06
352.765	941.06
352.992	907.06
353.22	906.06
353.447	914.06
353.674	932.06
353.901	924.06
354.128	927.06
354.355	891.06
354.583	909.06
354.81	937.06
355.037	932.06
355.264	929.06
355.491	939.06
355.718	949.06
355.945	917.06
356.172	955.06
356.399	931.06
356.626	936.06
356.853	935.06
357.08	932.06
357.307	940.06
357.534	925.06
357.761	932.06
357.988	932.06
358.215	933.06
358.441	928.06
358.668	915.06
358.895	946.06
359.122	932.06
359.349	902.06
359.576	929.06
359.802	923.06
360.029	919.06
360.256	952.06
360.483	954.06
360.709	927.06
360.936	925.06
361.163	915.06
361.39	941.06
361.616	881.06
361.843	936.06
362.07	937.06
362.296	926.06
362.523	948.06
362.749	939.06
362.976	921.06
363.203	912.06
363.429	922.06
363.656	914.06
363.882	938.06
364.109	938.06
364.335	919.06
364.562	909.06
364.788	933.06
365.015	937.06
365.241	909.06
365.468	921.06
365.694	924.06
365.92	918.06
366.147	937.06
366.373	945.06
366.599	907.06
366.826	930.06
367.052	908.06
367.278	926.06
367.505	939.06
367.731	952.06
367.957	918.06
368.184	949.06
368.41	934.06
368.636	917.06
368.862	944.06
369.089	975.06
369.315	970.06
369.541	940.06
369.767	962.06
369.993	941.06
370.219	979.06
370.445	988.06
370.672	1010.06
370.898	993.06
371.124	1011.06
371.35	1012.06
371.576	1026.06
371.802	999.06
372.028	1005.06
372.254	1035.06
372.48	1026.06
372.706	1042.06
372.932	1070.06
373.158	1066.06
373.384	1031.06
373.61	1015.06
373.835	1020.06
374.061	1025.06
374.287	1022.06
374.513	1034.06
374.739	1074.06
374.965	1145.06
375.191	1156.06
375.416	1128.06
375.642	1101.06
375.868	1086.06
376.094	1063.06
376.319	1052.06
376.545	1033.06
376.771	1024.06
376.997	1017.06
377.222	1012.06
377.448	1019.06
377.674	1018.06
377.899	1034.06
378.125	983.06
378.35	987.06
378.576	1003.06
378.802	997.06
379.027	969.06
379.253	976.06
379.478	1024.06
379.704	987.06
379.929	1026.06
380.155	999.06
380.38	991.06
380.606	990.06
380.831	974.06
381.057	1005.06
381.282	1016.06
381.507	1012.06
381.733	1049.06
381.958	1049.06
382.184	1029.06
382.409	1051.06
382.634	1068.06
382.86	1074.06
383.085	1071.06
383.31	1082.06
383.535	1115.06
383.761	1118.06
383.986	1149.06
384.211	1192.06
384.436	1197.06
384.662	1223.06
384.887	1242.06
385.112	1211.06
385.337	1244.06
385.562	1229.06
385.787	1252.06
386.013	1260.06
386.238	1268.06
386.463	1248.06
386.688	1233.06
386.913	1242.06
387.138	1198.06
387.363	1226.06
387.588	1197.06
387.813	1218.06
388.038	1229.06
388.263	1212.06
388.488	1225.06
388.713	1242.06
388.938	1226.06
389.163	1161.06
389.387	1186.06
389.612	1188.06
389.837	1205.06
390.062	1195.06
390.287	1228.06
390.512	1196.06
390.736	1225.06
390.961	1264.06
391.186	1266.06
391.411	1320.06
391.636	1332.06
391.86	1408.06
392.085	1446.06
392.31	1426.06
392.534	1358.06
392.759	1326.06
392.984	1284.06
393.208	1301.06
393.433	1315.06
393.658	1306.06
393.882	1308.06
394.107	1319.06
394.331	1329.06
394.556	1361.06
394.78	1347.06
395.005	1316.06
395.229	1332.06
395.454	1379.06
395.678	1413.06
395.903	1430.06
396.127	1391.06
396.352	1310.06
396.576	1286.06
396.801	1291.06
397.025	1344.06
397.249	1381.06
397.474	1369.06
397.698	1364.06
397.922	1391.06
398.147	1421.06
398.371	1445.06
398.595	1451.06
398.82	1541.06
399.044	1676.06
399.268	1844.06
399.492	2231.06
399.717	2533.06
399.941	2485.06
400.165	2128.06
400.389	1908.06
400.613	1760.06
400.837	1640.06
401.062	1609.06
401.286	1585.06
401.51	1588.06
401.734	1542.06
401.958	1576.06
402.182	1600.06
402.406	1611.06
402.63	1629.06
402.854	1653.06
403.078	1703.06
403.302	1712.06
403.526	1833.06
403.75	1887.06
403.974	1874.06
404.198	1876.06
404.422	1864.06
404.645	1876.06
404.869	1801.06
405.093	1804.06
405.317	1794.06
405.541	1758.06
405.765	1726.06
405.988	1701.06
406.212	1706.06
406.436	1729.06
406.66	1758.06
406.883	1801.06
407.107	1927.06
407.331	1986.06
407.555	2052.06
407.778	2033.06
408.002	1947.06
408.226	1898.06
408.449	1921.06
408.673	1807.06
408.896	1776.06
409.12	1723.06
409.344	1752.06
409.567	1764.06
409.791	1754.06
410.014	1776.06
410.238	1703.06
410.461	1736.06
410.685	1754.06
410.908	1629.06
411.132	1639.06
411.355	1605.06
411.578	1589.06
411.802	1615.06
412.025	1655.06
412.249	1667.06
412.472	1617.06
412.695	1606.06
412.919	1564.06
413.142	1565.06
413.365	1529.06
413.589	1553.06
413.812	1529.06
414.035	1517.06
414.258	1576.06
414.482	1544.06
414.705	1557.06
414.928	1636.06
415.151	1595.06
415.374	1581.06
415.597	1563.06
415.821	1480.06
416.044	1513.06
416.267	1528.06
416.49	1514.06
416.713	1479.06
416.936	1530.06
417.159	1510.06
417.382	1502.06
417.605	1525.06
417.828	1554.06
418.051	1584.06
418.274	1570.06
418.497	1561.06
418.72	1585.06
418.943	1579.06
419.166	1677.06
419.389	1806.06
419.611	1734.06
419.834	1688.06
420.057	1632.06
420.28	1584.06
420.503	1543.06
420.726	1521.06
420.948	1540.06
421.171	1523.06
421.394	1499.06
421.617	1512.06
421.839	1534.06
422.062	1557.06
422.285	1526.06
422.507	1580.06
422.73	1594.06
422.953	1643.06
423.175	1610.06
423.398	1646.06
423.621	1656.06
423.843	1686.06
424.066	1685.06
424.288	1632.06
424.511	1658.06
424.733	1612.06
424.956	1584.06
425.178	1570.06
425.401	1544.06
425.623	1533.06
425.846	1505.06
426.068	1523.06
426.291	1452.06
426.513	1444.06
426.735	1417.06
426.958	1437.06
427.18	1376.06
427.402	1402.06
427.625	1440.06
427.847	1368.06
428.069	1325.06
428.292	1378.06
428.514	1343.06
428.736	1331.06
428.958	1359.06
429.181	1346.06
429.403	1308.06
429.625	1307.06
429.847	1307.06
430.069	1331.06
430.292	1323.06
430.514	1309.06
430.736	1325.06
430.958	1318.06
431.18	1305.06
431.402	1328.06
431.624	1334.06
431.846	1339.06
432.068	1378.06
432.29	1383.06
432.512	1349.06
432.734	1352.06
432.956	1352.06
433.178	1358.06
433.4	1345.06
433.622	1346.06
433.844	1405.06
434.066	1364.06
434.287	1364.06
434.509	1451.06
434.731	1482.06
434.953	1538.06
435.175	1509.06
435.397	1577.06
435.618	1430.06
435.84	1430.06
436.062	1368.06
436.284	1347.06
436.505	1332.06
436.727	1348.06
436.949	1390.06
437.17	1332.06
437.392	1318.06
437.614	1306.06
437.835	1284.06
438.057	1300.06
438.278	1277.06
438.5	1311.06
438.721	1292.06
438.943	1309.06
439.165	1261.06
439.386	1286.06
439.608	1335.06
439.829	1354.06
440.05	1345.06
440.272	1369.06
440.493	1366.06
440.715	1397.06
440.936	1398.06
441.158	1404.06
441.379	1448.06
441.6	1530.06
441.822	1555.06
442.043	1571.06
442.264	1519.06
442.486	1535.06
442.707	1538.06
442.928	1490.06
443.149	1513.06
443.371	1509.06
443.592	1512.06
443.813	1540.06
444.034	1600.06
444.255	1603.06
444.476	1718.06
444.698	1834.06
444.919	1914.06
445.14	1955.06
445.361	1751.06
445.582	1570.06
445.803	1514.06
446.024	1486.06
446.245	1441.06
446.466	1383.06
446.687	1338.06
446.908	1414.06
447.129	1309.06
447.35	1317.06
447.571	1325.06
447.792	1276.06
448.013	1266.06
448.234	1266.06
448.455	1273.06
448.675	1234.06
448.896	1214.06
449.117	1222.06
449.338	1225.06
449.559	1202.06
449.779	1194.06
450	1217.06
450.221	1228.06
450.442	1242.06
450.662	1229.06
450.883	1254.06
451.104	1233.06
451.324	1214.06
451.545	1239.06
451.766	1257.06
451.986	1235.06
452.207	1240.06
452.428	1231.06
452.648	1233.06
452.869	1173.06
453.089	1184.06
453.31	1232.06
453.53	1188.06
453.751	1197.06
453.971	1204.06
454.192	1176.06
454.412	1167.06
454.633	1133.06
454.853	1170.06
455.073	1141.06
455.294	1167.06
455.514	1150.06
455.734	1135.06
455.955	1133.06
456.175	1141.06
456.395	1154.06
456.616	1131.06
456.836	1110.06
457.056	1122.06
457.276	1096.06
457.497	1178.06
457.717	1130.06
457.937	1139.06
458.157	1178.06
458.377	1176.06
458.598	1196.06
458.818	1230.06
459.038	1280.06
459.258	1347.06
459.478	1383.06
459.698	1385.06
459.918	1417.06
460.138	1506.06
460.358	1606.06
460.578	1618.06
460.798	1622.06
461.018	1617.06
461.238	1600.06
461.458	1614.06
461.678	1611.06
461.898	1634.06
462.118	1643.06
462.338	1700.06
462.558	1752.06
462.777	1820.06
462.997	2011.06
463.217	2254.06
463.437	2244.06
463.657	1947.06
463.876	1942.06
464.096	1873.06
464.316	1897.06
464.536	1873.06
464.755	1817.06
464.975	1756.06
465.195	1648.06
465.414	1592.06
465.634	1438.06
465.854	1432.06
466.073	1401.06
466.293	1323.06
466.512	1328.06
466.732	1292.06
466.951	1265.06
467.171	1266.06
467.391	1294.06
467.61	1264.06
467.829	1272.06
468.049	1276.06
468.268	1221.06
468.488	1232.06
468.707	1226.06
468.927	1218.06
469.146	1237.06
469.365	1259.06
469.585	1246.06
469.804	1288.06
470.023	1318.06
470.243	1333.06
470.462	1330.06
470.681	1350.06
470.901	1308.06
471.12	1321.06
471.339	1282.06
471.558	1242.06
471.777	1228.06
471.997	1246.06
472.216	1221.06
472.435	1204.06
472.654	1196.06
472.873	1188.06
473.092	1186.06
473.311	1184.06
473.53	1186.06
473.749	1173.06
473.968	1179.06
474.187	1203.06
474.406	1169.06
474.625	1170.06
474.844	1198.06
475.063	1184.06
475.282	1170.06
475.501	1189.06
475.72	1207.06
475.939	1197.06
476.158	1230.06
476.377	1224.06
476.596	1215.06
476.814	1236.06
477.033	1250.06
477.252	1275.06
477.471	1312.06
477.69	1330.06
477.908	1403.06
478.127	1396.06
478.346	1445.06
478.564	1464.06
478.783	1443.06
479.002	1540.06
479.22	1517.06
479.439	1494.06
479.658	1475.06
479.876	1477.06
480.095	1509.06
480.313	1621.06
480.532	1641.06
480.751	1610.06
480.969	1547.06
481.188	1487.06
481.406	1452.06
481.624	1391.06
481.843	1400.06
482.061	1350.06
482.28	1335.06
482.498	1359.06
482.717	1352.06
482.935	1346.06
483.153	1352.06
483.372	1365.06
483.59	1318.06
483.808	1388.06
484.027	1354.06
484.245	1373.06
484.463	1346.06
484.681	1383.06
484.9	1386.06
485.118	1377.06
485.336	1394.06
485.554	1410.06
485.772	1413.06
485.99	1409.06
486.209	1402.06
486.427	1404.06
486.645	1449.06
486.863	1398.06
487.081	1440.06
487.299	1432.06
487.517	1405.06
487.735	1427.06
487.953	1427.06
488.171	1436.06
488.389	1400.06
488.607	1395.06
488.825	1376.06
489.043	1388.06
489.261	1409.06
489.479	1405.06
489.696	1396.06
489.914	1415.06
490.132	1408.06
490.35	1424.06
490.568	1426.06
490.786	1397.06
491.003	1435.06
491.221	1429.06
491.439	1429.06
491.657	1429.06
491.874	1436.06
492.092	1430.06
492.31	1442.06
492.527	1478.06
492.745	1441.06
492.963	1438.06
493.18	1472.06
493.398	1472.06
493.615	1478.06
493.833	1466.06
494.05	1480.06
494.268	1501.06
494.485	1543.06
494.703	1540.06
494.92	1517.06
495.138	1502.06
495.355	1466.06
495.573	1498.06
495.79	1499.06
496.008	1515.06
496.225	1552.06
496.442	1544.06
496.66	1599.06
496.877	1607.06
497.094	1592.06
497.312	1636.06
497.529	1684.06
497.746	1717.06
497.963	1782.06
498.181	1836.06
498.398	1924.06
498.615	2078.06
498.832	2197.06
499.049	2364.06
499.267	2599.06
499.484	2840.06
499.701	3155.06
499.918	3554.06
500.135	4073.06
500.352	4756.06
500.569	5019.06
500.786	4859.06
501.003	4494.06
501.22	3964.06
501.437	3488.06
501.654	2966.06
501.871	2778.06
502.088	2444.06
502.305	2310.06
502.522	2220.06
502.739	2097.06
502.956	2041.06
503.172	1913.06
503.389	1846.06
503.606	1765.06
503.823	1746.06
504.04	1747.06
504.256	1764.06
504.473	1852.06
504.69	1877.06
504.907	1795.06
505.123	1667.06
505.34	1605.06
505.557	1504.06
505.773	1453.06
505.99	1464.06
506.207	1412.06
506.423	1387.06
506.64	1373.06
506.856	1373.06
507.073	1324.06
507.289	1317.06
507.506	1316.06
507.722	1350.06
507.939	1317.06
508.155	1284.06
508.372	1260.06
508.588	1278.06
508.805	1264.06
509.021	1277.06
509.238	1276.06
509.454	1246.06
509.67	1244.06
509.887	1216.06
510.103	1222.06
510.319	1205.06
510.536	1164.06
510.752	1207.06
510.968	1210.06
511.184	1161.06
511.401	1225.06
511.617	1211.06
511.833	1187.06
512.049	1219.06
512.265	1184.06
512.481	1204.06
512.698	1210.06
512.914	1180.06
513.13	1140.06
513.346	1196.06
513.562	1206.06
513.778	1185.06
513.994	1192.06
514.21	1221.06
514.426	1228.06
514.642	1211.06
514.858	1220.06
515.074	1246.06
515.29	1242.06
515.506	1249.06
515.721	1294.06
515.937	1308.06
516.153	1321.06
516.369	1341.06
516.585	1360.06
516.801	1443.06
517.016	1490.06
517.232	1611.06
517.448	1671.06
517.664	1742.06
517.879	1789.06
518.095	1771.06
518.311	1696.06
518.527	1626.06
518.742	1558.06
518.958	1463.06
519.173	1441.06
519.389	1357.06
519.605	1324.06
519.82	1294.06
520.036	1299.06
520.251	1214.06
520.467	1238.06
520.682	1210.06
520.898	1197.06
521.113	1218.06
521.329	1195.06
521.544	1144.06
521.76	1151.06
521.975	1171.06
522.19	1117.06
522.406	1142.06
522.621	1128.06
522.836	1144.06
523.052	1120.06
523.267	1113.06
523.482	1133.06
523.698	1113.06
523.913	1093.06
524.128	1136.06
524.343	1112.06
524.559	1096.06
524.774	1113.06
524.989	1118.06
525.204	1122.06
525.419	1064.06
525.634	1096.06
525.849	1075.06
526.064	1106.06
526.28	1081.06
526.495	1080.06
526.71	1100.06
526.925	1091.06
527.14	1088.06
527.355	1091.06
527.57	1066.06
527.785	1089.06
527.999	1078.06
528.214	1090.06
528.429	1043.06
528.644	1088.06
528.859	1069.06
529.074	1076.06
529.289	1127.06
529.503	1094.06
529.718	1095.06
529.933	1052.06
530.148	1089.06
530.363	1056.06
530.577	1059.06
530.792	1074.06
531.007	1085.06
531.221	1074.06
531.436	1094.06
531.651	1077.06
531.865	1074.06
532.08	1101.06
532.295	1095.06
532.509	1054.06
532.724	1088.06
532.938	1084.06
533.153	1082.06
533.367	1054.06
533.582	1060.06
533.796	1067.06
534.011	1079.06
534.225	1064.06
534.44	1059.06
534.654	1047.06
534.868	1056.06
535.083	1057.06
535.297	1052.06
535.511	1048.06
535.726	1037.06
535.94	1009.06
536.154	1016.06
536.369	1032.06
536.583	1028.06
536.797	1002.06
537.011	984.06
537.225	982.06
537.44	987.06
537.654	996.06
537.868	986.06
538.082	985.06
538.296	978.06
538.51	985.06
538.724	985.06
538.938	974.06
539.153	982.06
539.367	960.06
539.581	947.06
539.795	980.06
540.009	941.06
540.222	969.06
540.436	975.06
540.65	917.06
540.864	934.06
541.078	938.06
541.292	965.06
541.506	975.06
541.72	974.06
541.934	950.06
542.147	990.06
542.361	973.06
542.575	969.06
542.789	939.06
543.002	921.06
543.216	954.06
543.43	946.06
543.644	917.06
543.857	919.06
544.071	960.06
544.285	932.06
544.498	954.06
544.712	938.06
544.925	971.06
545.139	968.06
545.352	989.06
545.566	1011.06
545.779	1012.06
545.993	1008.06
546.206	1005.06
546.42	998.06
546.633	995.06
546.847	998.06
547.06	992.06
547.274	990.06
547.487	947.06
547.7	950.06
547.914	989.06
548.127	990.06
548.34	1016.06
548.554	1008.06
548.767	965.06
548.98	964.06
549.193	993.06
549.407	999.06
549.62	1034.06
549.833	1032.06
550.046	1008.06
550.259	1011.06
550.473	998.06
550.686	948.06
550.899	970.06
551.112	973.06
551.325	929.06
551.538	957.06
551.751	943.06
551.964	951.06
552.177	986.06
552.39	993.06
552.603	1001.06
552.816	1053.06
553.029	1078.06
553.242	1079.06
553.455	1090.06
553.667	1133.06
553.88	1084.06
554.093	1063.06
554.306	1026.06
554.519	993.06
554.732	984.06
554.944	968.06
555.157	951.06
555.37	920.06
555.583	911.06
555.795	916.06
556.008	882.06
556.221	877.06
556.433	862.06
556.646	867.06
556.859	871.06
557.071	851.06
557.284	856.06
557.496	849.06
557.709	824.06
557.921	818.06
558.134	815.06
558.346	838.06
558.559	838.06
558.771	818.06
558.984	803.06
559.196	818.06
559.409	808.06
559.621	794.06
559.833	803.06
560.046	812.06
560.258	795.06
560.47	816.06
560.683	818.06
560.895	812.06
561.107	786.06
561.32	795.06
561.532	820.06
561.744	822.06
561.956	794.06
562.168	783.06
562.381	793.06
562.593	804.06
562.805	805.06
563.017	789.06
563.229	801.06
563.441	793.06
563.653	810.06
563.865	808.06
564.077	806.06
564.289	840.06
564.501	853.06
564.713	845.06
564.925	875.06
565.137	894.06
565.349	882.06
565.561	917.06
565.773	965.06
565.985	1008.06
566.197	1010.06
566.408	1162.06
566.62	1292.06
566.832	1401.06
567.044	1432.06
567.255	1369.06
567.467	1418.06
567.679	1530.06
567.891	1664.06
568.102	1718.06
568.314	1651.06
568.526	1420.06
568.737	1302.06
568.949	1190.06
569.161	1089.06
569.372	989.06
569.584	944.06
569.795	895.06
570.007	839.06
570.218	833.06
570.43	846.06
570.641	826.06
570.853	808.06
571.064	857.06
571.276	869.06
571.487	830.06
571.698	811.06
571.91	752.06
572.121	726.06
572.333	739.06
572.544	714.06
572.755	700.06
572.966	701.06
573.178	683.06
573.389	672.06
573.6	659.06
573.811	669.06
574.023	669.06
574.234	677.06
574.445	654.06
574.656	637.06
574.867	666.06
575.078	672.06
575.289	667.06
575.501	643.06
575.712	631.06
575.923	612.06
576.134	628.06
576.345	614.06
576.556	612.06
576.767	616.06
576.978	598.06
577.188	627.06
577.399	608.06
577.61	602.06
577.821	592.06
578.032	606.06
578.243	571.06
578.454	609.06
578.665	576.06
578.875	602.06
579.086	583.06
579.297	589.06
579.508	588.06
579.718	584.06
579.929	571.06
580.14	558.06
580.35	564.06
580.561	562.06
580.772	567.06
580.982	539.06
581.193	561.06
581.403	557.06
581.614	562.06
581.825	567.06
582.035	551.06
582.246	567.06
582.456	582.06
582.667	558.06
582.877	563.06
583.087	556.06
583.298	533.06
583.508	549.06
583.719	544.06
583.929	548.06
584.139	562.06
584.35	519.06
584.56	532.06
584.77	555.06
584.981	552.06
585.191	525.06
585.401	514.06
585.611	513.06
585.821	530.06
586.032	538.06
586.242	523.06
586.452	524.06
586.662	529.06
586.872	544.06
587.082	527.06
587.292	501.06
587.502	516.06
587.713	526.06
587.923	489.06
588.133	514.06
588.343	524.06
588.553	514.06
588.762	513.06
588.972	518.06
589.182	539.06
589.392	520.06
589.602	525.06
589.812	489.06
590.022	546.06
590.232	518.06
590.441	516.06
590.651	518.06
590.861	523.06
591.071	508.06
591.281	533.06
591.49	564.06
591.7	557.06
591.91	580.06
592.119	571.06
592.329	600.06
592.539	584.06
592.748	613.06
592.958	651.06
593.167	662.06
593.377	673.06
593.587	699.06
593.796	697.06
594.006	717.06
594.215	720.06
594.424	692.06
594.634	684.06
594.843	652.06
595.053	599.06
595.262	600.06
595.472	577.06
595.681	581.06
595.89	522.06
596.1	527.06
596.309	486.06
596.518	526.06
596.727	496.06
596.937	487.06
597.146	519.06
597.355	512.06
597.564	478.06
597.774	492.06
597.983	473.06
598.192	446.06
598.401	448.06
598.61	466.06
598.819	453.06
599.028	457.06
599.237	436.06
599.446	443.06
599.655	440.06
599.864	429.06
600.073	440.06
600.282	427.06
600.491	400.06
600.7	436.06
600.909	425.06
601.118	426.06
601.327	437.06
601.536	418.06
601.745	431.06
601.953	428.06
602.162	434.06
602.371	421.06
602.58	406.06
602.789	415.06
602.997	421.06
603.206	422.06
603.415	428.06
603.623	410.06
603.832	432.06
604.041	413.06
604.249	404.06
604.458	392.06
604.666	406.06
604.875	402.06
605.084	408.06
605.292	408.06
605.501	411.06
605.709	404.06
605.918	393.06
606.126	402.06
606.334	391.06
606.543	390.06
606.751	404.06
606.96	390.06
607.168	392.06
607.376	380.06
607.585	394.06
607.793	398.06
608.001	392.06
608.21	388.06
608.418	390.06
608.626	383.06
608.834	391.06
609.043	395.06
609.251	380.06
609.459	383.06
609.667	374.06
609.875	384.06
610.083	383.06
610.291	397.06
610.499	381.06
610.707	368.06
610.916	382.06
611.124	406.06
611.332	379.06
611.54	373.06
611.748	374.06
611.955	383.06
612.163	357.06
612.371	354.06
612.579	369.06
612.787	370.06
612.995	387.06
613.203	379.06
613.411	363.06
613.618	374.06
613.826	364.06
614.034	376.06
614.242	370.06
614.449	351.06
614.657	373.06
614.865	361.06
615.072	356.06
615.28	363.06
615.488	347.06
615.695	365.06
615.903	388.06
616.111	382.06
616.318	366.06
616.526	378.06
616.733	377.06
616.941	356.06
617.148	364.06
617.356	382.06
617.563	374.06
617.771	380.06
617.978	380.06
618.185	374.06
618.393	379.06
618.6	373.06
618.807	386.06
619.015	375.06
619.222	359.06
619.429	361.06
619.637	377.06
619.844	342.06
620.051	368.06
620.258	370.06
620.466	328.06
620.673	355.06
620.88	329.06
621.087	351.06
621.294	347.06
621.501	344.06
621.708	312.06
621.915	353.06
622.122	349.06
622.329	352.06
622.536	334.06
622.743	345.06
622.95	333.06
623.157	325.06
623.364	330.06
623.571	323.06
623.778	319.06
623.985	348.06
624.192	328.06
624.399	333.06
624.606	333.06
624.812	323.06
625.019	316.06
625.226	326.06
625.433	325.06
625.639	316.06
625.846	308.06
626.053	300.06
626.259	306.06
626.466	323.06
626.673	299.06
626.879	295.06
627.086	293.06
627.293	300.06
627.499	317.06
627.706	314.06
627.912	312.06
628.119	325.06
628.325	311.06
628.532	304.06
628.738	317.06
628.945	312.06
629.151	313.06
629.357	316.06
629.564	300.06
629.77	292.06
629.976	282.06
630.183	299.06
630.389	293.06
630.595	274.06
630.802	291.06
631.008	273.06
631.214	295.06
631.42	278.06
631.627	291.06
631.833	282.06
632.039	289.06
632.245	280.06
632.451	267.06
632.657	280.06
632.863	270.06
633.069	280.06
633.275	265.06
633.481	274.06
633.688	292.06
633.893	277.06
634.099	266.06
634.305	288.06
634.511	271.06
634.717	271.06
634.923	249.06
635.129	275.06
635.335	273.06
635.541	291.06
635.747	262.06
635.952	280.06
636.158	266.06
636.364	271.06
636.57	266.06
636.775	285.06
636.981	269.06
637.187	251.06
637.392	278.06
637.598	250.06
637.804	266.06
638.009	249.06
638.215	262.06
638.421	274.06
638.626	245.06
638.832	260.06
639.037	242.06
639.243	237.06
639.448	244.06
639.654	241.06
639.859	231.06
640.065	250.06
640.27	247.06
640.475	267.06
640.681	233.06
640.886	242.06
641.091	225.06
641.297	218.06
641.502	221.06
641.707	224.06
641.913	248.06
642.118	228.06
642.323	228.06
642.528	238.06
642.733	237.06
642.939	219.06
643.144	237.06
643.349	216.06
643.554	220.06
643.759	221.06
643.964	233.06
644.169	243.06
644.374	229.06
644.579	235.06
644.784	233.06
644.989	227.06
645.194	222.06
645.399	231.06
645.604	221.06
645.809	235.06
646.014	239.06
646.219	236.06
646.423	232.06
646.628	263.06
646.833	253.06
647.038	238.06
647.243	243.06
647.447	227.06
647.652	235.06
647.857	274.06
648.062	260.06
648.266	252.06
648.471	253.06
648.676	251.06
648.88	270.06
649.085	248.06
649.289	252.06
649.494	247.06
649.698	210.06
649.903	213.06
650.107	224.06
650.312	217.06
650.516	212.06
650.721	218.06
650.925	211.06
651.13	219.06
651.334	217.06
651.539	188.06
651.743	215.06
651.947	197.06
652.152	202.06
652.356	189.06
652.56	180.06
652.764	186.06
652.969	188.06
653.173	192.06
653.377	190.06
653.581	180.06
653.785	168.06
653.99	190.06
654.194	183.06
654.398	175.06
654.602	170.06
654.806	171.06
655.01	173.06
655.214	157.06
655.418	160.06
655.622	150.06
655.826	166.06
656.03	157.06
656.234	168.06
656.438	144.06
656.642	155.06
656.846	158.06
657.049	157.06
657.253	155.06
657.457	149.06
657.661	137.06
657.865	140.06
658.068	122.06
658.272	126.06
658.476	125.06
658.68	123.06
658.883	105.06
659.087	121.06
659.291	128.06
659.494	122.06
659.698	108.06
659.901	117.06
660.105	106.06
660.309	104.06
660.512	114.06
660.716	102.06
660.919	107.06
661.123	116.06
661.326	97.06
661.53	109.06
661.733	93.06
661.936	90.06
662.14	96.06
662.343	92.06
662.546	96.06
662.75	88.06
662.953	92.06
663.156	83.06
663.36	81.06
663.563	91.06
663.766	97.06
663.969	89.06
664.173	88.06
664.376	74.06
664.579	79.06
664.782	90.06
664.985	86.06
665.188	88.06
665.391	86.06
665.594	94.06
665.797	69.06
666	90.06
666.203	89.06
666.406	83.06
666.609	81.06
666.812	78.06
667.015	92.06
667.218	86.06
667.421	84.06
667.624	70.06
667.827	89.06
668.03	84.06
668.232	80.06
668.435	79.06
668.638	77.06
668.841	86.06
669.043	78.06
669.246	71.06
669.449	76.06
669.651	78.06
669.854	93.06
670.057	85.06
670.259	88.06
670.462	94.06
670.665	65.06
670.867	84.06
671.07	85.06
671.272	90.06
671.475	91.06
671.677	89.06
671.88	83.06
672.082	91.06
672.284	68.06
672.487	78.06
672.689	77.06
672.892	73.06
