Data from NiCl2@0.5M.TitratingCurve.Agarose3%dH2O.NegLispCup.LampEnergy10.LIBS07252019_HRD10591_18-20-23-571.txt Node
Date: Thu Jul 25 18:20:23 EDT 2019
User: cochatt
Spectrometer: HR+D1059
Trigger mode: 1
Integration Time (sec): 1.000000E-1
Scans to average: 1
Electric dark correction enabled: true
Nonlinearity correction enabled: false
Boxcar width: 0
XAxis mode: Wavelengths
Number of Pixels in Spectrum: 2048
>>>>>Begin Spectral Data<<<<<
223.165	-18.31
223.4	-18.31
223.635	-18.31
223.869	-27.31
224.104	-1.31
224.338	-12.31
224.573	-21.31
224.808	-22.31
225.042	-1.31
225.277	-8.31
225.511	-4.31
225.746	0.69
225.98	2.69
226.215	17.69
226.449	15.69
226.683	22.69
226.918	26.69
227.152	30.69
227.387	42.69
227.621	35.69
227.856	34.69
228.09	39.69
228.324	63.69
228.559	55.69
228.793	61.69
229.027	111.69
229.262	93.69
229.496	118.69
229.73	117.69
229.964	119.69
230.199	127.69
230.433	114.69
230.667	133.69
230.901	126.69
231.136	126.69
231.37	132.69
231.604	134.69
231.838	134.69
232.072	139.69
232.306	150.69
232.541	152.69
232.775	147.69
233.009	135.69
233.243	156.69
233.477	135.69
233.711	138.69
233.945	136.69
234.179	167.69
234.413	140.69
234.647	143.69
234.881	139.69
235.115	141.69
235.349	139.69
235.583	142.69
235.817	148.69
236.051	169.69
236.285	154.69
236.519	154.69
236.753	147.69
236.987	134.69
237.221	159.69
237.455	148.69
237.689	159.69
237.922	154.69
238.156	155.69
238.39	150.69
238.624	164.69
238.858	151.69
239.091	165.69
239.325	159.69
239.559	160.69
239.793	172.69
240.027	163.69
240.26	157.69
240.494	183.69
240.728	176.69
240.961	176.69
241.195	167.69
241.429	186.69
241.662	174.69
241.896	175.69
242.13	200.69
242.363	178.69
242.597	182.69
242.83	182.69
243.064	184.69
243.298	183.69
243.531	186.69
243.765	181.69
243.998	197.69
244.232	192.69
244.465	213.69
244.699	181.69
244.932	188.69
245.166	194.69
245.399	203.69
245.633	213.69
245.866	204.69
246.099	193.69
246.333	199.69
246.566	213.69
246.8	211.69
247.033	211.69
247.266	212.69
247.5	209.69
247.733	207.69
247.966	227.69
248.2	235.69
248.433	221.69
248.666	238.69
248.899	221.69
249.133	217.69
249.366	215.69
249.599	226.69
249.832	231.69
250.066	231.69
250.299	230.69
250.532	242.69
250.765	235.69
250.998	245.69
251.231	239.69
251.465	236.69
251.698	237.69
251.931	248.69
252.164	229.69
252.397	227.69
252.63	254.69
252.863	242.69
253.096	244.69
253.329	261.69
253.562	258.69
253.795	245.69
254.028	253.69
254.261	260.69
254.494	268.69
254.727	273.69
254.96	258.69
255.193	266.69
255.426	263.69
255.659	254.69
255.892	261.69
256.124	278.69
256.357	275.69
256.59	253.69
256.823	265.69
257.056	252.69
257.289	259.69
257.521	282.69
257.754	280.69
257.987	275.69
258.22	279.69
258.452	272.69
258.685	272.69
258.918	275.69
259.151	282.69
259.383	310.69
259.616	290.69
259.849	287.69
260.081	284.69
260.314	304.69
260.547	293.69
260.779	279.69
261.012	300.69
261.244	280.69
261.477	294.69
261.71	322.69
261.942	311.69
262.175	302.69
262.407	310.69
262.64	294.69
262.872	306.69
263.105	307.69
263.337	306.69
263.57	321.69
263.802	326.69
264.035	304.69
264.267	322.69
264.499	314.69
264.732	319.69
264.964	324.69
265.197	327.69
265.429	324.69
265.661	324.69
265.894	325.69
266.126	324.69
266.358	331.69
266.591	342.69
266.823	350.69
267.055	323.69
267.287	332.69
267.52	341.69
267.752	324.69
267.984	338.69
268.216	344.69
268.448	335.69
268.681	347.69
268.913	346.69
269.145	345.69
269.377	335.69
269.609	346.69
269.841	340.69
270.073	342.69
270.306	346.69
270.538	360.69
270.77	356.69
271.002	381.69
271.234	365.69
271.466	356.69
271.698	358.69
271.93	372.69
272.162	357.69
272.394	372.69
272.626	370.69
272.858	371.69
273.09	362.69
273.322	369.69
273.553	382.69
273.785	371.69
274.017	373.69
274.249	376.69
274.481	382.69
274.713	363.69
274.945	398.69
275.176	366.69
275.408	382.69
275.64	380.69
275.872	380.69
276.104	401.69
276.335	394.69
276.567	382.69
276.799	369.69
277.031	394.69
277.262	392.69
277.494	397.69
277.726	411.69
277.957	387.69
278.189	380.69
278.421	396.69
278.652	397.69
278.884	408.69
279.115	408.69
279.347	406.69
279.579	418.69
279.81	413.69
280.042	390.69
280.273	419.69
280.505	423.69
280.736	406.69
280.968	405.69
281.199	432.69
281.431	447.69
281.662	436.69
281.894	426.69
282.125	424.69
282.356	415.69
282.588	410.69
282.819	423.69
283.051	430.69
283.282	429.69
283.513	445.69
283.745	436.69
283.976	464.69
284.207	449.69
284.439	427.69
284.67	463.69
284.901	453.69
285.132	459.69
285.364	463.69
285.595	467.69
285.826	454.69
286.057	459.69
286.288	444.69
286.52	444.69
286.751	459.69
286.982	448.69
287.213	466.69
287.444	454.69
287.675	451.69
287.906	476.69
288.138	460.69
288.369	475.69
288.6	471.69
288.831	463.69
289.062	481.69
289.293	490.69
289.524	462.69
289.755	481.69
289.986	483.69
290.217	487.69
290.448	492.69
290.679	473.69
290.91	470.69
291.141	470.69
291.371	495.69
291.602	471.69
291.833	492.69
292.064	470.69
292.295	495.69
292.526	501.69
292.757	472.69
292.987	489.69
293.218	495.69
293.449	485.69
293.68	502.69
293.91	486.69
294.141	508.69
294.372	494.69
294.603	493.69
294.833	505.69
295.064	489.69
295.295	508.69
295.525	488.69
295.756	506.69
295.987	520.69
296.217	518.69
296.448	514.69
296.679	516.69
296.909	515.69
297.14	520.69
297.37	526.69
297.601	520.69
297.831	517.69
298.062	532.69
298.292	531.69
298.523	545.69
298.753	525.69
298.984	526.69
299.214	553.69
299.445	544.69
299.675	528.69
299.905	538.69
300.136	541.69
300.366	545.69
300.597	565.69
300.827	546.69
301.057	562.69
301.288	565.69
301.518	579.69
301.748	554.69
301.979	579.69
302.209	576.69
302.439	552.69
302.669	568.69
302.9	572.69
303.13	529.69
303.36	568.69
303.59	570.69
303.82	591.69
304.051	564.69
304.281	567.69
304.511	557.69
304.741	563.69
304.971	559.69
305.201	555.69
305.431	568.69
305.661	591.69
305.891	557.69
306.121	552.69
306.352	548.69
306.582	558.69
306.812	555.69
307.042	571.69
307.272	570.69
307.502	556.69
307.731	566.69
307.961	564.69
308.191	570.69
308.421	553.69
308.651	548.69
308.881	562.69
309.111	547.69
309.341	552.69
309.571	551.69
309.8	560.69
310.03	562.69
310.26	570.69
310.49	583.69
310.72	573.69
310.949	574.69
311.179	579.69
311.409	584.69
311.639	594.69
311.868	598.69
312.098	594.69
312.328	591.69
312.557	592.69
312.787	586.69
313.017	570.69
313.246	591.69
313.476	591.69
313.706	602.69
313.935	608.69
314.165	607.69
314.394	618.69
314.624	614.69
314.853	590.69
315.083	584.69
315.312	592.69
315.542	610.69
315.771	591.69
316.001	598.69
316.23	601.69
316.46	574.69
316.689	604.69
316.919	595.69
317.148	594.69
317.377	606.69
317.607	590.69
317.836	587.69
318.065	581.69
318.295	582.69
318.524	584.69
318.753	595.69
318.983	604.69
319.212	603.69
319.441	603.69
319.67	608.69
319.9	620.69
320.129	616.69
320.358	604.69
320.587	613.69
320.816	591.69
321.046	616.69
321.275	603.69
321.504	605.69
321.733	606.69
321.962	609.69
322.191	615.69
322.42	612.69
322.649	599.69
322.878	634.69
323.108	598.69
323.337	603.69
323.566	615.69
323.795	621.69
324.024	616.69
324.253	633.69
324.482	622.69
324.71	631.69
324.939	630.69
325.168	630.69
325.397	608.69
325.626	622.69
325.855	651.69
326.084	642.69
326.313	654.69
326.542	650.69
326.77	669.69
326.999	648.69
327.228	636.69
327.457	639.69
327.686	676.69
327.914	658.69
328.143	648.69
328.372	639.69
328.6	646.69
328.829	640.69
329.058	638.69
329.287	651.69
329.515	654.69
329.744	659.69
329.972	661.69
330.201	642.69
330.43	679.69
330.658	655.69
330.887	672.69
331.115	672.69
331.344	668.69
331.572	676.69
331.801	724.69
332.03	703.69
332.258	730.69
332.486	728.69
332.715	738.69
332.943	783.69
333.172	809.69
333.4	811.69
333.629	840.69
333.857	859.69
334.085	836.69
334.314	816.69
334.542	840.69
334.771	859.69
334.999	797.69
335.227	807.69
335.455	820.69
335.684	800.69
335.912	795.69
336.14	790.69
336.369	789.69
336.597	800.69
336.825	769.69
337.053	807.69
337.281	768.69
337.51	743.69
337.738	745.69
337.966	751.69
338.194	728.69
338.422	740.69
338.65	703.69
338.878	720.69
339.106	717.69
339.334	730.69
339.562	707.69
339.79	690.69
340.018	687.69
340.246	690.69
340.474	676.69
340.702	697.69
340.93	674.69
341.158	690.69
341.386	718.69
341.614	729.69
341.842	720.69
342.07	680.69
342.298	683.69
342.526	712.69
342.754	680.69
342.981	686.69
343.209	701.69
343.437	729.69
343.665	748.69
343.893	799.69
344.12	790.69
344.348	768.69
344.576	741.69
344.804	744.69
345.031	755.69
345.259	712.69
345.487	710.69
345.714	684.69
345.942	703.69
346.17	730.69
346.397	703.69
346.625	682.69
346.853	647.69
347.08	677.69
347.308	678.69
347.535	690.69
347.763	660.69
347.99	656.69
348.218	660.69
348.445	664.69
348.673	667.69
348.9	639.69
349.128	646.69
349.355	671.69
349.583	646.69
349.81	646.69
350.037	649.69
350.265	652.69
350.492	644.69
350.72	626.69
350.947	650.69
351.174	645.69
351.402	664.69
351.629	664.69
351.856	670.69
352.083	615.69
352.311	658.69
352.538	653.69
352.765	687.69
352.992	641.69
353.22	637.69
353.447	634.69
353.674	615.69
353.901	620.69
354.128	641.69
354.355	632.69
354.583	653.69
354.81	636.69
355.037	631.69
355.264	638.69
355.491	639.69
355.718	630.69
355.945	635.69
356.172	627.69
356.399	641.69
356.626	650.69
356.853	663.69
357.08	622.69
357.307	626.69
357.534	650.69
357.761	628.69
357.988	628.69
358.215	638.69
358.441	632.69
358.668	645.69
358.895	623.69
359.122	614.69
359.349	615.69
359.576	639.69
359.802	622.69
360.029	660.69
360.256	639.69
360.483	651.69
360.709	635.69
360.936	630.69
361.163	636.69
361.39	646.69
361.616	648.69
361.843	649.69
362.07	656.69
362.296	655.69
362.523	643.69
362.749	623.69
362.976	618.69
363.203	620.69
363.429	628.69
363.656	654.69
363.882	626.69
364.109	633.69
364.335	620.69
364.562	628.69
364.788	630.69
365.015	620.69
365.241	632.69
365.468	628.69
365.694	617.69
365.92	613.69
366.147	611.69
366.373	610.69
366.599	642.69
366.826	619.69
367.052	629.69
367.278	622.69
367.505	631.69
367.731	626.69
367.957	640.69
368.184	646.69
368.41	631.69
368.636	634.69
368.862	648.69
369.089	635.69
369.315	644.69
369.541	640.69
369.767	650.69
369.993	642.69
370.219	646.69
370.445	671.69
370.672	660.69
370.898	655.69
371.124	645.69
371.35	636.69
371.576	654.69
371.802	672.69
372.028	673.69
372.254	680.69
372.48	674.69
372.706	675.69
372.932	694.69
373.158	706.69
373.384	680.69
373.61	661.69
373.835	660.69
374.061	654.69
374.287	698.69
374.513	670.69
374.739	701.69
374.965	739.69
375.191	739.69
375.416	717.69
375.642	728.69
375.868	725.69
376.094	700.69
376.319	671.69
376.545	682.69
376.771	662.69
376.997	662.69
377.222	633.69
377.448	653.69
377.674	653.69
377.899	650.69
378.125	638.69
378.35	659.69
378.576	644.69
378.802	642.69
379.027	680.69
379.253	649.69
379.478	656.69
379.704	647.69
379.929	663.69
380.155	639.69
380.38	648.69
380.606	662.69
380.831	651.69
381.057	662.69
381.282	644.69
381.507	646.69
381.733	656.69
381.958	624.69
382.184	650.69
382.409	670.69
382.634	680.69
382.86	684.69
383.085	666.69
383.31	682.69
383.535	707.69
383.761	722.69
383.986	752.69
384.211	753.69
384.436	738.69
384.662	750.69
384.887	770.69
385.112	796.69
385.337	780.69
385.562	778.69
385.787	763.69
386.013	805.69
386.238	775.69
386.463	757.69
386.688	782.69
386.913	771.69
387.138	747.69
387.363	781.69
387.588	759.69
387.813	744.69
388.038	754.69
388.263	764.69
388.488	768.69
388.713	768.69
388.938	766.69
389.163	756.69
389.387	755.69
389.612	762.69
389.837	762.69
390.062	772.69
390.287	771.69
390.512	779.69
390.736	783.69
390.961	789.69
391.186	782.69
391.411	831.69
391.636	851.69
391.86	846.69
392.085	850.69
392.31	846.69
392.534	839.69
392.759	862.69
392.984	822.69
393.208	813.69
393.433	845.69
393.658	814.69
393.882	808.69
394.107	819.69
394.331	834.69
394.556	828.69
394.78	822.69
395.005	864.69
395.229	841.69
395.454	866.69
395.678	892.69
395.903	891.69
396.127	861.69
396.352	850.69
396.576	827.69
396.801	830.69
397.025	850.69
397.249	860.69
397.474	880.69
397.698	857.69
397.922	870.69
398.147	877.69
398.371	910.69
398.595	910.69
398.82	950.69
399.044	1014.69
399.268	1117.69
399.492	1260.69
399.717	1382.69
399.941	1324.69
400.165	1202.69
400.389	1142.69
400.613	1051.69
400.837	999.69
401.062	998.69
401.286	996.69
401.51	958.69
401.734	970.69
401.958	982.69
402.182	979.69
402.406	997.69
402.63	959.69
402.854	998.69
403.078	1018.69
403.302	1069.69
403.526	1080.69
403.75	1066.69
403.974	1074.69
404.198	1124.69
404.422	1087.69
404.645	1099.69
404.869	1053.69
405.093	1078.69
405.317	1046.69
405.541	1051.69
405.765	1063.69
405.988	999.69
406.212	1042.69
406.436	1049.69
406.66	1066.69
406.883	1084.69
407.107	1142.69
407.331	1157.69
407.555	1205.69
407.778	1212.69
408.002	1163.69
408.226	1162.69
408.449	1163.69
408.673	1124.69
408.896	1090.69
409.12	1063.69
409.344	1104.69
409.567	1090.69
409.791	1080.69
410.014	1090.69
410.238	1076.69
410.461	1074.69
410.685	1055.69
410.908	1017.69
411.132	1027.69
411.355	999.69
411.578	1012.69
411.802	1005.69
412.025	1010.69
412.249	1041.69
412.472	980.69
412.695	1010.69
412.919	964.69
413.142	982.69
413.365	953.69
413.589	998.69
413.812	983.69
414.035	986.69
414.258	976.69
414.482	998.69
414.705	1005.69
414.928	966.69
415.151	982.69
415.374	987.69
415.597	963.69
415.821	964.69
416.044	946.69
416.267	954.69
416.49	962.69
416.713	959.69
416.936	964.69
417.159	950.69
417.382	924.69
417.605	944.69
417.828	941.69
418.051	967.69
418.274	973.69
418.497	979.69
418.72	974.69
418.943	962.69
419.166	1019.69
419.389	1103.69
419.611	1062.69
419.834	1014.69
420.057	982.69
420.28	993.69
420.503	941.69
420.726	968.69
420.948	950.69
421.171	966.69
421.394	951.69
421.617	959.69
421.839	959.69
422.062	971.69
422.285	950.69
422.507	975.69
422.73	954.69
422.953	960.69
423.175	978.69
423.398	1002.69
423.621	1002.69
423.843	991.69
424.066	987.69
424.288	997.69
424.511	1010.69
424.733	962.69
424.956	983.69
425.178	975.69
425.401	970.69
425.623	968.69
425.846	938.69
426.068	914.69
426.291	921.69
426.513	899.69
426.735	936.69
426.958	923.69
427.18	890.69
427.402	904.69
427.625	874.69
427.847	878.69
428.069	873.69
428.292	884.69
428.514	856.69
428.736	872.69
428.958	879.69
429.181	874.69
429.403	867.69
429.625	864.69
429.847	840.69
430.069	837.69
430.292	846.69
430.514	874.69
430.736	885.69
430.958	864.69
431.18	899.69
431.402	900.69
431.624	886.69
431.846	879.69
432.068	860.69
432.29	889.69
432.512	902.69
432.734	886.69
432.956	885.69
433.178	892.69
433.4	870.69
433.622	916.69
433.844	916.69
434.066	920.69
434.287	920.69
434.509	933.69
434.731	964.69
434.953	1001.69
435.175	980.69
435.397	988.69
435.618	963.69
435.84	928.69
436.062	900.69
436.284	902.69
436.505	906.69
436.727	878.69
436.949	878.69
437.17	846.69
437.392	844.69
437.614	850.69
437.835	858.69
438.057	854.69
438.278	875.69
438.5	876.69
438.721	869.69
438.943	875.69
439.165	844.69
439.386	882.69
439.608	898.69
439.829	930.69
440.05	883.69
440.272	894.69
440.493	937.69
440.715	914.69
440.936	907.69
441.158	917.69
441.379	969.69
441.6	1002.69
441.822	1004.69
442.043	1010.69
442.264	992.69
442.486	948.69
442.707	963.69
442.928	981.69
443.149	983.69
443.371	966.69
443.592	972.69
443.813	988.69
444.034	1002.69
444.255	1039.69
444.476	1074.69
444.698	1103.69
444.919	1127.69
445.14	1167.69
445.361	1086.69
445.582	1023.69
445.803	963.69
446.024	965.69
446.245	952.69
446.466	926.69
446.687	891.69
446.908	916.69
447.129	911.69
447.35	877.69
447.571	869.69
447.792	840.69
448.013	867.69
448.234	845.69
448.455	846.69
448.675	848.69
448.896	834.69
449.117	833.69
449.338	855.69
449.559	839.69
449.779	831.69
450	847.69
450.221	832.69
450.442	858.69
450.662	818.69
450.883	849.69
451.104	857.69
451.324	848.69
451.545	839.69
451.766	839.69
451.986	835.69
452.207	803.69
452.428	832.69
452.648	796.69
452.869	788.69
453.089	789.69
453.31	813.69
453.53	796.69
453.751	803.69
453.971	811.69
454.192	809.69
454.412	782.69
454.633	787.69
454.853	783.69
455.073	768.69
455.294	798.69
455.514	791.69
455.734	770.69
455.955	787.69
456.175	784.69
456.395	757.69
456.616	764.69
456.836	757.69
457.056	788.69
457.276	751.69
457.497	786.69
457.717	770.69
457.937	789.69
458.157	810.69
458.377	830.69
458.598	813.69
458.818	818.69
459.038	875.69
459.258	884.69
459.478	916.69
459.698	933.69
459.918	946.69
460.138	1032.69
460.358	1013.69
460.578	1048.69
460.798	1049.69
461.018	1054.69
461.238	1040.69
461.458	1046.69
461.678	1055.69
461.898	1071.69
462.118	1084.69
462.338	1148.69
462.558	1134.69
462.777	1190.69
462.997	1253.69
463.217	1346.69
463.437	1338.69
463.657	1251.69
463.876	1220.69
464.096	1217.69
464.316	1201.69
464.536	1198.69
464.755	1147.69
464.975	1125.69
465.195	1066.69
465.414	995.69
465.634	958.69
465.854	962.69
466.073	907.69
466.293	931.69
466.512	901.69
466.732	893.69
466.951	874.69
467.171	891.69
467.391	875.69
467.61	862.69
467.829	859.69
468.049	877.69
468.268	847.69
468.488	848.69
468.707	840.69
468.927	841.69
469.146	856.69
469.365	866.69
469.585	871.69
469.804	879.69
470.023	882.69
470.243	908.69
470.462	877.69
470.681	908.69
470.901	907.69
471.12	894.69
471.339	911.69
471.558	861.69
471.777	887.69
471.997	872.69
472.216	870.69
472.435	847.69
472.654	847.69
472.873	845.69
473.092	835.69
473.311	837.69
473.53	832.69
473.749	812.69
473.968	814.69
474.187	788.69
474.406	847.69
474.625	843.69
474.844	839.69
475.063	813.69
475.282	820.69
475.501	848.69
475.72	846.69
475.939	845.69
476.158	869.69
476.377	865.69
476.596	875.69
476.814	887.69
477.033	860.69
477.252	902.69
477.471	931.69
477.69	911.69
477.908	960.69
478.127	962.69
478.346	974.69
478.564	988.69
478.783	1015.69
479.002	1031.69
479.22	1029.69
479.439	1043.69
479.658	1026.69
479.876	994.69
480.095	1046.69
480.313	1071.69
480.532	1070.69
480.751	1088.69
480.969	1030.69
481.188	1027.69
481.406	996.69
481.624	978.69
481.843	974.69
482.061	949.69
482.28	944.69
482.498	931.69
482.717	937.69
482.935	940.69
483.153	954.69
483.372	979.69
483.59	967.69
483.808	953.69
484.027	950.69
484.245	976.69
484.463	972.69
484.681	989.69
484.9	974.69
485.118	992.69
485.336	983.69
485.554	999.69
485.772	1021.69
485.99	995.69
486.209	1002.69
486.427	981.69
486.645	1035.69
486.863	1010.69
487.081	1034.69
487.299	984.69
487.517	986.69
487.735	976.69
487.953	994.69
488.171	1010.69
488.389	994.69
488.607	994.69
488.825	964.69
489.043	974.69
489.261	1000.69
489.479	990.69
489.696	1011.69
489.914	1018.69
490.132	1014.69
490.35	1037.69
490.568	1004.69
490.786	994.69
491.003	1014.69
491.221	1046.69
491.439	1009.69
491.657	1046.69
491.874	1033.69
492.092	1017.69
492.31	1063.69
492.527	1055.69
492.745	1040.69
492.963	1053.69
493.18	1048.69
493.398	1054.69
493.615	1056.69
493.833	1050.69
494.05	1083.69
494.268	1037.69
494.485	1055.69
494.703	1085.69
494.92	1064.69
495.138	1055.69
495.355	1045.69
495.573	1084.69
495.79	1055.69
496.008	1062.69
496.225	1098.69
496.442	1128.69
496.66	1107.69
496.877	1127.69
497.094	1170.69
497.312	1186.69
497.529	1216.69
497.746	1238.69
497.963	1246.69
498.181	1314.69
498.398	1328.69
498.615	1440.69
498.832	1519.69
499.049	1591.69
499.267	1692.69
499.484	1824.69
499.701	1994.69
499.918	2164.69
500.135	2495.69
500.352	2778.69
500.569	2864.69
500.786	2772.69
501.003	2626.69
501.22	2313.69
501.437	2130.69
501.654	1910.69
501.871	1784.69
502.088	1678.69
502.305	1567.69
502.522	1488.69
502.739	1476.69
502.956	1384.69
503.172	1332.69
503.389	1263.69
503.606	1259.69
503.823	1224.69
504.04	1188.69
504.256	1237.69
504.473	1245.69
504.69	1261.69
504.907	1223.69
505.123	1125.69
505.34	1111.69
505.557	1088.69
505.773	1030.69
505.99	1041.69
506.207	1019.69
506.423	989.69
506.64	969.69
506.856	917.69
507.073	954.69
507.289	940.69
507.506	925.69
507.722	939.69
507.939	918.69
508.155	911.69
508.372	922.69
508.588	908.69
508.805	896.69
509.021	919.69
509.238	867.69
509.454	899.69
509.67	856.69
509.887	853.69
510.103	888.69
510.319	882.69
510.536	879.69
510.752	818.69
510.968	848.69
511.184	833.69
511.401	840.69
511.617	856.69
511.833	819.69
512.049	860.69
512.265	858.69
512.481	832.69
512.698	834.69
512.914	853.69
513.13	848.69
513.346	836.69
513.562	830.69
513.778	846.69
513.994	888.69
514.21	849.69
514.426	869.69
514.642	883.69
514.858	864.69
515.074	862.69
515.29	882.69
515.506	878.69
515.721	921.69
515.937	908.69
516.153	916.69
516.369	912.69
516.585	984.69
516.801	988.69
517.016	1054.69
517.232	1059.69
517.448	1108.69
517.664	1133.69
517.879	1122.69
518.095	1148.69
518.311	1143.69
518.527	1061.69
518.742	1008.69
518.958	959.69
519.173	951.69
519.389	949.69
519.605	939.69
519.82	897.69
520.036	876.69
520.251	868.69
520.467	864.69
520.682	867.69
520.898	844.69
521.113	801.69
521.329	834.69
521.544	807.69
521.76	829.69
521.975	800.69
522.19	802.69
522.406	823.69
522.621	795.69
522.836	803.69
523.052	770.69
523.267	796.69
523.482	754.69
523.698	792.69
523.913	807.69
524.128	777.69
524.343	803.69
524.559	775.69
524.774	785.69
524.989	775.69
525.204	770.69
525.419	773.69
525.634	760.69
525.849	774.69
526.064	765.69
526.28	796.69
526.495	779.69
526.71	746.69
526.925	726.69
527.14	734.69
527.355	761.69
527.57	754.69
527.785	744.69
527.999	772.69
528.214	761.69
528.429	755.69
528.644	774.69
528.859	767.69
529.074	780.69
529.289	783.69
529.503	794.69
529.718	770.69
529.933	762.69
530.148	755.69
530.363	781.69
530.577	749.69
530.792	775.69
531.007	748.69
531.221	782.69
531.436	758.69
531.651	726.69
531.865	759.69
532.08	740.69
532.295	737.69
532.509	750.69
532.724	742.69
532.938	747.69
533.153	736.69
533.367	746.69
533.582	731.69
533.796	739.69
534.011	724.69
534.225	703.69
534.44	745.69
534.654	746.69
534.868	735.69
535.083	730.69
535.297	742.69
535.511	735.69
535.726	715.69
535.94	730.69
536.154	707.69
536.369	731.69
536.583	714.69
536.797	714.69
537.011	716.69
537.225	715.69
537.44	705.69
537.654	696.69
537.868	688.69
538.082	672.69
538.296	683.69
538.51	693.69
538.724	674.69
538.938	683.69
539.153	702.69
539.367	680.69
539.581	684.69
539.795	655.69
540.009	685.69
540.222	690.69
540.436	699.69
540.65	675.69
540.864	679.69
541.078	686.69
541.292	687.69
541.506	704.69
541.72	684.69
541.934	697.69
542.147	722.69
542.361	694.69
542.575	688.69
542.789	688.69
543.002	660.69
543.216	682.69
543.43	659.69
543.644	698.69
543.857	668.69
544.071	674.69
544.285	671.69
544.498	651.69
544.712	674.69
544.925	688.69
545.139	718.69
545.352	695.69
545.566	699.69
545.779	710.69
545.993	683.69
546.206	694.69
546.42	681.69
546.633	690.69
546.847	703.69
547.06	700.69
547.274	707.69
547.487	698.69
547.7	710.69
547.914	708.69
548.127	711.69
548.34	696.69
548.554	691.69
548.767	696.69
548.98	712.69
549.193	692.69
549.407	686.69
549.62	707.69
549.833	703.69
550.046	710.69
550.259	693.69
550.473	713.69
550.686	690.69
550.899	695.69
551.112	671.69
551.325	695.69
551.538	657.69
551.751	671.69
551.964	682.69
552.177	670.69
552.39	706.69
552.603	690.69
552.816	712.69
553.029	754.69
553.242	766.69
553.455	735.69
553.667	721.69
553.88	748.69
554.093	728.69
554.306	717.69
554.519	702.69
554.732	700.69
554.944	673.69
555.157	676.69
555.37	675.69
555.583	647.69
555.795	635.69
556.008	622.69
556.221	632.69
556.433	604.69
556.646	608.69
556.859	632.69
557.071	611.69
557.284	606.69
557.496	596.69
557.709	574.69
557.921	600.69
558.134	595.69
558.346	621.69
558.559	591.69
558.771	579.69
558.984	564.69
559.196	574.69
559.409	580.69
559.621	608.69
559.833	584.69
560.046	585.69
560.258	588.69
560.47	571.69
560.683	591.69
560.895	575.69
561.107	556.69
561.32	566.69
561.532	590.69
561.744	587.69
561.956	582.69
562.168	572.69
562.381	598.69
562.593	589.69
562.805	566.69
563.017	576.69
563.229	576.69
563.441	587.69
563.653	577.69
563.865	581.69
564.077	594.69
564.289	585.69
564.501	588.69
564.713	639.69
564.925	616.69
565.137	644.69
565.349	640.69
565.561	667.69
565.773	688.69
565.985	689.69
566.197	718.69
566.408	776.69
566.62	817.69
566.832	876.69
567.044	871.69
567.255	902.69
567.467	914.69
567.679	943.69
567.891	979.69
568.102	1017.69
568.314	960.69
568.526	864.69
568.737	840.69
568.949	747.69
569.161	693.69
569.372	650.69
569.584	630.69
569.795	617.69
570.007	590.69
570.218	570.69
570.43	577.69
570.641	582.69
570.853	589.69
571.064	575.69
571.276	597.69
571.487	587.69
571.698	542.69
571.91	524.69
572.121	526.69
572.333	494.69
572.544	532.69
572.755	507.69
572.966	485.69
573.178	486.69
573.389	481.69
573.6	472.69
573.811	470.69
574.023	470.69
574.234	474.69
574.445	464.69
574.656	472.69
574.867	467.69
575.078	443.69
575.289	461.69
575.501	472.69
575.712	438.69
575.923	432.69
576.134	454.69
576.345	454.69
576.556	454.69
576.767	443.69
576.978	438.69
577.188	443.69
577.399	462.69
577.61	446.69
577.821	416.69
578.032	419.69
578.243	415.69
578.454	411.69
578.665	424.69
578.875	408.69
579.086	439.69
579.297	437.69
579.508	427.69
579.718	427.69
579.929	400.69
580.14	405.69
580.35	415.69
580.561	422.69
580.772	398.69
580.982	398.69
581.193	401.69
581.403	388.69
581.614	395.69
581.825	399.69
582.035	390.69
582.246	425.69
582.456	401.69
582.667	410.69
582.877	406.69
583.087	396.69
583.298	382.69
583.508	391.69
583.719	413.69
583.929	403.69
584.139	400.69
584.35	387.69
584.56	384.69
584.77	394.69
584.981	382.69
585.191	371.69
585.401	383.69
585.611	398.69
585.821	391.69
586.032	405.69
586.242	378.69
586.452	362.69
586.662	375.69
586.872	378.69
587.082	376.69
587.292	380.69
587.502	361.69
587.713	373.69
587.923	390.69
588.133	376.69
588.343	372.69
588.553	373.69
588.762	378.69
588.972	381.69
589.182	427.69
589.392	428.69
589.602	379.69
589.812	411.69
590.022	399.69
590.232	364.69
590.441	376.69
590.651	386.69
590.861	364.69
591.071	381.69
591.281	408.69
591.49	379.69
591.7	383.69
591.91	415.69
592.119	418.69
592.329	401.69
592.539	416.69
592.748	446.69
592.958	409.69
593.167	442.69
593.377	438.69
593.587	444.69
593.796	444.69
594.006	472.69
594.215	464.69
594.424	461.69
594.634	453.69
594.843	422.69
595.053	417.69
595.262	432.69
595.472	390.69
595.681	379.69
595.89	372.69
596.1	390.69
596.309	383.69
596.518	348.69
596.727	371.69
596.937	343.69
597.146	348.69
597.355	347.69
597.564	345.69
597.774	339.69
597.983	337.69
598.192	348.69
598.401	338.69
598.61	316.69
598.819	331.69
599.028	328.69
599.237	324.69
599.446	326.69
599.655	312.69
599.864	333.69
600.073	308.69
600.282	309.69
600.491	311.69
600.7	329.69
600.909	310.69
601.118	314.69
601.327	310.69
601.536	316.69
601.745	303.69
601.953	316.69
602.162	311.69
602.371	326.69
602.58	312.69
602.789	300.69
602.997	308.69
603.206	314.69
603.415	309.69
603.623	295.69
603.832	283.69
604.041	293.69
604.249	302.69
604.458	291.69
604.666	292.69
604.875	303.69
605.084	291.69
605.292	285.69
605.501	294.69
605.709	305.69
605.918	286.69
606.126	298.69
606.334	288.69
606.543	294.69
606.751	295.69
606.96	288.69
607.168	278.69
607.376	286.69
607.585	277.69
607.793	287.69
608.001	279.69
608.21	291.69
608.418	275.69
608.626	267.69
608.834	287.69
609.043	279.69
609.251	297.69
609.459	274.69
609.667	304.69
609.875	292.69
610.083	289.69
610.291	269.69
610.499	297.69
610.707	289.69
610.916	272.69
611.124	269.69
611.332	302.69
611.54	280.69
611.748	282.69
611.955	274.69
612.163	279.69
612.371	284.69
612.579	269.69
612.787	274.69
612.995	265.69
613.203	267.69
613.411	273.69
613.618	254.69
613.826	271.69
614.034	244.69
614.242	280.69
614.449	286.69
614.657	266.69
614.865	259.69
615.072	277.69
615.28	282.69
615.488	269.69
615.695	259.69
615.903	265.69
616.111	263.69
616.318	280.69
616.526	270.69
616.733	270.69
616.941	265.69
617.148	271.69
617.356	264.69
617.563	270.69
617.771	261.69
617.978	281.69
618.185	282.69
618.393	274.69
618.6	243.69
618.807	249.69
619.015	266.69
619.222	271.69
619.429	283.69
619.637	272.69
619.844	270.69
620.051	259.69
620.258	262.69
620.466	256.69
620.673	264.69
620.88	250.69
621.087	262.69
621.294	266.69
621.501	242.69
621.708	236.69
621.915	244.69
622.122	261.69
622.329	246.69
622.536	259.69
622.743	254.69
622.95	246.69
623.157	244.69
623.364	249.69
623.571	254.69
623.778	248.69
623.985	254.69
624.192	233.69
624.399	253.69
624.606	249.69
624.812	251.69
625.019	235.69
625.226	257.69
625.433	239.69
625.639	232.69
625.846	239.69
626.053	227.69
626.259	236.69
626.466	226.69
626.673	236.69
626.879	222.69
627.086	248.69
627.293	224.69
627.499	242.69
627.706	239.69
627.912	231.69
628.119	240.69
628.325	225.69
628.532	234.69
628.738	222.69
628.945	230.69
629.151	200.69
629.357	211.69
629.564	222.69
629.77	206.69
629.976	219.69
630.183	211.69
630.389	236.69
630.595	219.69
630.802	222.69
631.008	212.69
631.214	226.69
631.42	229.69
631.627	223.69
631.833	226.69
632.039	223.69
632.245	219.69
632.451	221.69
632.657	204.69
632.863	221.69
633.069	224.69
633.275	217.69
633.481	207.69
633.688	206.69
633.893	219.69
634.099	213.69
634.305	202.69
634.511	191.69
634.717	211.69
634.923	206.69
635.129	208.69
635.335	186.69
635.541	210.69
635.747	204.69
635.952	191.69
636.158	202.69
636.364	199.69
636.57	189.69
636.775	189.69
636.981	213.69
637.187	191.69
637.392	197.69
637.598	216.69
637.804	187.69
638.009	189.69
638.215	207.69
638.421	201.69
638.626	179.69
638.832	201.69
639.037	192.69
639.243	196.69
639.448	203.69
639.654	182.69
639.859	186.69
640.065	186.69
640.27	190.69
640.475	193.69
640.681	197.69
640.886	211.69
641.091	193.69
641.297	188.69
641.502	198.69
641.707	194.69
641.913	185.69
642.118	170.69
642.323	194.69
642.528	196.69
642.733	203.69
642.939	199.69
643.144	173.69
643.349	191.69
643.554	178.69
643.759	180.69
643.964	185.69
644.169	191.69
644.374	175.69
644.579	187.69
644.784	170.69
644.989	208.69
645.194	191.69
645.399	198.69
645.604	195.69
645.809	197.69
646.014	184.69
646.219	192.69
646.423	179.69
646.628	188.69
646.833	197.69
647.038	179.69
647.243	193.69
647.447	212.69
647.652	188.69
647.857	186.69
648.062	217.69
648.266	182.69
648.471	194.69
648.676	184.69
648.88	187.69
649.085	192.69
649.289	183.69
649.494	188.69
649.698	174.69
649.903	174.69
650.107	181.69
650.312	175.69
650.516	183.69
650.721	200.69
650.925	189.69
651.13	167.69
651.334	156.69
651.539	162.69
651.743	169.69
651.947	164.69
652.152	173.69
652.356	170.69
652.56	167.69
652.764	174.69
652.969	156.69
653.173	170.69
653.377	167.69
653.581	158.69
653.785	146.69
653.99	153.69
654.194	148.69
654.398	148.69
654.602	148.69
654.806	150.69
655.01	131.69
655.214	139.69
655.418	147.69
655.622	160.69
655.826	152.69
656.03	157.69
656.234	150.69
656.438	146.69
656.642	130.69
656.846	134.69
657.049	145.69
657.253	134.69
657.457	133.69
657.661	126.69
657.865	146.69
658.068	128.69
658.272	123.69
658.476	112.69
658.68	106.69
658.883	111.69
659.087	105.69
659.291	117.69
659.494	98.69
659.698	92.69
659.901	101.69
660.105	107.69
660.309	102.69
660.512	100.69
660.716	98.69
660.919	96.69
661.123	97.69
661.326	84.69
661.53	100.69
661.733	91.69
661.936	90.69
662.14	78.69
662.343	87.69
662.546	85.69
662.75	95.69
662.953	100.69
663.156	93.69
663.36	89.69
663.563	100.69
663.766	76.69
663.969	90.69
664.173	91.69
664.376	79.69
664.579	96.69
664.782	90.69
664.985	98.69
665.188	86.69
665.391	87.69
665.594	78.69
665.797	84.69
666	83.69
666.203	87.69
666.406	91.69
666.609	92.69
666.812	91.69
667.015	86.69
667.218	74.69
667.421	85.69
667.624	86.69
667.827	87.69
668.03	90.69
668.232	86.69
668.435	83.69
668.638	81.69
668.841	80.69
669.043	103.69
669.246	94.69
669.449	101.69
669.651	90.69
669.854	71.69
670.057	88.69
670.259	73.69
670.462	69.69
670.665	84.69
670.867	88.69
671.07	80.69
671.272	99.69
671.475	105.69
671.677	98.69
671.88	97.69
672.082	90.69
672.284	76.69
672.487	86.69
672.689	92.69
672.892	86.69
