Data from NiCl2@0.5M.TitratingCurve.Agarose3%dH2O.NegLispCup.LampEnergy10.LIBS07252019_HRD10591_18-21-19-573.txt Node
Date: Thu Jul 25 18:21:19 EDT 2019
User: cochatt
Spectrometer: HR+D1059
Trigger mode: 1
Integration Time (sec): 1.000000E-1
Scans to average: 1
Electric dark correction enabled: true
Nonlinearity correction enabled: false
Boxcar width: 0
XAxis mode: Wavelengths
Number of Pixels in Spectrum: 2048
>>>>>Begin Spectral Data<<<<<
223.165	-16.06
223.4	-16.06
223.635	-16.06
223.869	-23.06
224.104	-16.06
224.338	-5.06
224.573	-14.06
224.808	-22.06
225.042	1.94
225.277	1.94
225.511	-7.06
225.746	-5.06
225.98	4.94
226.215	5.94
226.449	24.94
226.683	15.94
226.918	20.94
227.152	31.94
227.387	32.94
227.621	31.94
227.856	40.94
228.09	37.94
228.324	47.94
228.559	59.94
228.793	66.94
229.027	74.94
229.262	85.94
229.496	95.94
229.73	115.94
229.964	116.94
230.199	127.94
230.433	104.94
230.667	108.94
230.901	111.94
231.136	109.94
231.37	108.94
231.604	102.94
231.838	118.94
232.072	121.94
232.306	140.94
232.541	122.94
232.775	131.94
233.009	134.94
233.243	137.94
233.477	129.94
233.711	117.94
233.945	118.94
234.179	116.94
234.413	123.94
234.647	125.94
234.881	125.94
235.115	124.94
235.349	121.94
235.583	101.94
235.817	120.94
236.051	125.94
236.285	121.94
236.519	124.94
236.753	133.94
236.987	127.94
237.221	128.94
237.455	123.94
237.689	128.94
237.922	138.94
238.156	149.94
238.39	124.94
238.624	141.94
238.858	131.94
239.091	137.94
239.325	142.94
239.559	139.94
239.793	149.94
240.027	138.94
240.26	148.94
240.494	142.94
240.728	154.94
240.961	144.94
241.195	149.94
241.429	149.94
241.662	140.94
241.896	160.94
242.13	144.94
242.363	152.94
242.597	149.94
242.83	157.94
243.064	166.94
243.298	163.94
243.531	164.94
243.765	160.94
243.998	168.94
244.232	155.94
244.465	179.94
244.699	167.94
244.932	159.94
245.166	172.94
245.399	181.94
245.633	180.94
245.866	178.94
246.099	176.94
246.333	163.94
246.566	183.94
246.8	179.94
247.033	172.94
247.266	168.94
247.5	179.94
247.733	188.94
247.966	177.94
248.2	172.94
248.433	187.94
248.666	169.94
248.899	178.94
249.133	188.94
249.366	201.94
249.599	187.94
249.832	184.94
250.066	195.94
250.299	188.94
250.532	192.94
250.765	186.94
250.998	184.94
251.231	208.94
251.465	187.94
251.698	191.94
251.931	196.94
252.164	213.94
252.397	191.94
252.63	195.94
252.863	196.94
253.096	205.94
253.329	215.94
253.562	230.94
253.795	198.94
254.028	204.94
254.261	203.94
254.494	213.94
254.727	206.94
254.96	199.94
255.193	216.94
255.426	204.94
255.659	220.94
255.892	215.94
256.124	218.94
256.357	239.94
256.59	222.94
256.823	224.94
257.056	223.94
257.289	235.94
257.521	224.94
257.754	231.94
257.987	219.94
258.22	232.94
258.452	234.94
258.685	237.94
258.918	232.94
259.151	236.94
259.383	236.94
259.616	225.94
259.849	216.94
260.081	232.94
260.314	229.94
260.547	245.94
260.779	224.94
261.012	247.94
261.244	237.94
261.477	238.94
261.71	238.94
261.942	240.94
262.175	252.94
262.407	231.94
262.64	251.94
262.872	253.94
263.105	247.94
263.337	262.94
263.57	261.94
263.802	251.94
264.035	258.94
264.267	255.94
264.499	256.94
264.732	250.94
264.964	260.94
265.197	244.94
265.429	264.94
265.661	259.94
265.894	261.94
266.126	271.94
266.358	267.94
266.591	258.94
266.823	274.94
267.055	248.94
267.287	291.94
267.52	267.94
267.752	280.94
267.984	266.94
268.216	275.94
268.448	268.94
268.681	284.94
268.913	282.94
269.145	278.94
269.377	281.94
269.609	259.94
269.841	289.94
270.073	295.94
270.306	289.94
270.538	284.94
270.77	285.94
271.002	287.94
271.234	281.94
271.466	292.94
271.698	283.94
271.93	287.94
272.162	276.94
272.394	291.94
272.626	280.94
272.858	300.94
273.09	294.94
273.322	300.94
273.553	298.94
273.785	310.94
274.017	290.94
274.249	293.94
274.481	293.94
274.713	300.94
274.945	313.94
275.176	293.94
275.408	306.94
275.64	305.94
275.872	317.94
276.104	321.94
276.335	325.94
276.567	332.94
276.799	328.94
277.031	329.94
277.262	331.94
277.494	315.94
277.726	316.94
277.957	307.94
278.189	306.94
278.421	335.94
278.652	324.94
278.884	351.94
279.115	332.94
279.347	327.94
279.579	314.94
279.81	339.94
280.042	345.94
280.273	325.94
280.505	330.94
280.736	331.94
280.968	341.94
281.199	352.94
281.431	337.94
281.662	337.94
281.894	367.94
282.125	354.94
282.356	352.94
282.588	356.94
282.819	351.94
283.051	352.94
283.282	339.94
283.513	336.94
283.745	353.94
283.976	367.94
284.207	353.94
284.439	351.94
284.67	367.94
284.901	355.94
285.132	361.94
285.364	356.94
285.595	361.94
285.826	361.94
286.057	374.94
286.288	345.94
286.52	385.94
286.751	363.94
286.982	369.94
287.213	379.94
287.444	384.94
287.675	368.94
287.906	379.94
288.138	371.94
288.369	369.94
288.6	397.94
288.831	377.94
289.062	377.94
289.293	377.94
289.524	380.94
289.755	390.94
289.986	384.94
290.217	380.94
290.448	398.94
290.679	392.94
290.91	391.94
291.141	424.94
291.371	361.94
291.602	404.94
291.833	389.94
292.064	397.94
292.295	372.94
292.526	396.94
292.757	398.94
292.987	403.94
293.218	370.94
293.449	393.94
293.68	390.94
293.91	401.94
294.141	401.94
294.372	368.94
294.603	408.94
294.833	419.94
295.064	403.94
295.295	394.94
295.525	385.94
295.756	417.94
295.987	407.94
296.217	428.94
296.448	409.94
296.679	403.94
296.909	420.94
297.14	422.94
297.37	428.94
297.601	418.94
297.831	423.94
298.062	419.94
298.292	427.94
298.523	435.94
298.753	440.94
298.984	448.94
299.214	430.94
299.445	425.94
299.675	423.94
299.905	432.94
300.136	423.94
300.366	439.94
300.597	414.94
300.827	450.94
301.057	435.94
301.288	449.94
301.518	459.94
301.748	460.94
301.979	452.94
302.209	441.94
302.439	447.94
302.669	456.94
302.9	458.94
303.13	433.94
303.36	458.94
303.59	437.94
303.82	440.94
304.051	456.94
304.281	444.94
304.511	450.94
304.741	461.94
304.971	439.94
305.201	442.94
305.431	458.94
305.661	452.94
305.891	437.94
306.121	446.94
306.352	432.94
306.582	462.94
306.812	436.94
307.042	464.94
307.272	438.94
307.502	455.94
307.731	456.94
307.961	453.94
308.191	453.94
308.421	428.94
308.651	455.94
308.881	439.94
309.111	452.94
309.341	426.94
309.571	448.94
309.8	442.94
310.03	431.94
310.26	450.94
310.49	448.94
310.72	464.94
310.949	464.94
311.179	460.94
311.409	447.94
311.639	469.94
311.868	447.94
312.098	442.94
312.328	466.94
312.557	464.94
312.787	477.94
313.017	468.94
313.246	473.94
313.476	458.94
313.706	469.94
313.935	475.94
314.165	480.94
314.394	469.94
314.624	464.94
314.853	471.94
315.083	491.94
315.312	483.94
315.542	474.94
315.771	456.94
316.001	476.94
316.23	485.94
316.46	477.94
316.689	470.94
316.919	476.94
317.148	466.94
317.377	478.94
317.607	476.94
317.836	479.94
318.065	468.94
318.295	471.94
318.524	482.94
318.753	458.94
318.983	466.94
319.212	480.94
319.441	481.94
319.67	459.94
319.9	469.94
320.129	477.94
320.358	471.94
320.587	481.94
320.816	470.94
321.046	474.94
321.275	496.94
321.504	473.94
321.733	472.94
321.962	490.94
322.191	475.94
322.42	487.94
322.649	494.94
322.878	469.94
323.108	477.94
323.337	498.94
323.566	471.94
323.795	491.94
324.024	483.94
324.253	509.94
324.482	492.94
324.71	480.94
324.939	493.94
325.168	492.94
325.397	487.94
325.626	491.94
325.855	526.94
326.084	514.94
326.313	507.94
326.542	508.94
326.77	519.94
326.999	495.94
327.228	489.94
327.457	507.94
327.686	513.94
327.914	497.94
328.143	513.94
328.372	507.94
328.6	528.94
328.829	524.94
329.058	535.94
329.287	533.94
329.515	529.94
329.744	487.94
329.972	523.94
330.201	513.94
330.43	531.94
330.658	545.94
330.887	551.94
331.115	542.94
331.344	561.94
331.572	548.94
331.801	577.94
332.03	556.94
332.258	594.94
332.486	610.94
332.715	620.94
332.943	639.94
333.172	648.94
333.4	657.94
333.629	679.94
333.857	687.94
334.085	684.94
334.314	653.94
334.542	645.94
334.771	676.94
334.999	638.94
335.227	664.94
335.455	655.94
335.684	653.94
335.912	651.94
336.14	641.94
336.369	622.94
336.597	633.94
336.825	625.94
337.053	659.94
337.281	631.94
337.51	610.94
337.738	584.94
337.966	586.94
338.194	591.94
338.422	585.94
338.65	562.94
338.878	569.94
339.106	571.94
339.334	583.94
339.562	563.94
339.79	567.94
340.018	546.94
340.246	535.94
340.474	521.94
340.702	557.94
340.93	559.94
341.158	565.94
341.386	559.94
341.614	579.94
341.842	563.94
342.07	568.94
342.298	543.94
342.526	543.94
342.754	562.94
342.981	551.94
343.209	551.94
343.437	600.94
343.665	625.94
343.893	663.94
344.12	655.94
344.348	644.94
344.576	616.94
344.804	603.94
345.031	582.94
345.259	567.94
345.487	568.94
345.714	558.94
345.942	547.94
346.17	533.94
346.397	552.94
346.625	524.94
346.853	531.94
347.08	511.94
347.308	525.94
347.535	529.94
347.763	529.94
347.99	540.94
348.218	527.94
348.445	529.94
348.673	511.94
348.9	515.94
349.128	525.94
349.355	531.94
349.583	540.94
349.81	521.94
350.037	515.94
350.265	513.94
350.492	540.94
350.72	517.94
350.947	508.94
351.174	505.94
351.402	538.94
351.629	521.94
351.856	503.94
352.083	492.94
352.311	476.94
352.538	518.94
352.765	523.94
352.992	515.94
353.22	484.94
353.447	498.94
353.674	499.94
353.901	490.94
354.128	509.94
354.355	497.94
354.583	510.94
354.81	481.94
355.037	507.94
355.264	509.94
355.491	513.94
355.718	501.94
355.945	520.94
356.172	505.94
356.399	510.94
356.626	508.94
356.853	508.94
357.08	539.94
357.307	502.94
357.534	516.94
357.761	513.94
357.988	523.94
358.215	533.94
358.441	507.94
358.668	489.94
358.895	509.94
359.122	509.94
359.349	499.94
359.576	504.94
359.802	513.94
360.029	506.94
360.256	502.94
360.483	490.94
360.709	506.94
360.936	525.94
361.163	511.94
361.39	500.94
361.616	499.94
361.843	526.94
362.07	524.94
362.296	524.94
362.523	500.94
362.749	504.94
362.976	495.94
363.203	515.94
363.429	494.94
363.656	511.94
363.882	486.94
364.109	482.94
364.335	480.94
364.562	500.94
364.788	511.94
365.015	499.94
365.241	490.94
365.468	477.94
365.694	489.94
365.92	518.94
366.147	517.94
366.373	493.94
366.599	490.94
366.826	483.94
367.052	487.94
367.278	499.94
367.505	496.94
367.731	506.94
367.957	496.94
368.184	500.94
368.41	523.94
368.636	524.94
368.862	496.94
369.089	520.94
369.315	507.94
369.541	519.94
369.767	533.94
369.993	519.94
370.219	506.94
370.445	533.94
370.672	497.94
370.898	515.94
371.124	544.94
371.35	561.94
371.576	556.94
371.802	554.94
372.028	534.94
372.254	565.94
372.48	570.94
372.706	579.94
372.932	568.94
373.158	555.94
373.384	554.94
373.61	561.94
373.835	556.94
374.061	557.94
374.287	550.94
374.513	548.94
374.739	575.94
374.965	578.94
375.191	565.94
375.416	625.94
375.642	563.94
375.868	602.94
376.094	573.94
376.319	562.94
376.545	547.94
376.771	547.94
376.997	561.94
377.222	556.94
377.448	548.94
377.674	556.94
377.899	544.94
378.125	535.94
378.35	547.94
378.576	515.94
378.802	525.94
379.027	533.94
379.253	529.94
379.478	539.94
379.704	531.94
379.929	547.94
380.155	532.94
380.38	535.94
380.606	518.94
380.831	525.94
381.057	545.94
381.282	534.94
381.507	533.94
381.733	543.94
381.958	532.94
382.184	557.94
382.409	548.94
382.634	564.94
382.86	572.94
383.085	565.94
383.31	580.94
383.535	584.94
383.761	598.94
383.986	584.94
384.211	596.94
384.436	625.94
384.662	643.94
384.887	617.94
385.112	631.94
385.337	613.94
385.562	635.94
385.787	625.94
386.013	649.94
386.238	643.94
386.463	647.94
386.688	632.94
386.913	609.94
387.138	651.94
387.363	641.94
387.588	632.94
387.813	649.94
388.038	654.94
388.263	649.94
388.488	624.94
388.713	651.94
388.938	634.94
389.163	627.94
389.387	629.94
389.612	637.94
389.837	615.94
390.062	613.94
390.287	640.94
390.512	607.94
390.736	630.94
390.961	648.94
391.186	661.94
391.411	684.94
391.636	699.94
391.86	713.94
392.085	712.94
392.31	723.94
392.534	671.94
392.759	683.94
392.984	694.94
393.208	668.94
393.433	675.94
393.658	661.94
393.882	644.94
394.107	679.94
394.331	673.94
394.556	672.94
394.78	680.94
395.005	699.94
395.229	683.94
395.454	701.94
395.678	727.94
395.903	738.94
396.127	703.94
396.352	693.94
396.576	653.94
396.801	685.94
397.025	705.94
397.249	721.94
397.474	711.94
397.698	705.94
397.922	717.94
398.147	727.94
398.371	751.94
398.595	769.94
398.82	804.94
399.044	857.94
399.268	897.94
399.492	1023.94
399.717	1116.94
399.941	1125.94
400.165	1040.94
400.389	959.94
400.613	888.94
400.837	826.94
401.062	818.94
401.286	815.94
401.51	792.94
401.734	799.94
401.958	782.94
402.182	815.94
402.406	802.94
402.63	821.94
402.854	841.94
403.078	835.94
403.302	879.94
403.526	876.94
403.75	892.94
403.974	907.94
404.198	894.94
404.422	890.94
404.645	909.94
404.869	873.94
405.093	898.94
405.317	877.94
405.541	872.94
405.765	871.94
405.988	875.94
406.212	867.94
406.436	877.94
406.66	889.94
406.883	883.94
407.107	941.94
407.331	994.94
407.555	1003.94
407.778	1025.94
408.002	987.94
408.226	966.94
408.449	974.94
408.673	907.94
408.896	876.94
409.12	897.94
409.344	925.94
409.567	907.94
409.791	919.94
410.014	895.94
410.238	877.94
410.461	897.94
410.685	881.94
410.908	833.94
411.132	868.94
411.355	824.94
411.578	853.94
411.802	824.94
412.025	846.94
412.249	830.94
412.472	863.94
412.695	820.94
412.919	815.94
413.142	825.94
413.365	812.94
413.589	829.94
413.812	819.94
414.035	801.94
414.258	807.94
414.482	815.94
414.705	825.94
414.928	817.94
415.151	838.94
415.374	810.94
415.597	818.94
415.821	807.94
416.044	775.94
416.267	779.94
416.49	785.94
416.713	795.94
416.936	801.94
417.159	791.94
417.382	776.94
417.605	780.94
417.828	779.94
418.051	798.94
418.274	782.94
418.497	772.94
418.72	802.94
418.943	825.94
419.166	861.94
419.389	903.94
419.611	879.94
419.834	854.94
420.057	821.94
420.28	822.94
420.503	781.94
420.726	789.94
420.948	794.94
421.171	778.94
421.394	815.94
421.617	783.94
421.839	792.94
422.062	790.94
422.285	808.94
422.507	817.94
422.73	834.94
422.953	836.94
423.175	844.94
423.398	836.94
423.621	824.94
423.843	843.94
424.066	845.94
424.288	842.94
424.511	825.94
424.733	829.94
424.956	844.94
425.178	809.94
425.401	806.94
425.623	801.94
425.846	787.94
426.068	775.94
426.291	758.94
426.513	776.94
426.735	794.94
426.958	778.94
427.18	741.94
427.402	748.94
427.625	754.94
427.847	757.94
428.069	724.94
428.292	719.94
428.514	730.94
428.736	724.94
428.958	723.94
429.181	701.94
429.403	689.94
429.625	706.94
429.847	716.94
430.069	711.94
430.292	704.94
430.514	691.94
430.736	715.94
430.958	728.94
431.18	717.94
431.402	726.94
431.624	717.94
431.846	704.94
432.068	741.94
432.29	719.94
432.512	723.94
432.734	732.94
432.956	738.94
433.178	729.94
433.4	724.94
433.622	738.94
433.844	751.94
434.066	746.94
434.287	747.94
434.509	759.94
434.731	785.94
434.953	810.94
435.175	817.94
435.397	815.94
435.618	772.94
435.84	756.94
436.062	736.94
436.284	753.94
436.505	730.94
436.727	758.94
436.949	730.94
437.17	727.94
437.392	723.94
437.614	721.94
437.835	695.94
438.057	707.94
438.278	662.94
438.5	706.94
438.721	723.94
438.943	716.94
439.165	701.94
439.386	719.94
439.608	721.94
439.829	695.94
440.05	724.94
440.272	763.94
440.493	740.94
440.715	753.94
440.936	743.94
441.158	785.94
441.379	796.94
441.6	832.94
441.822	832.94
442.043	823.94
442.264	804.94
442.486	788.94
442.707	817.94
442.928	825.94
443.149	794.94
443.371	785.94
443.592	810.94
443.813	808.94
444.034	802.94
444.255	860.94
444.476	881.94
444.698	911.94
444.919	948.94
445.14	998.94
445.361	945.94
445.582	857.94
445.803	794.94
446.024	793.94
446.245	789.94
446.466	775.94
446.687	753.94
446.908	745.94
447.129	759.94
447.35	741.94
447.571	712.94
447.792	714.94
448.013	708.94
448.234	699.94
448.455	703.94
448.675	679.94
448.896	685.94
449.117	678.94
449.338	668.94
449.559	675.94
449.779	672.94
450	673.94
450.221	685.94
450.442	681.94
450.662	704.94
450.883	686.94
451.104	709.94
451.324	700.94
451.545	688.94
451.766	731.94
451.986	701.94
452.207	699.94
452.428	680.94
452.648	685.94
452.869	666.94
453.089	663.94
453.31	664.94
453.53	653.94
453.751	669.94
453.971	659.94
454.192	644.94
454.412	638.94
454.633	632.94
454.853	646.94
455.073	636.94
455.294	671.94
455.514	639.94
455.734	619.94
455.955	634.94
456.175	643.94
456.395	650.94
456.616	626.94
456.836	627.94
457.056	634.94
457.276	623.94
457.497	637.94
457.717	632.94
457.937	630.94
458.157	645.94
458.377	672.94
458.598	670.94
458.818	686.94
459.038	712.94
459.258	721.94
459.478	743.94
459.698	765.94
459.918	774.94
460.138	793.94
460.358	840.94
460.578	846.94
460.798	874.94
461.018	887.94
461.238	851.94
461.458	874.94
461.678	860.94
461.898	853.94
462.118	869.94
462.338	910.94
462.558	938.94
462.777	959.94
462.997	1069.94
463.217	1112.94
463.437	1115.94
463.657	1041.94
463.876	1011.94
464.096	995.94
464.316	987.94
464.536	1003.94
464.755	962.94
464.975	927.94
465.195	906.94
465.414	840.94
465.634	803.94
465.854	751.94
466.073	777.94
466.293	760.94
466.512	746.94
466.732	737.94
466.951	747.94
467.171	712.94
467.391	725.94
467.61	725.94
467.829	725.94
468.049	730.94
468.268	717.94
468.488	671.94
468.707	677.94
468.927	681.94
469.146	691.94
469.365	681.94
469.585	697.94
469.804	704.94
470.023	736.94
470.243	723.94
470.462	732.94
470.681	738.94
470.901	746.94
471.12	727.94
471.339	728.94
471.558	713.94
471.777	741.94
471.997	705.94
472.216	687.94
472.435	679.94
472.654	685.94
472.873	681.94
473.092	667.94
473.311	682.94
473.53	673.94
473.749	682.94
473.968	673.94
474.187	679.94
474.406	695.94
474.625	676.94
474.844	680.94
475.063	679.94
475.282	674.94
475.501	675.94
475.72	694.94
475.939	675.94
476.158	701.94
476.377	698.94
476.596	711.94
476.814	702.94
477.033	704.94
477.252	709.94
477.471	747.94
477.69	766.94
477.908	785.94
478.127	778.94
478.346	797.94
478.564	788.94
478.783	849.94
479.002	859.94
479.22	853.94
479.439	839.94
479.658	821.94
479.876	820.94
480.095	833.94
480.313	889.94
480.532	891.94
480.751	879.94
480.969	856.94
481.188	816.94
481.406	796.94
481.624	786.94
481.843	800.94
482.061	787.94
482.28	795.94
482.498	771.94
482.717	778.94
482.935	783.94
483.153	781.94
483.372	786.94
483.59	777.94
483.808	795.94
484.027	777.94
484.245	773.94
484.463	799.94
484.681	819.94
484.9	835.94
485.118	812.94
485.336	825.94
485.554	807.94
485.772	836.94
485.99	826.94
486.209	793.94
486.427	815.94
486.645	815.94
486.863	829.94
487.081	827.94
487.299	835.94
487.517	828.94
487.735	822.94
487.953	838.94
488.171	852.94
488.389	792.94
488.607	792.94
488.825	809.94
489.043	802.94
489.261	807.94
489.479	822.94
489.696	811.94
489.914	822.94
490.132	831.94
490.35	801.94
490.568	840.94
490.786	845.94
491.003	837.94
491.221	856.94
491.439	831.94
491.657	807.94
491.874	816.94
492.092	826.94
492.31	843.94
492.527	858.94
492.745	871.94
492.963	841.94
493.18	853.94
493.398	837.94
493.615	868.94
493.833	872.94
494.05	872.94
494.268	855.94
494.485	882.94
494.703	859.94
494.92	864.94
495.138	876.94
495.355	850.94
495.573	883.94
495.79	885.94
496.008	898.94
496.225	903.94
496.442	913.94
496.66	907.94
496.877	907.94
497.094	943.94
497.312	971.94
497.529	971.94
497.746	979.94
497.963	1033.94
498.181	1051.94
498.398	1088.94
498.615	1171.94
498.832	1210.94
499.049	1297.94
499.267	1404.94
499.484	1515.94
499.701	1667.94
499.918	1773.94
500.135	2020.94
500.352	2231.94
500.569	2344.94
500.786	2242.94
501.003	2183.94
501.22	2007.94
501.437	1793.94
501.654	1618.94
501.871	1453.94
502.088	1336.94
502.305	1283.94
502.522	1245.94
502.739	1148.94
502.956	1101.94
503.172	1068.94
503.389	1055.94
503.606	980.94
503.823	1002.94
504.04	963.94
504.256	972.94
504.473	995.94
504.69	1020.94
504.907	985.94
505.123	920.94
505.34	909.94
505.557	851.94
505.773	884.94
505.99	832.94
506.207	812.94
506.423	785.94
506.64	766.94
506.856	782.94
507.073	788.94
507.289	756.94
507.506	752.94
507.722	734.94
507.939	737.94
508.155	741.94
508.372	771.94
508.588	733.94
508.805	723.94
509.021	714.94
509.238	708.94
509.454	715.94
509.67	692.94
509.887	695.94
510.103	727.94
510.319	684.94
510.536	705.94
510.752	699.94
510.968	703.94
511.184	654.94
511.401	682.94
511.617	689.94
511.833	663.94
512.049	692.94
512.265	703.94
512.481	681.94
512.698	679.94
512.914	677.94
513.13	682.94
513.346	689.94
513.562	699.94
513.778	683.94
513.994	691.94
514.21	711.94
514.426	720.94
514.642	709.94
514.858	709.94
515.074	728.94
515.29	676.94
515.506	714.94
515.721	748.94
515.937	728.94
516.153	763.94
516.369	775.94
516.585	776.94
516.801	813.94
517.016	837.94
517.232	838.94
517.448	881.94
517.664	907.94
517.879	921.94
518.095	939.94
518.311	900.94
518.527	884.94
518.742	869.94
518.958	811.94
519.173	793.94
519.389	795.94
519.605	753.94
519.82	725.94
520.036	718.94
520.251	715.94
520.467	717.94
520.682	689.94
520.898	699.94
521.113	713.94
521.329	657.94
521.544	660.94
521.76	679.94
521.975	664.94
522.19	672.94
522.406	660.94
522.621	650.94
522.836	653.94
523.052	654.94
523.267	673.94
523.482	652.94
523.698	637.94
523.913	625.94
524.128	653.94
524.343	630.94
524.559	644.94
524.774	638.94
524.989	636.94
525.204	647.94
525.419	617.94
525.634	639.94
525.849	627.94
526.064	623.94
526.28	623.94
526.495	645.94
526.71	613.94
526.925	618.94
527.14	584.94
527.355	616.94
527.57	611.94
527.785	619.94
527.999	616.94
528.214	620.94
528.429	627.94
528.644	633.94
528.859	646.94
529.074	606.94
529.289	635.94
529.503	628.94
529.718	635.94
529.933	627.94
530.148	605.94
530.363	630.94
530.577	607.94
530.792	611.94
531.007	588.94
531.221	609.94
531.436	626.94
531.651	629.94
531.865	619.94
532.08	625.94
532.295	615.94
532.509	587.94
532.724	625.94
532.938	617.94
533.153	610.94
533.367	635.94
533.582	605.94
533.796	616.94
534.011	608.94
534.225	617.94
534.44	618.94
534.654	575.94
534.868	587.94
535.083	584.94
535.297	607.94
535.511	598.94
535.726	613.94
535.94	595.94
536.154	571.94
536.369	592.94
536.583	618.94
536.797	584.94
537.011	583.94
537.225	563.94
537.44	565.94
537.654	582.94
537.868	565.94
538.082	566.94
538.296	587.94
538.51	575.94
538.724	547.94
538.938	571.94
539.153	565.94
539.367	576.94
539.581	561.94
539.795	552.94
540.009	543.94
540.222	544.94
540.436	555.94
540.65	552.94
540.864	551.94
541.078	566.94
541.292	566.94
541.506	571.94
541.72	560.94
541.934	556.94
542.147	581.94
542.361	560.94
542.575	546.94
542.789	543.94
543.002	566.94
543.216	547.94
543.43	553.94
543.644	548.94
543.857	536.94
544.071	564.94
544.285	562.94
544.498	564.94
544.712	561.94
544.925	567.94
545.139	583.94
545.352	595.94
545.566	597.94
545.779	609.94
545.993	583.94
546.206	585.94
546.42	580.94
546.633	550.94
546.847	575.94
547.06	600.94
547.274	584.94
547.487	598.94
547.7	559.94
547.914	578.94
548.127	583.94
548.34	578.94
548.554	578.94
548.767	570.94
548.98	566.94
549.193	589.94
549.407	585.94
549.62	604.94
549.833	596.94
550.046	591.94
550.259	585.94
550.473	561.94
550.686	572.94
550.899	583.94
551.112	551.94
551.325	559.94
551.538	575.94
551.751	577.94
551.964	571.94
552.177	581.94
552.39	580.94
552.603	581.94
552.816	606.94
553.029	639.94
553.242	614.94
553.455	641.94
553.667	615.94
553.88	633.94
554.093	563.94
554.306	580.94
554.519	596.94
554.732	538.94
554.944	567.94
555.157	575.94
555.37	551.94
555.583	531.94
555.795	539.94
556.008	541.94
556.221	516.94
556.433	518.94
556.646	517.94
556.859	508.94
557.071	481.94
557.284	506.94
557.496	516.94
557.709	493.94
557.921	493.94
558.134	488.94
558.346	489.94
558.559	493.94
558.771	484.94
558.984	492.94
559.196	470.94
559.409	471.94
559.621	489.94
559.833	465.94
560.046	474.94
560.258	448.94
560.47	482.94
560.683	457.94
560.895	461.94
561.107	481.94
561.32	466.94
561.532	496.94
561.744	476.94
561.956	457.94
562.168	473.94
562.381	469.94
562.593	482.94
562.805	475.94
563.017	475.94
563.229	472.94
563.441	492.94
563.653	476.94
563.865	476.94
564.077	467.94
564.289	503.94
564.501	477.94
564.713	491.94
564.925	512.94
565.137	539.94
565.349	539.94
565.561	522.94
565.773	559.94
565.985	584.94
566.197	609.94
566.408	630.94
566.62	666.94
566.832	708.94
567.044	735.94
567.255	753.94
567.467	766.94
567.679	776.94
567.891	819.94
568.102	816.94
568.314	788.94
568.526	729.94
568.737	663.94
568.949	620.94
569.161	591.94
569.372	559.94
569.584	536.94
569.795	513.94
570.007	523.94
570.218	515.94
570.43	477.94
570.641	472.94
570.853	474.94
571.064	469.94
571.276	495.94
571.487	465.94
571.698	438.94
571.91	453.94
572.121	429.94
572.333	419.94
572.544	425.94
572.755	404.94
572.966	421.94
573.178	408.94
573.389	392.94
573.6	393.94
573.811	393.94
574.023	388.94
574.234	394.94
574.445	401.94
574.656	391.94
574.867	411.94
575.078	384.94
575.289	393.94
575.501	378.94
575.712	371.94
575.923	380.94
576.134	361.94
576.345	383.94
576.556	379.94
576.767	385.94
576.978	401.94
577.188	350.94
577.399	356.94
577.61	387.94
577.821	348.94
578.032	371.94
578.243	348.94
578.454	345.94
578.665	355.94
578.875	331.94
579.086	343.94
579.297	331.94
579.508	346.94
579.718	340.94
579.929	342.94
580.14	350.94
580.35	340.94
580.561	354.94
580.772	344.94
580.982	335.94
581.193	321.94
581.403	348.94
581.614	343.94
581.825	328.94
582.035	346.94
582.246	341.94
582.456	328.94
582.667	329.94
582.877	351.94
583.087	336.94
583.298	330.94
583.508	340.94
583.719	337.94
583.929	331.94
584.139	319.94
584.35	330.94
584.56	324.94
584.77	320.94
584.981	328.94
585.191	312.94
585.401	337.94
585.611	320.94
585.821	332.94
586.032	306.94
586.242	316.94
586.452	321.94
586.662	319.94
586.872	313.94
587.082	334.94
587.292	333.94
587.502	321.94
587.713	309.94
587.923	306.94
588.133	309.94
588.343	323.94
588.553	320.94
588.762	338.94
588.972	314.94
589.182	335.94
589.392	356.94
589.602	319.94
589.812	324.94
590.022	345.94
590.232	326.94
590.441	317.94
590.651	317.94
590.861	314.94
591.071	332.94
591.281	332.94
591.49	344.94
591.7	339.94
591.91	353.94
592.119	329.94
592.329	345.94
592.539	330.94
592.748	345.94
592.958	354.94
593.167	385.94
593.377	391.94
593.587	400.94
593.796	386.94
594.006	390.94
594.215	380.94
594.424	375.94
594.634	381.94
594.843	375.94
595.053	363.94
595.262	348.94
595.472	341.94
595.681	337.94
595.89	312.94
596.1	318.94
596.309	316.94
596.518	312.94
596.727	315.94
596.937	300.94
597.146	310.94
597.355	291.94
597.564	317.94
597.774	303.94
597.983	287.94
598.192	269.94
598.401	289.94
598.61	284.94
598.819	283.94
599.028	273.94
599.237	274.94
599.446	291.94
599.655	277.94
599.864	277.94
600.073	263.94
600.282	263.94
600.491	258.94
600.7	269.94
600.909	260.94
601.118	263.94
601.327	261.94
601.536	276.94
601.745	254.94
601.953	281.94
602.162	255.94
602.371	268.94
602.58	245.94
602.789	257.94
602.997	254.94
603.206	281.94
603.415	260.94
603.623	253.94
603.832	243.94
604.041	263.94
604.249	270.94
604.458	265.94
604.666	246.94
604.875	257.94
605.084	255.94
605.292	250.94
605.501	261.94
605.709	253.94
605.918	261.94
606.126	249.94
606.334	247.94
606.543	236.94
606.751	246.94
606.96	245.94
607.168	255.94
607.376	238.94
607.585	245.94
607.793	239.94
608.001	234.94
608.21	230.94
608.418	233.94
608.626	240.94
608.834	237.94
609.043	252.94
609.251	256.94
609.459	251.94
609.667	233.94
609.875	249.94
610.083	229.94
610.291	263.94
610.499	223.94
610.707	213.94
610.916	231.94
611.124	256.94
611.332	243.94
611.54	239.94
611.748	230.94
611.955	244.94
612.163	247.94
612.371	241.94
612.579	253.94
612.787	230.94
612.995	233.94
613.203	253.94
613.411	235.94
613.618	255.94
613.826	228.94
614.034	222.94
614.242	229.94
614.449	221.94
614.657	243.94
614.865	229.94
615.072	239.94
615.28	222.94
615.488	251.94
615.695	241.94
615.903	235.94
616.111	235.94
616.318	239.94
616.526	250.94
616.733	241.94
616.941	217.94
617.148	235.94
617.356	227.94
617.563	227.94
617.771	227.94
617.978	240.94
618.185	229.94
618.393	242.94
618.6	233.94
618.807	232.94
619.015	240.94
619.222	227.94
619.429	255.94
619.637	228.94
619.844	248.94
620.051	221.94
620.258	232.94
620.466	252.94
620.673	207.94
620.88	227.94
621.087	214.94
621.294	211.94
621.501	224.94
621.708	229.94
621.915	219.94
622.122	212.94
622.329	212.94
622.536	227.94
622.743	229.94
622.95	216.94
623.157	214.94
623.364	214.94
623.571	215.94
623.778	214.94
623.985	217.94
624.192	208.94
624.399	204.94
624.606	209.94
624.812	203.94
625.019	201.94
625.226	211.94
625.433	209.94
625.639	216.94
625.846	196.94
626.053	217.94
626.259	200.94
626.466	193.94
626.673	200.94
626.879	203.94
627.086	205.94
627.293	201.94
627.499	212.94
627.706	203.94
627.912	204.94
628.119	201.94
628.325	204.94
628.532	207.94
628.738	190.94
628.945	188.94
629.151	187.94
629.357	191.94
629.564	195.94
629.77	203.94
629.976	199.94
630.183	197.94
630.389	199.94
630.595	184.94
630.802	184.94
631.008	183.94
631.214	196.94
631.42	190.94
631.627	186.94
631.833	184.94
632.039	187.94
632.245	182.94
632.451	202.94
632.657	192.94
632.863	175.94
633.069	181.94
633.275	188.94
633.481	182.94
633.688	166.94
633.893	197.94
634.099	190.94
634.305	175.94
634.511	184.94
634.717	166.94
634.923	181.94
635.129	179.94
635.335	172.94
635.541	183.94
635.747	173.94
635.952	170.94
636.158	194.94
636.364	171.94
636.57	162.94
636.775	177.94
636.981	191.94
637.187	166.94
637.392	185.94
637.598	181.94
637.804	183.94
638.009	179.94
638.215	179.94
638.421	165.94
638.626	163.94
638.832	168.94
639.037	159.94
639.243	157.94
639.448	163.94
639.654	171.94
639.859	175.94
640.065	172.94
640.27	176.94
640.475	169.94
640.681	170.94
640.886	163.94
641.091	176.94
641.297	167.94
641.502	167.94
641.707	180.94
641.913	167.94
642.118	165.94
642.323	158.94
642.528	176.94
642.733	161.94
642.939	162.94
643.144	178.94
643.349	167.94
643.554	159.94
643.759	180.94
643.964	151.94
644.169	155.94
644.374	172.94
644.579	175.94
644.784	187.94
644.989	171.94
645.194	169.94
645.399	151.94
645.604	169.94
645.809	181.94
646.014	163.94
646.219	159.94
646.423	163.94
646.628	162.94
646.833	145.94
647.038	153.94
647.243	176.94
647.447	162.94
647.652	155.94
647.857	164.94
648.062	164.94
648.266	173.94
648.471	174.94
648.676	170.94
648.88	175.94
649.085	155.94
649.289	177.94
649.494	151.94
649.698	162.94
649.903	165.94
650.107	167.94
650.312	164.94
650.516	169.94
650.721	161.94
650.925	164.94
651.13	160.94
651.334	154.94
651.539	149.94
651.743	164.94
651.947	131.94
652.152	165.94
652.356	156.94
652.56	145.94
652.764	145.94
652.969	152.94
653.173	142.94
653.377	130.94
653.581	152.94
653.785	150.94
653.99	139.94
654.194	152.94
654.398	150.94
654.602	139.94
654.806	145.94
655.01	146.94
655.214	150.94
655.418	150.94
655.622	136.94
655.826	146.94
656.03	138.94
656.234	135.94
656.438	135.94
656.642	133.94
656.846	126.94
657.049	122.94
657.253	129.94
657.457	136.94
657.661	114.94
657.865	125.94
658.068	121.94
658.272	101.94
658.476	120.94
658.68	111.94
658.883	111.94
659.087	106.94
659.291	97.94
659.494	94.94
659.698	83.94
659.901	85.94
660.105	89.94
660.309	111.94
660.512	88.94
660.716	95.94
660.919	92.94
661.123	95.94
661.326	104.94
661.53	87.94
661.733	92.94
661.936	89.94
662.14	96.94
662.343	76.94
662.546	73.94
662.75	80.94
662.953	95.94
663.156	92.94
663.36	77.94
663.563	82.94
663.766	73.94
663.969	80.94
664.173	85.94
664.376	87.94
664.579	74.94
664.782	89.94
664.985	94.94
665.188	79.94
665.391	91.94
665.594	70.94
665.797	87.94
666	86.94
666.203	68.94
666.406	83.94
666.609	97.94
666.812	83.94
667.015	68.94
667.218	76.94
667.421	80.94
667.624	71.94
667.827	83.94
668.03	73.94
668.232	83.94
668.435	81.94
668.638	76.94
668.841	70.94
669.043	81.94
669.246	76.94
669.449	76.94
669.651	76.94
669.854	85.94
670.057	78.94
670.259	101.94
670.462	85.94
670.665	84.94
670.867	98.94
671.07	88.94
671.272	75.94
671.475	87.94
671.677	83.94
671.88	73.94
672.082	86.94
672.284	96.94
672.487	71.94
672.689	83.94
672.892	86.94
