Data from NiCl2@0.25M.TitratingCurve.Agarose3%dH2O.NegLispCup.LampEnergy10.LIBS07252019_HRD10591_18-25-36-573.txt Node
Date: Thu Jul 25 18:25:36 EDT 2019
User: cochatt
Spectrometer: HR+D1059
Trigger mode: 1
Integration Time (sec): 1.000000E-1
Scans to average: 1
Electric dark correction enabled: true
Nonlinearity correction enabled: false
Boxcar width: 0
XAxis mode: Wavelengths
Number of Pixels in Spectrum: 2048
>>>>>Begin Spectral Data<<<<<
223.165	-9.75
223.4	-9.75
223.635	-9.75
223.869	-21.75
224.104	-32.75
224.338	-9.75
224.573	-13.75
224.808	-16.75
225.042	-10.75
225.277	0.25
225.511	-2.75
225.746	5.25
225.98	8.25
226.215	4.25
226.449	16.25
226.683	23.25
226.918	21.25
227.152	39.25
227.387	29.25
227.621	28.25
227.856	50.25
228.09	47.25
228.324	52.25
228.559	64.25
228.793	76.25
229.027	108.25
229.262	115.25
229.496	141.25
229.73	124.25
229.964	132.25
230.199	142.25
230.433	135.25
230.667	148.25
230.901	149.25
231.136	160.25
231.37	133.25
231.604	156.25
231.838	155.25
232.072	169.25
232.306	151.25
232.541	168.25
232.775	154.25
233.009	161.25
233.243	161.25
233.477	169.25
233.711	162.25
233.945	162.25
234.179	154.25
234.413	169.25
234.647	159.25
234.881	147.25
235.115	158.25
235.349	175.25
235.583	184.25
235.817	168.25
236.051	155.25
236.285	165.25
236.519	165.25
236.753	181.25
236.987	184.25
237.221	185.25
237.455	183.25
237.689	185.25
237.922	186.25
238.156	183.25
238.39	195.25
238.624	187.25
238.858	168.25
239.091	192.25
239.325	205.25
239.559	200.25
239.793	191.25
240.027	207.25
240.26	203.25
240.494	193.25
240.728	191.25
240.961	202.25
241.195	209.25
241.429	197.25
241.662	211.25
241.896	214.25
242.13	215.25
242.363	201.25
242.597	200.25
242.83	230.25
243.064	227.25
243.298	219.25
243.531	233.25
243.765	239.25
243.998	227.25
244.232	235.25
244.465	226.25
244.699	255.25
244.932	233.25
245.166	242.25
245.399	249.25
245.633	255.25
245.866	243.25
246.099	245.25
246.333	263.25
246.566	258.25
246.8	266.25
247.033	248.25
247.266	278.25
247.5	261.25
247.733	245.25
247.966	269.25
248.2	258.25
248.433	282.25
248.666	280.25
248.899	246.25
249.133	258.25
249.366	276.25
249.599	274.25
249.832	288.25
250.066	297.25
250.299	286.25
250.532	277.25
250.765	296.25
250.998	298.25
251.231	289.25
251.465	284.25
251.698	289.25
251.931	322.25
252.164	307.25
252.397	305.25
252.63	298.25
252.863	323.25
253.096	301.25
253.329	312.25
253.562	331.25
253.795	332.25
254.028	305.25
254.261	296.25
254.494	320.25
254.727	307.25
254.96	323.25
255.193	322.25
255.426	321.25
255.659	328.25
255.892	325.25
256.124	323.25
256.357	316.25
256.59	326.25
256.823	332.25
257.056	340.25
257.289	336.25
257.521	340.25
257.754	350.25
257.987	338.25
258.22	340.25
258.452	336.25
258.685	348.25
258.918	365.25
259.151	348.25
259.383	329.25
259.616	352.25
259.849	348.25
260.081	371.25
260.314	364.25
260.547	353.25
260.779	354.25
261.012	355.25
261.244	366.25
261.477	347.25
261.71	387.25
261.942	383.25
262.175	379.25
262.407	378.25
262.64	373.25
262.872	371.25
263.105	372.25
263.337	378.25
263.57	377.25
263.802	374.25
264.035	388.25
264.267	406.25
264.499	375.25
264.732	405.25
264.964	411.25
265.197	408.25
265.429	412.25
265.661	418.25
265.894	417.25
266.126	402.25
266.358	411.25
266.591	394.25
266.823	403.25
267.055	417.25
267.287	427.25
267.52	420.25
267.752	406.25
267.984	435.25
268.216	423.25
268.448	403.25
268.681	415.25
268.913	422.25
269.145	443.25
269.377	415.25
269.609	430.25
269.841	417.25
270.073	428.25
270.306	438.25
270.538	427.25
270.77	411.25
271.002	440.25
271.234	442.25
271.466	432.25
271.698	437.25
271.93	450.25
272.162	430.25
272.394	444.25
272.626	464.25
272.858	446.25
273.09	486.25
273.322	461.25
273.553	447.25
273.785	468.25
274.017	455.25
274.249	476.25
274.481	465.25
274.713	454.25
274.945	482.25
275.176	466.25
275.408	495.25
275.64	475.25
275.872	482.25
276.104	477.25
276.335	475.25
276.567	461.25
276.799	474.25
277.031	485.25
277.262	472.25
277.494	494.25
277.726	468.25
277.957	500.25
278.189	482.25
278.421	492.25
278.652	495.25
278.884	515.25
279.115	502.25
279.347	519.25
279.579	508.25
279.81	520.25
280.042	517.25
280.273	519.25
280.505	514.25
280.736	523.25
280.968	510.25
281.199	539.25
281.431	549.25
281.662	537.25
281.894	527.25
282.125	534.25
282.356	535.25
282.588	543.25
282.819	545.25
283.051	528.25
283.282	553.25
283.513	554.25
283.745	556.25
283.976	549.25
284.207	586.25
284.439	562.25
284.67	566.25
284.901	576.25
285.132	582.25
285.364	553.25
285.595	554.25
285.826	582.25
286.057	561.25
286.288	563.25
286.52	576.25
286.751	583.25
286.982	592.25
287.213	583.25
287.444	584.25
287.675	598.25
287.906	585.25
288.138	597.25
288.369	587.25
288.6	594.25
288.831	587.25
289.062	599.25
289.293	591.25
289.524	590.25
289.755	595.25
289.986	616.25
290.217	605.25
290.448	604.25
290.679	601.25
290.91	608.25
291.141	611.25
291.371	590.25
291.602	620.25
291.833	625.25
292.064	602.25
292.295	616.25
292.526	616.25
292.757	640.25
292.987	600.25
293.218	610.25
293.449	628.25
293.68	603.25
293.91	617.25
294.141	612.25
294.372	599.25
294.603	611.25
294.833	646.25
295.064	623.25
295.295	628.25
295.525	616.25
295.756	606.25
295.987	609.25
296.217	644.25
296.448	618.25
296.679	635.25
296.909	637.25
297.14	644.25
297.37	645.25
297.601	671.25
297.831	665.25
298.062	639.25
298.292	667.25
298.523	689.25
298.753	694.25
298.984	667.25
299.214	697.25
299.445	663.25
299.675	660.25
299.905	660.25
300.136	675.25
300.366	664.25
300.597	668.25
300.827	673.25
301.057	703.25
301.288	697.25
301.518	683.25
301.748	720.25
301.979	712.25
302.209	716.25
302.439	707.25
302.669	666.25
302.9	688.25
303.13	706.25
303.36	697.25
303.59	665.25
303.82	689.25
304.051	691.25
304.281	687.25
304.511	681.25
304.741	665.25
304.971	683.25
305.201	676.25
305.431	682.25
305.661	696.25
305.891	695.25
306.121	693.25
306.352	684.25
306.582	651.25
306.812	656.25
307.042	683.25
307.272	688.25
307.502	689.25
307.731	685.25
307.961	666.25
308.191	661.25
308.421	691.25
308.651	676.25
308.881	664.25
309.111	690.25
309.341	675.25
309.571	676.25
309.8	668.25
310.03	693.25
310.26	676.25
310.49	669.25
310.72	692.25
310.949	676.25
311.179	660.25
311.409	673.25
311.639	672.25
311.868	684.25
312.098	673.25
312.328	715.25
312.557	716.25
312.787	695.25
313.017	695.25
313.246	714.25
313.476	719.25
313.706	728.25
313.935	736.25
314.165	728.25
314.394	736.25
314.624	729.25
314.853	729.25
315.083	716.25
315.312	723.25
315.542	705.25
315.771	732.25
316.001	715.25
316.23	708.25
316.46	714.25
316.689	706.25
316.919	724.25
317.148	703.25
317.377	708.25
317.607	709.25
317.836	706.25
318.065	716.25
318.295	675.25
318.524	725.25
318.753	699.25
318.983	703.25
319.212	705.25
319.441	727.25
319.67	703.25
319.9	708.25
320.129	719.25
320.358	718.25
320.587	737.25
320.816	725.25
321.046	722.25
321.275	692.25
321.504	693.25
321.733	697.25
321.962	713.25
322.191	738.25
322.42	720.25
322.649	728.25
322.878	721.25
323.108	723.25
323.337	724.25
323.566	716.25
323.795	731.25
324.024	755.25
324.253	727.25
324.482	721.25
324.71	730.25
324.939	722.25
325.168	764.25
325.397	777.25
325.626	729.25
325.855	730.25
326.084	754.25
326.313	787.25
326.542	788.25
326.77	794.25
326.999	768.25
327.228	760.25
327.457	768.25
327.686	740.25
327.914	799.25
328.143	773.25
328.372	758.25
328.6	768.25
328.829	775.25
329.058	738.25
329.287	781.25
329.515	767.25
329.744	787.25
329.972	809.25
330.201	800.25
330.43	795.25
330.658	776.25
330.887	792.25
331.115	812.25
331.344	807.25
331.572	840.25
331.801	858.25
332.03	853.25
332.258	865.25
332.486	898.25
332.715	913.25
332.943	944.25
333.172	960.25
333.4	1005.25
333.629	1030.25
333.857	1040.25
334.085	1054.25
334.314	1049.25
334.542	1048.25
334.771	1053.25
334.999	1012.25
335.227	1018.25
335.455	1009.25
335.684	992.25
335.912	992.25
336.14	972.25
336.369	953.25
336.597	978.25
336.825	940.25
337.053	945.25
337.281	915.25
337.51	918.25
337.738	875.25
337.966	890.25
338.194	873.25
338.422	856.25
338.65	843.25
338.878	845.25
339.106	836.25
339.334	848.25
339.562	845.25
339.79	845.25
340.018	812.25
340.246	812.25
340.474	810.25
340.702	840.25
340.93	827.25
341.158	803.25
341.386	824.25
341.614	821.25
341.842	842.25
342.07	819.25
342.298	828.25
342.526	812.25
342.754	820.25
342.981	798.25
343.209	831.25
343.437	883.25
343.665	903.25
343.893	940.25
344.12	1007.25
344.348	989.25
344.576	937.25
344.804	881.25
345.031	871.25
345.259	848.25
345.487	803.25
345.714	813.25
345.942	816.25
346.17	835.25
346.397	807.25
346.625	778.25
346.853	789.25
347.08	792.25
347.308	788.25
347.535	794.25
347.763	799.25
347.99	775.25
348.218	796.25
348.445	802.25
348.673	795.25
348.9	788.25
349.128	780.25
349.355	802.25
349.583	801.25
349.81	753.25
350.037	761.25
350.265	748.25
350.492	754.25
350.72	719.25
350.947	756.25
351.174	749.25
351.402	759.25
351.629	767.25
351.856	751.25
352.083	743.25
352.311	724.25
352.538	762.25
352.765	756.25
352.992	747.25
353.22	731.25
353.447	731.25
353.674	741.25
353.901	736.25
354.128	753.25
354.355	748.25
354.583	734.25
354.81	753.25
355.037	745.25
355.264	744.25
355.491	759.25
355.718	759.25
355.945	770.25
356.172	768.25
356.399	759.25
356.626	769.25
356.853	749.25
357.08	755.25
357.307	770.25
357.534	741.25
357.761	745.25
357.988	753.25
358.215	735.25
358.441	736.25
358.668	769.25
358.895	761.25
359.122	758.25
359.349	737.25
359.576	770.25
359.802	751.25
360.029	768.25
360.256	756.25
360.483	736.25
360.709	770.25
360.936	747.25
361.163	760.25
361.39	755.25
361.616	756.25
361.843	747.25
362.07	751.25
362.296	758.25
362.523	747.25
362.749	775.25
362.976	748.25
363.203	755.25
363.429	746.25
363.656	752.25
363.882	753.25
364.109	738.25
364.335	749.25
364.562	739.25
364.788	730.25
365.015	743.25
365.241	754.25
365.468	765.25
365.694	743.25
365.92	752.25
366.147	735.25
366.373	745.25
366.599	740.25
366.826	763.25
367.052	731.25
367.278	730.25
367.505	742.25
367.731	739.25
367.957	745.25
368.184	752.25
368.41	770.25
368.636	759.25
368.862	729.25
369.089	743.25
369.315	772.25
369.541	761.25
369.767	801.25
369.993	768.25
370.219	781.25
370.445	805.25
370.672	783.25
370.898	776.25
371.124	810.25
371.35	819.25
371.576	833.25
371.802	806.25
372.028	810.25
372.254	820.25
372.48	819.25
372.706	840.25
372.932	854.25
373.158	848.25
373.384	848.25
373.61	807.25
373.835	823.25
374.061	831.25
374.287	820.25
374.513	833.25
374.739	873.25
374.965	881.25
375.191	924.25
375.416	905.25
375.642	882.25
375.868	889.25
376.094	891.25
376.319	824.25
376.545	825.25
376.771	839.25
376.997	829.25
377.222	821.25
377.448	839.25
377.674	822.25
377.899	805.25
378.125	824.25
378.35	803.25
378.576	803.25
378.802	829.25
379.027	797.25
379.253	833.25
379.478	817.25
379.704	783.25
379.929	786.25
380.155	829.25
380.38	798.25
380.606	821.25
380.831	824.25
381.057	833.25
381.282	801.25
381.507	818.25
381.733	839.25
381.958	817.25
382.184	841.25
382.409	836.25
382.634	844.25
382.86	851.25
383.085	858.25
383.31	855.25
383.535	903.25
383.761	923.25
383.986	903.25
384.211	892.25
384.436	927.25
384.662	945.25
384.887	966.25
385.112	960.25
385.337	998.25
385.562	996.25
385.787	978.25
386.013	1003.25
386.238	991.25
386.463	1021.25
386.688	998.25
386.913	983.25
387.138	997.25
387.363	1004.25
387.588	1002.25
387.813	985.25
388.038	971.25
388.263	989.25
388.488	974.25
388.713	1000.25
388.938	980.25
389.163	970.25
389.387	966.25
389.612	966.25
389.837	968.25
390.062	979.25
390.287	975.25
390.512	962.25
390.736	975.25
390.961	990.25
391.186	1030.25
391.411	1076.25
391.636	1089.25
391.86	1116.25
392.085	1129.25
392.31	1141.25
392.534	1095.25
392.759	1100.25
392.984	1051.25
393.208	1049.25
393.433	1048.25
393.658	1034.25
393.882	1024.25
394.107	1049.25
394.331	1064.25
394.556	1053.25
394.78	1060.25
395.005	1061.25
395.229	1046.25
395.454	1103.25
395.678	1131.25
395.903	1144.25
396.127	1111.25
396.352	1083.25
396.576	1073.25
396.801	1080.25
397.025	1086.25
397.249	1096.25
397.474	1114.25
397.698	1131.25
397.922	1141.25
398.147	1156.25
398.371	1141.25
398.595	1196.25
398.82	1265.25
399.044	1343.25
399.268	1465.25
399.492	1684.25
399.717	1839.25
399.941	1890.25
400.165	1711.25
400.389	1564.25
400.613	1419.25
400.837	1362.25
401.062	1302.25
401.286	1282.25
401.51	1291.25
401.734	1245.25
401.958	1297.25
402.182	1268.25
402.406	1289.25
402.63	1309.25
402.854	1296.25
403.078	1372.25
403.302	1379.25
403.526	1405.25
403.75	1424.25
403.974	1427.25
404.198	1419.25
404.422	1401.25
404.645	1467.25
404.869	1412.25
405.093	1413.25
405.317	1389.25
405.541	1380.25
405.765	1404.25
405.988	1372.25
406.212	1413.25
406.436	1393.25
406.66	1433.25
406.883	1461.25
407.107	1525.25
407.331	1595.25
407.555	1634.25
407.778	1657.25
408.002	1586.25
408.226	1565.25
408.449	1543.25
408.673	1439.25
408.896	1422.25
409.12	1413.25
409.344	1445.25
409.567	1401.25
409.791	1404.25
410.014	1428.25
410.238	1420.25
410.461	1367.25
410.685	1375.25
410.908	1327.25
411.132	1366.25
411.355	1296.25
411.578	1310.25
411.802	1301.25
412.025	1336.25
412.249	1317.25
412.472	1340.25
412.695	1292.25
412.919	1250.25
413.142	1258.25
413.365	1264.25
413.589	1283.25
413.812	1249.25
414.035	1284.25
414.258	1226.25
414.482	1258.25
414.705	1275.25
414.928	1290.25
415.151	1297.25
415.374	1241.25
415.597	1240.25
415.821	1200.25
416.044	1209.25
416.267	1208.25
416.49	1228.25
416.713	1226.25
416.936	1223.25
417.159	1229.25
417.382	1195.25
417.605	1221.25
417.828	1205.25
418.051	1249.25
418.274	1209.25
418.497	1259.25
418.72	1279.25
418.943	1271.25
419.166	1329.25
419.389	1436.25
419.611	1415.25
419.834	1371.25
420.057	1308.25
420.28	1249.25
420.503	1239.25
420.726	1222.25
420.948	1215.25
421.171	1241.25
421.394	1207.25
421.617	1210.25
421.839	1219.25
422.062	1217.25
422.285	1204.25
422.507	1261.25
422.73	1259.25
422.953	1257.25
423.175	1270.25
423.398	1297.25
423.621	1272.25
423.843	1256.25
424.066	1270.25
424.288	1284.25
424.511	1277.25
424.733	1278.25
424.956	1258.25
425.178	1265.25
425.401	1248.25
425.623	1242.25
425.846	1205.25
426.068	1231.25
426.291	1202.25
426.513	1151.25
426.735	1157.25
426.958	1173.25
427.18	1141.25
427.402	1187.25
427.625	1127.25
427.847	1087.25
428.069	1111.25
428.292	1159.25
428.514	1108.25
428.736	1113.25
428.958	1124.25
429.181	1091.25
429.403	1080.25
429.625	1085.25
429.847	1068.25
430.069	1086.25
430.292	1081.25
430.514	1054.25
430.736	1067.25
430.958	1050.25
431.18	1099.25
431.402	1096.25
431.624	1045.25
431.846	1091.25
432.068	1128.25
432.29	1115.25
432.512	1092.25
432.734	1119.25
432.956	1077.25
433.178	1109.25
433.4	1062.25
433.622	1100.25
433.844	1116.25
434.066	1151.25
434.287	1118.25
434.509	1151.25
434.731	1202.25
434.953	1220.25
435.175	1247.25
435.397	1229.25
435.618	1159.25
435.84	1138.25
436.062	1090.25
436.284	1099.25
436.505	1100.25
436.727	1092.25
436.949	1112.25
437.17	1070.25
437.392	1069.25
437.614	1058.25
437.835	1023.25
438.057	1067.25
438.278	1035.25
438.5	1043.25
438.721	1063.25
438.943	1050.25
439.165	1029.25
439.386	1053.25
439.608	1065.25
439.829	1087.25
440.05	1089.25
440.272	1098.25
440.493	1070.25
440.715	1146.25
440.936	1155.25
441.158	1145.25
441.379	1162.25
441.6	1220.25
441.822	1218.25
442.043	1232.25
442.264	1165.25
442.486	1189.25
442.707	1203.25
442.928	1160.25
443.149	1208.25
443.371	1206.25
443.592	1199.25
443.813	1207.25
444.034	1224.25
444.255	1295.25
444.476	1318.25
444.698	1386.25
444.919	1484.25
445.14	1491.25
445.361	1362.25
445.582	1252.25
445.803	1210.25
446.024	1165.25
446.245	1165.25
446.466	1157.25
446.687	1105.25
446.908	1099.25
447.129	1068.25
447.35	1045.25
447.571	1032.25
447.792	1044.25
448.013	994.25
448.234	1004.25
448.455	977.25
448.675	985.25
448.896	993.25
449.117	975.25
449.338	979.25
449.559	940.25
449.779	996.25
450	977.25
450.221	971.25
450.442	992.25
450.662	996.25
450.883	986.25
451.104	991.25
451.324	1029.25
451.545	1015.25
451.766	1015.25
451.986	987.25
452.207	975.25
452.428	996.25
452.648	991.25
452.869	968.25
453.089	972.25
453.31	995.25
453.53	960.25
453.751	955.25
453.971	966.25
454.192	951.25
454.412	922.25
454.633	962.25
454.853	967.25
455.073	925.25
455.294	962.25
455.514	921.25
455.734	927.25
455.955	919.25
456.175	914.25
456.395	920.25
456.616	909.25
456.836	933.25
457.056	953.25
457.276	934.25
457.497	957.25
457.717	951.25
457.937	925.25
458.157	947.25
458.377	987.25
458.598	982.25
458.818	1003.25
459.038	1011.25
459.258	1073.25
459.478	1092.25
459.698	1131.25
459.918	1163.25
460.138	1217.25
460.358	1298.25
460.578	1313.25
460.798	1290.25
461.018	1312.25
461.238	1303.25
461.458	1291.25
461.678	1308.25
461.898	1321.25
462.118	1322.25
462.338	1371.25
462.558	1432.25
462.777	1453.25
462.997	1595.25
463.217	1665.25
463.437	1692.25
463.657	1624.25
463.876	1577.25
464.096	1535.25
464.316	1486.25
464.536	1548.25
464.755	1433.25
464.975	1419.25
465.195	1357.25
465.414	1285.25
465.634	1194.25
465.854	1142.25
466.073	1163.25
466.293	1104.25
466.512	1096.25
466.732	1050.25
466.951	1051.25
467.171	1052.25
467.391	1077.25
467.61	1041.25
467.829	1048.25
468.049	1066.25
468.268	981.25
468.488	1016.25
468.707	1003.25
468.927	1008.25
469.146	1029.25
469.365	1010.25
469.585	1046.25
469.804	1029.25
470.023	1039.25
470.243	1060.25
470.462	1087.25
470.681	1088.25
470.901	1146.25
471.12	1061.25
471.339	1041.25
471.558	1024.25
471.777	1008.25
471.997	1044.25
472.216	1014.25
472.435	1021.25
472.654	1002.25
472.873	958.25
473.092	978.25
473.311	966.25
473.53	986.25
473.749	952.25
473.968	956.25
474.187	981.25
474.406	981.25
474.625	994.25
474.844	964.25
475.063	996.25
475.282	960.25
475.501	954.25
475.72	978.25
475.939	1010.25
476.158	994.25
476.377	1015.25
476.596	1029.25
476.814	1049.25
477.033	1031.25
477.252	1072.25
477.471	1108.25
477.69	1106.25
477.908	1168.25
478.127	1164.25
478.346	1191.25
478.564	1204.25
478.783	1190.25
479.002	1240.25
479.22	1240.25
479.439	1240.25
479.658	1242.25
479.876	1216.25
480.095	1258.25
480.313	1301.25
480.532	1340.25
480.751	1306.25
480.969	1272.25
481.188	1217.25
481.406	1196.25
481.624	1166.25
481.843	1151.25
482.061	1169.25
482.28	1136.25
482.498	1099.25
482.717	1112.25
482.935	1112.25
483.153	1121.25
483.372	1133.25
483.59	1123.25
483.808	1137.25
484.027	1123.25
484.245	1124.25
484.463	1140.25
484.681	1143.25
484.9	1186.25
485.118	1164.25
485.336	1186.25
485.554	1150.25
485.772	1192.25
485.99	1211.25
486.209	1201.25
486.427	1192.25
486.645	1173.25
486.863	1220.25
487.081	1195.25
487.299	1154.25
487.517	1184.25
487.735	1179.25
487.953	1191.25
488.171	1196.25
488.389	1161.25
488.607	1166.25
488.825	1144.25
489.043	1175.25
489.261	1162.25
489.479	1161.25
489.696	1186.25
489.914	1162.25
490.132	1196.25
490.35	1196.25
490.568	1195.25
490.786	1169.25
491.003	1190.25
491.221	1180.25
491.439	1191.25
491.657	1181.25
491.874	1234.25
492.092	1212.25
492.31	1212.25
492.527	1232.25
492.745	1223.25
492.963	1210.25
493.18	1223.25
493.398	1232.25
493.615	1239.25
493.833	1223.25
494.05	1273.25
494.268	1245.25
494.485	1255.25
494.703	1242.25
494.92	1273.25
495.138	1289.25
495.355	1255.25
495.573	1266.25
495.79	1278.25
496.008	1289.25
496.225	1297.25
496.442	1281.25
496.66	1329.25
496.877	1338.25
497.094	1377.25
497.312	1376.25
497.529	1432.25
497.746	1454.25
497.963	1494.25
498.181	1608.25
498.398	1678.25
498.615	1747.25
498.832	1846.25
499.049	1996.25
499.267	2159.25
499.484	2408.25
499.701	2641.25
499.918	2869.25
500.135	3235.25
500.352	3555.25
500.569	3739.25
500.786	3715.25
501.003	3575.25
501.22	3236.25
501.437	2903.25
501.654	2629.25
501.871	2411.25
502.088	2169.25
502.305	2026.25
502.522	1850.25
502.739	1820.25
502.956	1705.25
503.172	1609.25
503.389	1583.25
503.606	1543.25
503.823	1471.25
504.04	1485.25
504.256	1497.25
504.473	1561.25
504.69	1525.25
504.907	1495.25
505.123	1397.25
505.34	1372.25
505.557	1289.25
505.773	1249.25
505.99	1256.25
506.207	1205.25
506.423	1173.25
506.64	1151.25
506.856	1151.25
507.073	1147.25
507.289	1147.25
507.506	1103.25
507.722	1142.25
507.939	1095.25
508.155	1088.25
508.372	1072.25
508.588	1091.25
508.805	1101.25
509.021	1065.25
509.238	1037.25
509.454	1046.25
509.67	1072.25
509.887	1028.25
510.103	1006.25
510.319	1017.25
510.536	1033.25
510.752	1005.25
510.968	1022.25
511.184	1013.25
511.401	1012.25
511.617	1027.25
511.833	1012.25
512.049	995.25
512.265	1021.25
512.481	1002.25
512.698	1003.25
512.914	1031.25
513.13	1038.25
513.346	1027.25
513.562	1025.25
513.778	984.25
513.994	1013.25
514.21	992.25
514.426	1037.25
514.642	1018.25
514.858	1035.25
515.074	1061.25
515.29	1049.25
515.506	1066.25
515.721	1071.25
515.937	1083.25
516.153	1151.25
516.369	1148.25
516.585	1145.25
516.801	1238.25
517.016	1249.25
517.232	1299.25
517.448	1361.25
517.664	1428.25
517.879	1432.25
518.095	1450.25
518.311	1391.25
518.527	1366.25
518.742	1314.25
518.958	1257.25
519.173	1209.25
519.389	1159.25
519.605	1119.25
519.82	1110.25
520.036	1106.25
520.251	1098.25
520.467	1035.25
520.682	1057.25
520.898	1013.25
521.113	1029.25
521.329	1001.25
521.544	989.25
521.76	1006.25
521.975	977.25
522.19	976.25
522.406	952.25
522.621	941.25
522.836	965.25
523.052	961.25
523.267	975.25
523.482	931.25
523.698	882.25
523.913	924.25
524.128	952.25
524.343	933.25
524.559	924.25
524.774	945.25
524.989	930.25
525.204	944.25
525.419	925.25
525.634	934.25
525.849	939.25
526.064	922.25
526.28	920.25
526.495	909.25
526.71	935.25
526.925	913.25
527.14	945.25
527.355	913.25
527.57	913.25
527.785	906.25
527.999	915.25
528.214	933.25
528.429	907.25
528.644	916.25
528.859	925.25
529.074	895.25
529.289	904.25
529.503	893.25
529.718	911.25
529.933	919.25
530.148	900.25
530.363	905.25
530.577	923.25
530.792	885.25
531.007	902.25
531.221	912.25
531.436	891.25
531.651	909.25
531.865	928.25
532.08	913.25
532.295	893.25
532.509	923.25
532.724	885.25
532.938	898.25
533.153	886.25
533.367	893.25
533.582	905.25
533.796	919.25
534.011	899.25
534.225	879.25
534.44	897.25
534.654	892.25
534.868	902.25
535.083	893.25
535.297	887.25
535.511	881.25
535.726	877.25
535.94	855.25
536.154	868.25
536.369	866.25
536.583	831.25
536.797	859.25
537.011	860.25
537.225	833.25
537.44	839.25
537.654	845.25
537.868	831.25
538.082	835.25
538.296	826.25
538.51	824.25
538.724	835.25
538.938	803.25
539.153	843.25
539.367	829.25
539.581	815.25
539.795	812.25
540.009	820.25
540.222	803.25
540.436	817.25
540.65	799.25
540.864	831.25
541.078	804.25
541.292	807.25
541.506	825.25
541.72	832.25
541.934	802.25
542.147	823.25
542.361	807.25
542.575	815.25
542.789	793.25
543.002	807.25
543.216	799.25
543.43	806.25
543.644	778.25
543.857	820.25
544.071	830.25
544.285	834.25
544.498	828.25
544.712	816.25
544.925	832.25
545.139	858.25
545.352	844.25
545.566	851.25
545.779	853.25
545.993	827.25
546.206	827.25
546.42	838.25
546.633	827.25
546.847	836.25
547.06	831.25
547.274	833.25
547.487	818.25
547.7	826.25
547.914	841.25
548.127	847.25
548.34	835.25
548.554	867.25
548.767	853.25
548.98	847.25
549.193	856.25
549.407	850.25
549.62	871.25
549.833	859.25
550.046	848.25
550.259	843.25
550.473	830.25
550.686	823.25
550.899	841.25
551.112	808.25
551.325	818.25
551.538	829.25
551.751	801.25
551.964	817.25
552.177	851.25
552.39	851.25
552.603	873.25
552.816	906.25
553.029	905.25
553.242	908.25
553.455	924.25
553.667	933.25
553.88	910.25
554.093	864.25
554.306	866.25
554.519	862.25
554.732	805.25
554.944	841.25
555.157	799.25
555.37	801.25
555.583	762.25
555.795	779.25
556.008	768.25
556.221	715.25
556.433	736.25
556.646	728.25
556.859	732.25
557.071	694.25
557.284	710.25
557.496	705.25
557.709	695.25
557.921	739.25
558.134	711.25
558.346	700.25
558.559	706.25
558.771	704.25
558.984	696.25
559.196	711.25
559.409	676.25
559.621	666.25
559.833	699.25
560.046	684.25
560.258	660.25
560.47	671.25
560.683	653.25
560.895	660.25
561.107	675.25
561.32	668.25
561.532	684.25
561.744	705.25
561.956	671.25
562.168	664.25
562.381	692.25
562.593	675.25
562.805	675.25
563.017	685.25
563.229	714.25
563.441	701.25
563.653	710.25
563.865	703.25
564.077	690.25
564.289	722.25
564.501	728.25
564.713	748.25
564.925	765.25
565.137	739.25
565.349	802.25
565.561	798.25
565.773	818.25
565.985	878.25
566.197	931.25
566.408	964.25
566.62	1056.25
566.832	1130.25
567.044	1131.25
567.255	1139.25
567.467	1187.25
567.679	1229.25
567.891	1277.25
568.102	1320.25
568.314	1220.25
568.526	1121.25
568.737	1055.25
568.949	969.25
569.161	897.25
569.372	852.25
569.584	794.25
569.795	760.25
570.007	735.25
570.218	723.25
570.43	735.25
570.641	723.25
570.853	717.25
571.064	725.25
571.276	730.25
571.487	680.25
571.698	676.25
571.91	636.25
572.121	639.25
572.333	611.25
572.544	613.25
572.755	600.25
572.966	597.25
573.178	585.25
573.389	571.25
573.6	604.25
573.811	575.25
574.023	581.25
574.234	573.25
574.445	599.25
574.656	594.25
574.867	587.25
575.078	579.25
575.289	566.25
575.501	562.25
575.712	541.25
575.923	564.25
576.134	526.25
576.345	553.25
576.556	551.25
576.767	545.25
576.978	554.25
577.188	544.25
577.399	528.25
577.61	539.25
577.821	541.25
578.032	530.25
578.243	501.25
578.454	504.25
578.665	512.25
578.875	499.25
579.086	504.25
579.297	509.25
579.508	497.25
579.718	488.25
579.929	479.25
580.14	503.25
580.35	485.25
580.561	487.25
580.772	490.25
580.982	473.25
581.193	498.25
581.403	492.25
581.614	474.25
581.825	466.25
582.035	483.25
582.246	481.25
582.456	484.25
582.667	479.25
582.877	468.25
583.087	474.25
583.298	456.25
583.508	467.25
583.719	470.25
583.929	484.25
584.139	466.25
584.35	447.25
584.56	478.25
584.77	460.25
584.981	456.25
585.191	458.25
585.401	454.25
585.611	460.25
585.821	449.25
586.032	491.25
586.242	463.25
586.452	473.25
586.662	472.25
586.872	432.25
587.082	468.25
587.292	459.25
587.502	451.25
587.713	463.25
587.923	457.25
588.133	459.25
588.343	472.25
588.553	460.25
588.762	455.25
588.972	450.25
589.182	465.25
589.392	448.25
589.602	460.25
589.812	463.25
590.022	477.25
590.232	435.25
590.441	464.25
590.651	455.25
590.861	460.25
591.071	461.25
591.281	455.25
591.49	468.25
591.7	484.25
591.91	496.25
592.119	463.25
592.329	509.25
592.539	515.25
592.748	543.25
592.958	547.25
593.167	566.25
593.377	556.25
593.587	573.25
593.796	586.25
594.006	572.25
594.215	572.25
594.424	564.25
594.634	578.25
594.843	560.25
595.053	540.25
595.262	533.25
595.472	491.25
595.681	473.25
595.89	470.25
596.1	457.25
596.309	457.25
596.518	446.25
596.727	421.25
596.937	424.25
597.146	412.25
597.355	429.25
597.564	410.25
597.774	404.25
597.983	400.25
598.192	389.25
598.401	384.25
598.61	398.25
598.819	400.25
599.028	389.25
599.237	379.25
599.446	392.25
599.655	393.25
599.864	389.25
600.073	371.25
600.282	361.25
600.491	386.25
600.7	355.25
600.909	385.25
601.118	379.25
601.327	380.25
601.536	368.25
601.745	372.25
601.953	360.25
602.162	360.25
602.371	371.25
602.58	367.25
602.789	368.25
602.997	371.25
603.206	374.25
603.415	370.25
603.623	364.25
603.832	361.25
604.041	347.25
604.249	344.25
604.458	364.25
604.666	345.25
604.875	351.25
605.084	329.25
605.292	367.25
605.501	367.25
605.709	341.25
605.918	345.25
606.126	377.25
606.334	342.25
606.543	343.25
606.751	344.25
606.96	342.25
607.168	306.25
607.376	343.25
607.585	338.25
607.793	340.25
608.001	324.25
608.21	323.25
608.418	338.25
608.626	327.25
608.834	346.25
609.043	333.25
609.251	343.25
609.459	345.25
609.667	331.25
609.875	317.25
610.083	330.25
610.291	324.25
610.499	320.25
610.707	332.25
610.916	310.25
611.124	324.25
611.332	320.25
611.54	327.25
611.748	337.25
611.955	332.25
612.163	323.25
612.371	336.25
612.579	317.25
612.787	339.25
612.995	346.25
613.203	324.25
613.411	327.25
613.618	316.25
613.826	336.25
614.034	315.25
614.242	328.25
614.449	324.25
614.657	317.25
614.865	301.25
615.072	329.25
615.28	331.25
615.488	309.25
615.695	326.25
615.903	299.25
616.111	322.25
616.318	330.25
616.526	323.25
616.733	313.25
616.941	301.25
617.148	319.25
617.356	315.25
617.563	325.25
617.771	316.25
617.978	319.25
618.185	316.25
618.393	313.25
618.6	316.25
618.807	327.25
619.015	334.25
619.222	309.25
619.429	308.25
619.637	327.25
619.844	303.25
620.051	308.25
620.258	298.25
620.466	303.25
620.673	316.25
620.88	303.25
621.087	295.25
621.294	284.25
621.501	295.25
621.708	287.25
621.915	306.25
622.122	289.25
622.329	294.25
622.536	301.25
622.743	282.25
622.95	284.25
623.157	288.25
623.364	282.25
623.571	280.25
623.778	271.25
623.985	280.25
624.192	290.25
624.399	296.25
624.606	269.25
624.812	296.25
625.019	297.25
625.226	298.25
625.433	290.25
625.639	287.25
625.846	267.25
626.053	268.25
626.259	285.25
626.466	273.25
626.673	273.25
626.879	275.25
627.086	268.25
627.293	255.25
627.499	249.25
627.706	273.25
627.912	261.25
628.119	263.25
628.325	270.25
628.532	252.25
628.738	275.25
628.945	269.25
629.151	271.25
629.357	275.25
629.564	268.25
629.77	256.25
629.976	265.25
630.183	231.25
630.389	247.25
630.595	248.25
630.802	248.25
631.008	242.25
631.214	234.25
631.42	266.25
631.627	232.25
631.833	245.25
632.039	244.25
632.245	233.25
632.451	229.25
632.657	245.25
632.863	238.25
633.069	255.25
633.275	229.25
633.481	232.25
633.688	224.25
633.893	229.25
634.099	245.25
634.305	239.25
634.511	240.25
634.717	235.25
634.923	219.25
635.129	233.25
635.335	221.25
635.541	231.25
635.747	236.25
635.952	228.25
636.158	213.25
636.364	228.25
636.57	225.25
636.775	243.25
636.981	236.25
637.187	212.25
637.392	242.25
637.598	226.25
637.804	227.25
638.009	244.25
638.215	231.25
638.421	223.25
638.626	220.25
638.832	219.25
639.037	225.25
639.243	209.25
639.448	211.25
639.654	203.25
639.859	209.25
640.065	229.25
640.27	220.25
640.475	201.25
640.681	228.25
640.886	213.25
641.091	196.25
641.297	226.25
641.502	217.25
641.707	205.25
641.913	202.25
642.118	222.25
642.323	203.25
642.528	213.25
642.733	221.25
642.939	194.25
643.144	202.25
643.349	209.25
643.554	206.25
643.759	207.25
643.964	197.25
644.169	200.25
644.374	187.25
644.579	205.25
644.784	200.25
644.989	197.25
645.194	211.25
645.399	192.25
645.604	198.25
645.809	196.25
646.014	205.25
646.219	216.25
646.423	218.25
646.628	209.25
646.833	222.25
647.038	217.25
647.243	197.25
647.447	204.25
647.652	204.25
647.857	219.25
648.062	209.25
648.266	225.25
648.471	219.25
648.676	204.25
648.88	204.25
649.085	203.25
649.289	208.25
649.494	212.25
649.698	216.25
649.903	216.25
650.107	202.25
650.312	201.25
650.516	195.25
650.721	172.25
650.925	194.25
651.13	189.25
651.334	175.25
651.539	179.25
651.743	168.25
651.947	169.25
652.152	188.25
652.356	179.25
652.56	161.25
652.764	158.25
652.969	160.25
653.173	179.25
653.377	147.25
653.581	151.25
653.785	151.25
653.99	156.25
654.194	161.25
654.398	147.25
654.602	156.25
654.806	136.25
655.01	146.25
655.214	154.25
655.418	143.25
655.622	154.25
655.826	156.25
656.03	148.25
656.234	141.25
656.438	136.25
656.642	148.25
656.846	136.25
657.049	132.25
657.253	131.25
657.457	127.25
657.661	137.25
657.865	116.25
658.068	121.25
658.272	108.25
658.476	108.25
658.68	118.25
658.883	121.25
659.087	119.25
659.291	107.25
659.494	111.25
659.698	110.25
659.901	124.25
660.105	96.25
660.309	100.25
660.512	100.25
660.716	77.25
660.919	99.25
661.123	84.25
661.326	83.25
661.53	86.25
661.733	99.25
661.936	89.25
662.14	83.25
662.343	96.25
662.546	92.25
662.75	87.25
662.953	88.25
663.156	81.25
663.36	81.25
663.563	87.25
663.766	103.25
663.969	84.25
664.173	89.25
664.376	79.25
664.579	87.25
664.782	98.25
664.985	89.25
665.188	77.25
665.391	81.25
665.594	75.25
665.797	82.25
666	89.25
666.203	81.25
666.406	71.25
666.609	84.25
666.812	79.25
667.015	79.25
667.218	69.25
667.421	74.25
667.624	70.25
667.827	76.25
668.03	91.25
668.232	83.25
668.435	86.25
668.638	84.25
668.841	87.25
669.043	85.25
669.246	82.25
669.449	83.25
669.651	95.25
669.854	85.25
670.057	86.25
670.259	93.25
670.462	80.25
670.665	80.25
670.867	82.25
671.07	82.25
671.272	74.25
671.475	77.25
671.677	87.25
671.88	71.25
672.082	72.25
672.284	81.25
672.487	81.25
672.689	81.25
672.892	87.25
