Data from NiCl2@0.5M.TitratingCurve.Agarose3%dH2O.NegLispCup.LampEnergy10.LIBS07252019_HRD10591_18-19-03-570.txt Node
Date: Thu Jul 25 18:19:03 EDT 2019
User: cochatt
Spectrometer: HR+D1059
Trigger mode: 1
Integration Time (sec): 1.000000E-1
Scans to average: 1
Electric dark correction enabled: true
Nonlinearity correction enabled: false
Boxcar width: 0
XAxis mode: Wavelengths
Number of Pixels in Spectrum: 2048
>>>>>Begin Spectral Data<<<<<
223.165	-15.25
223.4	-15.25
223.635	-15.25
223.869	-27.25
224.104	-21.25
224.338	-9.25
224.573	-7.25
224.808	2.75
225.042	-1.25
225.277	-6.25
225.511	-17.25
225.746	10.75
225.98	6.75
226.215	7.75
226.449	6.75
226.683	28.75
226.918	17.75
227.152	23.75
227.387	31.75
227.621	35.75
227.856	47.75
228.09	47.75
228.324	53.75
228.559	54.75
228.793	79.75
229.027	125.75
229.262	117.75
229.496	121.75
229.73	133.75
229.964	137.75
230.199	163.75
230.433	156.75
230.667	151.75
230.901	168.75
231.136	139.75
231.37	144.75
231.604	163.75
231.838	167.75
232.072	167.75
232.306	183.75
232.541	167.75
232.775	170.75
233.009	161.75
233.243	159.75
233.477	157.75
233.711	168.75
233.945	148.75
234.179	153.75
234.413	164.75
234.647	167.75
234.881	168.75
235.115	159.75
235.349	163.75
235.583	143.75
235.817	159.75
236.051	142.75
236.285	152.75
236.519	181.75
236.753	165.75
236.987	151.75
237.221	159.75
237.455	167.75
237.689	173.75
237.922	167.75
238.156	179.75
238.39	166.75
238.624	168.75
238.858	173.75
239.091	168.75
239.325	188.75
239.559	177.75
239.793	207.75
240.027	201.75
240.26	198.75
240.494	195.75
240.728	193.75
240.961	175.75
241.195	198.75
241.429	187.75
241.662	195.75
241.896	218.75
242.13	216.75
242.363	199.75
242.597	208.75
242.83	199.75
243.064	213.75
243.298	218.75
243.531	192.75
243.765	220.75
243.998	209.75
244.232	209.75
244.465	222.75
244.699	210.75
244.932	222.75
245.166	228.75
245.399	205.75
245.633	220.75
245.866	211.75
246.099	210.75
246.333	224.75
246.566	230.75
246.8	236.75
247.033	230.75
247.266	240.75
247.5	225.75
247.733	234.75
247.966	266.75
248.2	272.75
248.433	241.75
248.666	249.75
248.899	245.75
249.133	257.75
249.366	239.75
249.599	259.75
249.832	244.75
250.066	244.75
250.299	238.75
250.532	249.75
250.765	259.75
250.998	279.75
251.231	274.75
251.465	276.75
251.698	277.75
251.931	261.75
252.164	273.75
252.397	286.75
252.63	281.75
252.863	278.75
253.096	292.75
253.329	268.75
253.562	286.75
253.795	291.75
254.028	282.75
254.261	285.75
254.494	287.75
254.727	281.75
254.96	279.75
255.193	288.75
255.426	297.75
255.659	292.75
255.892	302.75
256.124	290.75
256.357	301.75
256.59	308.75
256.823	303.75
257.056	319.75
257.289	315.75
257.521	304.75
257.754	288.75
257.987	312.75
258.22	305.75
258.452	296.75
258.685	331.75
258.918	318.75
259.151	323.75
259.383	315.75
259.616	324.75
259.849	331.75
260.081	332.75
260.314	324.75
260.547	329.75
260.779	333.75
261.012	334.75
261.244	335.75
261.477	338.75
261.71	342.75
261.942	331.75
262.175	325.75
262.407	347.75
262.64	339.75
262.872	332.75
263.105	343.75
263.337	355.75
263.57	355.75
263.802	332.75
264.035	372.75
264.267	365.75
264.499	366.75
264.732	359.75
264.964	360.75
265.197	371.75
265.429	373.75
265.661	369.75
265.894	376.75
266.126	381.75
266.358	375.75
266.591	381.75
266.823	372.75
267.055	377.75
267.287	372.75
267.52	384.75
267.752	368.75
267.984	391.75
268.216	374.75
268.448	386.75
268.681	375.75
268.913	403.75
269.145	372.75
269.377	385.75
269.609	392.75
269.841	396.75
270.073	395.75
270.306	383.75
270.538	398.75
270.77	409.75
271.002	399.75
271.234	399.75
271.466	403.75
271.698	405.75
271.93	414.75
272.162	407.75
272.394	413.75
272.626	409.75
272.858	413.75
273.09	430.75
273.322	422.75
273.553	432.75
273.785	436.75
274.017	431.75
274.249	437.75
274.481	443.75
274.713	401.75
274.945	425.75
275.176	437.75
275.408	431.75
275.64	449.75
275.872	437.75
276.104	430.75
276.335	418.75
276.567	447.75
276.799	426.75
277.031	464.75
277.262	460.75
277.494	458.75
277.726	463.75
277.957	470.75
278.189	476.75
278.421	447.75
278.652	456.75
278.884	461.75
279.115	466.75
279.347	467.75
279.579	460.75
279.81	477.75
280.042	473.75
280.273	479.75
280.505	492.75
280.736	483.75
280.968	484.75
281.199	475.75
281.431	483.75
281.662	488.75
281.894	488.75
282.125	458.75
282.356	513.75
282.588	481.75
282.819	494.75
283.051	501.75
283.282	477.75
283.513	505.75
283.745	518.75
283.976	497.75
284.207	511.75
284.439	495.75
284.67	518.75
284.901	489.75
285.132	499.75
285.364	508.75
285.595	520.75
285.826	541.75
286.057	535.75
286.288	513.75
286.52	532.75
286.751	526.75
286.982	522.75
287.213	527.75
287.444	514.75
287.675	539.75
287.906	537.75
288.138	559.75
288.369	524.75
288.6	555.75
288.831	535.75
289.062	533.75
289.293	531.75
289.524	511.75
289.755	539.75
289.986	550.75
290.217	539.75
290.448	539.75
290.679	532.75
290.91	555.75
291.141	543.75
291.371	551.75
291.602	529.75
291.833	542.75
292.064	529.75
292.295	567.75
292.526	580.75
292.757	530.75
292.987	540.75
293.218	544.75
293.449	559.75
293.68	558.75
293.91	580.75
294.141	553.75
294.372	577.75
294.603	561.75
294.833	547.75
295.064	568.75
295.295	554.75
295.525	547.75
295.756	584.75
295.987	563.75
296.217	549.75
296.448	596.75
296.679	585.75
296.909	577.75
297.14	582.75
297.37	572.75
297.601	599.75
297.831	577.75
298.062	591.75
298.292	599.75
298.523	608.75
298.753	603.75
298.984	605.75
299.214	602.75
299.445	603.75
299.675	582.75
299.905	593.75
300.136	613.75
300.366	635.75
300.597	624.75
300.827	639.75
301.057	624.75
301.288	631.75
301.518	649.75
301.748	632.75
301.979	628.75
302.209	625.75
302.439	624.75
302.669	642.75
302.9	629.75
303.13	605.75
303.36	629.75
303.59	635.75
303.82	630.75
304.051	671.75
304.281	632.75
304.511	639.75
304.741	655.75
304.971	635.75
305.201	679.75
305.431	664.75
305.661	663.75
305.891	636.75
306.121	635.75
306.352	630.75
306.582	633.75
306.812	632.75
307.042	625.75
307.272	625.75
307.502	652.75
307.731	640.75
307.961	625.75
308.191	625.75
308.421	635.75
308.651	627.75
308.881	632.75
309.111	632.75
309.341	636.75
309.571	641.75
309.8	638.75
310.03	655.75
310.26	704.75
310.49	698.75
310.72	662.75
310.949	644.75
311.179	650.75
311.409	632.75
311.639	647.75
311.868	657.75
312.098	660.75
312.328	672.75
312.557	651.75
312.787	673.75
313.017	649.75
313.246	676.75
313.476	677.75
313.706	687.75
313.935	681.75
314.165	665.75
314.394	687.75
314.624	696.75
314.853	672.75
315.083	676.75
315.312	679.75
315.542	664.75
315.771	649.75
316.001	648.75
316.23	676.75
316.46	684.75
316.689	685.75
316.919	710.75
317.148	655.75
317.377	703.75
317.607	665.75
317.836	676.75
318.065	673.75
318.295	673.75
318.524	689.75
318.753	671.75
318.983	668.75
319.212	675.75
319.441	675.75
319.67	684.75
319.9	695.75
320.129	677.75
320.358	693.75
320.587	680.75
320.816	698.75
321.046	682.75
321.275	704.75
321.504	708.75
321.733	697.75
321.962	700.75
322.191	679.75
322.42	711.75
322.649	704.75
322.878	688.75
323.108	714.75
323.337	745.75
323.566	722.75
323.795	699.75
324.024	689.75
324.253	716.75
324.482	720.75
324.71	741.75
324.939	725.75
325.168	724.75
325.397	696.75
325.626	727.75
325.855	743.75
326.084	736.75
326.313	727.75
326.542	722.75
326.77	747.75
326.999	729.75
327.228	711.75
327.457	733.75
327.686	733.75
327.914	743.75
328.143	748.75
328.372	735.75
328.6	713.75
328.829	748.75
329.058	749.75
329.287	736.75
329.515	725.75
329.744	756.75
329.972	747.75
330.201	771.75
330.43	759.75
330.658	749.75
330.887	743.75
331.115	737.75
331.344	774.75
331.572	755.75
331.801	812.75
332.03	823.75
332.258	810.75
332.486	799.75
332.715	826.75
332.943	823.75
333.172	856.75
333.4	848.75
333.629	863.75
333.857	871.75
334.085	844.75
334.314	841.75
334.542	900.75
334.771	901.75
334.999	887.75
335.227	877.75
335.455	897.75
335.684	879.75
335.912	876.75
336.14	887.75
336.369	881.75
336.597	897.75
336.825	864.75
337.053	886.75
337.281	860.75
337.51	866.75
337.738	846.75
337.966	857.75
338.194	864.75
338.422	855.75
338.65	830.75
338.878	800.75
339.106	800.75
339.334	833.75
339.562	856.75
339.79	793.75
340.018	782.75
340.246	786.75
340.474	777.75
340.702	794.75
340.93	793.75
341.158	808.75
341.386	797.75
341.614	874.75
341.842	805.75
342.07	777.75
342.298	784.75
342.526	796.75
342.754	787.75
342.981	773.75
343.209	798.75
343.437	840.75
343.665	849.75
343.893	857.75
344.12	887.75
344.348	866.75
344.576	842.75
344.804	887.75
345.031	845.75
345.259	835.75
345.487	786.75
345.714	813.75
345.942	831.75
346.17	833.75
346.397	830.75
346.625	783.75
346.853	785.75
347.08	764.75
347.308	768.75
347.535	781.75
347.763	760.75
347.99	747.75
348.218	771.75
348.445	761.75
348.673	759.75
348.9	737.75
349.128	768.75
349.355	792.75
349.583	805.75
349.81	760.75
350.037	757.75
350.265	759.75
350.492	717.75
350.72	723.75
350.947	719.75
351.174	776.75
351.402	785.75
351.629	765.75
351.856	759.75
352.083	740.75
352.311	758.75
352.538	811.75
352.765	789.75
352.992	738.75
353.22	729.75
353.447	712.75
353.674	696.75
353.901	719.75
354.128	720.75
354.355	692.75
354.583	716.75
354.81	737.75
355.037	713.75
355.264	719.75
355.491	715.75
355.718	712.75
355.945	712.75
356.172	707.75
356.399	735.75
356.626	741.75
356.853	771.75
357.08	740.75
357.307	737.75
357.534	718.75
357.761	719.75
357.988	711.75
358.215	705.75
358.441	715.75
358.668	695.75
358.895	744.75
359.122	687.75
359.349	713.75
359.576	715.75
359.802	709.75
360.029	727.75
360.256	716.75
360.483	715.75
360.709	705.75
360.936	729.75
361.163	723.75
361.39	719.75
361.616	740.75
361.843	728.75
362.07	796.75
362.296	787.75
362.523	704.75
362.749	713.75
362.976	696.75
363.203	713.75
363.429	716.75
363.656	729.75
363.882	724.75
364.109	718.75
364.335	702.75
364.562	703.75
364.788	672.75
365.015	693.75
365.241	709.75
365.468	696.75
365.694	707.75
365.92	714.75
366.147	712.75
366.373	696.75
366.599	697.75
366.826	709.75
367.052	695.75
367.278	732.75
367.505	742.75
367.731	718.75
367.957	719.75
368.184	712.75
368.41	727.75
368.636	718.75
368.862	718.75
369.089	704.75
369.315	690.75
369.541	729.75
369.767	724.75
369.993	713.75
370.219	739.75
370.445	716.75
370.672	734.75
370.898	719.75
371.124	749.75
371.35	743.75
371.576	715.75
371.802	752.75
372.028	746.75
372.254	745.75
372.48	747.75
372.706	749.75
372.932	760.75
373.158	759.75
373.384	726.75
373.61	724.75
373.835	763.75
374.061	752.75
374.287	768.75
374.513	767.75
374.739	796.75
374.965	783.75
375.191	807.75
375.416	792.75
375.642	770.75
375.868	761.75
376.094	762.75
376.319	760.75
376.545	737.75
376.771	739.75
376.997	762.75
377.222	742.75
377.448	718.75
377.674	747.75
377.899	738.75
378.125	711.75
378.35	731.75
378.576	759.75
378.802	735.75
379.027	718.75
379.253	741.75
379.478	732.75
379.704	701.75
379.929	714.75
380.155	746.75
380.38	710.75
380.606	721.75
380.831	750.75
381.057	735.75
381.282	747.75
381.507	730.75
381.733	707.75
381.958	745.75
382.184	735.75
382.409	730.75
382.634	742.75
382.86	752.75
383.085	771.75
383.31	763.75
383.535	799.75
383.761	762.75
383.986	770.75
384.211	773.75
384.436	793.75
384.662	809.75
384.887	796.75
385.112	780.75
385.337	847.75
385.562	800.75
385.787	821.75
386.013	847.75
386.238	850.75
386.463	843.75
386.688	836.75
386.913	814.75
387.138	840.75
387.363	836.75
387.588	837.75
387.813	834.75
388.038	828.75
388.263	828.75
388.488	845.75
388.713	863.75
388.938	832.75
389.163	808.75
389.387	808.75
389.612	832.75
389.837	829.75
390.062	801.75
390.287	845.75
390.512	836.75
390.736	855.75
390.961	845.75
391.186	853.75
391.411	875.75
391.636	868.75
391.86	898.75
392.085	911.75
392.31	890.75
392.534	897.75
392.759	881.75
392.984	879.75
393.208	857.75
393.433	897.75
393.658	897.75
393.882	879.75
394.107	867.75
394.331	901.75
394.556	875.75
394.78	891.75
395.005	883.75
395.229	902.75
395.454	910.75
395.678	890.75
395.903	909.75
396.127	904.75
396.352	910.75
396.576	903.75
396.801	918.75
397.025	914.75
397.249	948.75
397.474	965.75
397.698	934.75
397.922	950.75
398.147	939.75
398.371	977.75
398.595	983.75
398.82	1020.75
399.044	1045.75
399.268	1077.75
399.492	1159.75
399.717	1246.75
399.941	1237.75
400.165	1183.75
400.389	1170.75
400.613	1096.75
400.837	1048.75
401.062	1029.75
401.286	1011.75
401.51	1041.75
401.734	1014.75
401.958	1045.75
402.182	1022.75
402.406	1007.75
402.63	1039.75
402.854	1055.75
403.078	1023.75
403.302	1042.75
403.526	1027.75
403.75	1063.75
403.974	1067.75
404.198	1066.75
404.422	1069.75
404.645	1075.75
404.869	1053.75
405.093	1073.75
405.317	1070.75
405.541	1091.75
405.765	1081.75
405.988	1098.75
406.212	1082.75
406.436	1094.75
406.66	1135.75
406.883	1128.75
407.107	1147.75
407.331	1179.75
407.555	1180.75
407.778	1208.75
408.002	1168.75
408.226	1157.75
408.449	1199.75
408.673	1167.75
408.896	1157.75
409.12	1142.75
409.344	1144.75
409.567	1128.75
409.791	1157.75
410.014	1164.75
410.238	1140.75
410.461	1154.75
410.685	1095.75
410.908	1081.75
411.132	1091.75
411.355	1070.75
411.578	1070.75
411.802	1046.75
412.025	1041.75
412.249	1056.75
412.472	1059.75
412.695	1069.75
412.919	1044.75
413.142	1067.75
413.365	1038.75
413.589	1072.75
413.812	1031.75
414.035	1017.75
414.258	1023.75
414.482	1035.75
414.705	1047.75
414.928	1034.75
415.151	1034.75
415.374	1058.75
415.597	1024.75
415.821	1033.75
416.044	1000.75
416.267	1002.75
416.49	1014.75
416.713	1027.75
416.936	1015.75
417.159	1008.75
417.382	1021.75
417.605	1009.75
417.828	999.75
418.051	1009.75
418.274	1010.75
418.497	993.75
418.72	1027.75
418.943	1032.75
419.166	1038.75
419.389	1127.75
419.611	1121.75
419.834	1087.75
420.057	1075.75
420.28	1027.75
420.503	1006.75
420.726	1001.75
420.948	1015.75
421.171	992.75
421.394	1013.75
421.617	1006.75
421.839	1006.75
422.062	1013.75
422.285	1002.75
422.507	1039.75
422.73	993.75
422.953	1034.75
423.175	1015.75
423.398	1019.75
423.621	1032.75
423.843	1045.75
424.066	1039.75
424.288	1048.75
424.511	1007.75
424.733	1036.75
424.956	1009.75
425.178	1029.75
425.401	993.75
425.623	1043.75
425.846	990.75
426.068	1015.75
426.291	989.75
426.513	1016.75
426.735	994.75
426.958	1006.75
427.18	983.75
427.402	981.75
427.625	976.75
427.847	945.75
428.069	952.75
428.292	983.75
428.514	948.75
428.736	974.75
428.958	970.75
429.181	953.75
429.403	932.75
429.625	974.75
429.847	956.75
430.069	952.75
430.292	985.75
430.514	945.75
430.736	956.75
430.958	987.75
431.18	961.75
431.402	980.75
431.624	940.75
431.846	976.75
432.068	978.75
432.29	981.75
432.512	970.75
432.734	999.75
432.956	985.75
433.178	973.75
433.4	1012.75
433.622	1031.75
433.844	997.75
434.066	1000.75
434.287	1006.75
434.509	1012.75
434.731	998.75
434.953	1051.75
435.175	1053.75
435.397	1068.75
435.618	1024.75
435.84	996.75
436.062	992.75
436.284	1015.75
436.505	1011.75
436.727	963.75
436.949	968.75
437.17	983.75
437.392	967.75
437.614	991.75
437.835	937.75
438.057	963.75
438.278	966.75
438.5	941.75
438.721	958.75
438.943	997.75
439.165	951.75
439.386	958.75
439.608	993.75
439.829	967.75
440.05	995.75
440.272	991.75
440.493	996.75
440.715	1015.75
440.936	1022.75
441.158	1042.75
441.379	1039.75
441.6	1058.75
441.822	1077.75
442.043	1090.75
442.264	1076.75
442.486	1055.75
442.707	1056.75
442.928	1069.75
443.149	1031.75
443.371	1075.75
443.592	1117.75
443.813	1122.75
444.034	1089.75
444.255	1119.75
444.476	1141.75
444.698	1134.75
444.919	1181.75
445.14	1235.75
445.361	1173.75
445.582	1100.75
445.803	1072.75
446.024	1043.75
446.245	1061.75
446.466	1047.75
446.687	1022.75
446.908	1001.75
447.129	1000.75
447.35	972.75
447.571	979.75
447.792	949.75
448.013	967.75
448.234	951.75
448.455	949.75
448.675	932.75
448.896	952.75
449.117	910.75
449.338	917.75
449.559	895.75
449.779	929.75
450	925.75
450.221	947.75
450.442	934.75
450.662	961.75
450.883	947.75
451.104	980.75
451.324	927.75
451.545	940.75
451.766	949.75
451.986	953.75
452.207	919.75
452.428	912.75
452.648	899.75
452.869	912.75
453.089	923.75
453.31	927.75
453.53	894.75
453.751	897.75
453.971	896.75
454.192	908.75
454.412	884.75
454.633	895.75
454.853	888.75
455.073	904.75
455.294	887.75
455.514	912.75
455.734	895.75
455.955	896.75
456.175	876.75
456.395	883.75
456.616	861.75
456.836	897.75
457.056	904.75
457.276	879.75
457.497	912.75
457.717	913.75
457.937	920.75
458.157	898.75
458.377	935.75
458.598	921.75
458.818	964.75
459.038	966.75
459.258	1002.75
459.478	1028.75
459.698	1094.75
459.918	1045.75
460.138	1074.75
460.358	1111.75
460.578	1098.75
460.798	1120.75
461.018	1126.75
461.238	1147.75
461.458	1131.75
461.678	1127.75
461.898	1135.75
462.118	1140.75
462.338	1173.75
462.558	1206.75
462.777	1226.75
462.997	1270.75
463.217	1334.75
463.437	1341.75
463.657	1326.75
463.876	1255.75
464.096	1270.75
464.316	1260.75
464.536	1232.75
464.755	1224.75
464.975	1163.75
465.195	1146.75
465.414	1120.75
465.634	1115.75
465.854	1048.75
466.073	1025.75
466.293	1002.75
466.512	987.75
466.732	1013.75
466.951	989.75
467.171	966.75
467.391	999.75
467.61	991.75
467.829	979.75
468.049	995.75
468.268	961.75
468.488	949.75
468.707	962.75
468.927	951.75
469.146	949.75
469.365	973.75
469.585	1006.75
469.804	1003.75
470.023	1000.75
470.243	996.75
470.462	1000.75
470.681	987.75
470.901	993.75
471.12	1005.75
471.339	1007.75
471.558	993.75
471.777	985.75
471.997	960.75
472.216	971.75
472.435	972.75
472.654	951.75
472.873	952.75
473.092	966.75
473.311	947.75
473.53	945.75
473.749	953.75
473.968	962.75
474.187	953.75
474.406	957.75
474.625	968.75
474.844	977.75
475.063	1025.75
475.282	1002.75
475.501	991.75
475.72	991.75
475.939	997.75
476.158	999.75
476.377	996.75
476.596	1018.75
476.814	1022.75
477.033	1013.75
477.252	1038.75
477.471	1023.75
477.69	1074.75
477.908	1076.75
478.127	1080.75
478.346	1094.75
478.564	1132.75
478.783	1119.75
479.002	1162.75
479.22	1175.75
479.439	1142.75
479.658	1163.75
479.876	1116.75
480.095	1156.75
480.313	1149.75
480.532	1218.75
480.751	1185.75
480.969	1155.75
481.188	1135.75
481.406	1123.75
481.624	1135.75
481.843	1116.75
482.061	1134.75
482.28	1095.75
482.498	1105.75
482.717	1133.75
482.935	1113.75
483.153	1148.75
483.372	1133.75
483.59	1177.75
483.808	1079.75
484.027	1118.75
484.245	1104.75
484.463	1135.75
484.681	1132.75
484.9	1123.75
485.118	1148.75
485.336	1145.75
485.554	1136.75
485.772	1143.75
485.99	1176.75
486.209	1199.75
486.427	1170.75
486.645	1147.75
486.863	1154.75
487.081	1181.75
487.299	1167.75
487.517	1180.75
487.735	1163.75
487.953	1183.75
488.171	1185.75
488.389	1154.75
488.607	1163.75
488.825	1159.75
489.043	1149.75
489.261	1153.75
489.479	1168.75
489.696	1178.75
489.914	1155.75
490.132	1168.75
490.35	1154.75
490.568	1166.75
490.786	1173.75
491.003	1198.75
491.221	1167.75
491.439	1215.75
491.657	1197.75
491.874	1223.75
492.092	1254.75
492.31	1231.75
492.527	1226.75
492.745	1213.75
492.963	1226.75
493.18	1215.75
493.398	1225.75
493.615	1209.75
493.833	1225.75
494.05	1210.75
494.268	1236.75
494.485	1228.75
494.703	1266.75
494.92	1258.75
495.138	1244.75
495.355	1248.75
495.573	1252.75
495.79	1284.75
496.008	1282.75
496.225	1285.75
496.442	1316.75
496.66	1336.75
496.877	1333.75
497.094	1371.75
497.312	1344.75
497.529	1396.75
497.746	1415.75
497.963	1411.75
498.181	1493.75
498.398	1517.75
498.615	1598.75
498.832	1625.75
499.049	1728.75
499.267	1814.75
499.484	1859.75
499.701	1983.75
499.918	2137.75
500.135	2272.75
500.352	2373.75
500.569	2470.75
500.786	2432.75
501.003	2360.75
501.22	2267.75
501.437	2126.75
501.654	1977.75
501.871	1894.75
502.088	1797.75
502.305	1712.75
502.522	1675.75
502.739	1632.75
502.956	1559.75
503.172	1513.75
503.389	1501.75
503.606	1419.75
503.823	1422.75
504.04	1402.75
504.256	1359.75
504.473	1375.75
504.69	1347.75
504.907	1310.75
505.123	1291.75
505.34	1276.75
505.557	1224.75
505.773	1213.75
505.99	1205.75
506.207	1159.75
506.423	1151.75
506.64	1131.75
506.856	1152.75
507.073	1133.75
507.289	1132.75
507.506	1136.75
507.722	1117.75
507.939	1105.75
508.155	1087.75
508.372	1105.75
508.588	1041.75
508.805	1065.75
509.021	1063.75
509.238	1058.75
509.454	1044.75
509.67	1017.75
509.887	1024.75
510.103	1012.75
510.319	1027.75
510.536	1019.75
510.752	1005.75
510.968	1021.75
511.184	989.75
511.401	982.75
511.617	1014.75
511.833	1026.75
512.049	976.75
512.265	1000.75
512.481	987.75
512.698	1007.75
512.914	995.75
513.13	994.75
513.346	1014.75
513.562	1011.75
513.778	971.75
513.994	1018.75
514.21	1001.75
514.426	985.75
514.642	1014.75
514.858	1019.75
515.074	1011.75
515.29	1041.75
515.506	1032.75
515.721	1051.75
515.937	1046.75
516.153	1042.75
516.369	1063.75
516.585	1097.75
516.801	1126.75
517.016	1117.75
517.232	1173.75
517.448	1142.75
517.664	1168.75
517.879	1189.75
518.095	1196.75
518.311	1165.75
518.527	1154.75
518.742	1159.75
518.958	1132.75
519.173	1067.75
519.389	1056.75
519.605	1062.75
519.82	1029.75
520.036	1020.75
520.251	987.75
520.467	1023.75
520.682	997.75
520.898	975.75
521.113	951.75
521.329	992.75
521.544	963.75
521.76	965.75
521.975	940.75
522.19	968.75
522.406	933.75
522.621	929.75
522.836	919.75
523.052	937.75
523.267	949.75
523.482	912.75
523.698	923.75
523.913	937.75
524.128	909.75
524.343	918.75
524.559	901.75
524.774	891.75
524.989	915.75
525.204	923.75
525.419	935.75
525.634	928.75
525.849	910.75
526.064	859.75
526.28	909.75
526.495	893.75
526.71	887.75
526.925	874.75
527.14	884.75
527.355	903.75
527.57	887.75
527.785	858.75
527.999	870.75
528.214	888.75
528.429	878.75
528.644	901.75
528.859	899.75
529.074	884.75
529.289	895.75
529.503	891.75
529.718	858.75
529.933	871.75
530.148	889.75
530.363	900.75
530.577	869.75
530.792	863.75
531.007	877.75
531.221	895.75
531.436	887.75
531.651	877.75
531.865	887.75
532.08	861.75
532.295	848.75
532.509	874.75
532.724	840.75
532.938	860.75
533.153	842.75
533.367	867.75
533.582	854.75
533.796	881.75
534.011	834.75
534.225	839.75
534.44	836.75
534.654	848.75
534.868	839.75
535.083	836.75
535.297	820.75
535.511	840.75
535.726	855.75
535.94	842.75
536.154	824.75
536.369	804.75
536.583	803.75
536.797	809.75
537.011	833.75
537.225	805.75
537.44	783.75
537.654	809.75
537.868	796.75
538.082	789.75
538.296	796.75
538.51	795.75
538.724	802.75
538.938	801.75
539.153	797.75
539.367	812.75
539.581	783.75
539.795	781.75
540.009	809.75
540.222	778.75
540.436	810.75
540.65	788.75
540.864	791.75
541.078	776.75
541.292	794.75
541.506	801.75
541.72	781.75
541.934	800.75
542.147	794.75
542.361	802.75
542.575	791.75
542.789	776.75
543.002	801.75
543.216	801.75
543.43	776.75
543.644	776.75
543.857	790.75
544.071	807.75
544.285	789.75
544.498	785.75
544.712	798.75
544.925	802.75
545.139	790.75
545.352	793.75
545.566	807.75
545.779	820.75
545.993	798.75
546.206	797.75
546.42	801.75
546.633	803.75
546.847	780.75
547.06	795.75
547.274	782.75
547.487	777.75
547.7	803.75
547.914	791.75
548.127	825.75
548.34	797.75
548.554	800.75
548.767	791.75
548.98	793.75
549.193	783.75
549.407	813.75
549.62	785.75
549.833	789.75
550.046	821.75
550.259	804.75
550.473	751.75
550.686	791.75
550.899	792.75
551.112	807.75
551.325	754.75
551.538	779.75
551.751	786.75
551.964	777.75
552.177	773.75
552.39	801.75
552.603	816.75
552.816	806.75
553.029	809.75
553.242	824.75
553.455	816.75
553.667	809.75
553.88	799.75
554.093	809.75
554.306	787.75
554.519	785.75
554.732	757.75
554.944	747.75
555.157	739.75
555.37	768.75
555.583	727.75
555.795	723.75
556.008	718.75
556.221	695.75
556.433	679.75
556.646	710.75
556.859	719.75
557.071	673.75
557.284	692.75
557.496	678.75
557.709	699.75
557.921	710.75
558.134	703.75
558.346	676.75
558.559	655.75
558.771	656.75
558.984	705.75
559.196	673.75
559.409	671.75
559.621	661.75
559.833	647.75
560.046	668.75
560.258	670.75
560.47	671.75
560.683	670.75
560.895	642.75
561.107	650.75
561.32	666.75
561.532	666.75
561.744	644.75
561.956	688.75
562.168	691.75
562.381	665.75
562.593	669.75
562.805	700.75
563.017	693.75
563.229	682.75
563.441	668.75
563.653	661.75
563.865	687.75
564.077	693.75
564.289	688.75
564.501	677.75
564.713	680.75
564.925	733.75
565.137	688.75
565.349	712.75
565.561	719.75
565.773	756.75
565.985	780.75
566.197	795.75
566.408	804.75
566.62	825.75
566.832	877.75
567.044	856.75
567.255	878.75
567.467	859.75
567.679	863.75
567.891	897.75
568.102	923.75
568.314	874.75
568.526	826.75
568.737	823.75
568.949	784.75
569.161	736.75
569.372	719.75
569.584	668.75
569.795	708.75
570.007	679.75
570.218	667.75
570.43	656.75
570.641	631.75
570.853	641.75
571.064	631.75
571.276	628.75
571.487	603.75
571.698	614.75
571.91	594.75
572.121	611.75
572.333	603.75
572.544	562.75
572.755	555.75
572.966	556.75
573.178	559.75
573.389	565.75
573.6	557.75
573.811	528.75
574.023	565.75
574.234	552.75
574.445	533.75
574.656	495.75
574.867	503.75
575.078	519.75
575.289	520.75
575.501	532.75
575.712	537.75
575.923	526.75
576.134	527.75
576.345	493.75
576.556	512.75
576.767	489.75
576.978	502.75
577.188	515.75
577.399	495.75
577.61	475.75
577.821	489.75
578.032	486.75
578.243	484.75
578.454	502.75
578.665	488.75
578.875	473.75
579.086	477.75
579.297	477.75
579.508	480.75
579.718	476.75
579.929	465.75
580.14	469.75
580.35	473.75
580.561	464.75
580.772	472.75
580.982	470.75
581.193	456.75
581.403	465.75
581.614	458.75
581.825	442.75
582.035	440.75
582.246	448.75
582.456	449.75
582.667	460.75
582.877	461.75
583.087	443.75
583.298	443.75
583.508	462.75
583.719	435.75
583.929	462.75
584.139	441.75
584.35	432.75
584.56	427.75
584.77	447.75
584.981	441.75
585.191	432.75
585.401	432.75
585.611	420.75
585.821	435.75
586.032	456.75
586.242	423.75
586.452	424.75
586.662	445.75
586.872	457.75
587.082	424.75
587.292	420.75
587.502	430.75
587.713	424.75
587.923	427.75
588.133	427.75
588.343	429.75
588.553	419.75
588.762	428.75
588.972	433.75
589.182	497.75
589.392	494.75
589.602	440.75
589.812	468.75
590.022	462.75
590.232	430.75
590.441	412.75
590.651	432.75
590.861	429.75
591.071	444.75
591.281	428.75
591.49	419.75
591.7	425.75
591.91	432.75
592.119	448.75
592.329	457.75
592.539	444.75
592.748	435.75
592.958	479.75
593.167	470.75
593.377	469.75
593.587	478.75
593.796	477.75
594.006	463.75
594.215	452.75
594.424	474.75
594.634	457.75
594.843	437.75
595.053	459.75
595.262	414.75
595.472	443.75
595.681	413.75
595.89	435.75
596.1	420.75
596.309	419.75
596.518	410.75
596.727	402.75
596.937	397.75
597.146	399.75
597.355	412.75
597.564	395.75
597.774	383.75
597.983	371.75
598.192	385.75
598.401	412.75
598.61	358.75
598.819	361.75
599.028	360.75
599.237	366.75
599.446	353.75
599.655	366.75
599.864	375.75
600.073	360.75
600.282	333.75
600.491	337.75
600.7	356.75
600.909	349.75
601.118	351.75
601.327	361.75
601.536	352.75
601.745	374.75
601.953	380.75
602.162	356.75
602.371	369.75
602.58	331.75
602.789	347.75
602.997	334.75
603.206	347.75
603.415	357.75
603.623	345.75
603.832	344.75
604.041	332.75
604.249	341.75
604.458	319.75
604.666	345.75
604.875	337.75
605.084	325.75
605.292	323.75
605.501	316.75
605.709	326.75
605.918	323.75
606.126	341.75
606.334	326.75
606.543	324.75
606.751	323.75
606.96	311.75
607.168	318.75
607.376	331.75
607.585	327.75
607.793	334.75
608.001	331.75
608.21	325.75
608.418	348.75
608.626	329.75
608.834	327.75
609.043	321.75
609.251	318.75
609.459	311.75
609.667	328.75
609.875	323.75
610.083	329.75
610.291	326.75
610.499	298.75
610.707	312.75
610.916	310.75
611.124	317.75
611.332	323.75
611.54	312.75
611.748	320.75
611.955	326.75
612.163	320.75
612.371	309.75
612.579	304.75
612.787	299.75
612.995	311.75
613.203	303.75
613.411	307.75
613.618	294.75
613.826	304.75
614.034	304.75
614.242	308.75
614.449	313.75
614.657	303.75
614.865	321.75
615.072	318.75
615.28	298.75
615.488	304.75
615.695	309.75
615.903	286.75
616.111	287.75
616.318	281.75
616.526	281.75
616.733	296.75
616.941	301.75
617.148	302.75
617.356	298.75
617.563	291.75
617.771	304.75
617.978	295.75
618.185	290.75
618.393	303.75
618.6	295.75
618.807	305.75
619.015	300.75
619.222	286.75
619.429	283.75
619.637	294.75
619.844	295.75
620.051	304.75
620.258	278.75
620.466	276.75
620.673	275.75
620.88	266.75
621.087	283.75
621.294	275.75
621.501	263.75
621.708	285.75
621.915	289.75
622.122	269.75
622.329	276.75
622.536	267.75
622.743	268.75
622.95	269.75
623.157	259.75
623.364	281.75
623.571	290.75
623.778	271.75
623.985	268.75
624.192	261.75
624.399	263.75
624.606	269.75
624.812	277.75
625.019	250.75
625.226	268.75
625.433	264.75
625.639	264.75
625.846	259.75
626.053	252.75
626.259	272.75
626.466	274.75
626.673	261.75
626.879	251.75
627.086	277.75
627.293	257.75
627.499	268.75
627.706	260.75
627.912	244.75
628.119	270.75
628.325	257.75
628.532	232.75
628.738	251.75
628.945	253.75
629.151	250.75
629.357	232.75
629.564	241.75
629.77	244.75
629.976	244.75
630.183	248.75
630.389	246.75
630.595	251.75
630.802	256.75
631.008	243.75
631.214	244.75
631.42	238.75
631.627	253.75
631.833	225.75
632.039	238.75
632.245	231.75
632.451	235.75
632.657	241.75
632.863	229.75
633.069	235.75
633.275	234.75
633.481	234.75
633.688	239.75
633.893	237.75
634.099	230.75
634.305	218.75
634.511	228.75
634.717	198.75
634.923	221.75
635.129	223.75
635.335	237.75
635.541	217.75
635.747	209.75
635.952	227.75
636.158	222.75
636.364	241.75
636.57	215.75
636.775	215.75
636.981	219.75
637.187	211.75
637.392	219.75
637.598	203.75
637.804	208.75
638.009	216.75
638.215	216.75
638.421	218.75
638.626	225.75
638.832	223.75
639.037	217.75
639.243	213.75
639.448	216.75
639.654	206.75
639.859	214.75
640.065	201.75
640.27	229.75
640.475	207.75
640.681	222.75
640.886	215.75
641.091	216.75
641.297	214.75
641.502	193.75
641.707	218.75
641.913	218.75
642.118	205.75
642.323	217.75
642.528	231.75
642.733	204.75
642.939	220.75
643.144	207.75
643.349	214.75
643.554	207.75
643.759	209.75
643.964	214.75
644.169	216.75
644.374	203.75
644.579	201.75
644.784	208.75
644.989	208.75
645.194	201.75
645.399	194.75
645.604	195.75
645.809	217.75
646.014	208.75
646.219	188.75
646.423	216.75
646.628	208.75
646.833	187.75
647.038	191.75
647.243	211.75
647.447	197.75
647.652	221.75
647.857	194.75
648.062	204.75
648.266	200.75
648.471	208.75
648.676	205.75
648.88	214.75
649.085	195.75
649.289	209.75
649.494	177.75
649.698	196.75
649.903	210.75
650.107	189.75
650.312	191.75
650.516	198.75
650.721	195.75
650.925	191.75
651.13	201.75
651.334	192.75
651.539	187.75
651.743	174.75
651.947	183.75
652.152	181.75
652.356	184.75
652.56	168.75
652.764	169.75
652.969	164.75
653.173	173.75
653.377	189.75
653.581	179.75
653.785	176.75
653.99	160.75
654.194	158.75
654.398	181.75
654.602	176.75
654.806	153.75
655.01	151.75
655.214	144.75
655.418	165.75
655.622	163.75
655.826	148.75
656.03	139.75
656.234	139.75
656.438	166.75
656.642	147.75
656.846	155.75
657.049	142.75
657.253	135.75
657.457	133.75
657.661	139.75
657.865	136.75
658.068	118.75
658.272	135.75
658.476	146.75
658.68	133.75
658.883	103.75
659.087	107.75
659.291	109.75
659.494	104.75
659.698	108.75
659.901	110.75
660.105	98.75
660.309	99.75
660.512	87.75
660.716	110.75
660.919	100.75
661.123	109.75
661.326	107.75
661.53	89.75
661.733	94.75
661.936	102.75
662.14	91.75
662.343	102.75
662.546	100.75
662.75	74.75
662.953	89.75
663.156	97.75
663.36	87.75
663.563	84.75
663.766	92.75
663.969	94.75
664.173	90.75
664.376	81.75
664.579	70.75
664.782	78.75
664.985	91.75
665.188	100.75
665.391	84.75
665.594	74.75
665.797	87.75
666	94.75
666.203	91.75
666.406	76.75
666.609	68.75
666.812	74.75
667.015	77.75
667.218	81.75
667.421	87.75
667.624	80.75
667.827	89.75
668.03	65.75
668.232	81.75
668.435	77.75
668.638	81.75
668.841	87.75
669.043	83.75
669.246	92.75
669.449	92.75
669.651	84.75
669.854	81.75
670.057	87.75
670.259	89.75
670.462	88.75
670.665	79.75
670.867	75.75
671.07	85.75
671.272	85.75
671.475	83.75
671.677	91.75
671.88	75.75
672.082	82.75
672.284	80.75
672.487	90.75
672.689	82.75
672.892	93.75
