Data from NiCl2@0.125M.TitratingCurve.Agarose3%dH2O.NegLispCup.LampEnergy10.LIBS07252019_HRD10591_18-27-51-574.txt Node
Date: Thu Jul 25 18:27:51 EDT 2019
User: cochatt
Spectrometer: HR+D1059
Trigger mode: 1
Integration Time (sec): 1.000000E-1
Scans to average: 1
Electric dark correction enabled: true
Nonlinearity correction enabled: false
Boxcar width: 0
XAxis mode: Wavelengths
Number of Pixels in Spectrum: 2048
>>>>>Begin Spectral Data<<<<<
223.165	-6.94
223.4	-6.94
223.635	-6.94
223.869	-17.94
224.104	-21.94
224.338	-18.94
224.573	-11.94
224.808	-26.94
225.042	-10.94
225.277	2.06
225.511	9.06
225.746	-2.94
225.98	0.06
226.215	20.06
226.449	17.06
226.683	22.06
226.918	19.06
227.152	29.06
227.387	33.06
227.621	38.06
227.856	32.06
228.09	41.06
228.324	49.06
228.559	66.06
228.793	88.06
229.027	126.06
229.262	111.06
229.496	101.06
229.73	116.06
229.964	109.06
230.199	118.06
230.433	133.06
230.667	122.06
230.901	130.06
231.136	123.06
231.37	134.06
231.604	136.06
231.838	140.06
232.072	139.06
232.306	146.06
232.541	132.06
232.775	142.06
233.009	128.06
233.243	144.06
233.477	154.06
233.711	166.06
233.945	134.06
234.179	151.06
234.413	148.06
234.647	148.06
234.881	147.06
235.115	152.06
235.349	152.06
235.583	154.06
235.817	150.06
236.051	168.06
236.285	159.06
236.519	164.06
236.753	156.06
236.987	135.06
237.221	164.06
237.455	164.06
237.689	157.06
237.922	171.06
238.156	165.06
238.39	169.06
238.624	153.06
238.858	168.06
239.091	178.06
239.325	172.06
239.559	159.06
239.793	182.06
240.027	186.06
240.26	180.06
240.494	182.06
240.728	184.06
240.961	185.06
241.195	190.06
241.429	180.06
241.662	186.06
241.896	188.06
242.13	196.06
242.363	187.06
242.597	191.06
242.83	189.06
243.064	188.06
243.298	193.06
243.531	197.06
243.765	195.06
243.998	206.06
244.232	187.06
244.465	211.06
244.699	216.06
244.932	223.06
245.166	212.06
245.399	227.06
245.633	202.06
245.866	217.06
246.099	212.06
246.333	200.06
246.566	216.06
246.8	215.06
247.033	244.06
247.266	224.06
247.5	212.06
247.733	218.06
247.966	229.06
248.2	239.06
248.433	235.06
248.666	209.06
248.899	211.06
249.133	231.06
249.366	250.06
249.599	240.06
249.832	231.06
250.066	247.06
250.299	252.06
250.532	249.06
250.765	256.06
250.998	254.06
251.231	249.06
251.465	243.06
251.698	258.06
251.931	276.06
252.164	270.06
252.397	258.06
252.63	279.06
252.863	249.06
253.096	249.06
253.329	275.06
253.562	294.06
253.795	264.06
254.028	268.06
254.261	260.06
254.494	269.06
254.727	267.06
254.96	290.06
255.193	277.06
255.426	295.06
255.659	280.06
255.892	293.06
256.124	272.06
256.357	291.06
256.59	293.06
256.823	270.06
257.056	284.06
257.289	288.06
257.521	305.06
257.754	280.06
257.987	295.06
258.22	294.06
258.452	299.06
258.685	302.06
258.918	301.06
259.151	311.06
259.383	331.06
259.616	311.06
259.849	315.06
260.081	310.06
260.314	305.06
260.547	316.06
260.779	328.06
261.012	305.06
261.244	322.06
261.477	338.06
261.71	309.06
261.942	339.06
262.175	307.06
262.407	328.06
262.64	334.06
262.872	339.06
263.105	345.06
263.337	329.06
263.57	314.06
263.802	337.06
264.035	345.06
264.267	341.06
264.499	340.06
264.732	343.06
264.964	345.06
265.197	337.06
265.429	349.06
265.661	360.06
265.894	345.06
266.126	353.06
266.358	340.06
266.591	360.06
266.823	366.06
267.055	369.06
267.287	345.06
267.52	359.06
267.752	360.06
267.984	360.06
268.216	331.06
268.448	347.06
268.681	360.06
268.913	375.06
269.145	375.06
269.377	357.06
269.609	375.06
269.841	359.06
270.073	350.06
270.306	365.06
270.538	365.06
270.77	368.06
271.002	373.06
271.234	373.06
271.466	382.06
271.698	371.06
271.93	376.06
272.162	400.06
272.394	386.06
272.626	386.06
272.858	426.06
273.09	376.06
273.322	389.06
273.553	393.06
273.785	401.06
274.017	384.06
274.249	390.06
274.481	389.06
274.713	383.06
274.945	387.06
275.176	406.06
275.408	402.06
275.64	406.06
275.872	389.06
276.104	400.06
276.335	400.06
276.567	403.06
276.799	417.06
277.031	421.06
277.262	425.06
277.494	413.06
277.726	415.06
277.957	434.06
278.189	430.06
278.421	422.06
278.652	433.06
278.884	428.06
279.115	436.06
279.347	433.06
279.579	457.06
279.81	409.06
280.042	425.06
280.273	425.06
280.505	447.06
280.736	459.06
280.968	450.06
281.199	459.06
281.431	462.06
281.662	436.06
281.894	458.06
282.125	456.06
282.356	461.06
282.588	470.06
282.819	462.06
283.051	462.06
283.282	464.06
283.513	446.06
283.745	462.06
283.976	470.06
284.207	481.06
284.439	468.06
284.67	499.06
284.901	477.06
285.132	476.06
285.364	470.06
285.595	475.06
285.826	474.06
286.057	488.06
286.288	497.06
286.52	491.06
286.751	490.06
286.982	500.06
287.213	497.06
287.444	493.06
287.675	484.06
287.906	485.06
288.138	501.06
288.369	490.06
288.6	501.06
288.831	481.06
289.062	504.06
289.293	517.06
289.524	496.06
289.755	516.06
289.986	517.06
290.217	522.06
290.448	492.06
290.679	517.06
290.91	535.06
291.141	516.06
291.371	528.06
291.602	502.06
291.833	499.06
292.064	500.06
292.295	528.06
292.526	509.06
292.757	525.06
292.987	503.06
293.218	528.06
293.449	513.06
293.68	521.06
293.91	512.06
294.141	528.06
294.372	499.06
294.603	530.06
294.833	526.06
295.064	520.06
295.295	516.06
295.525	525.06
295.756	522.06
295.987	532.06
296.217	539.06
296.448	523.06
296.679	570.06
296.909	580.06
297.14	530.06
297.37	553.06
297.601	551.06
297.831	567.06
298.062	572.06
298.292	589.06
298.523	574.06
298.753	580.06
298.984	570.06
299.214	548.06
299.445	537.06
299.675	570.06
299.905	560.06
300.136	577.06
300.366	581.06
300.597	574.06
300.827	580.06
301.057	581.06
301.288	605.06
301.518	588.06
301.748	584.06
301.979	595.06
302.209	588.06
302.439	585.06
302.669	579.06
302.9	572.06
303.13	578.06
303.36	572.06
303.59	588.06
303.82	592.06
304.051	578.06
304.281	605.06
304.511	584.06
304.741	582.06
304.971	563.06
305.201	585.06
305.431	576.06
305.661	590.06
305.891	576.06
306.121	557.06
306.352	592.06
306.582	576.06
306.812	549.06
307.042	562.06
307.272	581.06
307.502	582.06
307.731	548.06
307.961	567.06
308.191	552.06
308.421	552.06
308.651	584.06
308.881	570.06
309.111	556.06
309.341	548.06
309.571	575.06
309.8	571.06
310.03	581.06
310.26	563.06
310.49	571.06
310.72	566.06
310.949	569.06
311.179	582.06
311.409	593.06
311.639	602.06
311.868	573.06
312.098	604.06
312.328	621.06
312.557	600.06
312.787	594.06
313.017	592.06
313.246	603.06
313.476	612.06
313.706	635.06
313.935	639.06
314.165	594.06
314.394	629.06
314.624	617.06
314.853	574.06
315.083	603.06
315.312	603.06
315.542	603.06
315.771	613.06
316.001	619.06
316.23	610.06
316.46	578.06
316.689	628.06
316.919	598.06
317.148	611.06
317.377	577.06
317.607	599.06
317.836	580.06
318.065	595.06
318.295	585.06
318.524	613.06
318.753	595.06
318.983	586.06
319.212	597.06
319.441	575.06
319.67	601.06
319.9	592.06
320.129	598.06
320.358	630.06
320.587	572.06
320.816	627.06
321.046	609.06
321.275	600.06
321.504	608.06
321.733	609.06
321.962	613.06
322.191	608.06
322.42	621.06
322.649	602.06
322.878	604.06
323.108	592.06
323.337	609.06
323.566	598.06
323.795	612.06
324.024	634.06
324.253	617.06
324.482	614.06
324.71	615.06
324.939	650.06
325.168	628.06
325.397	646.06
325.626	642.06
325.855	637.06
326.084	658.06
326.313	670.06
326.542	663.06
326.77	672.06
326.999	669.06
327.228	650.06
327.457	638.06
327.686	658.06
327.914	656.06
328.143	664.06
328.372	666.06
328.6	660.06
328.829	650.06
329.058	666.06
329.287	655.06
329.515	675.06
329.744	624.06
329.972	653.06
330.201	644.06
330.43	654.06
330.658	669.06
330.887	690.06
331.115	682.06
331.344	692.06
331.572	672.06
331.801	692.06
332.03	723.06
332.258	729.06
332.486	768.06
332.715	773.06
332.943	847.06
333.172	838.06
333.4	877.06
333.629	917.06
333.857	898.06
334.085	870.06
334.314	864.06
334.542	870.06
334.771	835.06
334.999	841.06
335.227	836.06
335.455	809.06
335.684	820.06
335.912	813.06
336.14	798.06
336.369	794.06
336.597	822.06
336.825	802.06
337.053	805.06
337.281	787.06
337.51	765.06
337.738	734.06
337.966	720.06
338.194	707.06
338.422	712.06
338.65	703.06
338.878	701.06
339.106	709.06
339.334	717.06
339.562	681.06
339.79	700.06
340.018	679.06
340.246	682.06
340.474	664.06
340.702	681.06
340.93	691.06
341.158	690.06
341.386	706.06
341.614	703.06
341.842	683.06
342.07	680.06
342.298	662.06
342.526	682.06
342.754	672.06
342.981	657.06
343.209	670.06
343.437	739.06
343.665	775.06
343.893	826.06
344.12	889.06
344.348	839.06
344.576	772.06
344.804	732.06
345.031	692.06
345.259	681.06
345.487	674.06
345.714	669.06
345.942	685.06
346.17	666.06
346.397	684.06
346.625	683.06
346.853	666.06
347.08	668.06
347.308	665.06
347.535	677.06
347.763	675.06
347.99	655.06
348.218	684.06
348.445	664.06
348.673	684.06
348.9	638.06
349.128	690.06
349.355	646.06
349.583	628.06
349.81	640.06
350.037	630.06
350.265	642.06
350.492	636.06
350.72	621.06
350.947	672.06
351.174	634.06
351.402	642.06
351.629	629.06
351.856	636.06
352.083	636.06
352.311	627.06
352.538	604.06
352.765	614.06
352.992	639.06
353.22	596.06
353.447	632.06
353.674	619.06
353.901	618.06
354.128	622.06
354.355	636.06
354.583	632.06
354.81	642.06
355.037	636.06
355.264	645.06
355.491	645.06
355.718	660.06
355.945	629.06
356.172	648.06
356.399	634.06
356.626	642.06
356.853	641.06
357.08	631.06
357.307	641.06
357.534	647.06
357.761	640.06
357.988	649.06
358.215	636.06
358.441	632.06
358.668	615.06
358.895	640.06
359.122	637.06
359.349	622.06
359.576	619.06
359.802	646.06
360.029	624.06
360.256	647.06
360.483	631.06
360.709	647.06
360.936	647.06
361.163	653.06
361.39	655.06
361.616	651.06
361.843	623.06
362.07	627.06
362.296	644.06
362.523	633.06
362.749	640.06
362.976	602.06
363.203	640.06
363.429	636.06
363.656	633.06
363.882	636.06
364.109	629.06
364.335	598.06
364.562	636.06
364.788	605.06
365.015	650.06
365.241	619.06
365.468	643.06
365.694	632.06
365.92	614.06
366.147	607.06
366.373	626.06
366.599	639.06
366.826	641.06
367.052	641.06
367.278	641.06
367.505	634.06
367.731	646.06
367.957	642.06
368.184	646.06
368.41	650.06
368.636	634.06
368.862	636.06
369.089	660.06
369.315	643.06
369.541	661.06
369.767	666.06
369.993	684.06
370.219	644.06
370.445	663.06
370.672	648.06
370.898	697.06
371.124	684.06
371.35	681.06
371.576	701.06
371.802	704.06
372.028	671.06
372.254	686.06
372.48	709.06
372.706	728.06
372.932	704.06
373.158	701.06
373.384	722.06
373.61	681.06
373.835	696.06
374.061	696.06
374.287	701.06
374.513	700.06
374.739	745.06
374.965	772.06
375.191	766.06
375.416	771.06
375.642	750.06
375.868	719.06
376.094	741.06
376.319	729.06
376.545	698.06
376.771	706.06
376.997	691.06
377.222	693.06
377.448	694.06
377.674	699.06
377.899	704.06
378.125	685.06
378.35	699.06
378.576	657.06
378.802	702.06
379.027	694.06
379.253	698.06
379.478	684.06
379.704	678.06
379.929	666.06
380.155	685.06
380.38	674.06
380.606	678.06
380.831	681.06
381.057	695.06
381.282	699.06
381.507	669.06
381.733	707.06
381.958	688.06
382.184	692.06
382.409	731.06
382.634	694.06
382.86	709.06
383.085	743.06
383.31	742.06
383.535	757.06
383.761	741.06
383.986	756.06
384.211	778.06
384.436	830.06
384.662	828.06
384.887	820.06
385.112	843.06
385.337	834.06
385.562	843.06
385.787	845.06
386.013	844.06
386.238	819.06
386.463	852.06
386.688	870.06
386.913	827.06
387.138	811.06
387.363	824.06
387.588	812.06
387.813	810.06
388.038	797.06
388.263	827.06
388.488	847.06
388.713	820.06
388.938	818.06
389.163	813.06
389.387	793.06
389.612	780.06
389.837	820.06
390.062	791.06
390.287	813.06
390.512	850.06
390.736	813.06
390.961	834.06
391.186	845.06
391.411	890.06
391.636	917.06
391.86	925.06
392.085	937.06
392.31	931.06
392.534	937.06
392.759	894.06
392.984	878.06
393.208	890.06
393.433	882.06
393.658	878.06
393.882	870.06
394.107	929.06
394.331	901.06
394.556	866.06
394.78	886.06
395.005	901.06
395.229	878.06
395.454	940.06
395.678	965.06
395.903	960.06
396.127	934.06
396.352	908.06
396.576	872.06
396.801	877.06
397.025	884.06
397.249	888.06
397.474	923.06
397.698	950.06
397.922	914.06
398.147	928.06
398.371	954.06
398.595	1004.06
398.82	1028.06
399.044	1101.06
399.268	1215.06
399.492	1440.06
399.717	1618.06
399.941	1606.06
400.165	1403.06
400.389	1257.06
400.613	1165.06
400.837	1082.06
401.062	1074.06
401.286	1053.06
401.51	1040.06
401.734	1052.06
401.958	1062.06
402.182	1038.06
402.406	1084.06
402.63	1086.06
402.854	1103.06
403.078	1165.06
403.302	1174.06
403.526	1182.06
403.75	1232.06
403.974	1237.06
404.198	1223.06
404.422	1259.06
404.645	1243.06
404.869	1238.06
405.093	1222.06
405.317	1153.06
405.541	1169.06
405.765	1160.06
405.988	1154.06
406.212	1150.06
406.436	1178.06
406.66	1182.06
406.883	1170.06
407.107	1245.06
407.331	1339.06
407.555	1416.06
407.778	1360.06
408.002	1334.06
408.226	1282.06
408.449	1295.06
408.673	1179.06
408.896	1169.06
409.12	1176.06
409.344	1172.06
409.567	1207.06
409.791	1197.06
410.014	1185.06
410.238	1184.06
410.461	1164.06
410.685	1146.06
410.908	1134.06
411.132	1123.06
411.355	1079.06
411.578	1097.06
411.802	1086.06
412.025	1107.06
412.249	1099.06
412.472	1067.06
412.695	1104.06
412.919	1061.06
413.142	1054.06
413.365	1045.06
413.589	1054.06
413.812	1046.06
414.035	1048.06
414.258	1029.06
414.482	1040.06
414.705	1069.06
414.928	1041.06
415.151	1046.06
415.374	1039.06
415.597	1059.06
415.821	1037.06
416.044	1059.06
416.267	1037.06
416.49	975.06
416.713	1028.06
416.936	1065.06
417.159	1027.06
417.382	1021.06
417.605	1028.06
417.828	1060.06
418.051	1073.06
418.274	1072.06
418.497	1047.06
418.72	1089.06
418.943	1093.06
419.166	1155.06
419.389	1228.06
419.611	1218.06
419.834	1113.06
420.057	1110.06
420.28	1082.06
420.503	1028.06
420.726	1027.06
420.948	1022.06
421.171	1046.06
421.394	1043.06
421.617	1023.06
421.839	1053.06
422.062	1050.06
422.285	1018.06
422.507	1062.06
422.73	1056.06
422.953	1086.06
423.175	1101.06
423.398	1090.06
423.621	1086.06
423.843	1158.06
424.066	1131.06
424.288	1120.06
424.511	1099.06
424.733	1108.06
424.956	1082.06
425.178	1090.06
425.401	1076.06
425.623	1050.06
425.846	1002.06
426.068	1022.06
426.291	1024.06
426.513	990.06
426.735	1016.06
426.958	957.06
427.18	929.06
427.402	976.06
427.625	940.06
427.847	934.06
428.069	933.06
428.292	932.06
428.514	936.06
428.736	925.06
428.958	923.06
429.181	915.06
429.403	915.06
429.625	910.06
429.847	891.06
430.069	911.06
430.292	934.06
430.514	907.06
430.736	916.06
430.958	920.06
431.18	886.06
431.402	920.06
431.624	898.06
431.846	954.06
432.068	930.06
432.29	946.06
432.512	915.06
432.734	965.06
432.956	886.06
433.178	938.06
433.4	916.06
433.622	941.06
433.844	936.06
434.066	960.06
434.287	953.06
434.509	987.06
434.731	1008.06
434.953	1030.06
435.175	1048.06
435.397	1030.06
435.618	1016.06
435.84	960.06
436.062	938.06
436.284	921.06
436.505	955.06
436.727	934.06
436.949	944.06
437.17	922.06
437.392	933.06
437.614	927.06
437.835	891.06
438.057	878.06
438.278	876.06
438.5	885.06
438.721	870.06
438.943	898.06
439.165	928.06
439.386	910.06
439.608	933.06
439.829	928.06
440.05	909.06
440.272	941.06
440.493	957.06
440.715	926.06
440.936	985.06
441.158	972.06
441.379	1043.06
441.6	1073.06
441.822	1068.06
442.043	1074.06
442.264	1062.06
442.486	1038.06
442.707	1061.06
442.928	1032.06
443.149	1052.06
443.371	1026.06
443.592	1018.06
443.813	1066.06
444.034	1059.06
444.255	1096.06
444.476	1156.06
444.698	1248.06
444.919	1280.06
445.14	1397.06
445.361	1190.06
445.582	1094.06
445.803	1046.06
446.024	984.06
446.245	980.06
446.466	984.06
446.687	956.06
446.908	931.06
447.129	945.06
447.35	914.06
447.571	900.06
447.792	902.06
448.013	865.06
448.234	875.06
448.455	877.06
448.675	864.06
448.896	876.06
449.117	864.06
449.338	868.06
449.559	866.06
449.779	868.06
450	840.06
450.221	846.06
450.442	880.06
450.662	900.06
450.883	878.06
451.104	873.06
451.324	858.06
451.545	892.06
451.766	880.06
451.986	876.06
452.207	882.06
452.428	900.06
452.648	866.06
452.869	856.06
453.089	840.06
453.31	856.06
453.53	841.06
453.751	819.06
453.971	851.06
454.192	833.06
454.412	821.06
454.633	818.06
454.853	817.06
455.073	833.06
455.294	809.06
455.514	792.06
455.734	809.06
455.955	805.06
456.175	806.06
456.395	811.06
456.616	784.06
456.836	796.06
457.056	808.06
457.276	777.06
457.497	819.06
457.717	805.06
457.937	823.06
458.157	794.06
458.377	813.06
458.598	844.06
458.818	892.06
459.038	902.06
459.258	900.06
459.478	932.06
459.698	988.06
459.918	1005.06
460.138	1067.06
460.358	1104.06
460.578	1088.06
460.798	1116.06
461.018	1150.06
461.238	1095.06
461.458	1099.06
461.678	1112.06
461.898	1114.06
462.118	1112.06
462.338	1181.06
462.558	1203.06
462.777	1259.06
462.997	1420.06
463.217	1515.06
463.437	1531.06
463.657	1378.06
463.876	1308.06
464.096	1302.06
464.316	1278.06
464.536	1306.06
464.755	1245.06
464.975	1206.06
465.195	1160.06
465.414	1072.06
465.634	1010.06
465.854	983.06
466.073	966.06
466.293	941.06
466.512	937.06
466.732	915.06
466.951	935.06
467.171	853.06
467.391	898.06
467.61	908.06
467.829	894.06
468.049	897.06
468.268	844.06
468.488	863.06
468.707	829.06
468.927	869.06
469.146	872.06
469.365	865.06
469.585	867.06
469.804	884.06
470.023	932.06
470.243	929.06
470.462	971.06
470.681	963.06
470.901	923.06
471.12	931.06
471.339	909.06
471.558	877.06
471.777	883.06
471.997	867.06
472.216	859.06
472.435	832.06
472.654	829.06
472.873	828.06
473.092	846.06
473.311	811.06
473.53	788.06
473.749	839.06
473.968	831.06
474.187	817.06
474.406	821.06
474.625	829.06
474.844	845.06
475.063	839.06
475.282	842.06
475.501	831.06
475.72	817.06
475.939	851.06
476.158	866.06
476.377	877.06
476.596	839.06
476.814	892.06
477.033	891.06
477.252	893.06
477.471	897.06
477.69	918.06
477.908	931.06
478.127	1000.06
478.346	1022.06
478.564	1032.06
478.783	1026.06
479.002	1048.06
479.22	1058.06
479.439	1065.06
479.658	1045.06
479.876	1026.06
480.095	1061.06
480.313	1098.06
480.532	1127.06
480.751	1146.06
480.969	1077.06
481.188	1036.06
481.406	959.06
481.624	967.06
481.843	954.06
482.061	950.06
482.28	912.06
482.498	932.06
482.717	925.06
482.935	953.06
483.153	928.06
483.372	928.06
483.59	940.06
483.808	966.06
484.027	955.06
484.245	921.06
484.463	948.06
484.681	986.06
484.9	978.06
485.118	962.06
485.336	972.06
485.554	989.06
485.772	970.06
485.99	1000.06
486.209	999.06
486.427	1027.06
486.645	997.06
486.863	995.06
487.081	982.06
487.299	988.06
487.517	967.06
487.735	979.06
487.953	980.06
488.171	999.06
488.389	959.06
488.607	958.06
488.825	973.06
489.043	974.06
489.261	997.06
489.479	985.06
489.696	990.06
489.914	950.06
490.132	951.06
490.35	962.06
490.568	992.06
490.786	983.06
491.003	984.06
491.221	1005.06
491.439	999.06
491.657	988.06
491.874	1021.06
492.092	992.06
492.31	985.06
492.527	1040.06
492.745	1019.06
492.963	1026.06
493.18	1042.06
493.398	1001.06
493.615	1048.06
493.833	1043.06
494.05	1045.06
494.268	1039.06
494.485	1057.06
494.703	1062.06
494.92	1056.06
495.138	1057.06
495.355	1059.06
495.573	1044.06
495.79	1061.06
496.008	1048.06
496.225	1061.06
496.442	1077.06
496.66	1096.06
496.877	1087.06
497.094	1130.06
497.312	1120.06
497.529	1157.06
497.746	1187.06
497.963	1229.06
498.181	1250.06
498.398	1278.06
498.615	1385.06
498.832	1496.06
499.049	1627.06
499.267	1739.06
499.484	1940.06
499.701	2157.06
499.918	2400.06
500.135	2740.06
500.352	3165.06
500.569	3328.06
500.786	3298.06
501.003	3071.06
501.22	2721.06
501.437	2368.06
501.654	2082.06
501.871	1862.06
502.088	1709.06
502.305	1619.06
502.522	1500.06
502.739	1465.06
502.956	1364.06
503.172	1308.06
503.389	1225.06
503.606	1202.06
503.823	1207.06
504.04	1211.06
504.256	1185.06
504.473	1261.06
504.69	1296.06
504.907	1223.06
505.123	1198.06
505.34	1092.06
505.557	1056.06
505.773	997.06
505.99	999.06
506.207	965.06
506.423	973.06
506.64	969.06
506.856	954.06
507.073	946.06
507.289	924.06
507.506	933.06
507.722	916.06
507.939	898.06
508.155	923.06
508.372	897.06
508.588	896.06
508.805	875.06
509.021	852.06
509.238	856.06
509.454	858.06
509.67	853.06
509.887	842.06
510.103	889.06
510.319	855.06
510.536	871.06
510.752	836.06
510.968	862.06
511.184	827.06
511.401	813.06
511.617	878.06
511.833	877.06
512.049	848.06
512.265	860.06
512.481	832.06
512.698	864.06
512.914	849.06
513.13	846.06
513.346	853.06
513.562	828.06
513.778	850.06
513.994	869.06
514.21	857.06
514.426	857.06
514.642	847.06
514.858	868.06
515.074	858.06
515.29	865.06
515.506	897.06
515.721	896.06
515.937	880.06
516.153	887.06
516.369	930.06
516.585	968.06
516.801	1017.06
517.016	1050.06
517.232	1099.06
517.448	1178.06
517.664	1154.06
517.879	1178.06
518.095	1184.06
518.311	1173.06
518.527	1103.06
518.742	1083.06
518.958	1032.06
519.173	984.06
519.389	945.06
519.605	914.06
519.82	891.06
520.036	914.06
520.251	875.06
520.467	850.06
520.682	838.06
520.898	856.06
521.113	841.06
521.329	856.06
521.544	804.06
521.76	841.06
521.975	812.06
522.19	812.06
522.406	789.06
522.621	824.06
522.836	793.06
523.052	784.06
523.267	802.06
523.482	773.06
523.698	752.06
523.913	780.06
524.128	805.06
524.343	778.06
524.559	789.06
524.774	775.06
524.989	756.06
525.204	760.06
525.419	766.06
525.634	780.06
525.849	766.06
526.064	760.06
526.28	749.06
526.495	754.06
526.71	749.06
526.925	724.06
527.14	733.06
527.355	773.06
527.57	732.06
527.785	747.06
527.999	776.06
528.214	756.06
528.429	757.06
528.644	771.06
528.859	767.06
529.074	758.06
529.289	764.06
529.503	773.06
529.718	775.06
529.933	770.06
530.148	769.06
530.363	740.06
530.577	773.06
530.792	751.06
531.007	761.06
531.221	777.06
531.436	737.06
531.651	768.06
531.865	760.06
532.08	760.06
532.295	750.06
532.509	770.06
532.724	750.06
532.938	757.06
533.153	754.06
533.367	737.06
533.582	745.06
533.796	740.06
534.011	772.06
534.225	746.06
534.44	738.06
534.654	733.06
534.868	737.06
535.083	740.06
535.297	740.06
535.511	714.06
535.726	719.06
535.94	714.06
536.154	717.06
536.369	699.06
536.583	724.06
536.797	731.06
537.011	704.06
537.225	697.06
537.44	668.06
537.654	708.06
537.868	697.06
538.082	668.06
538.296	704.06
538.51	702.06
538.724	710.06
538.938	698.06
539.153	678.06
539.367	683.06
539.581	691.06
539.795	664.06
540.009	684.06
540.222	688.06
540.436	687.06
540.65	681.06
540.864	697.06
541.078	702.06
541.292	663.06
541.506	676.06
541.72	685.06
541.934	678.06
542.147	697.06
542.361	677.06
542.575	702.06
542.789	669.06
543.002	645.06
543.216	675.06
543.43	677.06
543.644	664.06
543.857	681.06
544.071	671.06
544.285	672.06
544.498	702.06
544.712	680.06
544.925	686.06
545.139	713.06
545.352	696.06
545.566	692.06
545.779	698.06
545.993	714.06
546.206	708.06
546.42	682.06
546.633	694.06
546.847	682.06
547.06	712.06
547.274	708.06
547.487	692.06
547.7	707.06
547.914	697.06
548.127	709.06
548.34	678.06
548.554	693.06
548.767	707.06
548.98	699.06
549.193	694.06
549.407	709.06
549.62	726.06
549.833	735.06
550.046	731.06
550.259	713.06
550.473	694.06
550.686	678.06
550.899	716.06
551.112	668.06
551.325	691.06
551.538	672.06
551.751	681.06
551.964	642.06
552.177	696.06
552.39	704.06
552.603	724.06
552.816	728.06
553.029	764.06
553.242	756.06
553.455	768.06
553.667	782.06
553.88	778.06
554.093	727.06
554.306	740.06
554.519	717.06
554.732	721.06
554.944	686.06
555.157	668.06
555.37	663.06
555.583	648.06
555.795	645.06
556.008	627.06
556.221	614.06
556.433	605.06
556.646	617.06
556.859	616.06
557.071	607.06
557.284	595.06
557.496	616.06
557.709	598.06
557.921	608.06
558.134	595.06
558.346	601.06
558.559	597.06
558.771	586.06
558.984	584.06
559.196	593.06
559.409	588.06
559.621	599.06
559.833	576.06
560.046	583.06
560.258	566.06
560.47	551.06
560.683	594.06
560.895	582.06
561.107	584.06
561.32	562.06
561.532	574.06
561.744	574.06
561.956	561.06
562.168	568.06
562.381	569.06
562.593	571.06
562.805	573.06
563.017	548.06
563.229	578.06
563.441	587.06
563.653	581.06
563.865	567.06
564.077	584.06
564.289	611.06
564.501	629.06
564.713	614.06
564.925	622.06
565.137	620.06
565.349	627.06
565.561	648.06
565.773	677.06
565.985	724.06
566.197	785.06
566.408	808.06
566.62	878.06
566.832	965.06
567.044	993.06
567.255	975.06
567.467	968.06
567.679	1027.06
567.891	1142.06
568.102	1126.06
568.314	1128.06
568.526	984.06
568.737	897.06
568.949	803.06
569.161	744.06
569.372	696.06
569.584	666.06
569.795	639.06
570.007	605.06
570.218	585.06
570.43	584.06
570.641	588.06
570.853	611.06
571.064	590.06
571.276	588.06
571.487	575.06
571.698	560.06
571.91	546.06
572.121	554.06
572.333	534.06
572.544	508.06
572.755	507.06
572.966	507.06
573.178	470.06
573.389	496.06
573.6	472.06
573.811	449.06
574.023	476.06
574.234	499.06
574.445	483.06
574.656	482.06
574.867	476.06
575.078	477.06
575.289	456.06
575.501	449.06
575.712	460.06
575.923	454.06
576.134	467.06
576.345	481.06
576.556	453.06
576.767	459.06
576.978	467.06
577.188	482.06
577.399	465.06
577.61	457.06
577.821	433.06
578.032	444.06
578.243	439.06
578.454	427.06
578.665	421.06
578.875	433.06
579.086	397.06
579.297	433.06
579.508	421.06
579.718	423.06
579.929	419.06
580.14	401.06
580.35	410.06
580.561	414.06
580.772	407.06
580.982	410.06
581.193	408.06
581.403	414.06
581.614	412.06
581.825	415.06
582.035	403.06
582.246	394.06
582.456	398.06
582.667	412.06
582.877	384.06
583.087	404.06
583.298	410.06
583.508	393.06
583.719	388.06
583.929	398.06
584.139	385.06
584.35	399.06
584.56	396.06
584.77	404.06
584.981	385.06
585.191	399.06
585.401	390.06
585.611	380.06
585.821	401.06
586.032	386.06
586.242	394.06
586.452	417.06
586.662	388.06
586.872	396.06
587.082	396.06
587.292	391.06
587.502	403.06
587.713	402.06
587.923	372.06
588.133	374.06
588.343	384.06
588.553	387.06
588.762	382.06
588.972	404.06
589.182	377.06
589.392	382.06
589.602	389.06
589.812	370.06
590.022	371.06
590.232	386.06
590.441	384.06
590.651	408.06
590.861	393.06
591.071	386.06
591.281	435.06
591.49	399.06
591.7	428.06
591.91	404.06
592.119	417.06
592.329	421.06
592.539	441.06
592.748	459.06
592.958	456.06
593.167	468.06
593.377	500.06
593.587	520.06
593.796	500.06
594.006	512.06
594.215	506.06
594.424	489.06
594.634	480.06
594.843	467.06
595.053	451.06
595.262	436.06
595.472	423.06
595.681	427.06
595.89	394.06
596.1	400.06
596.309	387.06
596.518	374.06
596.727	364.06
596.937	351.06
597.146	351.06
597.355	357.06
597.564	371.06
597.774	344.06
597.983	347.06
598.192	339.06
598.401	340.06
598.61	341.06
598.819	340.06
599.028	341.06
599.237	332.06
599.446	327.06
599.655	347.06
599.864	336.06
600.073	328.06
600.282	324.06
600.491	307.06
600.7	318.06
600.909	330.06
601.118	345.06
601.327	342.06
601.536	332.06
601.745	326.06
601.953	335.06
602.162	319.06
602.371	309.06
602.58	304.06
602.789	326.06
602.997	315.06
603.206	316.06
603.415	300.06
603.623	309.06
603.832	317.06
604.041	313.06
604.249	314.06
604.458	292.06
604.666	304.06
604.875	316.06
605.084	313.06
605.292	309.06
605.501	294.06
605.709	320.06
605.918	312.06
606.126	280.06
606.334	311.06
606.543	308.06
606.751	295.06
606.96	294.06
607.168	299.06
607.376	300.06
607.585	297.06
607.793	301.06
608.001	287.06
608.21	303.06
608.418	313.06
608.626	314.06
608.834	291.06
609.043	310.06
609.251	299.06
609.459	295.06
609.667	286.06
609.875	291.06
610.083	303.06
610.291	308.06
610.499	305.06
610.707	270.06
610.916	287.06
611.124	279.06
611.332	297.06
611.54	300.06
611.748	288.06
611.955	282.06
612.163	283.06
612.371	278.06
612.579	292.06
612.787	272.06
612.995	280.06
613.203	308.06
613.411	282.06
613.618	283.06
613.826	287.06
614.034	300.06
614.242	274.06
614.449	280.06
614.657	283.06
614.865	285.06
615.072	272.06
615.28	285.06
615.488	270.06
615.695	294.06
615.903	287.06
616.111	292.06
616.318	276.06
616.526	281.06
616.733	290.06
616.941	277.06
617.148	278.06
617.356	282.06
617.563	283.06
617.771	289.06
617.978	285.06
618.185	293.06
618.393	284.06
618.6	280.06
618.807	282.06
619.015	278.06
619.222	281.06
619.429	288.06
619.637	268.06
619.844	270.06
620.051	283.06
620.258	251.06
620.466	273.06
620.673	250.06
620.88	265.06
621.087	253.06
621.294	257.06
621.501	245.06
621.708	267.06
621.915	237.06
622.122	260.06
622.329	258.06
622.536	248.06
622.743	248.06
622.95	263.06
623.157	238.06
623.364	270.06
623.571	260.06
623.778	256.06
623.985	248.06
624.192	243.06
624.399	244.06
624.606	248.06
624.812	232.06
625.019	230.06
625.226	233.06
625.433	260.06
625.639	253.06
625.846	240.06
626.053	238.06
626.259	230.06
626.466	242.06
626.673	229.06
626.879	233.06
627.086	229.06
627.293	224.06
627.499	252.06
627.706	252.06
627.912	229.06
628.119	232.06
628.325	220.06
628.532	244.06
628.738	228.06
628.945	229.06
629.151	231.06
629.357	233.06
629.564	213.06
629.77	222.06
629.976	233.06
630.183	229.06
630.389	235.06
630.595	231.06
630.802	220.06
631.008	231.06
631.214	220.06
631.42	233.06
631.627	241.06
631.833	226.06
632.039	215.06
632.245	220.06
632.451	210.06
632.657	204.06
632.863	205.06
633.069	211.06
633.275	203.06
633.481	200.06
633.688	212.06
633.893	232.06
634.099	217.06
634.305	216.06
634.511	211.06
634.717	222.06
634.923	202.06
635.129	202.06
635.335	215.06
635.541	196.06
635.747	199.06
635.952	223.06
636.158	207.06
636.364	218.06
636.57	217.06
636.775	201.06
636.981	204.06
637.187	209.06
637.392	188.06
637.598	203.06
637.804	220.06
638.009	203.06
638.215	186.06
638.421	206.06
638.626	197.06
638.832	192.06
639.037	188.06
639.243	178.06
639.448	194.06
639.654	195.06
639.859	200.06
640.065	206.06
640.27	202.06
640.475	201.06
640.681	197.06
640.886	193.06
641.091	185.06
641.297	203.06
641.502	186.06
641.707	200.06
641.913	178.06
642.118	190.06
642.323	180.06
642.528	202.06
642.733	195.06
642.939	195.06
643.144	203.06
643.349	185.06
643.554	179.06
643.759	181.06
643.964	193.06
644.169	184.06
644.374	194.06
644.579	193.06
644.784	195.06
644.989	173.06
645.194	181.06
645.399	171.06
645.604	180.06
645.809	170.06
646.014	163.06
646.219	169.06
646.423	196.06
646.628	186.06
646.833	182.06
647.038	203.06
647.243	191.06
647.447	185.06
647.652	187.06
647.857	193.06
648.062	203.06
648.266	198.06
648.471	208.06
648.676	216.06
648.88	201.06
649.085	185.06
649.289	199.06
649.494	188.06
649.698	170.06
649.903	187.06
650.107	180.06
650.312	175.06
650.516	162.06
650.721	169.06
650.925	178.06
651.13	153.06
651.334	166.06
651.539	171.06
651.743	164.06
651.947	167.06
652.152	180.06
652.356	167.06
652.56	162.06
652.764	158.06
652.969	144.06
653.173	141.06
653.377	146.06
653.581	141.06
653.785	137.06
653.99	149.06
654.194	147.06
654.398	149.06
654.602	140.06
654.806	140.06
655.01	145.06
655.214	145.06
655.418	137.06
655.622	121.06
655.826	141.06
656.03	139.06
656.234	134.06
656.438	147.06
656.642	140.06
656.846	134.06
657.049	127.06
657.253	123.06
657.457	126.06
657.661	122.06
657.865	116.06
658.068	124.06
658.272	118.06
658.476	103.06
658.68	116.06
658.883	110.06
659.087	100.06
659.291	102.06
659.494	118.06
659.698	108.06
659.901	105.06
660.105	100.06
660.309	100.06
660.512	77.06
660.716	90.06
660.919	101.06
661.123	94.06
661.326	89.06
661.53	101.06
661.733	80.06
661.936	87.06
662.14	97.06
662.343	91.06
662.546	76.06
662.75	90.06
662.953	83.06
663.156	75.06
663.36	94.06
663.563	84.06
663.766	86.06
663.969	83.06
664.173	81.06
664.376	77.06
664.579	84.06
664.782	95.06
664.985	77.06
665.188	75.06
665.391	61.06
665.594	69.06
665.797	74.06
666	85.06
666.203	80.06
666.406	70.06
666.609	85.06
666.812	87.06
667.015	89.06
667.218	78.06
667.421	69.06
667.624	88.06
667.827	72.06
668.03	98.06
668.232	91.06
668.435	87.06
668.638	82.06
668.841	84.06
669.043	78.06
669.246	82.06
669.449	86.06
669.651	65.06
669.854	91.06
670.057	87.06
670.259	77.06
670.462	75.06
670.665	82.06
670.867	92.06
671.07	73.06
671.272	75.06
671.475	85.06
671.677	73.06
671.88	86.06
672.082	75.06
672.284	86.06
672.487	80.06
672.689	84.06
672.892	84.06
