Data from NiCl2@0.5M.TitratingCurve.Agarose3%dH2O.NegLispCup.LampEnergy10.LIBS07252019_HRD10591_18-19-51-571.txt Node
Date: Thu Jul 25 18:19:51 EDT 2019
User: cochatt
Spectrometer: HR+D1059
Trigger mode: 1
Integration Time (sec): 1.000000E-1
Scans to average: 1
Electric dark correction enabled: true
Nonlinearity correction enabled: false
Boxcar width: 0
XAxis mode: Wavelengths
Number of Pixels in Spectrum: 2048
>>>>>Begin Spectral Data<<<<<
223.165	-18.44
223.4	-18.44
223.635	-18.44
223.869	-17.44
224.104	-17.44
224.338	-21.44
224.573	-8.44
224.808	-7.44
225.042	-11.44
225.277	-12.44
225.511	-3.44
225.746	4.56
225.98	26.56
226.215	21.56
226.449	12.56
226.683	9.56
226.918	6.56
227.152	36.56
227.387	43.56
227.621	39.56
227.856	55.56
228.09	54.56
228.324	51.56
228.559	63.56
228.793	71.56
229.027	102.56
229.262	93.56
229.496	128.56
229.73	132.56
229.964	110.56
230.199	116.56
230.433	134.56
230.667	124.56
230.901	146.56
231.136	132.56
231.37	138.56
231.604	141.56
231.838	159.56
232.072	144.56
232.306	149.56
232.541	142.56
232.775	136.56
233.009	132.56
233.243	142.56
233.477	138.56
233.711	144.56
233.945	150.56
234.179	157.56
234.413	144.56
234.647	150.56
234.881	145.56
235.115	143.56
235.349	150.56
235.583	143.56
235.817	142.56
236.051	151.56
236.285	137.56
236.519	140.56
236.753	142.56
236.987	156.56
237.221	144.56
237.455	159.56
237.689	163.56
237.922	137.56
238.156	150.56
238.39	157.56
238.624	160.56
238.858	157.56
239.091	148.56
239.325	159.56
239.559	151.56
239.793	160.56
240.027	162.56
240.26	172.56
240.494	172.56
240.728	171.56
240.961	175.56
241.195	186.56
241.429	180.56
241.662	180.56
241.896	173.56
242.13	194.56
242.363	196.56
242.597	192.56
242.83	187.56
243.064	180.56
243.298	176.56
243.531	197.56
243.765	184.56
243.998	194.56
244.232	203.56
244.465	217.56
244.699	201.56
244.932	203.56
245.166	206.56
245.399	202.56
245.633	211.56
245.866	211.56
246.099	201.56
246.333	199.56
246.566	206.56
246.8	219.56
247.033	215.56
247.266	212.56
247.5	200.56
247.733	219.56
247.966	216.56
248.2	224.56
248.433	215.56
248.666	238.56
248.899	214.56
249.133	230.56
249.366	247.56
249.599	236.56
249.832	231.56
250.066	230.56
250.299	218.56
250.532	227.56
250.765	239.56
250.998	220.56
251.231	239.56
251.465	240.56
251.698	232.56
251.931	245.56
252.164	263.56
252.397	245.56
252.63	254.56
252.863	258.56
253.096	256.56
253.329	262.56
253.562	261.56
253.795	243.56
254.028	250.56
254.261	255.56
254.494	258.56
254.727	256.56
254.96	258.56
255.193	252.56
255.426	276.56
255.659	266.56
255.892	289.56
256.124	262.56
256.357	278.56
256.59	277.56
256.823	267.56
257.056	286.56
257.289	282.56
257.521	289.56
257.754	273.56
257.987	267.56
258.22	296.56
258.452	290.56
258.685	280.56
258.918	284.56
259.151	269.56
259.383	290.56
259.616	297.56
259.849	283.56
260.081	302.56
260.314	293.56
260.547	298.56
260.779	296.56
261.012	293.56
261.244	290.56
261.477	320.56
261.71	299.56
261.942	293.56
262.175	292.56
262.407	291.56
262.64	302.56
262.872	310.56
263.105	308.56
263.337	303.56
263.57	302.56
263.802	319.56
264.035	319.56
264.267	334.56
264.499	311.56
264.732	334.56
264.964	326.56
265.197	314.56
265.429	315.56
265.661	319.56
265.894	336.56
266.126	336.56
266.358	348.56
266.591	344.56
266.823	330.56
267.055	336.56
267.287	346.56
267.52	340.56
267.752	336.56
267.984	329.56
268.216	338.56
268.448	341.56
268.681	346.56
268.913	355.56
269.145	346.56
269.377	324.56
269.609	360.56
269.841	336.56
270.073	350.56
270.306	331.56
270.538	373.56
270.77	370.56
271.002	368.56
271.234	362.56
271.466	372.56
271.698	358.56
271.93	379.56
272.162	342.56
272.394	378.56
272.626	364.56
272.858	350.56
273.09	382.56
273.322	379.56
273.553	370.56
273.785	378.56
274.017	374.56
274.249	383.56
274.481	375.56
274.713	378.56
274.945	365.56
275.176	397.56
275.408	401.56
275.64	380.56
275.872	384.56
276.104	391.56
276.335	391.56
276.567	380.56
276.799	399.56
277.031	387.56
277.262	410.56
277.494	395.56
277.726	408.56
277.957	388.56
278.189	402.56
278.421	410.56
278.652	406.56
278.884	384.56
279.115	418.56
279.347	405.56
279.579	418.56
279.81	399.56
280.042	413.56
280.273	420.56
280.505	412.56
280.736	416.56
280.968	437.56
281.199	430.56
281.431	423.56
281.662	431.56
281.894	436.56
282.125	443.56
282.356	438.56
282.588	428.56
282.819	438.56
283.051	453.56
283.282	432.56
283.513	438.56
283.745	436.56
283.976	450.56
284.207	442.56
284.439	447.56
284.67	456.56
284.901	443.56
285.132	471.56
285.364	454.56
285.595	444.56
285.826	461.56
286.057	455.56
286.288	438.56
286.52	472.56
286.751	460.56
286.982	445.56
287.213	454.56
287.444	463.56
287.675	460.56
287.906	468.56
288.138	479.56
288.369	490.56
288.6	488.56
288.831	476.56
289.062	490.56
289.293	484.56
289.524	474.56
289.755	483.56
289.986	482.56
290.217	482.56
290.448	480.56
290.679	490.56
290.91	490.56
291.141	473.56
291.371	507.56
291.602	483.56
291.833	491.56
292.064	472.56
292.295	484.56
292.526	481.56
292.757	490.56
292.987	477.56
293.218	471.56
293.449	494.56
293.68	493.56
293.91	504.56
294.141	500.56
294.372	494.56
294.603	518.56
294.833	514.56
295.064	520.56
295.295	514.56
295.525	501.56
295.756	503.56
295.987	501.56
296.217	513.56
296.448	511.56
296.679	513.56
296.909	519.56
297.14	531.56
297.37	534.56
297.601	534.56
297.831	539.56
298.062	520.56
298.292	544.56
298.523	542.56
298.753	557.56
298.984	552.56
299.214	524.56
299.445	547.56
299.675	555.56
299.905	539.56
300.136	543.56
300.366	551.56
300.597	578.56
300.827	566.56
301.057	551.56
301.288	566.56
301.518	578.56
301.748	583.56
301.979	581.56
302.209	578.56
302.439	566.56
302.669	583.56
302.9	582.56
303.13	557.56
303.36	571.56
303.59	574.56
303.82	575.56
304.051	583.56
304.281	560.56
304.511	583.56
304.741	576.56
304.971	591.56
305.201	590.56
305.431	587.56
305.661	567.56
305.891	562.56
306.121	573.56
306.352	557.56
306.582	558.56
306.812	557.56
307.042	564.56
307.272	578.56
307.502	587.56
307.731	573.56
307.961	582.56
308.191	568.56
308.421	560.56
308.651	555.56
308.881	558.56
309.111	573.56
309.341	546.56
309.571	564.56
309.8	601.56
310.03	565.56
310.26	570.56
310.49	552.56
310.72	576.56
310.949	581.56
311.179	584.56
311.409	581.56
311.639	578.56
311.868	584.56
312.098	592.56
312.328	582.56
312.557	603.56
312.787	581.56
313.017	602.56
313.246	589.56
313.476	599.56
313.706	611.56
313.935	608.56
314.165	615.56
314.394	606.56
314.624	612.56
314.853	603.56
315.083	626.56
315.312	632.56
315.542	615.56
315.771	582.56
316.001	623.56
316.23	582.56
316.46	604.56
316.689	586.56
316.919	588.56
317.148	616.56
317.377	587.56
317.607	580.56
317.836	582.56
318.065	607.56
318.295	615.56
318.524	602.56
318.753	596.56
318.983	606.56
319.212	597.56
319.441	611.56
319.67	603.56
319.9	613.56
320.129	604.56
320.358	573.56
320.587	566.56
320.816	583.56
321.046	620.56
321.275	609.56
321.504	593.56
321.733	609.56
321.962	619.56
322.191	623.56
322.42	626.56
322.649	632.56
322.878	629.56
323.108	612.56
323.337	618.56
323.566	633.56
323.795	642.56
324.024	614.56
324.253	613.56
324.482	619.56
324.71	629.56
324.939	648.56
325.168	648.56
325.397	641.56
325.626	636.56
325.855	650.56
326.084	624.56
326.313	664.56
326.542	651.56
326.77	678.56
326.999	660.56
327.228	644.56
327.457	645.56
327.686	660.56
327.914	649.56
328.143	674.56
328.372	664.56
328.6	666.56
328.829	662.56
329.058	645.56
329.287	674.56
329.515	699.56
329.744	687.56
329.972	662.56
330.201	673.56
330.43	667.56
330.658	666.56
330.887	672.56
331.115	684.56
331.344	695.56
331.572	703.56
331.801	710.56
332.03	721.56
332.258	724.56
332.486	717.56
332.715	733.56
332.943	779.56
333.172	783.56
333.4	827.56
333.629	815.56
333.857	836.56
334.085	831.56
334.314	816.56
334.542	820.56
334.771	822.56
334.999	800.56
335.227	810.56
335.455	808.56
335.684	824.56
335.912	828.56
336.14	800.56
336.369	802.56
336.597	790.56
336.825	772.56
337.053	795.56
337.281	783.56
337.51	783.56
337.738	762.56
337.966	735.56
338.194	733.56
338.422	736.56
338.65	730.56
338.878	711.56
339.106	700.56
339.334	718.56
339.562	735.56
339.79	719.56
340.018	697.56
340.246	673.56
340.474	696.56
340.702	692.56
340.93	703.56
341.158	699.56
341.386	706.56
341.614	734.56
341.842	711.56
342.07	684.56
342.298	692.56
342.526	685.56
342.754	706.56
342.981	685.56
343.209	698.56
343.437	725.56
343.665	781.56
343.893	797.56
344.12	838.56
344.348	790.56
344.576	773.56
344.804	761.56
345.031	735.56
345.259	720.56
345.487	720.56
345.714	692.56
345.942	719.56
346.17	703.56
346.397	711.56
346.625	696.56
346.853	667.56
347.08	664.56
347.308	666.56
347.535	691.56
347.763	668.56
347.99	680.56
348.218	656.56
348.445	659.56
348.673	645.56
348.9	685.56
349.128	656.56
349.355	657.56
349.583	683.56
349.81	650.56
350.037	655.56
350.265	686.56
350.492	635.56
350.72	632.56
350.947	636.56
351.174	665.56
351.402	662.56
351.629	669.56
351.856	648.56
352.083	630.56
352.311	654.56
352.538	662.56
352.765	680.56
352.992	637.56
353.22	638.56
353.447	618.56
353.674	605.56
353.901	629.56
354.128	627.56
354.355	629.56
354.583	641.56
354.81	616.56
355.037	630.56
355.264	647.56
355.491	618.56
355.718	626.56
355.945	637.56
356.172	661.56
356.399	650.56
356.626	642.56
356.853	668.56
357.08	651.56
357.307	662.56
357.534	634.56
357.761	635.56
357.988	632.56
358.215	632.56
358.441	641.56
358.668	633.56
358.895	626.56
359.122	650.56
359.349	631.56
359.576	619.56
359.802	628.56
360.029	633.56
360.256	651.56
360.483	627.56
360.709	647.56
360.936	661.56
361.163	643.56
361.39	663.56
361.616	639.56
361.843	652.56
362.07	685.56
362.296	652.56
362.523	634.56
362.749	652.56
362.976	637.56
363.203	637.56
363.429	615.56
363.656	611.56
363.882	628.56
364.109	633.56
364.335	623.56
364.562	620.56
364.788	640.56
365.015	628.56
365.241	621.56
365.468	632.56
365.694	601.56
365.92	610.56
366.147	608.56
366.373	628.56
366.599	626.56
366.826	599.56
367.052	619.56
367.278	665.56
367.505	651.56
367.731	629.56
367.957	625.56
368.184	649.56
368.41	618.56
368.636	627.56
368.862	639.56
369.089	647.56
369.315	634.56
369.541	638.56
369.767	651.56
369.993	643.56
370.219	654.56
370.445	648.56
370.672	661.56
370.898	646.56
371.124	660.56
371.35	676.56
371.576	677.56
371.802	678.56
372.028	667.56
372.254	660.56
372.48	655.56
372.706	672.56
372.932	700.56
373.158	685.56
373.384	674.56
373.61	679.56
373.835	700.56
374.061	683.56
374.287	671.56
374.513	665.56
374.739	726.56
374.965	704.56
375.191	715.56
375.416	715.56
375.642	687.56
375.868	691.56
376.094	692.56
376.319	660.56
376.545	701.56
376.771	687.56
376.997	674.56
377.222	664.56
377.448	670.56
377.674	669.56
377.899	672.56
378.125	651.56
378.35	651.56
378.576	635.56
378.802	677.56
379.027	680.56
379.253	662.56
379.478	641.56
379.704	644.56
379.929	674.56
380.155	663.56
380.38	662.56
380.606	655.56
380.831	666.56
381.057	675.56
381.282	670.56
381.507	644.56
381.733	647.56
381.958	662.56
382.184	671.56
382.409	698.56
382.634	688.56
382.86	694.56
383.085	705.56
383.31	683.56
383.535	705.56
383.761	718.56
383.986	728.56
384.211	724.56
384.436	735.56
384.662	754.56
384.887	734.56
385.112	742.56
385.337	788.56
385.562	760.56
385.787	783.56
386.013	783.56
386.238	762.56
386.463	792.56
386.688	785.56
386.913	779.56
387.138	789.56
387.363	770.56
387.588	804.56
387.813	760.56
388.038	796.56
388.263	780.56
388.488	777.56
388.713	764.56
388.938	744.56
389.163	750.56
389.387	750.56
389.612	755.56
389.837	754.56
390.062	779.56
390.287	770.56
390.512	787.56
390.736	781.56
390.961	785.56
391.186	807.56
391.411	821.56
391.636	834.56
391.86	859.56
392.085	867.56
392.31	850.56
392.534	859.56
392.759	847.56
392.984	811.56
393.208	815.56
393.433	814.56
393.658	835.56
393.882	855.56
394.107	860.56
394.331	852.56
394.556	819.56
394.78	848.56
395.005	843.56
395.229	847.56
395.454	855.56
395.678	872.56
395.903	858.56
396.127	839.56
396.352	861.56
396.576	814.56
396.801	844.56
397.025	840.56
397.249	851.56
397.474	875.56
397.698	867.56
397.922	888.56
398.147	887.56
398.371	906.56
398.595	926.56
398.82	942.56
399.044	1002.56
399.268	1064.56
399.492	1208.56
399.717	1277.56
399.941	1302.56
400.165	1243.56
400.389	1147.56
400.613	1074.56
400.837	1062.56
401.062	1004.56
401.286	974.56
401.51	984.56
401.734	987.56
401.958	975.56
402.182	993.56
402.406	1014.56
402.63	960.56
402.854	1014.56
403.078	1007.56
403.302	1032.56
403.526	1063.56
403.75	1039.56
403.974	1072.56
404.198	1046.56
404.422	1063.56
404.645	1071.56
404.869	1058.56
405.093	1066.56
405.317	1055.56
405.541	1030.56
405.765	1062.56
405.988	1065.56
406.212	1072.56
406.436	1059.56
406.66	1076.56
406.883	1080.56
407.107	1166.56
407.331	1194.56
407.555	1209.56
407.778	1206.56
408.002	1203.56
408.226	1170.56
408.449	1160.56
408.673	1156.56
408.896	1125.56
409.12	1092.56
409.344	1091.56
409.567	1086.56
409.791	1109.56
410.014	1084.56
410.238	1068.56
410.461	1068.56
410.685	1067.56
410.908	1060.56
411.132	1040.56
411.355	1006.56
411.578	1026.56
411.802	1020.56
412.025	1035.56
412.249	1041.56
412.472	1034.56
412.695	1027.56
412.919	1025.56
413.142	999.56
413.365	1002.56
413.589	1014.56
413.812	998.56
414.035	1006.56
414.258	971.56
414.482	1009.56
414.705	1002.56
414.928	1006.56
415.151	989.56
415.374	983.56
415.597	997.56
415.821	962.56
416.044	988.56
416.267	966.56
416.49	961.56
416.713	931.56
416.936	983.56
417.159	965.56
417.382	966.56
417.605	961.56
417.828	998.56
418.051	954.56
418.274	997.56
418.497	970.56
418.72	984.56
418.943	1001.56
419.166	1037.56
419.389	1099.56
419.611	1076.56
419.834	1059.56
420.057	1015.56
420.28	982.56
420.503	994.56
420.726	979.56
420.948	988.56
421.171	960.56
421.394	977.56
421.617	987.56
421.839	985.56
422.062	1004.56
422.285	985.56
422.507	980.56
422.73	994.56
422.953	1016.56
423.175	980.56
423.398	968.56
423.621	987.56
423.843	1007.56
424.066	991.56
424.288	996.56
424.511	986.56
424.733	988.56
424.956	976.56
425.178	982.56
425.401	995.56
425.623	970.56
425.846	940.56
426.068	926.56
426.291	912.56
426.513	930.56
426.735	943.56
426.958	963.56
427.18	896.56
427.402	943.56
427.625	910.56
427.847	925.56
428.069	918.56
428.292	926.56
428.514	892.56
428.736	891.56
428.958	936.56
429.181	895.56
429.403	889.56
429.625	899.56
429.847	906.56
430.069	912.56
430.292	900.56
430.514	913.56
430.736	885.56
430.958	900.56
431.18	920.56
431.402	903.56
431.624	877.56
431.846	939.56
432.068	906.56
432.29	930.56
432.512	917.56
432.734	902.56
432.956	906.56
433.178	890.56
433.4	895.56
433.622	872.56
433.844	956.56
434.066	942.56
434.287	958.56
434.509	938.56
434.731	1021.56
434.953	1020.56
435.175	1015.56
435.397	984.56
435.618	963.56
435.84	942.56
436.062	922.56
436.284	927.56
436.505	932.56
436.727	911.56
436.949	918.56
437.17	908.56
437.392	908.56
437.614	891.56
437.835	885.56
438.057	863.56
438.278	873.56
438.5	899.56
438.721	868.56
438.943	888.56
439.165	877.56
439.386	895.56
439.608	931.56
439.829	900.56
440.05	930.56
440.272	902.56
440.493	926.56
440.715	947.56
440.936	948.56
441.158	951.56
441.379	970.56
441.6	998.56
441.822	1015.56
442.043	1022.56
442.264	994.56
442.486	988.56
442.707	997.56
442.928	986.56
443.149	989.56
443.371	971.56
443.592	1037.56
443.813	1036.56
444.034	1040.56
444.255	1029.56
444.476	1076.56
444.698	1101.56
444.919	1143.56
445.14	1238.56
445.361	1140.56
445.582	1055.56
445.803	1004.56
446.024	998.56
446.245	985.56
446.466	987.56
446.687	956.56
446.908	951.56
447.129	904.56
447.35	922.56
447.571	915.56
447.792	899.56
448.013	883.56
448.234	866.56
448.455	871.56
448.675	891.56
448.896	863.56
449.117	827.56
449.338	860.56
449.559	861.56
449.779	863.56
450	845.56
450.221	855.56
450.442	846.56
450.662	870.56
450.883	886.56
451.104	900.56
451.324	872.56
451.545	848.56
451.766	862.56
451.986	847.56
452.207	832.56
452.428	848.56
452.648	864.56
452.869	828.56
453.089	837.56
453.31	843.56
453.53	826.56
453.751	812.56
453.971	810.56
454.192	818.56
454.412	809.56
454.633	807.56
454.853	812.56
455.073	783.56
455.294	831.56
455.514	798.56
455.734	791.56
455.955	787.56
456.175	811.56
456.395	821.56
456.616	784.56
456.836	793.56
457.056	820.56
457.276	804.56
457.497	827.56
457.717	826.56
457.937	825.56
458.157	806.56
458.377	820.56
458.598	852.56
458.818	872.56
459.038	879.56
459.258	903.56
459.478	916.56
459.698	948.56
459.918	957.56
460.138	997.56
460.358	1035.56
460.578	1048.56
460.798	1052.56
461.018	1063.56
461.238	1080.56
461.458	1060.56
461.678	1060.56
461.898	1096.56
462.118	1115.56
462.338	1143.56
462.558	1170.56
462.777	1214.56
462.997	1267.56
463.217	1316.56
463.437	1334.56
463.657	1316.56
463.876	1263.56
464.096	1231.56
464.316	1245.56
464.536	1219.56
464.755	1197.56
464.975	1151.56
465.195	1097.56
465.414	1098.56
465.634	1037.56
465.854	980.56
466.073	977.56
466.293	939.56
466.512	949.56
466.732	925.56
466.951	893.56
467.171	929.56
467.391	906.56
467.61	930.56
467.829	895.56
468.049	892.56
468.268	905.56
468.488	895.56
468.707	863.56
468.927	887.56
469.146	874.56
469.365	895.56
469.585	898.56
469.804	902.56
470.023	891.56
470.243	902.56
470.462	920.56
470.681	931.56
470.901	925.56
471.12	890.56
471.339	887.56
471.558	905.56
471.777	891.56
471.997	893.56
472.216	877.56
472.435	873.56
472.654	874.56
472.873	838.56
473.092	856.56
473.311	870.56
473.53	897.56
473.749	856.56
473.968	860.56
474.187	853.56
474.406	854.56
474.625	859.56
474.844	858.56
475.063	873.56
475.282	883.56
475.501	887.56
475.72	875.56
475.939	889.56
476.158	896.56
476.377	917.56
476.596	914.56
476.814	903.56
477.033	922.56
477.252	924.56
477.471	907.56
477.69	961.56
477.908	1006.56
478.127	1003.56
478.346	1009.56
478.564	1024.56
478.783	1040.56
479.002	1048.56
479.22	1047.56
479.439	1051.56
479.658	1067.56
479.876	1063.56
480.095	1052.56
480.313	1083.56
480.532	1101.56
480.751	1098.56
480.969	1065.56
481.188	1013.56
481.406	1024.56
481.624	1022.56
481.843	971.56
482.061	988.56
482.28	997.56
482.498	989.56
482.717	994.56
482.935	993.56
483.153	994.56
483.372	987.56
483.59	1036.56
483.808	1024.56
484.027	1016.56
484.245	1037.56
484.463	1027.56
484.681	1064.56
484.9	1024.56
485.118	1043.56
485.336	1034.56
485.554	1013.56
485.772	1028.56
485.99	1004.56
486.209	1036.56
486.427	1069.56
486.645	1069.56
486.863	1069.56
487.081	1036.56
487.299	1039.56
487.517	1040.56
487.735	1038.56
487.953	1035.56
488.171	1043.56
488.389	1028.56
488.607	1036.56
488.825	1011.56
489.043	1022.56
489.261	1020.56
489.479	1046.56
489.696	1029.56
489.914	1028.56
490.132	1050.56
490.35	1054.56
490.568	1068.56
490.786	1084.56
491.003	1061.56
491.221	1065.56
491.439	1056.56
491.657	1070.56
491.874	1095.56
492.092	1086.56
492.31	1105.56
492.527	1100.56
492.745	1074.56
492.963	1080.56
493.18	1100.56
493.398	1090.56
493.615	1074.56
493.833	1071.56
494.05	1120.56
494.268	1136.56
494.485	1121.56
494.703	1128.56
494.92	1131.56
495.138	1124.56
495.355	1174.56
495.573	1145.56
495.79	1124.56
496.008	1154.56
496.225	1168.56
496.442	1144.56
496.66	1157.56
496.877	1207.56
497.094	1208.56
497.312	1206.56
497.529	1244.56
497.746	1293.56
497.963	1304.56
498.181	1364.56
498.398	1414.56
498.615	1517.56
498.832	1549.56
499.049	1650.56
499.267	1766.56
499.484	1897.56
499.701	2064.56
499.918	2236.56
500.135	2422.56
500.352	2647.56
500.569	2688.56
500.786	2714.56
501.003	2587.56
501.22	2378.56
501.437	2198.56
501.654	1991.56
501.871	1876.56
502.088	1742.56
502.305	1636.56
502.522	1565.56
502.739	1485.56
502.956	1426.56
503.172	1383.56
503.389	1314.56
503.606	1309.56
503.823	1274.56
504.04	1286.56
504.256	1258.56
504.473	1238.56
504.69	1297.56
504.907	1246.56
505.123	1192.56
505.34	1143.56
505.557	1127.56
505.773	1087.56
505.99	1074.56
506.207	1050.56
506.423	1053.56
506.64	1014.56
506.856	1022.56
507.073	995.56
507.289	984.56
507.506	971.56
507.722	977.56
507.939	971.56
508.155	978.56
508.372	970.56
508.588	967.56
508.805	933.56
509.021	934.56
509.238	937.56
509.454	925.56
509.67	946.56
509.887	928.56
510.103	913.56
510.319	895.56
510.536	916.56
510.752	896.56
510.968	891.56
511.184	903.56
511.401	873.56
511.617	875.56
511.833	888.56
512.049	896.56
512.265	899.56
512.481	914.56
512.698	883.56
512.914	878.56
513.13	903.56
513.346	863.56
513.562	890.56
513.778	890.56
513.994	927.56
514.21	907.56
514.426	900.56
514.642	876.56
514.858	914.56
515.074	930.56
515.29	903.56
515.506	917.56
515.721	939.56
515.937	948.56
516.153	933.56
516.369	964.56
516.585	992.56
516.801	1017.56
517.016	1057.56
517.232	1095.56
517.448	1156.56
517.664	1148.56
517.879	1155.56
518.095	1125.56
518.311	1119.56
518.527	1092.56
518.742	1055.56
518.958	1052.56
519.173	1018.56
519.389	988.56
519.605	970.56
519.82	950.56
520.036	930.56
520.251	918.56
520.467	931.56
520.682	871.56
520.898	900.56
521.113	866.56
521.329	876.56
521.544	856.56
521.76	871.56
521.975	859.56
522.19	823.56
522.406	825.56
522.621	846.56
522.836	840.56
523.052	814.56
523.267	794.56
523.482	826.56
523.698	824.56
523.913	817.56
524.128	825.56
524.343	814.56
524.559	800.56
524.774	806.56
524.989	814.56
525.204	826.56
525.419	806.56
525.634	797.56
525.849	822.56
526.064	806.56
526.28	773.56
526.495	806.56
526.71	814.56
526.925	803.56
527.14	806.56
527.355	778.56
527.57	784.56
527.785	776.56
527.999	770.56
528.214	784.56
528.429	806.56
528.644	804.56
528.859	820.56
529.074	782.56
529.289	804.56
529.503	806.56
529.718	808.56
529.933	798.56
530.148	767.56
530.363	777.56
530.577	780.56
530.792	800.56
531.007	755.56
531.221	798.56
531.436	774.56
531.651	782.56
531.865	781.56
532.08	797.56
532.295	782.56
532.509	772.56
532.724	800.56
532.938	782.56
533.153	755.56
533.367	787.56
533.582	777.56
533.796	770.56
534.011	773.56
534.225	786.56
534.44	774.56
534.654	757.56
534.868	755.56
535.083	772.56
535.297	769.56
535.511	756.56
535.726	733.56
535.94	759.56
536.154	751.56
536.369	742.56
536.583	754.56
536.797	735.56
537.011	710.56
537.225	720.56
537.44	715.56
537.654	720.56
537.868	729.56
538.082	722.56
538.296	747.56
538.51	736.56
538.724	726.56
538.938	696.56
539.153	732.56
539.367	718.56
539.581	734.56
539.795	716.56
540.009	696.56
540.222	715.56
540.436	704.56
540.65	694.56
540.864	707.56
541.078	712.56
541.292	742.56
541.506	716.56
541.72	716.56
541.934	723.56
542.147	722.56
542.361	712.56
542.575	722.56
542.789	687.56
543.002	710.56
543.216	715.56
543.43	668.56
543.644	716.56
543.857	734.56
544.071	703.56
544.285	728.56
544.498	711.56
544.712	715.56
544.925	720.56
545.139	724.56
545.352	749.56
545.566	709.56
545.779	726.56
545.993	734.56
546.206	734.56
546.42	702.56
546.633	718.56
546.847	716.56
547.06	720.56
547.274	737.56
547.487	720.56
547.7	717.56
547.914	729.56
548.127	758.56
548.34	724.56
548.554	728.56
548.767	735.56
548.98	732.56
549.193	726.56
549.407	728.56
549.62	712.56
549.833	718.56
550.046	726.56
550.259	745.56
550.473	717.56
550.686	707.56
550.899	701.56
551.112	714.56
551.325	713.56
551.538	704.56
551.751	698.56
551.964	719.56
552.177	727.56
552.39	712.56
552.603	740.56
552.816	729.56
553.029	764.56
553.242	755.56
553.455	780.56
553.667	778.56
553.88	777.56
554.093	742.56
554.306	715.56
554.519	693.56
554.732	707.56
554.944	708.56
555.157	703.56
555.37	701.56
555.583	675.56
555.795	662.56
556.008	656.56
556.221	667.56
556.433	644.56
556.646	636.56
556.859	638.56
557.071	614.56
557.284	640.56
557.496	641.56
557.709	624.56
557.921	626.56
558.134	618.56
558.346	615.56
558.559	607.56
558.771	618.56
558.984	622.56
559.196	607.56
559.409	596.56
559.621	588.56
559.833	598.56
560.046	609.56
560.258	599.56
560.47	603.56
560.683	627.56
560.895	610.56
561.107	609.56
561.32	590.56
561.532	603.56
561.744	604.56
561.956	610.56
562.168	603.56
562.381	610.56
562.593	614.56
562.805	581.56
563.017	598.56
563.229	606.56
563.441	595.56
563.653	603.56
563.865	622.56
564.077	594.56
564.289	629.56
564.501	644.56
564.713	648.56
564.925	659.56
565.137	650.56
565.349	656.56
565.561	670.56
565.773	696.56
565.985	728.56
566.197	754.56
566.408	790.56
566.62	841.56
566.832	838.56
567.044	866.56
567.255	899.56
567.467	886.56
567.679	923.56
567.891	989.56
568.102	967.56
568.314	926.56
568.526	858.56
568.737	806.56
568.949	755.56
569.161	738.56
569.372	714.56
569.584	676.56
569.795	654.56
570.007	633.56
570.218	608.56
570.43	616.56
570.641	608.56
570.853	617.56
571.064	589.56
571.276	588.56
571.487	590.56
571.698	578.56
571.91	558.56
572.121	563.56
572.333	534.56
572.544	523.56
572.755	527.56
572.966	499.56
573.178	508.56
573.389	506.56
573.6	488.56
573.811	487.56
574.023	501.56
574.234	488.56
574.445	512.56
574.656	493.56
574.867	485.56
575.078	519.56
575.289	492.56
575.501	455.56
575.712	473.56
575.923	464.56
576.134	475.56
576.345	464.56
576.556	466.56
576.767	463.56
576.978	455.56
577.188	481.56
577.399	458.56
577.61	459.56
577.821	444.56
578.032	431.56
578.243	444.56
578.454	450.56
578.665	440.56
578.875	429.56
579.086	404.56
579.297	409.56
579.508	427.56
579.718	430.56
579.929	438.56
580.14	430.56
580.35	428.56
580.561	429.56
580.772	414.56
580.982	428.56
581.193	426.56
581.403	422.56
581.614	425.56
581.825	426.56
582.035	400.56
582.246	408.56
582.456	388.56
582.667	387.56
582.877	386.56
583.087	413.56
583.298	413.56
583.508	404.56
583.719	406.56
583.929	422.56
584.139	406.56
584.35	408.56
584.56	409.56
584.77	404.56
584.981	392.56
585.191	396.56
585.401	399.56
585.611	407.56
585.821	394.56
586.032	404.56
586.242	408.56
586.452	399.56
586.662	382.56
586.872	381.56
587.082	391.56
587.292	390.56
587.502	416.56
587.713	395.56
587.923	393.56
588.133	387.56
588.343	394.56
588.553	418.56
588.762	394.56
588.972	408.56
589.182	475.56
589.392	430.56
589.602	399.56
589.812	463.56
590.022	423.56
590.232	394.56
590.441	408.56
590.651	407.56
590.861	389.56
591.071	411.56
591.281	402.56
591.49	418.56
591.7	403.56
591.91	403.56
592.119	426.56
592.329	424.56
592.539	432.56
592.748	438.56
592.958	425.56
593.167	459.56
593.377	458.56
593.587	471.56
593.796	484.56
594.006	458.56
594.215	466.56
594.424	440.56
594.634	445.56
594.843	426.56
595.053	425.56
595.262	426.56
595.472	424.56
595.681	405.56
595.89	377.56
596.1	392.56
596.309	384.56
596.518	361.56
596.727	370.56
596.937	367.56
597.146	355.56
597.355	375.56
597.564	359.56
597.774	332.56
597.983	343.56
598.192	354.56
598.401	367.56
598.61	359.56
598.819	340.56
599.028	354.56
599.237	324.56
599.446	320.56
599.655	332.56
599.864	343.56
600.073	328.56
600.282	331.56
600.491	323.56
600.7	314.56
600.909	330.56
601.118	322.56
601.327	327.56
601.536	324.56
601.745	343.56
601.953	320.56
602.162	336.56
602.371	317.56
602.58	321.56
602.789	308.56
602.997	314.56
603.206	331.56
603.415	320.56
603.623	310.56
603.832	306.56
604.041	295.56
604.249	292.56
604.458	297.56
604.666	310.56
604.875	319.56
605.084	302.56
605.292	309.56
605.501	315.56
605.709	314.56
605.918	315.56
606.126	304.56
606.334	325.56
606.543	300.56
606.751	324.56
606.96	312.56
607.168	312.56
607.376	306.56
607.585	300.56
607.793	305.56
608.001	315.56
608.21	284.56
608.418	295.56
608.626	290.56
608.834	294.56
609.043	316.56
609.251	286.56
609.459	312.56
609.667	282.56
609.875	278.56
610.083	302.56
610.291	302.56
610.499	300.56
610.707	276.56
610.916	297.56
611.124	297.56
611.332	294.56
611.54	270.56
611.748	287.56
611.955	272.56
612.163	286.56
612.371	303.56
612.579	291.56
612.787	292.56
612.995	278.56
613.203	302.56
613.411	281.56
613.618	289.56
613.826	292.56
614.034	282.56
614.242	278.56
614.449	260.56
614.657	288.56
614.865	268.56
615.072	284.56
615.28	281.56
615.488	272.56
615.695	291.56
615.903	273.56
616.111	279.56
616.318	295.56
616.526	283.56
616.733	291.56
616.941	291.56
617.148	278.56
617.356	257.56
617.563	289.56
617.771	291.56
617.978	282.56
618.185	285.56
618.393	276.56
618.6	273.56
618.807	286.56
619.015	275.56
619.222	272.56
619.429	264.56
619.637	271.56
619.844	286.56
620.051	272.56
620.258	255.56
620.466	247.56
620.673	239.56
620.88	252.56
621.087	269.56
621.294	255.56
621.501	250.56
621.708	249.56
621.915	255.56
622.122	263.56
622.329	248.56
622.536	253.56
622.743	235.56
622.95	245.56
623.157	243.56
623.364	259.56
623.571	254.56
623.778	272.56
623.985	255.56
624.192	252.56
624.399	261.56
624.606	248.56
624.812	231.56
625.019	243.56
625.226	240.56
625.433	248.56
625.639	232.56
625.846	235.56
626.053	251.56
626.259	239.56
626.466	246.56
626.673	222.56
626.879	236.56
627.086	257.56
627.293	240.56
627.499	244.56
627.706	245.56
627.912	240.56
628.119	220.56
628.325	237.56
628.532	226.56
628.738	230.56
628.945	243.56
629.151	246.56
629.357	220.56
629.564	231.56
629.77	217.56
629.976	229.56
630.183	240.56
630.389	222.56
630.595	225.56
630.802	223.56
631.008	216.56
631.214	223.56
631.42	223.56
631.627	219.56
631.833	214.56
632.039	216.56
632.245	219.56
632.451	213.56
632.657	212.56
632.863	215.56
633.069	212.56
633.275	218.56
633.481	215.56
633.688	203.56
633.893	212.56
634.099	208.56
634.305	198.56
634.511	204.56
634.717	202.56
634.923	219.56
635.129	209.56
635.335	214.56
635.541	211.56
635.747	208.56
635.952	203.56
636.158	201.56
636.364	203.56
636.57	204.56
636.775	205.56
636.981	227.56
637.187	198.56
637.392	205.56
637.598	216.56
637.804	199.56
638.009	187.56
638.215	200.56
638.421	223.56
638.626	187.56
638.832	227.56
639.037	201.56
639.243	193.56
639.448	189.56
639.654	189.56
639.859	207.56
640.065	185.56
640.27	207.56
640.475	210.56
640.681	191.56
640.886	200.56
641.091	189.56
641.297	188.56
641.502	199.56
641.707	192.56
641.913	196.56
642.118	180.56
642.323	189.56
642.528	180.56
642.733	200.56
642.939	186.56
643.144	192.56
643.349	199.56
643.554	196.56
643.759	176.56
643.964	183.56
644.169	190.56
644.374	197.56
644.579	186.56
644.784	180.56
644.989	188.56
645.194	175.56
645.399	180.56
645.604	184.56
645.809	179.56
646.014	189.56
646.219	182.56
646.423	186.56
646.628	183.56
646.833	183.56
647.038	190.56
647.243	188.56
647.447	200.56
647.652	190.56
647.857	215.56
648.062	202.56
648.266	199.56
648.471	200.56
648.676	187.56
648.88	191.56
649.085	208.56
649.289	207.56
649.494	179.56
649.698	195.56
649.903	175.56
650.107	188.56
650.312	167.56
650.516	189.56
650.721	201.56
650.925	182.56
651.13	168.56
651.334	172.56
651.539	175.56
651.743	171.56
651.947	172.56
652.152	178.56
652.356	160.56
652.56	150.56
652.764	163.56
652.969	159.56
653.173	175.56
653.377	148.56
653.581	154.56
653.785	142.56
653.99	169.56
654.194	150.56
654.398	153.56
654.602	140.56
654.806	154.56
655.01	156.56
655.214	149.56
655.418	153.56
655.622	149.56
655.826	145.56
656.03	151.56
656.234	148.56
656.438	126.56
656.642	144.56
656.846	150.56
657.049	156.56
657.253	149.56
657.457	126.56
657.661	126.56
657.865	131.56
658.068	110.56
658.272	141.56
658.476	130.56
658.68	103.56
658.883	104.56
659.087	124.56
659.291	110.56
659.494	110.56
659.698	100.56
659.901	111.56
660.105	92.56
660.309	91.56
660.512	88.56
660.716	103.56
660.919	95.56
661.123	94.56
661.326	86.56
661.53	109.56
661.733	94.56
661.936	88.56
662.14	100.56
662.343	84.56
662.546	91.56
662.75	96.56
662.953	82.56
663.156	91.56
663.36	70.56
663.563	99.56
663.766	86.56
663.969	86.56
664.173	75.56
664.376	86.56
664.579	86.56
664.782	90.56
664.985	71.56
665.188	94.56
665.391	90.56
665.594	95.56
665.797	90.56
666	95.56
666.203	89.56
666.406	79.56
666.609	80.56
666.812	76.56
667.015	96.56
667.218	95.56
667.421	96.56
667.624	96.56
667.827	78.56
668.03	80.56
668.232	84.56
668.435	87.56
668.638	80.56
668.841	93.56
669.043	77.56
669.246	88.56
669.449	86.56
669.651	74.56
669.854	76.56
670.057	78.56
670.259	85.56
670.462	69.56
670.665	86.56
670.867	97.56
671.07	97.56
671.272	82.56
671.475	80.56
671.677	84.56
671.88	79.56
672.082	75.56
672.284	85.56
672.487	79.56
672.689	79.56
672.892	81.56
