Data from NiCl2@0.0625M.TitratingCurve.Agarose3%dH2O.NegLispCup.LampEnergy10.LIBS07252019_HRD10591_18-33-41-576.txt Node
Date: Thu Jul 25 18:33:41 EDT 2019
User: cochatt
Spectrometer: HR+D1059
Trigger mode: 1
Integration Time (sec): 1.000000E-1
Scans to average: 1
Electric dark correction enabled: true
Nonlinearity correction enabled: false
Boxcar width: 0
XAxis mode: Wavelengths
Number of Pixels in Spectrum: 2048
>>>>>Begin Spectral Data<<<<<
223.165	-18.94
223.4	-18.94
223.635	-18.94
223.869	-15.94
224.104	-27.94
224.338	-10.94
224.573	-9.94
224.808	-10.94
225.042	6.06
225.277	-4.94
225.511	-7.94
225.746	-17.94
225.98	20.06
226.215	4.06
226.449	20.06
226.683	20.06
226.918	17.06
227.152	38.06
227.387	26.06
227.621	30.06
227.856	47.06
228.09	46.06
228.324	49.06
228.559	46.06
228.793	74.06
229.027	135.06
229.262	151.06
229.496	153.06
229.73	167.06
229.964	151.06
230.199	165.06
230.433	182.06
230.667	194.06
230.901	177.06
231.136	188.06
231.37	189.06
231.604	195.06
231.838	192.06
232.072	192.06
232.306	191.06
232.541	187.06
232.775	205.06
233.009	182.06
233.243	208.06
233.477	211.06
233.711	205.06
233.945	210.06
234.179	211.06
234.413	216.06
234.647	230.06
234.881	229.06
235.115	219.06
235.349	208.06
235.583	215.06
235.817	215.06
236.051	219.06
236.285	218.06
236.519	219.06
236.753	229.06
236.987	237.06
237.221	228.06
237.455	240.06
237.689	250.06
237.922	249.06
238.156	254.06
238.39	244.06
238.624	252.06
238.858	260.06
239.091	261.06
239.325	245.06
239.559	258.06
239.793	257.06
240.027	269.06
240.26	272.06
240.494	278.06
240.728	271.06
240.961	285.06
241.195	281.06
241.429	286.06
241.662	285.06
241.896	293.06
242.13	301.06
242.363	285.06
242.597	305.06
242.83	316.06
243.064	319.06
243.298	311.06
243.531	311.06
243.765	336.06
243.998	352.06
244.232	313.06
244.465	354.06
244.699	318.06
244.932	332.06
245.166	351.06
245.399	354.06
245.633	354.06
245.866	341.06
246.099	348.06
246.333	359.06
246.566	359.06
246.8	342.06
247.033	355.06
247.266	348.06
247.5	373.06
247.733	364.06
247.966	382.06
248.2	392.06
248.433	386.06
248.666	399.06
248.899	398.06
249.133	387.06
249.366	421.06
249.599	393.06
249.832	376.06
250.066	404.06
250.299	398.06
250.532	417.06
250.765	404.06
250.998	416.06
251.231	416.06
251.465	428.06
251.698	432.06
251.931	437.06
252.164	416.06
252.397	442.06
252.63	444.06
252.863	458.06
253.096	453.06
253.329	451.06
253.562	449.06
253.795	460.06
254.028	451.06
254.261	456.06
254.494	462.06
254.727	466.06
254.96	463.06
255.193	464.06
255.426	487.06
255.659	488.06
255.892	477.06
256.124	456.06
256.357	504.06
256.59	482.06
256.823	489.06
257.056	479.06
257.289	466.06
257.521	518.06
257.754	518.06
257.987	497.06
258.22	508.06
258.452	510.06
258.685	506.06
258.918	505.06
259.151	510.06
259.383	516.06
259.616	511.06
259.849	522.06
260.081	506.06
260.314	544.06
260.547	558.06
260.779	524.06
261.012	518.06
261.244	540.06
261.477	557.06
261.71	558.06
261.942	546.06
262.175	558.06
262.407	561.06
262.64	559.06
262.872	545.06
263.105	556.06
263.337	540.06
263.57	574.06
263.802	559.06
264.035	558.06
264.267	574.06
264.499	574.06
264.732	575.06
264.964	583.06
265.197	585.06
265.429	561.06
265.661	581.06
265.894	590.06
266.126	616.06
266.358	609.06
266.591	593.06
266.823	614.06
267.055	636.06
267.287	611.06
267.52	625.06
267.752	597.06
267.984	646.06
268.216	631.06
268.448	636.06
268.681	629.06
268.913	592.06
269.145	617.06
269.377	656.06
269.609	649.06
269.841	648.06
270.073	642.06
270.306	665.06
270.538	678.06
270.77	648.06
271.002	640.06
271.234	666.06
271.466	700.06
271.698	670.06
271.93	626.06
272.162	681.06
272.394	676.06
272.626	682.06
272.858	676.06
273.09	679.06
273.322	677.06
273.553	685.06
273.785	717.06
274.017	709.06
274.249	721.06
274.481	699.06
274.713	733.06
274.945	736.06
275.176	736.06
275.408	719.06
275.64	725.06
275.872	724.06
276.104	754.06
276.335	726.06
276.567	708.06
276.799	735.06
277.031	743.06
277.262	745.06
277.494	752.06
277.726	756.06
277.957	754.06
278.189	773.06
278.421	750.06
278.652	768.06
278.884	760.06
279.115	769.06
279.347	752.06
279.579	764.06
279.81	769.06
280.042	772.06
280.273	798.06
280.505	820.06
280.736	772.06
280.968	790.06
281.199	806.06
281.431	801.06
281.662	791.06
281.894	822.06
282.125	805.06
282.356	822.06
282.588	829.06
282.819	810.06
283.051	820.06
283.282	809.06
283.513	819.06
283.745	841.06
283.976	841.06
284.207	847.06
284.439	792.06
284.67	831.06
284.901	832.06
285.132	865.06
285.364	839.06
285.595	883.06
285.826	858.06
286.057	884.06
286.288	863.06
286.52	871.06
286.751	853.06
286.982	874.06
287.213	892.06
287.444	870.06
287.675	883.06
287.906	857.06
288.138	895.06
288.369	887.06
288.6	892.06
288.831	885.06
289.062	890.06
289.293	878.06
289.524	884.06
289.755	892.06
289.986	906.06
290.217	896.06
290.448	886.06
290.679	915.06
290.91	912.06
291.141	913.06
291.371	882.06
291.602	915.06
291.833	922.06
292.064	907.06
292.295	903.06
292.526	936.06
292.757	918.06
292.987	927.06
293.218	892.06
293.449	911.06
293.68	928.06
293.91	893.06
294.141	922.06
294.372	910.06
294.603	910.06
294.833	952.06
295.064	954.06
295.295	939.06
295.525	913.06
295.756	962.06
295.987	910.06
296.217	929.06
296.448	952.06
296.679	945.06
296.909	974.06
297.14	971.06
297.37	990.06
297.601	995.06
297.831	991.06
298.062	986.06
298.292	966.06
298.523	1024.06
298.753	1046.06
298.984	1000.06
299.214	994.06
299.445	994.06
299.675	974.06
299.905	1020.06
300.136	976.06
300.366	1017.06
300.597	1010.06
300.827	1049.06
301.057	1040.06
301.288	1054.06
301.518	1028.06
301.748	1033.06
301.979	1078.06
302.209	1038.06
302.439	1069.06
302.669	1032.06
302.9	1035.06
303.13	1030.06
303.36	1034.06
303.59	1041.06
303.82	1031.06
304.051	1059.06
304.281	1060.06
304.511	1045.06
304.741	1063.06
304.971	1072.06
305.201	1024.06
305.431	1025.06
305.661	1037.06
305.891	1057.06
306.121	1022.06
306.352	1076.06
306.582	1043.06
306.812	1006.06
307.042	1048.06
307.272	1027.06
307.502	1039.06
307.731	1025.06
307.961	1038.06
308.191	1056.06
308.421	1033.06
308.651	1045.06
308.881	1053.06
309.111	1054.06
309.341	1016.06
309.571	1040.06
309.8	1052.06
310.03	1028.06
310.26	1059.06
310.49	1014.06
310.72	1057.06
310.949	1061.06
311.179	1079.06
311.409	1058.06
311.639	1088.06
311.868	1065.06
312.098	1093.06
312.328	1070.06
312.557	1101.06
312.787	1097.06
313.017	1102.06
313.246	1129.06
313.476	1104.06
313.706	1126.06
313.935	1136.06
314.165	1123.06
314.394	1123.06
314.624	1107.06
314.853	1122.06
315.083	1106.06
315.312	1116.06
315.542	1158.06
315.771	1129.06
316.001	1103.06
316.23	1123.06
316.46	1125.06
316.689	1120.06
316.919	1113.06
317.148	1106.06
317.377	1114.06
317.607	1130.06
317.836	1109.06
318.065	1094.06
318.295	1117.06
318.524	1117.06
318.753	1082.06
318.983	1088.06
319.212	1086.06
319.441	1115.06
319.67	1110.06
319.9	1090.06
320.129	1113.06
320.358	1129.06
320.587	1117.06
320.816	1106.06
321.046	1124.06
321.275	1127.06
321.504	1151.06
321.733	1123.06
321.962	1128.06
322.191	1117.06
322.42	1126.06
322.649	1123.06
322.878	1160.06
323.108	1144.06
323.337	1164.06
323.566	1171.06
323.795	1187.06
324.024	1148.06
324.253	1146.06
324.482	1146.06
324.71	1151.06
324.939	1170.06
325.168	1181.06
325.397	1156.06
325.626	1186.06
325.855	1196.06
326.084	1208.06
326.313	1208.06
326.542	1193.06
326.77	1233.06
326.999	1196.06
327.228	1169.06
327.457	1228.06
327.686	1230.06
327.914	1216.06
328.143	1191.06
328.372	1190.06
328.6	1216.06
328.829	1203.06
329.058	1208.06
329.287	1197.06
329.515	1233.06
329.744	1255.06
329.972	1235.06
330.201	1218.06
330.43	1230.06
330.658	1249.06
330.887	1251.06
331.115	1269.06
331.344	1290.06
331.572	1282.06
331.801	1305.06
332.03	1307.06
332.258	1344.06
332.486	1383.06
332.715	1396.06
332.943	1440.06
333.172	1471.06
333.4	1515.06
333.629	1560.06
333.857	1542.06
334.085	1563.06
334.314	1539.06
334.542	1509.06
334.771	1536.06
334.999	1516.06
335.227	1556.06
335.455	1557.06
335.684	1487.06
335.912	1530.06
336.14	1500.06
336.369	1476.06
336.597	1477.06
336.825	1440.06
337.053	1425.06
337.281	1442.06
337.51	1397.06
337.738	1430.06
337.966	1365.06
338.194	1357.06
338.422	1341.06
338.65	1336.06
338.878	1326.06
339.106	1346.06
339.334	1343.06
339.562	1320.06
339.79	1278.06
340.018	1308.06
340.246	1284.06
340.474	1279.06
340.702	1313.06
340.93	1285.06
341.158	1279.06
341.386	1256.06
341.614	1287.06
341.842	1266.06
342.07	1290.06
342.298	1261.06
342.526	1274.06
342.754	1277.06
342.981	1279.06
343.209	1318.06
343.437	1335.06
343.665	1399.06
343.893	1488.06
344.12	1489.06
344.348	1458.06
344.576	1425.06
344.804	1415.06
345.031	1327.06
345.259	1309.06
345.487	1263.06
345.714	1275.06
345.942	1228.06
346.17	1250.06
346.397	1270.06
346.625	1257.06
346.853	1233.06
347.08	1228.06
347.308	1225.06
347.535	1232.06
347.763	1247.06
347.99	1224.06
348.218	1220.06
348.445	1202.06
348.673	1215.06
348.9	1218.06
349.128	1252.06
349.355	1208.06
349.583	1217.06
349.81	1210.06
350.037	1183.06
350.265	1162.06
350.492	1200.06
350.72	1179.06
350.947	1185.06
351.174	1182.06
351.402	1197.06
351.629	1183.06
351.856	1196.06
352.083	1178.06
352.311	1166.06
352.538	1177.06
352.765	1212.06
352.992	1160.06
353.22	1144.06
353.447	1184.06
353.674	1154.06
353.901	1191.06
354.128	1161.06
354.355	1153.06
354.583	1171.06
354.81	1162.06
355.037	1154.06
355.264	1203.06
355.491	1204.06
355.718	1184.06
355.945	1160.06
356.172	1204.06
356.399	1168.06
356.626	1212.06
356.853	1204.06
357.08	1202.06
357.307	1192.06
357.534	1189.06
357.761	1179.06
357.988	1226.06
358.215	1172.06
358.441	1168.06
358.668	1176.06
358.895	1181.06
359.122	1204.06
359.349	1187.06
359.576	1167.06
359.802	1182.06
360.029	1210.06
360.256	1187.06
360.483	1188.06
360.709	1180.06
360.936	1173.06
361.163	1166.06
361.39	1164.06
361.616	1163.06
361.843	1199.06
362.07	1211.06
362.296	1174.06
362.523	1164.06
362.749	1205.06
362.976	1196.06
363.203	1204.06
363.429	1172.06
363.656	1172.06
363.882	1184.06
364.109	1167.06
364.335	1187.06
364.562	1176.06
364.788	1218.06
365.015	1201.06
365.241	1185.06
365.468	1198.06
365.694	1168.06
365.92	1185.06
366.147	1164.06
366.373	1216.06
366.599	1175.06
366.826	1193.06
367.052	1185.06
367.278	1221.06
367.505	1227.06
367.731	1226.06
367.957	1208.06
368.184	1206.06
368.41	1198.06
368.636	1201.06
368.862	1216.06
369.089	1211.06
369.315	1209.06
369.541	1224.06
369.767	1245.06
369.993	1233.06
370.219	1255.06
370.445	1265.06
370.672	1260.06
370.898	1278.06
371.124	1268.06
371.35	1308.06
371.576	1304.06
371.802	1296.06
372.028	1294.06
372.254	1290.06
372.48	1270.06
372.706	1304.06
372.932	1352.06
373.158	1334.06
373.384	1294.06
373.61	1285.06
373.835	1304.06
374.061	1288.06
374.287	1332.06
374.513	1321.06
374.739	1352.06
374.965	1400.06
375.191	1427.06
375.416	1414.06
375.642	1365.06
375.868	1356.06
376.094	1364.06
376.319	1335.06
376.545	1327.06
376.771	1284.06
376.997	1310.06
377.222	1308.06
377.448	1287.06
377.674	1307.06
377.899	1313.06
378.125	1287.06
378.35	1254.06
378.576	1274.06
378.802	1279.06
379.027	1262.06
379.253	1260.06
379.478	1239.06
379.704	1281.06
379.929	1287.06
380.155	1288.06
380.38	1258.06
380.606	1278.06
380.831	1266.06
381.057	1285.06
381.282	1286.06
381.507	1282.06
381.733	1302.06
381.958	1329.06
382.184	1324.06
382.409	1314.06
382.634	1339.06
382.86	1336.06
383.085	1322.06
383.31	1346.06
383.535	1374.06
383.761	1390.06
383.986	1402.06
384.211	1436.06
384.436	1470.06
384.662	1489.06
384.887	1466.06
385.112	1487.06
385.337	1504.06
385.562	1513.06
385.787	1540.06
386.013	1531.06
386.238	1541.06
386.463	1554.06
386.688	1506.06
386.913	1535.06
387.138	1537.06
387.363	1535.06
387.588	1517.06
387.813	1528.06
388.038	1536.06
388.263	1529.06
388.488	1542.06
388.713	1513.06
388.938	1560.06
389.163	1516.06
389.387	1497.06
389.612	1524.06
389.837	1520.06
390.062	1544.06
390.287	1516.06
390.512	1541.06
390.736	1554.06
390.961	1541.06
391.186	1590.06
391.411	1600.06
391.636	1617.06
391.86	1695.06
392.085	1719.06
392.31	1695.06
392.534	1672.06
392.759	1650.06
392.984	1642.06
393.208	1649.06
393.433	1650.06
393.658	1673.06
393.882	1596.06
394.107	1600.06
394.331	1585.06
394.556	1606.06
394.78	1653.06
395.005	1623.06
395.229	1626.06
395.454	1661.06
395.678	1702.06
395.903	1697.06
396.127	1684.06
396.352	1658.06
396.576	1664.06
396.801	1656.06
397.025	1698.06
397.249	1672.06
397.474	1747.06
397.698	1722.06
397.922	1732.06
398.147	1720.06
398.371	1779.06
398.595	1814.06
398.82	1926.06
399.044	1996.06
399.268	2167.06
399.492	2358.06
399.717	2594.06
399.941	2631.06
400.165	2469.06
400.389	2285.06
400.613	2089.06
400.837	2025.06
401.062	1992.06
401.286	1979.06
401.51	1927.06
401.734	1908.06
401.958	1926.06
402.182	1893.06
402.406	1912.06
402.63	1934.06
402.854	1991.06
403.078	1956.06
403.302	2067.06
403.526	2026.06
403.75	2065.06
403.974	2080.06
404.198	2088.06
404.422	2056.06
404.645	2049.06
404.869	2076.06
405.093	2076.06
405.317	2047.06
405.541	2063.06
405.765	1992.06
405.988	2022.06
406.212	2060.06
406.436	2051.06
406.66	2158.06
406.883	2108.06
407.107	2219.06
407.331	2360.06
407.555	2395.06
407.778	2369.06
408.002	2286.06
408.226	2269.06
408.449	2268.06
408.673	2178.06
408.896	2131.06
409.12	2123.06
409.344	2131.06
409.567	2097.06
409.791	2137.06
410.014	2102.06
410.238	2038.06
410.461	2080.06
410.685	2089.06
410.908	2056.06
411.132	2019.06
411.355	1967.06
411.578	1975.06
411.802	1975.06
412.025	1975.06
412.249	1990.06
412.472	1990.06
412.695	1990.06
412.919	1917.06
413.142	1922.06
413.365	1904.06
413.589	1977.06
413.812	1868.06
414.035	1878.06
414.258	1874.06
414.482	1880.06
414.705	1900.06
414.928	1865.06
415.151	1891.06
415.374	1905.06
415.597	1890.06
415.821	1850.06
416.044	1809.06
416.267	1805.06
416.49	1801.06
416.713	1802.06
416.936	1806.06
417.159	1858.06
417.382	1824.06
417.605	1773.06
417.828	1837.06
418.051	1848.06
418.274	1826.06
418.497	1833.06
418.72	1871.06
418.943	1848.06
419.166	1961.06
419.389	2128.06
419.611	2033.06
419.834	2004.06
420.057	1911.06
420.28	1865.06
420.503	1780.06
420.726	1761.06
420.948	1801.06
421.171	1817.06
421.394	1816.06
421.617	1787.06
421.839	1795.06
422.062	1841.06
422.285	1785.06
422.507	1842.06
422.73	1837.06
422.953	1860.06
423.175	1901.06
423.398	1884.06
423.621	1893.06
423.843	1894.06
424.066	1913.06
424.288	1868.06
424.511	1844.06
424.733	1856.06
424.956	1814.06
425.178	1860.06
425.401	1845.06
425.623	1809.06
425.846	1757.06
426.068	1808.06
426.291	1788.06
426.513	1733.06
426.735	1719.06
426.958	1772.06
427.18	1728.06
427.402	1703.06
427.625	1747.06
427.847	1668.06
428.069	1664.06
428.292	1693.06
428.514	1730.06
428.736	1645.06
428.958	1702.06
429.181	1593.06
429.403	1623.06
429.625	1614.06
429.847	1625.06
430.069	1626.06
430.292	1650.06
430.514	1580.06
430.736	1630.06
430.958	1640.06
431.18	1634.06
431.402	1669.06
431.624	1636.06
431.846	1689.06
432.068	1701.06
432.29	1712.06
432.512	1649.06
432.734	1662.06
432.956	1642.06
433.178	1710.06
433.4	1705.06
433.622	1693.06
433.844	1729.06
434.066	1719.06
434.287	1744.06
434.509	1789.06
434.731	1825.06
434.953	1823.06
435.175	1851.06
435.397	1853.06
435.618	1766.06
435.84	1727.06
436.062	1730.06
436.284	1688.06
436.505	1709.06
436.727	1680.06
436.949	1696.06
437.17	1680.06
437.392	1675.06
437.614	1649.06
437.835	1599.06
438.057	1568.06
438.278	1587.06
438.5	1549.06
438.721	1586.06
438.943	1595.06
439.165	1565.06
439.386	1597.06
439.608	1639.06
439.829	1636.06
440.05	1630.06
440.272	1644.06
440.493	1638.06
440.715	1633.06
440.936	1662.06
441.158	1680.06
441.379	1711.06
441.6	1778.06
441.822	1790.06
442.043	1823.06
442.264	1750.06
442.486	1737.06
442.707	1754.06
442.928	1753.06
443.149	1750.06
443.371	1747.06
443.592	1794.06
443.813	1788.06
444.034	1823.06
444.255	1847.06
444.476	1944.06
444.698	1990.06
444.919	2054.06
445.14	2114.06
445.361	1949.06
445.582	1896.06
445.803	1808.06
446.024	1736.06
446.245	1665.06
446.466	1660.06
446.687	1604.06
446.908	1632.06
447.129	1581.06
447.35	1596.06
447.571	1558.06
447.792	1534.06
448.013	1521.06
448.234	1514.06
448.455	1527.06
448.675	1476.06
448.896	1556.06
449.117	1483.06
449.338	1482.06
449.559	1473.06
449.779	1451.06
450	1457.06
450.221	1462.06
450.442	1470.06
450.662	1434.06
450.883	1508.06
451.104	1537.06
451.324	1481.06
451.545	1449.06
451.766	1490.06
451.986	1452.06
452.207	1494.06
452.428	1462.06
452.648	1461.06
452.869	1439.06
453.089	1375.06
453.31	1424.06
453.53	1404.06
453.751	1438.06
453.971	1436.06
454.192	1460.06
454.412	1390.06
454.633	1393.06
454.853	1410.06
455.073	1379.06
455.294	1415.06
455.514	1380.06
455.734	1362.06
455.955	1396.06
456.175	1380.06
456.395	1391.06
456.616	1372.06
456.836	1409.06
457.056	1414.06
457.276	1376.06
457.497	1420.06
457.717	1400.06
457.937	1415.06
458.157	1439.06
458.377	1477.06
458.598	1496.06
458.818	1486.06
459.038	1568.06
459.258	1570.06
459.478	1627.06
459.698	1703.06
459.918	1729.06
460.138	1712.06
460.358	1823.06
460.578	1854.06
460.798	1824.06
461.018	1878.06
461.238	1885.06
461.458	1851.06
461.678	1846.06
461.898	1901.06
462.118	1872.06
462.338	1976.06
462.558	2048.06
462.777	2053.06
462.997	2206.06
463.217	2401.06
463.437	2398.06
463.657	2245.06
463.876	2176.06
464.096	2128.06
464.316	2119.06
464.536	2143.06
464.755	2086.06
464.975	2007.06
465.195	1959.06
465.414	1887.06
465.634	1746.06
465.854	1746.06
466.073	1666.06
466.293	1615.06
466.512	1632.06
466.732	1576.06
466.951	1583.06
467.171	1582.06
467.391	1594.06
467.61	1557.06
467.829	1522.06
468.049	1554.06
468.268	1517.06
468.488	1515.06
468.707	1513.06
468.927	1501.06
469.146	1526.06
469.365	1525.06
469.585	1530.06
469.804	1581.06
470.023	1593.06
470.243	1581.06
470.462	1568.06
470.681	1579.06
470.901	1604.06
471.12	1575.06
471.339	1566.06
471.558	1544.06
471.777	1507.06
471.997	1530.06
472.216	1538.06
472.435	1541.06
472.654	1512.06
472.873	1458.06
473.092	1497.06
473.311	1510.06
473.53	1510.06
473.749	1462.06
473.968	1508.06
474.187	1459.06
474.406	1494.06
474.625	1494.06
474.844	1493.06
475.063	1500.06
475.282	1500.06
475.501	1515.06
475.72	1575.06
475.939	1526.06
476.158	1558.06
476.377	1562.06
476.596	1588.06
476.814	1600.06
477.033	1570.06
477.252	1638.06
477.471	1677.06
477.69	1701.06
477.908	1727.06
478.127	1767.06
478.346	1764.06
478.564	1789.06
478.783	1845.06
479.002	1894.06
479.22	1883.06
479.439	1881.06
479.658	1848.06
479.876	1861.06
480.095	1906.06
480.313	1929.06
480.532	1974.06
480.751	1955.06
480.969	1913.06
481.188	1906.06
481.406	1871.06
481.624	1874.06
481.843	1838.06
482.061	1810.06
482.28	1789.06
482.498	1793.06
482.717	1824.06
482.935	1847.06
483.153	1841.06
483.372	1838.06
483.59	1849.06
483.808	1873.06
484.027	1893.06
484.245	1938.06
484.463	1925.06
484.681	1960.06
484.9	1970.06
485.118	1962.06
485.336	1968.06
485.554	2014.06
485.772	2022.06
485.99	2033.06
486.209	2020.06
486.427	2009.06
486.645	2004.06
486.863	1972.06
487.081	1967.06
487.299	1973.06
487.517	2000.06
487.735	1988.06
487.953	1961.06
488.171	1946.06
488.389	1905.06
488.607	1953.06
488.825	1880.06
489.043	1896.06
489.261	1883.06
489.479	1910.06
489.696	1880.06
489.914	1893.06
490.132	1886.06
490.35	1865.06
490.568	1863.06
490.786	1921.06
491.003	1845.06
491.221	1897.06
491.439	1869.06
491.657	1872.06
491.874	1856.06
492.092	1918.06
492.31	1878.06
492.527	1880.06
492.745	1886.06
492.963	1922.06
493.18	1882.06
493.398	1942.06
493.615	1886.06
493.833	1901.06
494.05	1900.06
494.268	1908.06
494.485	1885.06
494.703	1951.06
494.92	1910.06
495.138	1902.06
495.355	1882.06
495.573	1939.06
495.79	1954.06
496.008	1963.06
496.225	1966.06
496.442	1968.06
496.66	2053.06
496.877	1987.06
497.094	2013.06
497.312	2055.06
497.529	2108.06
497.746	2154.06
497.963	2240.06
498.181	2337.06
498.398	2394.06
498.615	2547.06
498.832	2626.06
499.049	2819.06
499.267	3014.06
499.484	3301.06
499.701	3538.06
499.918	3785.06
500.135	4224.06
500.352	4593.06
500.569	4756.06
500.786	4722.06
501.003	4449.06
501.22	4070.06
501.437	3802.06
501.654	3484.06
501.871	3217.06
502.088	2946.06
502.305	2734.06
502.522	2644.06
502.739	2583.06
502.956	2420.06
503.172	2363.06
503.389	2244.06
503.606	2202.06
503.823	2114.06
504.04	2118.06
504.256	2137.06
504.473	2159.06
504.69	2130.06
504.907	2098.06
505.123	2024.06
505.34	1942.06
505.557	1865.06
505.773	1848.06
505.99	1774.06
506.207	1746.06
506.423	1710.06
506.64	1679.06
506.856	1711.06
507.073	1679.06
507.289	1660.06
507.506	1655.06
507.722	1641.06
507.939	1601.06
508.155	1613.06
508.372	1568.06
508.588	1593.06
508.805	1580.06
509.021	1573.06
509.238	1568.06
509.454	1545.06
509.67	1546.06
509.887	1538.06
510.103	1521.06
510.319	1512.06
510.536	1487.06
510.752	1491.06
510.968	1466.06
511.184	1489.06
511.401	1535.06
511.617	1476.06
511.833	1445.06
512.049	1469.06
512.265	1457.06
512.481	1501.06
512.698	1465.06
512.914	1482.06
513.13	1483.06
513.346	1454.06
513.562	1479.06
513.778	1466.06
513.994	1476.06
514.21	1497.06
514.426	1495.06
514.642	1495.06
514.858	1514.06
515.074	1543.06
515.29	1564.06
515.506	1536.06
515.721	1600.06
515.937	1569.06
516.153	1622.06
516.369	1599.06
516.585	1687.06
516.801	1736.06
517.016	1793.06
517.232	1815.06
517.448	1906.06
517.664	1972.06
517.879	1930.06
518.095	1952.06
518.311	1898.06
518.527	1844.06
518.742	1836.06
518.958	1734.06
519.173	1710.06
519.389	1641.06
519.605	1634.06
519.82	1597.06
520.036	1577.06
520.251	1545.06
520.467	1536.06
520.682	1508.06
520.898	1480.06
521.113	1463.06
521.329	1439.06
521.544	1429.06
521.76	1425.06
521.975	1434.06
522.19	1401.06
522.406	1400.06
522.621	1413.06
522.836	1386.06
523.052	1398.06
523.267	1359.06
523.482	1367.06
523.698	1368.06
523.913	1370.06
524.128	1377.06
524.343	1325.06
524.559	1342.06
524.774	1336.06
524.989	1350.06
525.204	1330.06
525.419	1333.06
525.634	1312.06
525.849	1364.06
526.064	1362.06
526.28	1352.06
526.495	1316.06
526.71	1349.06
526.925	1306.06
527.14	1298.06
527.355	1288.06
527.57	1315.06
527.785	1315.06
527.999	1326.06
528.214	1314.06
528.429	1324.06
528.644	1338.06
528.859	1314.06
529.074	1334.06
529.289	1319.06
529.503	1318.06
529.718	1291.06
529.933	1304.06
530.148	1265.06
530.363	1330.06
530.577	1298.06
530.792	1321.06
531.007	1288.06
531.221	1310.06
531.436	1304.06
531.651	1316.06
531.865	1313.06
532.08	1308.06
532.295	1304.06
532.509	1319.06
532.724	1311.06
532.938	1316.06
533.153	1318.06
533.367	1327.06
533.582	1292.06
533.796	1267.06
534.011	1277.06
534.225	1273.06
534.44	1249.06
534.654	1262.06
534.868	1229.06
535.083	1264.06
535.297	1271.06
535.511	1226.06
535.726	1238.06
535.94	1240.06
536.154	1220.06
536.369	1201.06
536.583	1207.06
536.797	1200.06
537.011	1207.06
537.225	1205.06
537.44	1223.06
537.654	1207.06
537.868	1170.06
538.082	1137.06
538.296	1174.06
538.51	1162.06
538.724	1208.06
538.938	1170.06
539.153	1154.06
539.367	1151.06
539.581	1168.06
539.795	1168.06
540.009	1176.06
540.222	1162.06
540.436	1145.06
540.65	1148.06
540.864	1147.06
541.078	1141.06
541.292	1154.06
541.506	1135.06
541.72	1144.06
541.934	1165.06
542.147	1147.06
542.361	1141.06
542.575	1135.06
542.789	1115.06
543.002	1141.06
543.216	1132.06
543.43	1126.06
543.644	1139.06
543.857	1096.06
544.071	1154.06
544.285	1114.06
544.498	1114.06
544.712	1166.06
544.925	1159.06
545.139	1154.06
545.352	1158.06
545.566	1157.06
545.779	1176.06
545.993	1191.06
546.206	1171.06
546.42	1168.06
546.633	1147.06
546.847	1138.06
547.06	1152.06
547.274	1158.06
547.487	1143.06
547.7	1177.06
547.914	1145.06
548.127	1165.06
548.34	1144.06
548.554	1205.06
548.767	1172.06
548.98	1168.06
549.193	1188.06
549.407	1171.06
549.62	1193.06
549.833	1232.06
550.046	1180.06
550.259	1164.06
550.473	1146.06
550.686	1156.06
550.899	1147.06
551.112	1139.06
551.325	1148.06
551.538	1118.06
551.751	1169.06
551.964	1180.06
552.177	1152.06
552.39	1167.06
552.603	1184.06
552.816	1202.06
553.029	1224.06
553.242	1254.06
553.455	1235.06
553.667	1227.06
553.88	1226.06
554.093	1191.06
554.306	1163.06
554.519	1173.06
554.732	1132.06
554.944	1123.06
555.157	1086.06
555.37	1121.06
555.583	1094.06
555.795	1086.06
556.008	1064.06
556.221	1046.06
556.433	1012.06
556.646	1023.06
556.859	1029.06
557.071	1013.06
557.284	985.06
557.496	977.06
557.709	993.06
557.921	950.06
558.134	956.06
558.346	976.06
558.559	988.06
558.771	960.06
558.984	973.06
559.196	1009.06
559.409	968.06
559.621	981.06
559.833	953.06
560.046	937.06
560.258	963.06
560.47	932.06
560.683	945.06
560.895	960.06
561.107	951.06
561.32	951.06
561.532	966.06
561.744	955.06
561.956	958.06
562.168	957.06
562.381	967.06
562.593	948.06
562.805	942.06
563.017	981.06
563.229	971.06
563.441	981.06
563.653	963.06
563.865	986.06
564.077	998.06
564.289	1012.06
564.501	1039.06
564.713	1036.06
564.925	1051.06
565.137	1053.06
565.349	1057.06
565.561	1088.06
565.773	1149.06
565.985	1167.06
566.197	1237.06
566.408	1316.06
566.62	1377.06
566.832	1454.06
567.044	1460.06
567.255	1475.06
567.467	1534.06
567.679	1576.06
567.891	1660.06
568.102	1592.06
568.314	1561.06
568.526	1472.06
568.737	1384.06
568.949	1284.06
569.161	1223.06
569.372	1153.06
569.584	1073.06
569.795	1042.06
570.007	1011.06
570.218	1008.06
570.43	968.06
570.641	976.06
570.853	948.06
571.064	978.06
571.276	968.06
571.487	924.06
571.698	913.06
571.91	914.06
572.121	869.06
572.333	863.06
572.544	859.06
572.755	840.06
572.966	831.06
573.178	809.06
573.389	796.06
573.6	793.06
573.811	801.06
574.023	761.06
574.234	769.06
574.445	784.06
574.656	781.06
574.867	762.06
575.078	785.06
575.289	740.06
575.501	756.06
575.712	728.06
575.923	734.06
576.134	737.06
576.345	733.06
576.556	706.06
576.767	706.06
576.978	714.06
577.188	711.06
577.399	721.06
577.61	714.06
577.821	691.06
578.032	702.06
578.243	702.06
578.454	687.06
578.665	696.06
578.875	660.06
579.086	692.06
579.297	658.06
579.508	678.06
579.718	695.06
579.929	686.06
580.14	639.06
580.35	655.06
580.561	656.06
580.772	670.06
580.982	658.06
581.193	641.06
581.403	668.06
581.614	672.06
581.825	633.06
582.035	650.06
582.246	640.06
582.456	656.06
582.667	665.06
582.877	625.06
583.087	656.06
583.298	671.06
583.508	647.06
583.719	635.06
583.929	632.06
584.139	638.06
584.35	615.06
584.56	634.06
584.77	638.06
584.981	634.06
585.191	630.06
585.401	645.06
585.611	610.06
585.821	640.06
586.032	616.06
586.242	627.06
586.452	629.06
586.662	637.06
586.872	624.06
587.082	631.06
587.292	618.06
587.502	604.06
587.713	629.06
587.923	599.06
588.133	616.06
588.343	626.06
588.553	613.06
588.762	607.06
588.972	609.06
589.182	635.06
589.392	616.06
589.602	611.06
589.812	623.06
590.022	630.06
590.232	636.06
590.441	606.06
590.651	605.06
590.861	633.06
591.071	642.06
591.281	659.06
591.49	634.06
591.7	626.06
591.91	641.06
592.119	656.06
592.329	677.06
592.539	698.06
592.748	712.06
592.958	710.06
593.167	723.06
593.377	712.06
593.587	742.06
593.796	742.06
594.006	771.06
594.215	768.06
594.424	758.06
594.634	732.06
594.843	719.06
595.053	714.06
595.262	693.06
595.472	672.06
595.681	631.06
595.89	612.06
596.1	605.06
596.309	601.06
596.518	584.06
596.727	573.06
596.937	585.06
597.146	598.06
597.355	568.06
597.564	565.06
597.774	541.06
597.983	539.06
598.192	521.06
598.401	521.06
598.61	532.06
598.819	552.06
599.028	513.06
599.237	526.06
599.446	519.06
599.655	530.06
599.864	506.06
600.073	519.06
600.282	539.06
600.491	515.06
600.7	522.06
600.909	520.06
601.118	501.06
601.327	504.06
601.536	513.06
601.745	493.06
601.953	507.06
602.162	489.06
602.371	512.06
602.58	476.06
602.789	489.06
602.997	484.06
603.206	488.06
603.415	500.06
603.623	465.06
603.832	473.06
604.041	479.06
604.249	488.06
604.458	474.06
604.666	470.06
604.875	469.06
605.084	475.06
605.292	486.06
605.501	462.06
605.709	455.06
605.918	468.06
606.126	436.06
606.334	472.06
606.543	464.06
606.751	464.06
606.96	455.06
607.168	456.06
607.376	446.06
607.585	442.06
607.793	452.06
608.001	451.06
608.21	441.06
608.418	433.06
608.626	444.06
608.834	436.06
609.043	453.06
609.251	424.06
609.459	443.06
609.667	435.06
609.875	424.06
610.083	439.06
610.291	439.06
610.499	445.06
610.707	450.06
610.916	444.06
611.124	442.06
611.332	441.06
611.54	454.06
611.748	433.06
611.955	440.06
612.163	410.06
612.371	442.06
612.579	426.06
612.787	420.06
612.995	427.06
613.203	420.06
613.411	445.06
613.618	444.06
613.826	413.06
614.034	422.06
614.242	425.06
614.449	414.06
614.657	436.06
614.865	448.06
615.072	420.06
615.28	428.06
615.488	422.06
615.695	423.06
615.903	416.06
616.111	442.06
616.318	412.06
616.526	464.06
616.733	436.06
616.941	414.06
617.148	436.06
617.356	436.06
617.563	430.06
617.771	413.06
617.978	416.06
618.185	421.06
618.393	418.06
618.6	424.06
618.807	426.06
619.015	428.06
619.222	423.06
619.429	406.06
619.637	415.06
619.844	411.06
620.051	410.06
620.258	399.06
620.466	386.06
620.673	392.06
620.88	372.06
621.087	389.06
621.294	392.06
621.501	393.06
621.708	392.06
621.915	394.06
622.122	417.06
622.329	388.06
622.536	398.06
622.743	394.06
622.95	382.06
623.157	391.06
623.364	381.06
623.571	390.06
623.778	377.06
623.985	397.06
624.192	378.06
624.399	393.06
624.606	357.06
624.812	359.06
625.019	369.06
625.226	359.06
625.433	364.06
625.639	362.06
625.846	364.06
626.053	351.06
626.259	379.06
626.466	376.06
626.673	357.06
626.879	339.06
627.086	352.06
627.293	373.06
627.499	352.06
627.706	364.06
627.912	344.06
628.119	329.06
628.325	348.06
628.532	336.06
628.738	346.06
628.945	344.06
629.151	349.06
629.357	337.06
629.564	343.06
629.77	329.06
629.976	354.06
630.183	322.06
630.389	327.06
630.595	332.06
630.802	310.06
631.008	316.06
631.214	327.06
631.42	346.06
631.627	326.06
631.833	318.06
632.039	335.06
632.245	328.06
632.451	316.06
632.657	325.06
632.863	309.06
633.069	309.06
633.275	316.06
633.481	316.06
633.688	321.06
633.893	307.06
634.099	314.06
634.305	324.06
634.511	321.06
634.717	312.06
634.923	318.06
635.129	321.06
635.335	296.06
635.541	308.06
635.747	290.06
635.952	292.06
636.158	296.06
636.364	305.06
636.57	313.06
636.775	321.06
636.981	304.06
637.187	306.06
637.392	309.06
637.598	302.06
637.804	289.06
638.009	313.06
638.215	302.06
638.421	294.06
638.626	281.06
638.832	277.06
639.037	290.06
639.243	283.06
639.448	290.06
639.654	287.06
639.859	286.06
640.065	278.06
640.27	294.06
640.475	293.06
640.681	293.06
640.886	285.06
641.091	299.06
641.297	293.06
641.502	301.06
641.707	286.06
641.913	273.06
642.118	278.06
642.323	282.06
642.528	287.06
642.733	278.06
642.939	294.06
643.144	272.06
643.349	264.06
643.554	275.06
643.759	289.06
643.964	272.06
644.169	286.06
644.374	287.06
644.579	293.06
644.784	287.06
644.989	284.06
645.194	273.06
645.399	280.06
645.604	277.06
645.809	278.06
646.014	272.06
646.219	283.06
646.423	288.06
646.628	292.06
646.833	287.06
647.038	308.06
647.243	288.06
647.447	310.06
647.652	297.06
647.857	301.06
648.062	306.06
648.266	306.06
648.471	318.06
648.676	318.06
648.88	321.06
649.085	306.06
649.289	292.06
649.494	303.06
649.698	310.06
649.903	301.06
650.107	310.06
650.312	305.06
650.516	293.06
650.721	295.06
650.925	294.06
651.13	300.06
651.334	282.06
651.539	285.06
651.743	264.06
651.947	273.06
652.152	284.06
652.356	286.06
652.56	270.06
652.764	271.06
652.969	279.06
653.173	280.06
653.377	280.06
653.581	288.06
653.785	273.06
653.99	256.06
654.194	281.06
654.398	288.06
654.602	290.06
654.806	277.06
655.01	286.06
655.214	310.06
655.418	316.06
655.622	346.06
655.826	364.06
656.03	375.06
656.234	373.06
656.438	411.06
656.642	404.06
656.846	413.06
657.049	359.06
657.253	318.06
657.457	302.06
657.661	247.06
657.865	233.06
658.068	198.06
658.272	201.06
658.476	192.06
658.68	184.06
658.883	160.06
659.087	154.06
659.291	162.06
659.494	156.06
659.698	139.06
659.901	123.06
660.105	132.06
660.309	128.06
660.512	123.06
660.716	111.06
660.919	109.06
661.123	117.06
661.326	94.06
661.53	104.06
661.733	100.06
661.936	94.06
662.14	101.06
662.343	72.06
662.546	66.06
662.75	83.06
662.953	87.06
663.156	77.06
663.36	86.06
663.563	72.06
663.766	86.06
663.969	80.06
664.173	78.06
664.376	83.06
664.579	66.06
664.782	82.06
664.985	90.06
665.188	80.06
665.391	81.06
665.594	62.06
665.797	62.06
666	63.06
666.203	73.06
666.406	85.06
666.609	77.06
666.812	79.06
667.015	89.06
667.218	72.06
667.421	66.06
667.624	74.06
667.827	74.06
668.03	63.06
668.232	74.06
668.435	87.06
668.638	86.06
668.841	84.06
669.043	74.06
669.246	87.06
669.449	78.06
669.651	88.06
669.854	87.06
670.057	81.06
670.259	44.06
670.462	71.06
670.665	80.06
670.867	82.06
671.07	74.06
671.272	94.06
671.475	81.06
671.677	83.06
671.88	80.06
672.082	68.06
672.284	89.06
672.487	82.06
672.689	72.06
672.892	70.06
