Data from NiCl2@0.25M.TitratingCurve.Agarose3%dH2O.NegLispCup.LampEnergy10.LIBS07252019_HRD10591_18-23-33-573.txt Node
Date: Thu Jul 25 18:23:33 EDT 2019
User: cochatt
Spectrometer: HR+D1059
Trigger mode: 1
Integration Time (sec): 1.000000E-1
Scans to average: 1
Electric dark correction enabled: true
Nonlinearity correction enabled: false
Boxcar width: 0
XAxis mode: Wavelengths
Number of Pixels in Spectrum: 2048
>>>>>Begin Spectral Data<<<<<
223.165	-32.56
223.4	-32.56
223.635	-32.56
223.869	-15.56
224.104	-14.56
224.338	-0.56
224.573	-10.56
224.808	-8.56
225.042	-11.56
225.277	-23.56
225.511	-9.56
225.746	8.44
225.98	2.44
226.215	18.44
226.449	19.44
226.683	10.44
226.918	33.44
227.152	34.44
227.387	25.44
227.621	39.44
227.856	23.44
228.09	49.44
228.324	59.44
228.559	47.44
228.793	75.44
229.027	105.44
229.262	90.44
229.496	97.44
229.73	98.44
229.964	95.44
230.199	108.44
230.433	138.44
230.667	133.44
230.901	113.44
231.136	128.44
231.37	139.44
231.604	123.44
231.838	137.44
232.072	145.44
232.306	132.44
232.541	126.44
232.775	133.44
233.009	129.44
233.243	147.44
233.477	145.44
233.711	135.44
233.945	138.44
234.179	135.44
234.413	146.44
234.647	132.44
234.881	136.44
235.115	138.44
235.349	137.44
235.583	138.44
235.817	145.44
236.051	164.44
236.285	139.44
236.519	133.44
236.753	158.44
236.987	155.44
237.221	148.44
237.455	162.44
237.689	148.44
237.922	137.44
238.156	140.44
238.39	147.44
238.624	137.44
238.858	164.44
239.091	146.44
239.325	156.44
239.559	168.44
239.793	160.44
240.027	168.44
240.26	166.44
240.494	151.44
240.728	162.44
240.961	171.44
241.195	163.44
241.429	163.44
241.662	167.44
241.896	165.44
242.13	162.44
242.363	179.44
242.597	177.44
242.83	170.44
243.064	194.44
243.298	187.44
243.531	194.44
243.765	189.44
243.998	180.44
244.232	168.44
244.465	201.44
244.699	177.44
244.932	208.44
245.166	185.44
245.399	191.44
245.633	195.44
245.866	184.44
246.099	192.44
246.333	189.44
246.566	189.44
246.8	187.44
247.033	205.44
247.266	207.44
247.5	199.44
247.733	192.44
247.966	207.44
248.2	201.44
248.433	214.44
248.666	209.44
248.899	226.44
249.133	224.44
249.366	221.44
249.599	216.44
249.832	217.44
250.066	233.44
250.299	219.44
250.532	226.44
250.765	227.44
250.998	240.44
251.231	215.44
251.465	219.44
251.698	208.44
251.931	224.44
252.164	233.44
252.397	223.44
252.63	248.44
252.863	246.44
253.096	240.44
253.329	244.44
253.562	253.44
253.795	229.44
254.028	249.44
254.261	251.44
254.494	249.44
254.727	241.44
254.96	259.44
255.193	234.44
255.426	247.44
255.659	241.44
255.892	269.44
256.124	261.44
256.357	258.44
256.59	246.44
256.823	266.44
257.056	244.44
257.289	257.44
257.521	256.44
257.754	266.44
257.987	272.44
258.22	278.44
258.452	270.44
258.685	268.44
258.918	265.44
259.151	269.44
259.383	260.44
259.616	274.44
259.849	279.44
260.081	278.44
260.314	260.44
260.547	269.44
260.779	268.44
261.012	283.44
261.244	289.44
261.477	290.44
261.71	266.44
261.942	285.44
262.175	298.44
262.407	287.44
262.64	297.44
262.872	298.44
263.105	280.44
263.337	306.44
263.57	281.44
263.802	289.44
264.035	306.44
264.267	293.44
264.499	286.44
264.732	325.44
264.964	297.44
265.197	298.44
265.429	307.44
265.661	303.44
265.894	300.44
266.126	312.44
266.358	314.44
266.591	320.44
266.823	303.44
267.055	311.44
267.287	314.44
267.52	310.44
267.752	327.44
267.984	319.44
268.216	325.44
268.448	317.44
268.681	321.44
268.913	335.44
269.145	333.44
269.377	338.44
269.609	332.44
269.841	314.44
270.073	311.44
270.306	313.44
270.538	329.44
270.77	332.44
271.002	344.44
271.234	315.44
271.466	314.44
271.698	323.44
271.93	325.44
272.162	346.44
272.394	338.44
272.626	347.44
272.858	344.44
273.09	364.44
273.322	343.44
273.553	354.44
273.785	339.44
274.017	377.44
274.249	352.44
274.481	349.44
274.713	344.44
274.945	371.44
275.176	356.44
275.408	343.44
275.64	351.44
275.872	366.44
276.104	370.44
276.335	350.44
276.567	371.44
276.799	369.44
277.031	372.44
277.262	370.44
277.494	358.44
277.726	381.44
277.957	379.44
278.189	378.44
278.421	370.44
278.652	371.44
278.884	392.44
279.115	381.44
279.347	398.44
279.579	389.44
279.81	402.44
280.042	397.44
280.273	387.44
280.505	405.44
280.736	408.44
280.968	410.44
281.199	389.44
281.431	395.44
281.662	412.44
281.894	384.44
282.125	406.44
282.356	399.44
282.588	417.44
282.819	411.44
283.051	401.44
283.282	411.44
283.513	404.44
283.745	399.44
283.976	426.44
284.207	410.44
284.439	423.44
284.67	415.44
284.901	428.44
285.132	417.44
285.364	391.44
285.595	425.44
285.826	416.44
286.057	422.44
286.288	441.44
286.52	447.44
286.751	431.44
286.982	448.44
287.213	446.44
287.444	442.44
287.675	434.44
287.906	436.44
288.138	448.44
288.369	445.44
288.6	463.44
288.831	462.44
289.062	451.44
289.293	474.44
289.524	453.44
289.755	452.44
289.986	445.44
290.217	459.44
290.448	461.44
290.679	451.44
290.91	434.44
291.141	443.44
291.371	442.44
291.602	477.44
291.833	441.44
292.064	464.44
292.295	467.44
292.526	474.44
292.757	466.44
292.987	457.44
293.218	475.44
293.449	465.44
293.68	479.44
293.91	466.44
294.141	452.44
294.372	451.44
294.603	469.44
294.833	465.44
295.064	471.44
295.295	468.44
295.525	453.44
295.756	450.44
295.987	439.44
296.217	472.44
296.448	459.44
296.679	479.44
296.909	497.44
297.14	481.44
297.37	485.44
297.601	491.44
297.831	464.44
298.062	478.44
298.292	495.44
298.523	499.44
298.753	501.44
298.984	504.44
299.214	488.44
299.445	499.44
299.675	497.44
299.905	493.44
300.136	484.44
300.366	526.44
300.597	510.44
300.827	522.44
301.057	528.44
301.288	526.44
301.518	529.44
301.748	527.44
301.979	533.44
302.209	527.44
302.439	517.44
302.669	524.44
302.9	520.44
303.13	527.44
303.36	500.44
303.59	515.44
303.82	515.44
304.051	539.44
304.281	520.44
304.511	506.44
304.741	522.44
304.971	536.44
305.201	489.44
305.431	500.44
305.661	513.44
305.891	530.44
306.121	533.44
306.352	499.44
306.582	518.44
306.812	522.44
307.042	523.44
307.272	504.44
307.502	505.44
307.731	487.44
307.961	507.44
308.191	501.44
308.421	518.44
308.651	504.44
308.881	520.44
309.111	488.44
309.341	526.44
309.571	529.44
309.8	522.44
310.03	515.44
310.26	554.44
310.49	507.44
310.72	520.44
310.949	487.44
311.179	537.44
311.409	514.44
311.639	538.44
311.868	539.44
312.098	550.44
312.328	526.44
312.557	535.44
312.787	547.44
313.017	537.44
313.246	538.44
313.476	570.44
313.706	555.44
313.935	546.44
314.165	551.44
314.394	568.44
314.624	555.44
314.853	555.44
315.083	543.44
315.312	569.44
315.542	576.44
315.771	544.44
316.001	537.44
316.23	556.44
316.46	525.44
316.689	523.44
316.919	543.44
317.148	551.44
317.377	561.44
317.607	549.44
317.836	541.44
318.065	536.44
318.295	521.44
318.524	526.44
318.753	535.44
318.983	534.44
319.212	540.44
319.441	569.44
319.67	539.44
319.9	534.44
320.129	524.44
320.358	528.44
320.587	542.44
320.816	557.44
321.046	532.44
321.275	559.44
321.504	552.44
321.733	553.44
321.962	538.44
322.191	520.44
322.42	536.44
322.649	549.44
322.878	547.44
323.108	529.44
323.337	542.44
323.566	565.44
323.795	567.44
324.024	556.44
324.253	571.44
324.482	536.44
324.71	560.44
324.939	560.44
325.168	562.44
325.397	566.44
325.626	580.44
325.855	585.44
326.084	605.44
326.313	592.44
326.542	591.44
326.77	608.44
326.999	589.44
327.228	569.44
327.457	584.44
327.686	588.44
327.914	570.44
328.143	594.44
328.372	610.44
328.6	602.44
328.829	589.44
329.058	595.44
329.287	598.44
329.515	593.44
329.744	627.44
329.972	619.44
330.201	616.44
330.43	609.44
330.658	596.44
330.887	616.44
331.115	610.44
331.344	618.44
331.572	639.44
331.801	650.44
332.03	669.44
332.258	666.44
332.486	675.44
332.715	717.44
332.943	729.44
333.172	771.44
333.4	780.44
333.629	809.44
333.857	811.44
334.085	800.44
334.314	777.44
334.542	755.44
334.771	759.44
334.999	791.44
335.227	736.44
335.455	729.44
335.684	738.44
335.912	717.44
336.14	724.44
336.369	694.44
336.597	708.44
336.825	735.44
337.053	732.44
337.281	700.44
337.51	684.44
337.738	675.44
337.966	673.44
338.194	646.44
338.422	657.44
338.65	660.44
338.878	650.44
339.106	664.44
339.334	659.44
339.562	619.44
339.79	641.44
340.018	631.44
340.246	639.44
340.474	627.44
340.702	617.44
340.93	616.44
341.158	623.44
341.386	625.44
341.614	609.44
341.842	625.44
342.07	623.44
342.298	630.44
342.526	625.44
342.754	635.44
342.981	626.44
343.209	645.44
343.437	680.44
343.665	703.44
343.893	755.44
344.12	784.44
344.348	751.44
344.576	701.44
344.804	662.44
345.031	647.44
345.259	637.44
345.487	664.44
345.714	630.44
345.942	626.44
346.17	640.44
346.397	621.44
346.625	633.44
346.853	605.44
347.08	597.44
347.308	590.44
347.535	604.44
347.763	603.44
347.99	602.44
348.218	593.44
348.445	613.44
348.673	594.44
348.9	635.44
349.128	591.44
349.355	597.44
349.583	607.44
349.81	565.44
350.037	593.44
350.265	577.44
350.492	583.44
350.72	592.44
350.947	578.44
351.174	575.44
351.402	581.44
351.629	589.44
351.856	631.44
352.083	577.44
352.311	574.44
352.538	591.44
352.765	603.44
352.992	567.44
353.22	581.44
353.447	561.44
353.674	576.44
353.901	582.44
354.128	580.44
354.355	567.44
354.583	584.44
354.81	592.44
355.037	583.44
355.264	586.44
355.491	579.44
355.718	565.44
355.945	580.44
356.172	576.44
356.399	579.44
356.626	577.44
356.853	611.44
357.08	590.44
357.307	581.44
357.534	586.44
357.761	603.44
357.988	581.44
358.215	589.44
358.441	544.44
358.668	571.44
358.895	560.44
359.122	579.44
359.349	568.44
359.576	603.44
359.802	613.44
360.029	580.44
360.256	582.44
360.483	583.44
360.709	574.44
360.936	582.44
361.163	573.44
361.39	590.44
361.616	587.44
361.843	592.44
362.07	590.44
362.296	588.44
362.523	603.44
362.749	580.44
362.976	564.44
363.203	564.44
363.429	577.44
363.656	580.44
363.882	585.44
364.109	574.44
364.335	584.44
364.562	562.44
364.788	553.44
365.015	584.44
365.241	578.44
365.468	600.44
365.694	579.44
365.92	556.44
366.147	583.44
366.373	579.44
366.599	571.44
366.826	594.44
367.052	571.44
367.278	585.44
367.505	575.44
367.731	590.44
367.957	585.44
368.184	597.44
368.41	585.44
368.636	580.44
368.862	606.44
369.089	613.44
369.315	596.44
369.541	580.44
369.767	604.44
369.993	615.44
370.219	601.44
370.445	612.44
370.672	598.44
370.898	613.44
371.124	631.44
371.35	641.44
371.576	646.44
371.802	629.44
372.028	609.44
372.254	616.44
372.48	609.44
372.706	661.44
372.932	652.44
373.158	653.44
373.384	635.44
373.61	611.44
373.835	635.44
374.061	623.44
374.287	628.44
374.513	665.44
374.739	656.44
374.965	690.44
375.191	707.44
375.416	702.44
375.642	642.44
375.868	681.44
376.094	663.44
376.319	644.44
376.545	627.44
376.771	639.44
376.997	659.44
377.222	644.44
377.448	635.44
377.674	631.44
377.899	642.44
378.125	635.44
378.35	635.44
378.576	628.44
378.802	627.44
379.027	620.44
379.253	630.44
379.478	610.44
379.704	619.44
379.929	646.44
380.155	637.44
380.38	604.44
380.606	628.44
380.831	630.44
381.057	625.44
381.282	625.44
381.507	630.44
381.733	641.44
381.958	647.44
382.184	644.44
382.409	665.44
382.634	648.44
382.86	654.44
383.085	651.44
383.31	657.44
383.535	689.44
383.761	697.44
383.986	715.44
384.211	706.44
384.436	735.44
384.662	718.44
384.887	749.44
385.112	755.44
385.337	773.44
385.562	774.44
385.787	751.44
386.013	777.44
386.238	747.44
386.463	775.44
386.688	756.44
386.913	761.44
387.138	763.44
387.363	739.44
387.588	747.44
387.813	767.44
388.038	737.44
388.263	725.44
388.488	744.44
388.713	768.44
388.938	755.44
389.163	727.44
389.387	751.44
389.612	720.44
389.837	754.44
390.062	769.44
390.287	749.44
390.512	732.44
390.736	735.44
390.961	748.44
391.186	777.44
391.411	793.44
391.636	838.44
391.86	833.44
392.085	857.44
392.31	835.44
392.534	833.44
392.759	815.44
392.984	818.44
393.208	804.44
393.433	780.44
393.658	809.44
393.882	800.44
394.107	816.44
394.331	803.44
394.556	820.44
394.78	795.44
395.005	822.44
395.229	827.44
395.454	841.44
395.678	872.44
395.903	831.44
396.127	833.44
396.352	841.44
396.576	794.44
396.801	811.44
397.025	788.44
397.249	813.44
397.474	849.44
397.698	845.44
397.922	843.44
398.147	842.44
398.371	879.44
398.595	907.44
398.82	944.44
399.044	1013.44
399.268	1116.44
399.492	1297.44
399.717	1443.44
399.941	1443.44
400.165	1269.44
400.389	1144.44
400.613	1054.44
400.837	989.44
401.062	954.44
401.286	928.44
401.51	943.44
401.734	954.44
401.958	951.44
402.182	963.44
402.406	977.44
402.63	997.44
402.854	1006.44
403.078	1018.44
403.302	1056.44
403.526	1046.44
403.75	1088.44
403.974	1124.44
404.198	1102.44
404.422	1096.44
404.645	1103.44
404.869	1092.44
405.093	1087.44
405.317	1044.44
405.541	1059.44
405.765	1040.44
405.988	1043.44
406.212	1052.44
406.436	1011.44
406.66	1057.44
406.883	1105.44
407.107	1112.44
407.331	1211.44
407.555	1258.44
407.778	1198.44
408.002	1195.44
408.226	1155.44
408.449	1114.44
408.673	1126.44
408.896	1093.44
409.12	1067.44
409.344	1041.44
409.567	1066.44
409.791	1093.44
410.014	1105.44
410.238	1030.44
410.461	1053.44
410.685	1039.44
410.908	1009.44
411.132	1012.44
411.355	976.44
411.578	970.44
411.802	992.44
412.025	974.44
412.249	1031.44
412.472	1009.44
412.695	948.44
412.919	965.44
413.142	936.44
413.365	951.44
413.589	965.44
413.812	927.44
414.035	962.44
414.258	972.44
414.482	965.44
414.705	953.44
414.928	960.44
415.151	960.44
415.374	953.44
415.597	925.44
415.821	934.44
416.044	932.44
416.267	947.44
416.49	940.44
416.713	938.44
416.936	924.44
417.159	917.44
417.382	951.44
417.605	879.44
417.828	931.44
418.051	957.44
418.274	958.44
418.497	911.44
418.72	967.44
418.943	956.44
419.166	1001.44
419.389	1103.44
419.611	1058.44
419.834	1016.44
420.057	969.44
420.28	939.44
420.503	915.44
420.726	930.44
420.948	940.44
421.171	914.44
421.394	923.44
421.617	922.44
421.839	937.44
422.062	947.44
422.285	947.44
422.507	950.44
422.73	937.44
422.953	973.44
423.175	972.44
423.398	1020.44
423.621	985.44
423.843	992.44
424.066	1013.44
424.288	1016.44
424.511	993.44
424.733	949.44
424.956	960.44
425.178	960.44
425.401	937.44
425.623	948.44
425.846	923.44
426.068	918.44
426.291	922.44
426.513	892.44
426.735	841.44
426.958	888.44
427.18	844.44
427.402	884.44
427.625	863.44
427.847	827.44
428.069	848.44
428.292	840.44
428.514	837.44
428.736	852.44
428.958	827.44
429.181	825.44
429.403	820.44
429.625	845.44
429.847	814.44
430.069	808.44
430.292	823.44
430.514	807.44
430.736	801.44
430.958	819.44
431.18	837.44
431.402	849.44
431.624	835.44
431.846	819.44
432.068	816.44
432.29	855.44
432.512	861.44
432.734	828.44
432.956	841.44
433.178	812.44
433.4	844.44
433.622	832.44
433.844	842.44
434.066	837.44
434.287	858.44
434.509	868.44
434.731	927.44
434.953	917.44
435.175	948.44
435.397	915.44
435.618	889.44
435.84	841.44
436.062	832.44
436.284	845.44
436.505	832.44
436.727	811.44
436.949	841.44
437.17	845.44
437.392	830.44
437.614	813.44
437.835	791.44
438.057	807.44
438.278	776.44
438.5	778.44
438.721	793.44
438.943	777.44
439.165	785.44
439.386	787.44
439.608	790.44
439.829	833.44
440.05	839.44
440.272	835.44
440.493	828.44
440.715	853.44
440.936	864.44
441.158	856.44
441.379	892.44
441.6	936.44
441.822	913.44
442.043	944.44
442.264	917.44
442.486	889.44
442.707	905.44
442.928	916.44
443.149	891.44
443.371	903.44
443.592	923.44
443.813	919.44
444.034	936.44
444.255	960.44
444.476	1021.44
444.698	1076.44
444.919	1117.44
445.14	1202.44
445.361	1051.44
445.582	938.44
445.803	888.44
446.024	898.44
446.245	840.44
446.466	880.44
446.687	835.44
446.908	866.44
447.129	810.44
447.35	807.44
447.571	796.44
447.792	783.44
448.013	775.44
448.234	767.44
448.455	762.44
448.675	768.44
448.896	763.44
449.117	747.44
449.338	744.44
449.559	744.44
449.779	732.44
450	737.44
450.221	757.44
450.442	765.44
450.662	747.44
450.883	743.44
451.104	781.44
451.324	768.44
451.545	781.44
451.766	785.44
451.986	751.44
452.207	748.44
452.428	750.44
452.648	770.44
452.869	735.44
453.089	751.44
453.31	765.44
453.53	714.44
453.751	735.44
453.971	722.44
454.192	735.44
454.412	726.44
454.633	725.44
454.853	721.44
455.073	711.44
455.294	707.44
455.514	739.44
455.734	698.44
455.955	725.44
456.175	697.44
456.395	682.44
456.616	680.44
456.836	696.44
457.056	713.44
457.276	696.44
457.497	728.44
457.717	700.44
457.937	703.44
458.157	729.44
458.377	721.44
458.598	735.44
458.818	747.44
459.038	802.44
459.258	817.44
459.478	836.44
459.698	848.44
459.918	887.44
460.138	898.44
460.358	987.44
460.578	988.44
460.798	992.44
461.018	1011.44
461.238	980.44
461.458	965.44
461.678	962.44
461.898	1000.44
462.118	975.44
462.338	1039.44
462.558	1071.44
462.777	1109.44
462.997	1206.44
463.217	1347.44
463.437	1292.44
463.657	1203.44
463.876	1139.44
464.096	1143.44
464.316	1115.44
464.536	1166.44
464.755	1088.44
464.975	1029.44
465.195	1008.44
465.414	964.44
465.634	909.44
465.854	874.44
466.073	831.44
466.293	842.44
466.512	802.44
466.732	793.44
466.951	831.44
467.171	789.44
467.391	789.44
467.61	793.44
467.829	787.44
468.049	765.44
468.268	757.44
468.488	749.44
468.707	763.44
468.927	747.44
469.146	774.44
469.365	755.44
469.585	780.44
469.804	823.44
470.023	832.44
470.243	811.44
470.462	835.44
470.681	803.44
470.901	832.44
471.12	804.44
471.339	791.44
471.558	787.44
471.777	764.44
471.997	771.44
472.216	745.44
472.435	764.44
472.654	741.44
472.873	783.44
473.092	743.44
473.311	732.44
473.53	759.44
473.749	743.44
473.968	743.44
474.187	736.44
474.406	723.44
474.625	767.44
474.844	746.44
475.063	744.44
475.282	727.44
475.501	779.44
475.72	750.44
475.939	755.44
476.158	780.44
476.377	751.44
476.596	765.44
476.814	749.44
477.033	792.44
477.252	805.44
477.471	808.44
477.69	825.44
477.908	874.44
478.127	905.44
478.346	899.44
478.564	913.44
478.783	935.44
479.002	939.44
479.22	924.44
479.439	919.44
479.658	922.44
479.876	935.44
480.095	932.44
480.313	971.44
480.532	975.44
480.751	977.44
480.969	965.44
481.188	903.44
481.406	905.44
481.624	898.44
481.843	856.44
482.061	872.44
482.28	857.44
482.498	843.44
482.717	832.44
482.935	845.44
483.153	848.44
483.372	865.44
483.59	866.44
483.808	841.44
484.027	854.44
484.245	861.44
484.463	867.44
484.681	883.44
484.9	858.44
485.118	884.44
485.336	861.44
485.554	903.44
485.772	888.44
485.99	885.44
486.209	884.44
486.427	885.44
486.645	895.44
486.863	895.44
487.081	890.44
487.299	877.44
487.517	888.44
487.735	878.44
487.953	908.44
488.171	882.44
488.389	885.44
488.607	891.44
488.825	864.44
489.043	865.44
489.261	881.44
489.479	883.44
489.696	856.44
489.914	872.44
490.132	887.44
490.35	887.44
490.568	878.44
490.786	916.44
491.003	892.44
491.221	901.44
491.439	903.44
491.657	923.44
491.874	917.44
492.092	919.44
492.31	937.44
492.527	931.44
492.745	911.44
492.963	922.44
493.18	927.44
493.398	943.44
493.615	913.44
493.833	932.44
494.05	929.44
494.268	954.44
494.485	945.44
494.703	969.44
494.92	971.44
495.138	921.44
495.355	955.44
495.573	968.44
495.79	967.44
496.008	964.44
496.225	984.44
496.442	983.44
496.66	1003.44
496.877	989.44
497.094	1019.44
497.312	1073.44
497.529	1073.44
497.746	1077.44
497.963	1103.44
498.181	1194.44
498.398	1222.44
498.615	1286.44
498.832	1328.44
499.049	1481.44
499.267	1615.44
499.484	1757.44
499.701	1928.44
499.918	2137.44
500.135	2442.44
500.352	2779.44
500.569	2927.44
500.786	2851.44
501.003	2630.44
501.22	2391.44
501.437	2063.44
501.654	1829.44
501.871	1689.44
502.088	1545.44
502.305	1448.44
502.522	1364.44
502.739	1342.44
502.956	1253.44
503.172	1201.44
503.389	1171.44
503.606	1117.44
503.823	1112.44
504.04	1063.44
504.256	1104.44
504.473	1131.44
504.69	1139.44
504.907	1106.44
505.123	1016.44
505.34	993.44
505.557	974.44
505.773	917.44
505.99	966.44
506.207	899.44
506.423	870.44
506.64	860.44
506.856	874.44
507.073	858.44
507.289	863.44
507.506	815.44
507.722	840.44
507.939	821.44
508.155	813.44
508.372	821.44
508.588	811.44
508.805	817.44
509.021	839.44
509.238	804.44
509.454	797.44
509.67	756.44
509.887	783.44
510.103	789.44
510.319	792.44
510.536	789.44
510.752	754.44
510.968	770.44
511.184	767.44
511.401	753.44
511.617	765.44
511.833	780.44
512.049	776.44
512.265	801.44
512.481	773.44
512.698	759.44
512.914	790.44
513.13	784.44
513.346	782.44
513.562	771.44
513.778	782.44
513.994	759.44
514.21	777.44
514.426	762.44
514.642	773.44
514.858	792.44
515.074	781.44
515.29	788.44
515.506	777.44
515.721	829.44
515.937	838.44
516.153	865.44
516.369	866.44
516.585	891.44
516.801	898.44
517.016	939.44
517.232	1008.44
517.448	1041.44
517.664	1052.44
517.879	1087.44
518.095	1043.44
518.311	1047.44
518.527	1008.44
518.742	952.44
518.958	912.44
519.173	887.44
519.389	862.44
519.605	835.44
519.82	820.44
520.036	817.44
520.251	795.44
520.467	781.44
520.682	779.44
520.898	740.44
521.113	736.44
521.329	751.44
521.544	754.44
521.76	731.44
521.975	727.44
522.19	719.44
522.406	724.44
522.621	748.44
522.836	739.44
523.052	729.44
523.267	710.44
523.482	706.44
523.698	702.44
523.913	698.44
524.128	708.44
524.343	715.44
524.559	705.44
524.774	722.44
524.989	693.44
525.204	733.44
525.419	695.44
525.634	699.44
525.849	694.44
526.064	709.44
526.28	680.44
526.495	711.44
526.71	698.44
526.925	677.44
527.14	705.44
527.355	680.44
527.57	695.44
527.785	699.44
527.999	682.44
528.214	705.44
528.429	710.44
528.644	692.44
528.859	705.44
529.074	692.44
529.289	697.44
529.503	691.44
529.718	700.44
529.933	681.44
530.148	694.44
530.363	680.44
530.577	713.44
530.792	662.44
531.007	663.44
531.221	704.44
531.436	684.44
531.651	695.44
531.865	681.44
532.08	676.44
532.295	665.44
532.509	671.44
532.724	677.44
532.938	695.44
533.153	662.44
533.367	668.44
533.582	658.44
533.796	696.44
534.011	673.44
534.225	685.44
534.44	694.44
534.654	664.44
534.868	676.44
535.083	653.44
535.297	665.44
535.511	633.44
535.726	644.44
535.94	671.44
536.154	649.44
536.369	639.44
536.583	643.44
536.797	642.44
537.011	641.44
537.225	653.44
537.44	624.44
537.654	621.44
537.868	627.44
538.082	591.44
538.296	636.44
538.51	619.44
538.724	620.44
538.938	646.44
539.153	615.44
539.367	623.44
539.581	633.44
539.795	635.44
540.009	634.44
540.222	615.44
540.436	617.44
540.65	611.44
540.864	604.44
541.078	603.44
541.292	615.44
541.506	621.44
541.72	622.44
541.934	625.44
542.147	641.44
542.361	613.44
542.575	616.44
542.789	596.44
543.002	617.44
543.216	612.44
543.43	605.44
543.644	619.44
543.857	612.44
544.071	623.44
544.285	618.44
544.498	602.44
544.712	608.44
544.925	617.44
545.139	620.44
545.352	628.44
545.566	631.44
545.779	634.44
545.993	648.44
546.206	623.44
546.42	621.44
546.633	631.44
546.847	595.44
547.06	616.44
547.274	625.44
547.487	617.44
547.7	632.44
547.914	641.44
548.127	645.44
548.34	656.44
548.554	625.44
548.767	636.44
548.98	652.44
549.193	629.44
549.407	627.44
549.62	656.44
549.833	668.44
550.046	684.44
550.259	654.44
550.473	649.44
550.686	643.44
550.899	627.44
551.112	626.44
551.325	625.44
551.538	633.44
551.751	604.44
551.964	609.44
552.177	631.44
552.39	625.44
552.603	647.44
552.816	686.44
553.029	673.44
553.242	691.44
553.455	703.44
553.667	722.44
553.88	698.44
554.093	668.44
554.306	644.44
554.519	643.44
554.732	601.44
554.944	621.44
555.157	610.44
555.37	581.44
555.583	581.44
555.795	571.44
556.008	567.44
556.221	586.44
556.433	564.44
556.646	551.44
556.859	561.44
557.071	551.44
557.284	541.44
557.496	554.44
557.709	525.44
557.921	539.44
558.134	528.44
558.346	543.44
558.559	540.44
558.771	530.44
558.984	524.44
559.196	524.44
559.409	521.44
559.621	531.44
559.833	546.44
560.046	535.44
560.258	547.44
560.47	524.44
560.683	503.44
560.895	503.44
561.107	509.44
561.32	517.44
561.532	529.44
561.744	520.44
561.956	473.44
562.168	503.44
562.381	547.44
562.593	542.44
562.805	534.44
563.017	510.44
563.229	507.44
563.441	532.44
563.653	531.44
563.865	516.44
564.077	555.44
564.289	552.44
564.501	535.44
564.713	551.44
564.925	562.44
565.137	579.44
565.349	571.44
565.561	573.44
565.773	612.44
565.985	626.44
566.197	653.44
566.408	740.44
566.62	790.44
566.832	843.44
567.044	853.44
567.255	868.44
567.467	886.44
567.679	936.44
567.891	1003.44
568.102	1011.44
568.314	972.44
568.526	883.44
568.737	767.44
568.949	689.44
569.161	654.44
569.372	616.44
569.584	588.44
569.795	557.44
570.007	548.44
570.218	535.44
570.43	547.44
570.641	529.44
570.853	531.44
571.064	562.44
571.276	556.44
571.487	508.44
571.698	496.44
571.91	484.44
572.121	469.44
572.333	450.44
572.544	433.44
572.755	468.44
572.966	444.44
573.178	457.44
573.389	443.44
573.6	427.44
573.811	438.44
574.023	424.44
574.234	431.44
574.445	427.44
574.656	435.44
574.867	416.44
575.078	435.44
575.289	442.44
575.501	411.44
575.712	402.44
575.923	391.44
576.134	404.44
576.345	413.44
576.556	438.44
576.767	431.44
576.978	421.44
577.188	423.44
577.399	410.44
577.61	391.44
577.821	369.44
578.032	396.44
578.243	398.44
578.454	378.44
578.665	392.44
578.875	391.44
579.086	387.44
579.297	385.44
579.508	384.44
579.718	379.44
579.929	364.44
580.14	372.44
580.35	371.44
580.561	363.44
580.772	375.44
580.982	377.44
581.193	375.44
581.403	387.44
581.614	378.44
581.825	368.44
582.035	371.44
582.246	375.44
582.456	360.44
582.667	373.44
582.877	361.44
583.087	357.44
583.298	349.44
583.508	356.44
583.719	356.44
583.929	336.44
584.139	360.44
584.35	354.44
584.56	336.44
584.77	359.44
584.981	347.44
585.191	351.44
585.401	351.44
585.611	350.44
585.821	351.44
586.032	352.44
586.242	337.44
586.452	364.44
586.662	364.44
586.872	336.44
587.082	350.44
587.292	335.44
587.502	346.44
587.713	351.44
587.923	345.44
588.133	353.44
588.343	351.44
588.553	355.44
588.762	343.44
588.972	351.44
589.182	369.44
589.392	375.44
589.602	359.44
589.812	358.44
590.022	362.44
590.232	345.44
590.441	360.44
590.651	368.44
590.861	357.44
591.071	355.44
591.281	348.44
591.49	364.44
591.7	361.44
591.91	378.44
592.119	367.44
592.329	388.44
592.539	379.44
592.748	405.44
592.958	418.44
593.167	427.44
593.377	429.44
593.587	437.44
593.796	439.44
594.006	439.44
594.215	434.44
594.424	450.44
594.634	426.44
594.843	413.44
595.053	390.44
595.262	393.44
595.472	375.44
595.681	361.44
595.89	348.44
596.1	353.44
596.309	348.44
596.518	333.44
596.727	328.44
596.937	316.44
597.146	308.44
597.355	324.44
597.564	323.44
597.774	318.44
597.983	321.44
598.192	317.44
598.401	311.44
598.61	309.44
598.819	287.44
599.028	271.44
599.237	280.44
599.446	304.44
599.655	285.44
599.864	309.44
600.073	294.44
600.282	298.44
600.491	289.44
600.7	299.44
600.909	267.44
601.118	288.44
601.327	290.44
601.536	271.44
601.745	290.44
601.953	290.44
602.162	287.44
602.371	295.44
602.58	279.44
602.789	295.44
602.997	291.44
603.206	265.44
603.415	271.44
603.623	260.44
603.832	283.44
604.041	280.44
604.249	267.44
604.458	275.44
604.666	273.44
604.875	271.44
605.084	261.44
605.292	268.44
605.501	261.44
605.709	263.44
605.918	278.44
606.126	281.44
606.334	272.44
606.543	285.44
606.751	270.44
606.96	265.44
607.168	275.44
607.376	261.44
607.585	280.44
607.793	277.44
608.001	283.44
608.21	264.44
608.418	248.44
608.626	256.44
608.834	246.44
609.043	271.44
609.251	263.44
609.459	275.44
609.667	281.44
609.875	263.44
610.083	249.44
610.291	265.44
610.499	243.44
610.707	259.44
610.916	264.44
611.124	262.44
611.332	233.44
611.54	274.44
611.748	267.44
611.955	265.44
612.163	239.44
612.371	257.44
612.579	245.44
612.787	265.44
612.995	246.44
613.203	260.44
613.411	266.44
613.618	257.44
613.826	236.44
614.034	260.44
614.242	252.44
614.449	240.44
614.657	257.44
614.865	245.44
615.072	258.44
615.28	239.44
615.488	239.44
615.695	247.44
615.903	248.44
616.111	242.44
616.318	239.44
616.526	241.44
616.733	258.44
616.941	252.44
617.148	242.44
617.356	244.44
617.563	261.44
617.771	253.44
617.978	248.44
618.185	236.44
618.393	255.44
618.6	257.44
618.807	259.44
619.015	248.44
619.222	243.44
619.429	257.44
619.637	259.44
619.844	266.44
620.051	244.44
620.258	251.44
620.466	233.44
620.673	220.44
620.88	229.44
621.087	236.44
621.294	244.44
621.501	209.44
621.708	234.44
621.915	239.44
622.122	229.44
622.329	228.44
622.536	223.44
622.743	229.44
622.95	230.44
623.157	215.44
623.364	217.44
623.571	229.44
623.778	231.44
623.985	241.44
624.192	236.44
624.399	236.44
624.606	226.44
624.812	226.44
625.019	213.44
625.226	204.44
625.433	224.44
625.639	221.44
625.846	197.44
626.053	212.44
626.259	227.44
626.466	208.44
626.673	210.44
626.879	221.44
627.086	217.44
627.293	226.44
627.499	213.44
627.706	223.44
627.912	228.44
628.119	210.44
628.325	214.44
628.532	212.44
628.738	220.44
628.945	203.44
629.151	205.44
629.357	217.44
629.564	203.44
629.77	206.44
629.976	189.44
630.183	191.44
630.389	197.44
630.595	203.44
630.802	196.44
631.008	189.44
631.214	177.44
631.42	213.44
631.627	201.44
631.833	208.44
632.039	202.44
632.245	193.44
632.451	207.44
632.657	207.44
632.863	189.44
633.069	190.44
633.275	205.44
633.481	188.44
633.688	198.44
633.893	200.44
634.099	184.44
634.305	185.44
634.511	189.44
634.717	206.44
634.923	194.44
635.129	201.44
635.335	201.44
635.541	196.44
635.747	196.44
635.952	200.44
636.158	203.44
636.364	189.44
636.57	187.44
636.775	171.44
636.981	163.44
637.187	203.44
637.392	191.44
637.598	185.44
637.804	186.44
638.009	187.44
638.215	179.44
638.421	187.44
638.626	167.44
638.832	181.44
639.037	167.44
639.243	169.44
639.448	168.44
639.654	168.44
639.859	170.44
640.065	161.44
640.27	168.44
640.475	193.44
640.681	169.44
640.886	165.44
641.091	185.44
641.297	192.44
641.502	170.44
641.707	179.44
641.913	167.44
642.118	190.44
642.323	154.44
642.528	165.44
642.733	181.44
642.939	170.44
643.144	177.44
643.349	169.44
643.554	161.44
643.759	152.44
643.964	169.44
644.169	165.44
644.374	180.44
644.579	184.44
644.784	171.44
644.989	158.44
645.194	155.44
645.399	161.44
645.604	175.44
645.809	188.44
646.014	172.44
646.219	179.44
646.423	161.44
646.628	189.44
646.833	177.44
647.038	162.44
647.243	163.44
647.447	162.44
647.652	182.44
647.857	184.44
648.062	199.44
648.266	183.44
648.471	194.44
648.676	179.44
648.88	169.44
649.085	160.44
649.289	168.44
649.494	159.44
649.698	170.44
649.903	167.44
650.107	162.44
650.312	165.44
650.516	171.44
650.721	162.44
650.925	145.44
651.13	157.44
651.334	166.44
651.539	167.44
651.743	152.44
651.947	159.44
652.152	140.44
652.356	137.44
652.56	145.44
652.764	151.44
652.969	145.44
653.173	142.44
653.377	137.44
653.581	162.44
653.785	137.44
653.99	147.44
654.194	132.44
654.398	149.44
654.602	135.44
654.806	135.44
655.01	131.44
655.214	134.44
655.418	129.44
655.622	129.44
655.826	145.44
656.03	143.44
656.234	123.44
656.438	140.44
656.642	139.44
656.846	125.44
657.049	127.44
657.253	113.44
657.457	111.44
657.661	115.44
657.865	120.44
658.068	116.44
658.272	112.44
658.476	107.44
658.68	117.44
658.883	99.44
659.087	115.44
659.291	107.44
659.494	105.44
659.698	101.44
659.901	77.44
660.105	89.44
660.309	88.44
660.512	89.44
660.716	88.44
660.919	86.44
661.123	91.44
661.326	83.44
661.53	83.44
661.733	88.44
661.936	80.44
662.14	86.44
662.343	83.44
662.546	94.44
662.75	90.44
662.953	79.44
663.156	79.44
663.36	84.44
663.563	74.44
663.766	67.44
663.969	73.44
664.173	80.44
664.376	89.44
664.579	97.44
664.782	84.44
664.985	80.44
665.188	79.44
665.391	79.44
665.594	81.44
665.797	89.44
666	75.44
666.203	72.44
666.406	81.44
666.609	70.44
666.812	72.44
667.015	82.44
667.218	81.44
667.421	77.44
667.624	91.44
667.827	78.44
668.03	81.44
668.232	78.44
668.435	78.44
668.638	76.44
668.841	77.44
669.043	72.44
669.246	73.44
669.449	73.44
669.651	77.44
669.854	83.44
670.057	81.44
670.259	85.44
670.462	76.44
670.665	82.44
670.867	74.44
671.07	91.44
671.272	76.44
671.475	92.44
671.677	89.44
671.88	90.44
672.082	70.44
672.284	69.44
672.487	78.44
672.689	89.44
672.892	80.44
