Data from NiCl2@0.25M.TitratingCurve.Agarose3%dH2O.NegLispCup.LampEnergy10.LIBS07252019_HRD10591_18-25-33-576.txt Node
Date: Thu Jul 25 18:25:33 EDT 2019
User: cochatt
Spectrometer: HR+D1059
Trigger mode: 1
Integration Time (sec): 1.000000E-1
Scans to average: 1
Electric dark correction enabled: true
Nonlinearity correction enabled: false
Boxcar width: 0
XAxis mode: Wavelengths
Number of Pixels in Spectrum: 2048
>>>>>Begin Spectral Data<<<<<
223.165	-16.94
223.4	-16.94
223.635	-16.94
223.869	-15.94
224.104	-10.94
224.338	-1.94
224.573	-24.94
224.808	-6.94
225.042	-1.94
225.277	2.06
225.511	4.06
225.746	-10.94
225.98	0.06
226.215	2.06
226.449	9.06
226.683	16.06
226.918	19.06
227.152	38.06
227.387	36.06
227.621	42.06
227.856	32.06
228.09	36.06
228.324	51.06
228.559	51.06
228.793	78.06
229.027	100.06
229.262	124.06
229.496	122.06
229.73	146.06
229.964	134.06
230.199	136.06
230.433	148.06
230.667	151.06
230.901	146.06
231.136	155.06
231.37	147.06
231.604	177.06
231.838	170.06
232.072	163.06
232.306	183.06
232.541	167.06
232.775	163.06
233.009	172.06
233.243	183.06
233.477	164.06
233.711	164.06
233.945	180.06
234.179	180.06
234.413	179.06
234.647	169.06
234.881	166.06
235.115	172.06
235.349	169.06
235.583	176.06
235.817	188.06
236.051	179.06
236.285	176.06
236.519	200.06
236.753	188.06
236.987	198.06
237.221	193.06
237.455	179.06
237.689	187.06
237.922	184.06
238.156	198.06
238.39	193.06
238.624	201.06
238.858	204.06
239.091	203.06
239.325	219.06
239.559	206.06
239.793	205.06
240.027	217.06
240.26	201.06
240.494	201.06
240.728	222.06
240.961	201.06
241.195	224.06
241.429	235.06
241.662	212.06
241.896	239.06
242.13	218.06
242.363	215.06
242.597	243.06
242.83	255.06
243.064	219.06
243.298	253.06
243.531	238.06
243.765	269.06
243.998	242.06
244.232	236.06
244.465	250.06
244.699	258.06
244.932	260.06
245.166	265.06
245.399	263.06
245.633	266.06
245.866	266.06
246.099	275.06
246.333	253.06
246.566	289.06
246.8	271.06
247.033	270.06
247.266	278.06
247.5	275.06
247.733	282.06
247.966	278.06
248.2	291.06
248.433	297.06
248.666	293.06
248.899	280.06
249.133	296.06
249.366	307.06
249.599	307.06
249.832	310.06
250.066	304.06
250.299	307.06
250.532	307.06
250.765	299.06
250.998	273.06
251.231	308.06
251.465	312.06
251.698	323.06
251.931	316.06
252.164	313.06
252.397	332.06
252.63	321.06
252.863	334.06
253.096	336.06
253.329	328.06
253.562	326.06
253.795	352.06
254.028	351.06
254.261	352.06
254.494	344.06
254.727	349.06
254.96	355.06
255.193	351.06
255.426	350.06
255.659	343.06
255.892	348.06
256.124	348.06
256.357	352.06
256.59	366.06
256.823	372.06
257.056	370.06
257.289	373.06
257.521	363.06
257.754	358.06
257.987	374.06
258.22	378.06
258.452	381.06
258.685	391.06
258.918	364.06
259.151	359.06
259.383	397.06
259.616	399.06
259.849	388.06
260.081	396.06
260.314	407.06
260.547	388.06
260.779	402.06
261.012	380.06
261.244	400.06
261.477	383.06
261.71	388.06
261.942	399.06
262.175	400.06
262.407	389.06
262.64	415.06
262.872	416.06
263.105	427.06
263.337	412.06
263.57	407.06
263.802	427.06
264.035	416.06
264.267	425.06
264.499	417.06
264.732	412.06
264.964	430.06
265.197	440.06
265.429	427.06
265.661	426.06
265.894	441.06
266.126	440.06
266.358	454.06
266.591	459.06
266.823	457.06
267.055	434.06
267.287	448.06
267.52	448.06
267.752	475.06
267.984	455.06
268.216	464.06
268.448	438.06
268.681	466.06
268.913	474.06
269.145	452.06
269.377	471.06
269.609	474.06
269.841	466.06
270.073	474.06
270.306	473.06
270.538	479.06
270.77	485.06
271.002	470.06
271.234	474.06
271.466	472.06
271.698	483.06
271.93	489.06
272.162	485.06
272.394	475.06
272.626	469.06
272.858	516.06
273.09	510.06
273.322	494.06
273.553	475.06
273.785	491.06
274.017	515.06
274.249	519.06
274.481	511.06
274.713	479.06
274.945	526.06
275.176	528.06
275.408	533.06
275.64	520.06
275.872	514.06
276.104	522.06
276.335	515.06
276.567	530.06
276.799	514.06
277.031	543.06
277.262	529.06
277.494	535.06
277.726	532.06
277.957	564.06
278.189	536.06
278.421	550.06
278.652	542.06
278.884	572.06
279.115	565.06
279.347	569.06
279.579	569.06
279.81	559.06
280.042	524.06
280.273	562.06
280.505	577.06
280.736	553.06
280.968	555.06
281.199	578.06
281.431	572.06
281.662	578.06
281.894	561.06
282.125	612.06
282.356	603.06
282.588	592.06
282.819	589.06
283.051	603.06
283.282	594.06
283.513	575.06
283.745	597.06
283.976	623.06
284.207	614.06
284.439	626.06
284.67	603.06
284.901	595.06
285.132	612.06
285.364	621.06
285.595	611.06
285.826	600.06
286.057	598.06
286.288	601.06
286.52	639.06
286.751	635.06
286.982	639.06
287.213	636.06
287.444	651.06
287.675	644.06
287.906	627.06
288.138	634.06
288.369	645.06
288.6	632.06
288.831	658.06
289.062	663.06
289.293	650.06
289.524	656.06
289.755	669.06
289.986	645.06
290.217	638.06
290.448	682.06
290.679	646.06
290.91	682.06
291.141	648.06
291.371	646.06
291.602	662.06
291.833	662.06
292.064	683.06
292.295	642.06
292.526	690.06
292.757	670.06
292.987	651.06
293.218	665.06
293.449	674.06
293.68	666.06
293.91	670.06
294.141	658.06
294.372	664.06
294.603	670.06
294.833	673.06
295.064	676.06
295.295	679.06
295.525	681.06
295.756	695.06
295.987	657.06
296.217	715.06
296.448	708.06
296.679	687.06
296.909	691.06
297.14	715.06
297.37	715.06
297.601	710.06
297.831	706.06
298.062	720.06
298.292	742.06
298.523	721.06
298.753	728.06
298.984	722.06
299.214	738.06
299.445	724.06
299.675	719.06
299.905	713.06
300.136	751.06
300.366	739.06
300.597	762.06
300.827	773.06
301.057	792.06
301.288	772.06
301.518	761.06
301.748	748.06
301.979	777.06
302.209	750.06
302.439	758.06
302.669	771.06
302.9	768.06
303.13	748.06
303.36	784.06
303.59	738.06
303.82	759.06
304.051	787.06
304.281	769.06
304.511	751.06
304.741	753.06
304.971	779.06
305.201	771.06
305.431	755.06
305.661	760.06
305.891	753.06
306.121	743.06
306.352	743.06
306.582	735.06
306.812	735.06
307.042	760.06
307.272	742.06
307.502	739.06
307.731	753.06
307.961	718.06
308.191	723.06
308.421	722.06
308.651	739.06
308.881	716.06
309.111	715.06
309.341	722.06
309.571	715.06
309.8	751.06
310.03	732.06
310.26	746.06
310.49	750.06
310.72	722.06
310.949	735.06
311.179	746.06
311.409	754.06
311.639	754.06
311.868	784.06
312.098	752.06
312.328	779.06
312.557	775.06
312.787	780.06
313.017	791.06
313.246	820.06
313.476	778.06
313.706	794.06
313.935	784.06
314.165	811.06
314.394	811.06
314.624	801.06
314.853	791.06
315.083	777.06
315.312	783.06
315.542	777.06
315.771	807.06
316.001	770.06
316.23	774.06
316.46	788.06
316.689	780.06
316.919	787.06
317.148	792.06
317.377	792.06
317.607	786.06
317.836	776.06
318.065	760.06
318.295	777.06
318.524	795.06
318.753	790.06
318.983	783.06
319.212	784.06
319.441	803.06
319.67	780.06
319.9	808.06
320.129	784.06
320.358	779.06
320.587	798.06
320.816	788.06
321.046	814.06
321.275	800.06
321.504	799.06
321.733	796.06
321.962	806.06
322.191	784.06
322.42	805.06
322.649	781.06
322.878	785.06
323.108	802.06
323.337	803.06
323.566	781.06
323.795	818.06
324.024	822.06
324.253	810.06
324.482	816.06
324.71	820.06
324.939	840.06
325.168	841.06
325.397	834.06
325.626	838.06
325.855	852.06
326.084	876.06
326.313	878.06
326.542	866.06
326.77	869.06
326.999	862.06
327.228	858.06
327.457	858.06
327.686	851.06
327.914	863.06
328.143	887.06
328.372	833.06
328.6	861.06
328.829	858.06
329.058	857.06
329.287	873.06
329.515	876.06
329.744	849.06
329.972	868.06
330.201	882.06
330.43	858.06
330.658	871.06
330.887	887.06
331.115	884.06
331.344	908.06
331.572	896.06
331.801	936.06
332.03	972.06
332.258	951.06
332.486	981.06
332.715	1023.06
332.943	1077.06
333.172	1110.06
333.4	1170.06
333.629	1160.06
333.857	1166.06
334.085	1182.06
334.314	1156.06
334.542	1142.06
334.771	1135.06
334.999	1091.06
335.227	1080.06
335.455	1090.06
335.684	1071.06
335.912	1067.06
336.14	1067.06
336.369	1029.06
336.597	1037.06
336.825	1043.06
337.053	1020.06
337.281	1012.06
337.51	1011.06
337.738	976.06
337.966	980.06
338.194	935.06
338.422	958.06
338.65	958.06
338.878	947.06
339.106	953.06
339.334	946.06
339.562	938.06
339.79	908.06
340.018	923.06
340.246	919.06
340.474	892.06
340.702	881.06
340.93	908.06
341.158	917.06
341.386	892.06
341.614	893.06
341.842	894.06
342.07	892.06
342.298	914.06
342.526	860.06
342.754	908.06
342.981	896.06
343.209	905.06
343.437	964.06
343.665	1014.06
343.893	1111.06
344.12	1124.06
344.348	1076.06
344.576	1029.06
344.804	990.06
345.031	961.06
345.259	941.06
345.487	916.06
345.714	912.06
345.942	871.06
346.17	884.06
346.397	873.06
346.625	872.06
346.853	848.06
347.08	865.06
347.308	863.06
347.535	864.06
347.763	895.06
347.99	855.06
348.218	872.06
348.445	848.06
348.673	861.06
348.9	881.06
349.128	873.06
349.355	846.06
349.583	864.06
349.81	850.06
350.037	843.06
350.265	835.06
350.492	824.06
350.72	844.06
350.947	863.06
351.174	843.06
351.402	852.06
351.629	822.06
351.856	816.06
352.083	823.06
352.311	832.06
352.538	843.06
352.765	838.06
352.992	826.06
353.22	800.06
353.447	830.06
353.674	812.06
353.901	830.06
354.128	854.06
354.355	808.06
354.583	803.06
354.81	838.06
355.037	840.06
355.264	831.06
355.491	836.06
355.718	843.06
355.945	823.06
356.172	848.06
356.399	848.06
356.626	835.06
356.853	838.06
357.08	841.06
357.307	849.06
357.534	842.06
357.761	851.06
357.988	838.06
358.215	820.06
358.441	830.06
358.668	818.06
358.895	818.06
359.122	834.06
359.349	821.06
359.576	856.06
359.802	842.06
360.029	827.06
360.256	844.06
360.483	844.06
360.709	825.06
360.936	838.06
361.163	843.06
361.39	868.06
361.616	840.06
361.843	848.06
362.07	857.06
362.296	829.06
362.523	818.06
362.749	852.06
362.976	817.06
363.203	844.06
363.429	809.06
363.656	858.06
363.882	827.06
364.109	822.06
364.335	822.06
364.562	820.06
364.788	819.06
365.015	833.06
365.241	822.06
365.468	825.06
365.694	836.06
365.92	833.06
366.147	828.06
366.373	838.06
366.599	834.06
366.826	830.06
367.052	822.06
367.278	828.06
367.505	846.06
367.731	827.06
367.957	818.06
368.184	841.06
368.41	847.06
368.636	864.06
368.862	859.06
369.089	849.06
369.315	827.06
369.541	864.06
369.767	857.06
369.993	862.06
370.219	868.06
370.445	869.06
370.672	864.06
370.898	874.06
371.124	900.06
371.35	882.06
371.576	927.06
371.802	925.06
372.028	898.06
372.254	884.06
372.48	914.06
372.706	938.06
372.932	972.06
373.158	964.06
373.384	951.06
373.61	888.06
373.835	934.06
374.061	919.06
374.287	922.06
374.513	922.06
374.739	972.06
374.965	999.06
375.191	1013.06
375.416	1011.06
375.642	976.06
375.868	962.06
376.094	962.06
376.319	937.06
376.545	929.06
376.771	899.06
376.997	898.06
377.222	934.06
377.448	922.06
377.674	918.06
377.899	904.06
378.125	896.06
378.35	904.06
378.576	919.06
378.802	905.06
379.027	905.06
379.253	921.06
379.478	865.06
379.704	877.06
379.929	892.06
380.155	901.06
380.38	890.06
380.606	899.06
380.831	896.06
381.057	924.06
381.282	893.06
381.507	910.06
381.733	918.06
381.958	928.06
382.184	929.06
382.409	950.06
382.634	938.06
382.86	933.06
383.085	936.06
383.31	964.06
383.535	992.06
383.761	982.06
383.986	1031.06
384.211	1046.06
384.436	1068.06
384.662	1055.06
384.887	1095.06
385.112	1077.06
385.337	1120.06
385.562	1074.06
385.787	1081.06
386.013	1102.06
386.238	1095.06
386.463	1111.06
386.688	1111.06
386.913	1106.06
387.138	1092.06
387.363	1108.06
387.588	1058.06
387.813	1058.06
388.038	1106.06
388.263	1094.06
388.488	1097.06
388.713	1105.06
388.938	1079.06
389.163	1070.06
389.387	1080.06
389.612	1059.06
389.837	1065.06
390.062	1057.06
390.287	1055.06
390.512	1087.06
390.736	1106.06
390.961	1082.06
391.186	1126.06
391.411	1173.06
391.636	1235.06
391.86	1243.06
392.085	1274.06
392.31	1243.06
392.534	1192.06
392.759	1194.06
392.984	1164.06
393.208	1158.06
393.433	1186.06
393.658	1180.06
393.882	1174.06
394.107	1155.06
394.331	1182.06
394.556	1170.06
394.78	1172.06
395.005	1203.06
395.229	1186.06
395.454	1221.06
395.678	1260.06
395.903	1250.06
396.127	1240.06
396.352	1211.06
396.576	1142.06
396.801	1160.06
397.025	1177.06
397.249	1206.06
397.474	1232.06
397.698	1219.06
397.922	1258.06
398.147	1223.06
398.371	1298.06
398.595	1294.06
398.82	1374.06
399.044	1458.06
399.268	1641.06
399.492	1896.06
399.717	2108.06
399.941	2166.06
400.165	1886.06
400.389	1739.06
400.613	1574.06
400.837	1498.06
401.062	1472.06
401.286	1393.06
401.51	1368.06
401.734	1376.06
401.958	1411.06
402.182	1407.06
402.406	1438.06
402.63	1472.06
402.854	1468.06
403.078	1484.06
403.302	1518.06
403.526	1570.06
403.75	1598.06
403.974	1620.06
404.198	1600.06
404.422	1618.06
404.645	1623.06
404.869	1628.06
405.093	1602.06
405.317	1564.06
405.541	1547.06
405.765	1534.06
405.988	1540.06
406.212	1556.06
406.436	1506.06
406.66	1552.06
406.883	1605.06
407.107	1712.06
407.331	1756.06
407.555	1835.06
407.778	1816.06
408.002	1761.06
408.226	1707.06
408.449	1670.06
408.673	1618.06
408.896	1592.06
409.12	1579.06
409.344	1569.06
409.567	1576.06
409.791	1557.06
410.014	1540.06
410.238	1572.06
410.461	1510.06
410.685	1544.06
410.908	1494.06
411.132	1491.06
411.355	1465.06
411.578	1416.06
411.802	1412.06
412.025	1469.06
412.249	1497.06
412.472	1493.06
412.695	1435.06
412.919	1404.06
413.142	1394.06
413.365	1359.06
413.589	1385.06
413.812	1379.06
414.035	1402.06
414.258	1395.06
414.482	1379.06
414.705	1408.06
414.928	1430.06
415.151	1446.06
415.374	1360.06
415.597	1365.06
415.821	1363.06
416.044	1339.06
416.267	1327.06
416.49	1332.06
416.713	1344.06
416.936	1336.06
417.159	1329.06
417.382	1339.06
417.605	1328.06
417.828	1365.06
418.051	1372.06
418.274	1393.06
418.497	1400.06
418.72	1420.06
418.943	1411.06
419.166	1510.06
419.389	1607.06
419.611	1570.06
419.834	1482.06
420.057	1412.06
420.28	1416.06
420.503	1362.06
420.726	1374.06
420.948	1332.06
421.171	1364.06
421.394	1395.06
421.617	1335.06
421.839	1350.06
422.062	1378.06
422.285	1328.06
422.507	1406.06
422.73	1387.06
422.953	1408.06
423.175	1400.06
423.398	1430.06
423.621	1450.06
423.843	1448.06
424.066	1484.06
424.288	1438.06
424.511	1433.06
424.733	1427.06
424.956	1396.06
425.178	1383.06
425.401	1381.06
425.623	1418.06
425.846	1347.06
426.068	1328.06
426.291	1306.06
426.513	1282.06
426.735	1258.06
426.958	1285.06
427.18	1257.06
427.402	1234.06
427.625	1252.06
427.847	1217.06
428.069	1248.06
428.292	1211.06
428.514	1205.06
428.736	1205.06
428.958	1215.06
429.181	1183.06
429.403	1168.06
429.625	1186.06
429.847	1164.06
430.069	1158.06
430.292	1182.06
430.514	1179.06
430.736	1182.06
430.958	1172.06
431.18	1171.06
431.402	1186.06
431.624	1147.06
431.846	1210.06
432.068	1239.06
432.29	1238.06
432.512	1187.06
432.734	1218.06
432.956	1214.06
433.178	1206.06
433.4	1218.06
433.622	1196.06
433.844	1243.06
434.066	1228.06
434.287	1222.06
434.509	1252.06
434.731	1330.06
434.953	1319.06
435.175	1370.06
435.397	1373.06
435.618	1271.06
435.84	1218.06
436.062	1235.06
436.284	1191.06
436.505	1170.06
436.727	1204.06
436.949	1196.06
437.17	1188.06
437.392	1181.06
437.614	1159.06
437.835	1112.06
438.057	1152.06
438.278	1119.06
438.5	1119.06
438.721	1159.06
438.943	1152.06
439.165	1165.06
439.386	1165.06
439.608	1185.06
439.829	1187.06
440.05	1205.06
440.272	1204.06
440.493	1179.06
440.715	1231.06
440.936	1261.06
441.158	1260.06
441.379	1306.06
441.6	1319.06
441.822	1344.06
442.043	1372.06
442.264	1321.06
442.486	1314.06
442.707	1299.06
442.928	1296.06
443.149	1335.06
443.371	1321.06
443.592	1353.06
443.813	1346.06
444.034	1351.06
444.255	1378.06
444.476	1451.06
444.698	1576.06
444.919	1593.06
445.14	1666.06
445.361	1491.06
445.582	1424.06
445.803	1306.06
446.024	1290.06
446.245	1270.06
446.466	1252.06
446.687	1198.06
446.908	1210.06
447.129	1139.06
447.35	1144.06
447.571	1150.06
447.792	1130.06
448.013	1124.06
448.234	1090.06
448.455	1088.06
448.675	1081.06
448.896	1099.06
449.117	1090.06
449.338	1079.06
449.559	1054.06
449.779	1074.06
450	1037.06
450.221	1079.06
450.442	1087.06
450.662	1108.06
450.883	1125.06
451.104	1117.06
451.324	1115.06
451.545	1106.06
451.766	1128.06
451.986	1090.06
452.207	1088.06
452.428	1099.06
452.648	1122.06
452.869	1089.06
453.089	1074.06
453.31	1088.06
453.53	1056.06
453.751	1050.06
453.971	1082.06
454.192	1076.06
454.412	1016.06
454.633	1039.06
454.853	1024.06
455.073	1039.06
455.294	1022.06
455.514	1028.06
455.734	995.06
455.955	995.06
456.175	1022.06
456.395	990.06
456.616	994.06
456.836	1027.06
457.056	1022.06
457.276	1008.06
457.497	1018.06
457.717	1030.06
457.937	1010.06
458.157	1033.06
458.377	1072.06
458.598	1083.06
458.818	1123.06
459.038	1126.06
459.258	1174.06
459.478	1245.06
459.698	1241.06
459.918	1301.06
460.138	1316.06
460.358	1425.06
460.578	1418.06
460.798	1412.06
461.018	1462.06
461.238	1401.06
461.458	1394.06
461.678	1423.06
461.898	1424.06
462.118	1430.06
462.338	1538.06
462.558	1580.06
462.777	1631.06
462.997	1771.06
463.217	1921.06
463.437	1918.06
463.657	1766.06
463.876	1750.06
464.096	1697.06
464.316	1684.06
464.536	1682.06
464.755	1627.06
464.975	1537.06
465.195	1471.06
465.414	1404.06
465.634	1323.06
465.854	1291.06
466.073	1242.06
466.293	1226.06
466.512	1171.06
466.732	1168.06
466.951	1144.06
467.171	1144.06
467.391	1160.06
467.61	1108.06
467.829	1144.06
468.049	1114.06
468.268	1130.06
468.488	1110.06
468.707	1099.06
468.927	1096.06
469.146	1099.06
469.365	1118.06
469.585	1102.06
469.804	1181.06
470.023	1143.06
470.243	1166.06
470.462	1174.06
470.681	1190.06
470.901	1179.06
471.12	1159.06
471.339	1152.06
471.558	1125.06
471.777	1135.06
471.997	1117.06
472.216	1106.06
472.435	1076.06
472.654	1057.06
472.873	1050.06
473.092	1049.06
473.311	1090.06
473.53	1083.06
473.749	1083.06
473.968	1046.06
474.187	1046.06
474.406	1069.06
474.625	1079.06
474.844	1057.06
475.063	1046.06
475.282	1105.06
475.501	1080.06
475.72	1116.06
475.939	1075.06
476.158	1110.06
476.377	1115.06
476.596	1125.06
476.814	1128.06
477.033	1123.06
477.252	1148.06
477.471	1156.06
477.69	1207.06
477.908	1227.06
478.127	1280.06
478.346	1305.06
478.564	1290.06
478.783	1348.06
479.002	1338.06
479.22	1369.06
479.439	1360.06
479.658	1348.06
479.876	1359.06
480.095	1364.06
480.313	1415.06
480.532	1447.06
480.751	1447.06
480.969	1429.06
481.188	1374.06
481.406	1313.06
481.624	1282.06
481.843	1251.06
482.061	1238.06
482.28	1200.06
482.498	1205.06
482.717	1238.06
482.935	1257.06
483.153	1251.06
483.372	1192.06
483.59	1230.06
483.808	1238.06
484.027	1212.06
484.245	1264.06
484.463	1264.06
484.681	1248.06
484.9	1268.06
485.118	1277.06
485.336	1254.06
485.554	1271.06
485.772	1268.06
485.99	1310.06
486.209	1304.06
486.427	1318.06
486.645	1300.06
486.863	1304.06
487.081	1283.06
487.299	1296.06
487.517	1296.06
487.735	1295.06
487.953	1288.06
488.171	1299.06
488.389	1315.06
488.607	1262.06
488.825	1286.06
489.043	1262.06
489.261	1264.06
489.479	1257.06
489.696	1285.06
489.914	1278.06
490.132	1263.06
490.35	1297.06
490.568	1296.06
490.786	1284.06
491.003	1332.06
491.221	1282.06
491.439	1314.06
491.657	1276.06
491.874	1348.06
492.092	1318.06
492.31	1313.06
492.527	1322.06
492.745	1305.06
492.963	1338.06
493.18	1331.06
493.398	1327.06
493.615	1363.06
493.833	1346.06
494.05	1356.06
494.268	1360.06
494.485	1354.06
494.703	1379.06
494.92	1393.06
495.138	1354.06
495.355	1366.06
495.573	1402.06
495.79	1377.06
496.008	1418.06
496.225	1452.06
496.442	1404.06
496.66	1443.06
496.877	1470.06
497.094	1496.06
497.312	1535.06
497.529	1538.06
497.746	1582.06
497.963	1599.06
498.181	1693.06
498.398	1818.06
498.615	1866.06
498.832	2070.06
499.049	2208.06
499.267	2342.06
499.484	2628.06
499.701	2857.06
499.918	3188.06
500.135	3654.06
500.352	4130.06
500.569	4361.06
500.786	4220.06
501.003	4009.06
501.22	3606.06
501.437	3216.06
501.654	2808.06
501.871	2572.06
502.088	2323.06
502.305	2132.06
502.522	2088.06
502.739	2009.06
502.956	1860.06
503.172	1774.06
503.389	1710.06
503.606	1648.06
503.823	1604.06
504.04	1584.06
504.256	1614.06
504.473	1675.06
504.69	1662.06
504.907	1647.06
505.123	1531.06
505.34	1458.06
505.557	1392.06
505.773	1369.06
505.99	1329.06
506.207	1297.06
506.423	1279.06
506.64	1242.06
506.856	1239.06
507.073	1267.06
507.289	1211.06
507.506	1207.06
507.722	1210.06
507.939	1190.06
508.155	1187.06
508.372	1169.06
508.588	1189.06
508.805	1206.06
509.021	1166.06
509.238	1150.06
509.454	1140.06
509.67	1129.06
509.887	1136.06
510.103	1134.06
510.319	1125.06
510.536	1118.06
510.752	1123.06
510.968	1097.06
511.184	1106.06
511.401	1141.06
511.617	1100.06
511.833	1099.06
512.049	1123.06
512.265	1125.06
512.481	1096.06
512.698	1138.06
512.914	1094.06
513.13	1090.06
513.346	1105.06
513.562	1094.06
513.778	1084.06
513.994	1129.06
514.21	1078.06
514.426	1098.06
514.642	1080.06
514.858	1118.06
515.074	1150.06
515.29	1126.06
515.506	1143.06
515.721	1203.06
515.937	1200.06
516.153	1221.06
516.369	1243.06
516.585	1310.06
516.801	1320.06
517.016	1385.06
517.232	1434.06
517.448	1546.06
517.664	1542.06
517.879	1577.06
518.095	1587.06
518.311	1562.06
518.527	1496.06
518.742	1418.06
518.958	1354.06
519.173	1321.06
519.389	1303.06
519.605	1249.06
519.82	1243.06
520.036	1214.06
520.251	1145.06
520.467	1121.06
520.682	1117.06
520.898	1125.06
521.113	1085.06
521.329	1098.06
521.544	1075.06
521.76	1089.06
521.975	1098.06
522.19	1061.06
522.406	1026.06
522.621	1044.06
522.836	1042.06
523.052	1050.06
523.267	1044.06
523.482	1046.06
523.698	1030.06
523.913	1006.06
524.128	1056.06
524.343	1023.06
524.559	1044.06
524.774	992.06
524.989	1022.06
525.204	1022.06
525.419	1018.06
525.634	977.06
525.849	995.06
526.064	992.06
526.28	969.06
526.495	990.06
526.71	964.06
526.925	979.06
527.14	988.06
527.355	1011.06
527.57	986.06
527.785	1007.06
527.999	990.06
528.214	1012.06
528.429	1006.06
528.644	990.06
528.859	1036.06
529.074	979.06
529.289	996.06
529.503	956.06
529.718	971.06
529.933	990.06
530.148	976.06
530.363	993.06
530.577	982.06
530.792	974.06
531.007	961.06
531.221	976.06
531.436	990.06
531.651	999.06
531.865	1008.06
532.08	1006.06
532.295	999.06
532.509	977.06
532.724	968.06
532.938	979.06
533.153	1006.06
533.367	970.06
533.582	992.06
533.796	1013.06
534.011	974.06
534.225	976.06
534.44	954.06
534.654	971.06
534.868	947.06
535.083	967.06
535.297	943.06
535.511	955.06
535.726	951.06
535.94	929.06
536.154	930.06
536.369	955.06
536.583	910.06
536.797	907.06
537.011	922.06
537.225	918.06
537.44	908.06
537.654	929.06
537.868	892.06
538.082	889.06
538.296	893.06
538.51	908.06
538.724	893.06
538.938	893.06
539.153	894.06
539.367	898.06
539.581	873.06
539.795	883.06
540.009	900.06
540.222	876.06
540.436	870.06
540.65	852.06
540.864	850.06
541.078	900.06
541.292	881.06
541.506	889.06
541.72	871.06
541.934	905.06
542.147	875.06
542.361	863.06
542.575	873.06
542.789	902.06
543.002	875.06
543.216	874.06
543.43	874.06
543.644	879.06
543.857	874.06
544.071	892.06
544.285	866.06
544.498	881.06
544.712	910.06
544.925	921.06
545.139	906.06
545.352	898.06
545.566	882.06
545.779	907.06
545.993	904.06
546.206	904.06
546.42	903.06
546.633	907.06
546.847	905.06
547.06	882.06
547.274	874.06
547.487	889.06
547.7	880.06
547.914	896.06
548.127	915.06
548.34	914.06
548.554	917.06
548.767	914.06
548.98	921.06
549.193	909.06
549.407	917.06
549.62	961.06
549.833	962.06
550.046	922.06
550.259	928.06
550.473	898.06
550.686	904.06
550.899	881.06
551.112	868.06
551.325	874.06
551.538	870.06
551.751	873.06
551.964	869.06
552.177	900.06
552.39	909.06
552.603	944.06
552.816	952.06
553.029	968.06
553.242	978.06
553.455	1009.06
553.667	980.06
553.88	988.06
554.093	939.06
554.306	931.06
554.519	932.06
554.732	901.06
554.944	889.06
555.157	888.06
555.37	864.06
555.583	846.06
555.795	833.06
556.008	807.06
556.221	804.06
556.433	801.06
556.646	795.06
556.859	785.06
557.071	780.06
557.284	782.06
557.496	750.06
557.709	762.06
557.921	754.06
558.134	773.06
558.346	766.06
558.559	757.06
558.771	733.06
558.984	738.06
559.196	770.06
559.409	749.06
559.621	747.06
559.833	719.06
560.046	732.06
560.258	750.06
560.47	714.06
560.683	741.06
560.895	730.06
561.107	718.06
561.32	708.06
561.532	755.06
561.744	735.06
561.956	739.06
562.168	753.06
562.381	755.06
562.593	758.06
562.805	758.06
563.017	728.06
563.229	720.06
563.441	736.06
563.653	759.06
563.865	760.06
564.077	776.06
564.289	770.06
564.501	786.06
564.713	794.06
564.925	795.06
565.137	812.06
565.349	838.06
565.561	860.06
565.773	881.06
565.985	930.06
566.197	963.06
566.408	1051.06
566.62	1128.06
566.832	1237.06
567.044	1278.06
567.255	1285.06
567.467	1300.06
567.679	1366.06
567.891	1429.06
568.102	1475.06
568.314	1417.06
568.526	1291.06
568.737	1161.06
568.949	1048.06
569.161	963.06
569.372	892.06
569.584	866.06
569.795	836.06
570.007	798.06
570.218	792.06
570.43	791.06
570.641	778.06
570.853	755.06
571.064	779.06
571.276	781.06
571.487	735.06
571.698	715.06
571.91	705.06
572.121	692.06
572.333	669.06
572.544	650.06
572.755	630.06
572.966	634.06
573.178	639.06
573.389	614.06
573.6	616.06
573.811	627.06
574.023	608.06
574.234	608.06
574.445	612.06
574.656	622.06
574.867	600.06
575.078	611.06
575.289	596.06
575.501	610.06
575.712	594.06
575.923	582.06
576.134	597.06
576.345	582.06
576.556	583.06
576.767	595.06
576.978	559.06
577.188	571.06
577.399	568.06
577.61	556.06
577.821	538.06
578.032	538.06
578.243	555.06
578.454	550.06
578.665	536.06
578.875	544.06
579.086	558.06
579.297	528.06
579.508	546.06
579.718	527.06
579.929	506.06
580.14	526.06
580.35	530.06
580.561	532.06
580.772	530.06
580.982	522.06
581.193	519.06
581.403	514.06
581.614	514.06
581.825	531.06
582.035	515.06
582.246	511.06
582.456	531.06
582.667	518.06
582.877	478.06
583.087	501.06
583.298	514.06
583.508	487.06
583.719	516.06
583.929	514.06
584.139	524.06
584.35	498.06
584.56	497.06
584.77	500.06
584.981	480.06
585.191	497.06
585.401	487.06
585.611	487.06
585.821	499.06
586.032	487.06
586.242	487.06
586.452	510.06
586.662	466.06
586.872	485.06
587.082	476.06
587.292	462.06
587.502	466.06
587.713	482.06
587.923	476.06
588.133	487.06
588.343	480.06
588.553	468.06
588.762	476.06
588.972	479.06
589.182	500.06
589.392	491.06
589.602	478.06
589.812	512.06
590.022	495.06
590.232	489.06
590.441	487.06
590.651	476.06
590.861	490.06
591.071	503.06
591.281	490.06
591.49	484.06
591.7	502.06
591.91	540.06
592.119	532.06
592.329	549.06
592.539	558.06
592.748	591.06
592.958	561.06
593.167	581.06
593.377	618.06
593.587	639.06
593.796	632.06
594.006	639.06
594.215	627.06
594.424	627.06
594.634	617.06
594.843	585.06
595.053	575.06
595.262	555.06
595.472	508.06
595.681	510.06
595.89	497.06
596.1	478.06
596.309	478.06
596.518	469.06
596.727	463.06
596.937	455.06
597.146	452.06
597.355	438.06
597.564	433.06
597.774	430.06
597.983	405.06
598.192	430.06
598.401	426.06
598.61	406.06
598.819	406.06
599.028	438.06
599.237	407.06
599.446	403.06
599.655	402.06
599.864	411.06
600.073	406.06
600.282	391.06
600.491	381.06
600.7	394.06
600.909	387.06
601.118	399.06
601.327	403.06
601.536	398.06
601.745	396.06
601.953	377.06
602.162	405.06
602.371	388.06
602.58	372.06
602.789	390.06
602.997	383.06
603.206	396.06
603.415	378.06
603.623	369.06
603.832	369.06
604.041	378.06
604.249	378.06
604.458	358.06
604.666	363.06
604.875	360.06
605.084	361.06
605.292	378.06
605.501	366.06
605.709	361.06
605.918	360.06
606.126	351.06
606.334	358.06
606.543	358.06
606.751	367.06
606.96	378.06
607.168	359.06
607.376	364.06
607.585	353.06
607.793	350.06
608.001	358.06
608.21	358.06
608.418	360.06
608.626	368.06
608.834	346.06
609.043	353.06
609.251	339.06
609.459	351.06
609.667	352.06
609.875	337.06
610.083	368.06
610.291	363.06
610.499	338.06
610.707	347.06
610.916	357.06
611.124	357.06
611.332	346.06
611.54	330.06
611.748	339.06
611.955	363.06
612.163	362.06
612.371	338.06
612.579	359.06
612.787	343.06
612.995	336.06
613.203	345.06
613.411	339.06
613.618	342.06
613.826	342.06
614.034	326.06
614.242	328.06
614.449	329.06
614.657	336.06
614.865	334.06
615.072	346.06
615.28	339.06
615.488	307.06
615.695	336.06
615.903	331.06
616.111	338.06
616.318	341.06
616.526	340.06
616.733	328.06
616.941	322.06
617.148	331.06
617.356	334.06
617.563	337.06
617.771	352.06
617.978	338.06
618.185	328.06
618.393	347.06
618.6	331.06
618.807	336.06
619.015	331.06
619.222	322.06
619.429	328.06
619.637	332.06
619.844	331.06
620.051	335.06
620.258	332.06
620.466	313.06
620.673	312.06
620.88	300.06
621.087	296.06
621.294	296.06
621.501	319.06
621.708	296.06
621.915	315.06
622.122	312.06
622.329	299.06
622.536	292.06
622.743	306.06
622.95	290.06
623.157	304.06
623.364	304.06
623.571	295.06
623.778	297.06
623.985	295.06
624.192	306.06
624.399	305.06
624.606	299.06
624.812	292.06
625.019	299.06
625.226	302.06
625.433	296.06
625.639	282.06
625.846	282.06
626.053	299.06
626.259	298.06
626.466	281.06
626.673	277.06
626.879	280.06
627.086	271.06
627.293	277.06
627.499	296.06
627.706	300.06
627.912	269.06
628.119	255.06
628.325	281.06
628.532	278.06
628.738	265.06
628.945	282.06
629.151	266.06
629.357	274.06
629.564	260.06
629.77	261.06
629.976	257.06
630.183	263.06
630.389	267.06
630.595	261.06
630.802	257.06
631.008	263.06
631.214	268.06
631.42	235.06
631.627	259.06
631.833	260.06
632.039	235.06
632.245	252.06
632.451	246.06
632.657	258.06
632.863	261.06
633.069	235.06
633.275	248.06
633.481	258.06
633.688	249.06
633.893	218.06
634.099	238.06
634.305	266.06
634.511	258.06
634.717	273.06
634.923	250.06
635.129	256.06
635.335	242.06
635.541	230.06
635.747	237.06
635.952	208.06
636.158	260.06
636.364	241.06
636.57	236.06
636.775	234.06
636.981	234.06
637.187	227.06
637.392	246.06
637.598	238.06
637.804	257.06
638.009	242.06
638.215	243.06
638.421	233.06
638.626	227.06
638.832	219.06
639.037	227.06
639.243	206.06
639.448	234.06
639.654	233.06
639.859	227.06
640.065	227.06
640.27	228.06
640.475	228.06
640.681	220.06
640.886	234.06
641.091	206.06
641.297	227.06
641.502	231.06
641.707	234.06
641.913	204.06
642.118	215.06
642.323	211.06
642.528	226.06
642.733	203.06
642.939	200.06
643.144	218.06
643.349	217.06
643.554	218.06
643.759	212.06
643.964	212.06
644.169	213.06
644.374	205.06
644.579	201.06
644.784	211.06
644.989	209.06
645.194	221.06
645.399	204.06
645.604	216.06
645.809	215.06
646.014	217.06
646.219	211.06
646.423	216.06
646.628	198.06
646.833	213.06
647.038	224.06
647.243	202.06
647.447	213.06
647.652	196.06
647.857	210.06
648.062	224.06
648.266	215.06
648.471	223.06
648.676	226.06
648.88	209.06
649.085	219.06
649.289	211.06
649.494	228.06
649.698	192.06
649.903	205.06
650.107	208.06
650.312	185.06
650.516	189.06
650.721	185.06
650.925	196.06
651.13	191.06
651.334	179.06
651.539	181.06
651.743	199.06
651.947	174.06
652.152	179.06
652.356	170.06
652.56	184.06
652.764	195.06
652.969	183.06
653.173	161.06
653.377	167.06
653.581	164.06
653.785	155.06
653.99	159.06
654.194	160.06
654.398	164.06
654.602	149.06
654.806	154.06
655.01	153.06
655.214	151.06
655.418	140.06
655.622	152.06
655.826	155.06
656.03	159.06
656.234	160.06
656.438	154.06
656.642	158.06
656.846	142.06
657.049	141.06
657.253	143.06
657.457	136.06
657.661	133.06
657.865	126.06
658.068	127.06
658.272	131.06
658.476	114.06
658.68	113.06
658.883	111.06
659.087	99.06
659.291	116.06
659.494	115.06
659.698	103.06
659.901	121.06
660.105	90.06
660.309	106.06
660.512	96.06
660.716	99.06
660.919	99.06
661.123	102.06
661.326	90.06
661.53	90.06
661.733	89.06
661.936	86.06
662.14	79.06
662.343	90.06
662.546	76.06
662.75	86.06
662.953	80.06
663.156	88.06
663.36	87.06
663.563	82.06
663.766	82.06
663.969	85.06
664.173	74.06
664.376	68.06
664.579	76.06
664.782	72.06
664.985	79.06
665.188	86.06
665.391	76.06
665.594	91.06
665.797	67.06
666	84.06
666.203	86.06
666.406	75.06
666.609	73.06
666.812	101.06
667.015	77.06
667.218	81.06
667.421	79.06
667.624	81.06
667.827	78.06
668.03	73.06
668.232	72.06
668.435	71.06
668.638	82.06
668.841	94.06
669.043	74.06
669.246	70.06
669.449	84.06
669.651	88.06
669.854	75.06
670.057	79.06
670.259	73.06
670.462	73.06
670.665	80.06
670.867	105.06
671.07	89.06
671.272	75.06
671.475	87.06
671.677	73.06
671.88	85.06
672.082	71.06
672.284	89.06
672.487	80.06
672.689	80.06
672.892	89.06
