Data from NiCl2@0.125M.TitratingCurve.Agarose3%dH2O.NegLispCup.LampEnergy10.LIBS07252019_HRD10591_18-27-47-574.txt Node
Date: Thu Jul 25 18:27:47 EDT 2019
User: cochatt
Spectrometer: HR+D1059
Trigger mode: 1
Integration Time (sec): 1.000000E-1
Scans to average: 1
Electric dark correction enabled: true
Nonlinearity correction enabled: false
Boxcar width: 0
XAxis mode: Wavelengths
Number of Pixels in Spectrum: 2048
>>>>>Begin Spectral Data<<<<<
223.165	-22.88
223.4	-22.88
223.635	-22.88
223.869	-19.88
224.104	-17.88
224.338	-22.88
224.573	-5.88
224.808	0.12
225.042	-14.88
225.277	2.12
225.511	3.12
225.746	9.12
225.98	9.12
226.215	7.12
226.449	11.12
226.683	19.12
226.918	14.12
227.152	29.12
227.387	20.12
227.621	13.12
227.856	31.12
228.09	46.12
228.324	55.12
228.559	61.12
228.793	88.12
229.027	106.12
229.262	118.12
229.496	124.12
229.73	139.12
229.964	135.12
230.199	141.12
230.433	134.12
230.667	155.12
230.901	151.12
231.136	159.12
231.37	147.12
231.604	138.12
231.838	145.12
232.072	159.12
232.306	126.12
232.541	165.12
232.775	174.12
233.009	167.12
233.243	165.12
233.477	164.12
233.711	169.12
233.945	156.12
234.179	169.12
234.413	174.12
234.647	170.12
234.881	185.12
235.115	175.12
235.349	160.12
235.583	171.12
235.817	149.12
236.051	158.12
236.285	151.12
236.519	185.12
236.753	177.12
236.987	180.12
237.221	178.12
237.455	177.12
237.689	173.12
237.922	181.12
238.156	186.12
238.39	194.12
238.624	185.12
238.858	187.12
239.091	186.12
239.325	190.12
239.559	201.12
239.793	190.12
240.027	198.12
240.26	207.12
240.494	196.12
240.728	202.12
240.961	218.12
241.195	205.12
241.429	207.12
241.662	204.12
241.896	217.12
242.13	210.12
242.363	217.12
242.597	221.12
242.83	227.12
243.064	232.12
243.298	220.12
243.531	225.12
243.765	237.12
243.998	237.12
244.232	223.12
244.465	226.12
244.699	253.12
244.932	242.12
245.166	250.12
245.399	249.12
245.633	251.12
245.866	248.12
246.099	227.12
246.333	238.12
246.566	244.12
246.8	254.12
247.033	250.12
247.266	269.12
247.5	262.12
247.733	257.12
247.966	272.12
248.2	283.12
248.433	266.12
248.666	264.12
248.899	279.12
249.133	285.12
249.366	274.12
249.599	270.12
249.832	283.12
250.066	287.12
250.299	269.12
250.532	286.12
250.765	279.12
250.998	274.12
251.231	294.12
251.465	312.12
251.698	291.12
251.931	299.12
252.164	291.12
252.397	309.12
252.63	333.12
252.863	306.12
253.096	309.12
253.329	297.12
253.562	314.12
253.795	325.12
254.028	325.12
254.261	318.12
254.494	326.12
254.727	316.12
254.96	306.12
255.193	330.12
255.426	347.12
255.659	337.12
255.892	320.12
256.124	325.12
256.357	334.12
256.59	333.12
256.823	338.12
257.056	363.12
257.289	328.12
257.521	329.12
257.754	345.12
257.987	353.12
258.22	355.12
258.452	358.12
258.685	337.12
258.918	341.12
259.151	354.12
259.383	356.12
259.616	362.12
259.849	363.12
260.081	366.12
260.314	360.12
260.547	365.12
260.779	362.12
261.012	346.12
261.244	367.12
261.477	369.12
261.71	379.12
261.942	370.12
262.175	385.12
262.407	377.12
262.64	393.12
262.872	373.12
263.105	389.12
263.337	382.12
263.57	399.12
263.802	386.12
264.035	381.12
264.267	385.12
264.499	382.12
264.732	392.12
264.964	395.12
265.197	410.12
265.429	398.12
265.661	409.12
265.894	427.12
266.126	431.12
266.358	405.12
266.591	409.12
266.823	413.12
267.055	426.12
267.287	413.12
267.52	410.12
267.752	435.12
267.984	429.12
268.216	417.12
268.448	413.12
268.681	425.12
268.913	443.12
269.145	416.12
269.377	447.12
269.609	451.12
269.841	438.12
270.073	406.12
270.306	433.12
270.538	437.12
270.77	424.12
271.002	429.12
271.234	422.12
271.466	436.12
271.698	453.12
271.93	463.12
272.162	429.12
272.394	439.12
272.626	455.12
272.858	441.12
273.09	453.12
273.322	439.12
273.553	434.12
273.785	455.12
274.017	474.12
274.249	467.12
274.481	467.12
274.713	466.12
274.945	482.12
275.176	492.12
275.408	482.12
275.64	469.12
275.872	450.12
276.104	481.12
276.335	472.12
276.567	476.12
276.799	491.12
277.031	481.12
277.262	481.12
277.494	477.12
277.726	497.12
277.957	481.12
278.189	497.12
278.421	479.12
278.652	506.12
278.884	511.12
279.115	522.12
279.347	517.12
279.579	525.12
279.81	501.12
280.042	513.12
280.273	533.12
280.505	511.12
280.736	522.12
280.968	516.12
281.199	510.12
281.431	519.12
281.662	510.12
281.894	533.12
282.125	546.12
282.356	545.12
282.588	518.12
282.819	543.12
283.051	551.12
283.282	548.12
283.513	567.12
283.745	579.12
283.976	546.12
284.207	538.12
284.439	556.12
284.67	554.12
284.901	567.12
285.132	574.12
285.364	587.12
285.595	568.12
285.826	570.12
286.057	589.12
286.288	574.12
286.52	592.12
286.751	580.12
286.982	567.12
287.213	575.12
287.444	586.12
287.675	588.12
287.906	597.12
288.138	600.12
288.369	607.12
288.6	607.12
288.831	580.12
289.062	613.12
289.293	613.12
289.524	613.12
289.755	590.12
289.986	600.12
290.217	602.12
290.448	607.12
290.679	589.12
290.91	604.12
291.141	591.12
291.371	602.12
291.602	604.12
291.833	605.12
292.064	614.12
292.295	606.12
292.526	595.12
292.757	614.12
292.987	631.12
293.218	588.12
293.449	613.12
293.68	596.12
293.91	590.12
294.141	590.12
294.372	606.12
294.603	630.12
294.833	645.12
295.064	620.12
295.295	618.12
295.525	635.12
295.756	617.12
295.987	627.12
296.217	647.12
296.448	642.12
296.679	648.12
296.909	632.12
297.14	653.12
297.37	661.12
297.601	647.12
297.831	636.12
298.062	637.12
298.292	646.12
298.523	708.12
298.753	676.12
298.984	661.12
299.214	633.12
299.445	647.12
299.675	662.12
299.905	641.12
300.136	645.12
300.366	650.12
300.597	674.12
300.827	696.12
301.057	677.12
301.288	699.12
301.518	718.12
301.748	719.12
301.979	701.12
302.209	711.12
302.439	698.12
302.669	693.12
302.9	659.12
303.13	657.12
303.36	685.12
303.59	677.12
303.82	685.12
304.051	690.12
304.281	693.12
304.511	679.12
304.741	688.12
304.971	693.12
305.201	670.12
305.431	714.12
305.661	698.12
305.891	667.12
306.121	690.12
306.352	700.12
306.582	682.12
306.812	684.12
307.042	669.12
307.272	686.12
307.502	680.12
307.731	661.12
307.961	667.12
308.191	670.12
308.421	686.12
308.651	651.12
308.881	661.12
309.111	677.12
309.341	659.12
309.571	671.12
309.8	691.12
310.03	696.12
310.26	689.12
310.49	666.12
310.72	653.12
310.949	652.12
311.179	691.12
311.409	697.12
311.639	707.12
311.868	694.12
312.098	690.12
312.328	712.12
312.557	726.12
312.787	706.12
313.017	706.12
313.246	717.12
313.476	727.12
313.706	715.12
313.935	724.12
314.165	725.12
314.394	724.12
314.624	721.12
314.853	731.12
315.083	752.12
315.312	700.12
315.542	718.12
315.771	723.12
316.001	713.12
316.23	739.12
316.46	682.12
316.689	721.12
316.919	714.12
317.148	741.12
317.377	704.12
317.607	733.12
317.836	705.12
318.065	715.12
318.295	702.12
318.524	729.12
318.753	675.12
318.983	685.12
319.212	708.12
319.441	709.12
319.67	685.12
319.9	718.12
320.129	723.12
320.358	705.12
320.587	722.12
320.816	723.12
321.046	738.12
321.275	705.12
321.504	685.12
321.733	702.12
321.962	717.12
322.191	705.12
322.42	724.12
322.649	726.12
322.878	731.12
323.108	691.12
323.337	727.12
323.566	734.12
323.795	723.12
324.024	723.12
324.253	734.12
324.482	723.12
324.71	725.12
324.939	750.12
325.168	740.12
325.397	730.12
325.626	745.12
325.855	753.12
326.084	765.12
326.313	768.12
326.542	793.12
326.77	758.12
326.999	765.12
327.228	759.12
327.457	755.12
327.686	790.12
327.914	775.12
328.143	757.12
328.372	801.12
328.6	771.12
328.829	779.12
329.058	765.12
329.287	794.12
329.515	790.12
329.744	778.12
329.972	779.12
330.201	810.12
330.43	794.12
330.658	792.12
330.887	810.12
331.115	805.12
331.344	843.12
331.572	794.12
331.801	825.12
332.03	878.12
332.258	873.12
332.486	916.12
332.715	917.12
332.943	959.12
333.172	977.12
333.4	1054.12
333.629	1082.12
333.857	1064.12
334.085	1051.12
334.314	1028.12
334.542	1013.12
334.771	1016.12
334.999	978.12
335.227	1015.12
335.455	972.12
335.684	965.12
335.912	959.12
336.14	953.12
336.369	905.12
336.597	956.12
336.825	925.12
337.053	931.12
337.281	904.12
337.51	923.12
337.738	887.12
337.966	883.12
338.194	868.12
338.422	845.12
338.65	841.12
338.878	814.12
339.106	860.12
339.334	874.12
339.562	823.12
339.79	801.12
340.018	791.12
340.246	788.12
340.474	803.12
340.702	819.12
340.93	822.12
341.158	793.12
341.386	819.12
341.614	831.12
341.842	807.12
342.07	810.12
342.298	820.12
342.526	797.12
342.754	810.12
342.981	795.12
343.209	814.12
343.437	867.12
343.665	923.12
343.893	963.12
344.12	1014.12
344.348	951.12
344.576	904.12
344.804	863.12
345.031	843.12
345.259	850.12
345.487	831.12
345.714	829.12
345.942	798.12
346.17	802.12
346.397	803.12
346.625	773.12
346.853	791.12
347.08	782.12
347.308	765.12
347.535	790.12
347.763	789.12
347.99	785.12
348.218	798.12
348.445	784.12
348.673	787.12
348.9	797.12
349.128	759.12
349.355	781.12
349.583	756.12
349.81	779.12
350.037	754.12
350.265	756.12
350.492	767.12
350.72	748.12
350.947	759.12
351.174	734.12
351.402	743.12
351.629	757.12
351.856	756.12
352.083	749.12
352.311	754.12
352.538	727.12
352.765	778.12
352.992	746.12
353.22	753.12
353.447	761.12
353.674	713.12
353.901	745.12
354.128	732.12
354.355	746.12
354.583	756.12
354.81	739.12
355.037	771.12
355.264	747.12
355.491	769.12
355.718	759.12
355.945	735.12
356.172	730.12
356.399	748.12
356.626	741.12
356.853	777.12
357.08	767.12
357.307	760.12
357.534	753.12
357.761	761.12
357.988	762.12
358.215	760.12
358.441	720.12
358.668	720.12
358.895	772.12
359.122	756.12
359.349	767.12
359.576	745.12
359.802	747.12
360.029	737.12
360.256	746.12
360.483	750.12
360.709	746.12
360.936	775.12
361.163	759.12
361.39	755.12
361.616	747.12
361.843	744.12
362.07	752.12
362.296	739.12
362.523	746.12
362.749	753.12
362.976	758.12
363.203	721.12
363.429	730.12
363.656	755.12
363.882	723.12
364.109	735.12
364.335	758.12
364.562	725.12
364.788	746.12
365.015	747.12
365.241	755.12
365.468	740.12
365.694	757.12
365.92	734.12
366.147	763.12
366.373	729.12
366.599	719.12
366.826	746.12
367.052	773.12
367.278	731.12
367.505	757.12
367.731	777.12
367.957	766.12
368.184	751.12
368.41	766.12
368.636	761.12
368.862	783.12
369.089	754.12
369.315	768.12
369.541	758.12
369.767	770.12
369.993	789.12
370.219	769.12
370.445	805.12
370.672	795.12
370.898	782.12
371.124	807.12
371.35	851.12
371.576	811.12
371.802	812.12
372.028	818.12
372.254	806.12
372.48	840.12
372.706	857.12
372.932	847.12
373.158	846.12
373.384	842.12
373.61	824.12
373.835	827.12
374.061	802.12
374.287	854.12
374.513	831.12
374.739	851.12
374.965	893.12
375.191	894.12
375.416	909.12
375.642	862.12
375.868	890.12
376.094	845.12
376.319	825.12
376.545	834.12
376.771	842.12
376.997	837.12
377.222	841.12
377.448	839.12
377.674	832.12
377.899	813.12
378.125	800.12
378.35	794.12
378.576	798.12
378.802	775.12
379.027	817.12
379.253	819.12
379.478	796.12
379.704	794.12
379.929	822.12
380.155	798.12
380.38	804.12
380.606	814.12
380.831	824.12
381.057	825.12
381.282	812.12
381.507	824.12
381.733	823.12
381.958	819.12
382.184	822.12
382.409	826.12
382.634	856.12
382.86	854.12
383.085	851.12
383.31	874.12
383.535	891.12
383.761	913.12
383.986	920.12
384.211	948.12
384.436	956.12
384.662	961.12
384.887	961.12
385.112	972.12
385.337	995.12
385.562	991.12
385.787	961.12
386.013	983.12
386.238	1011.12
386.463	1018.12
386.688	991.12
386.913	997.12
387.138	979.12
387.363	982.12
387.588	982.12
387.813	975.12
388.038	961.12
388.263	975.12
388.488	977.12
388.713	987.12
388.938	950.12
389.163	947.12
389.387	966.12
389.612	950.12
389.837	963.12
390.062	965.12
390.287	939.12
390.512	941.12
390.736	964.12
390.961	994.12
391.186	978.12
391.411	1025.12
391.636	1073.12
391.86	1098.12
392.085	1114.12
392.31	1108.12
392.534	1117.12
392.759	1100.12
392.984	1052.12
393.208	1068.12
393.433	1061.12
393.658	1043.12
393.882	1027.12
394.107	1054.12
394.331	1067.12
394.556	1025.12
394.78	1059.12
395.005	1060.12
395.229	1082.12
395.454	1089.12
395.678	1131.12
395.903	1117.12
396.127	1084.12
396.352	1051.12
396.576	1031.12
396.801	1055.12
397.025	1036.12
397.249	1081.12
397.474	1106.12
397.698	1113.12
397.922	1105.12
398.147	1115.12
398.371	1115.12
398.595	1150.12
398.82	1224.12
399.044	1288.12
399.268	1440.12
399.492	1689.12
399.717	1892.12
399.941	1886.12
400.165	1704.12
400.389	1530.12
400.613	1409.12
400.837	1311.12
401.062	1277.12
401.286	1256.12
401.51	1238.12
401.734	1256.12
401.958	1261.12
402.182	1259.12
402.406	1291.12
402.63	1301.12
402.854	1313.12
403.078	1340.12
403.302	1390.12
403.526	1413.12
403.75	1415.12
403.974	1481.12
404.198	1470.12
404.422	1421.12
404.645	1417.12
404.869	1455.12
405.093	1448.12
405.317	1362.12
405.541	1339.12
405.765	1395.12
405.988	1337.12
406.212	1366.12
406.436	1351.12
406.66	1377.12
406.883	1409.12
407.107	1497.12
407.331	1579.12
407.555	1651.12
407.778	1641.12
408.002	1581.12
408.226	1551.12
408.449	1490.12
408.673	1460.12
408.896	1393.12
409.12	1372.12
409.344	1419.12
409.567	1413.12
409.791	1433.12
410.014	1398.12
410.238	1379.12
410.461	1396.12
410.685	1338.12
410.908	1347.12
411.132	1310.12
411.355	1261.12
411.578	1321.12
411.802	1247.12
412.025	1314.12
412.249	1323.12
412.472	1305.12
412.695	1271.12
412.919	1279.12
413.142	1206.12
413.365	1235.12
413.589	1260.12
413.812	1237.12
414.035	1209.12
414.258	1229.12
414.482	1241.12
414.705	1288.12
414.928	1241.12
415.151	1246.12
415.374	1244.12
415.597	1188.12
415.821	1217.12
416.044	1227.12
416.267	1197.12
416.49	1221.12
416.713	1181.12
416.936	1242.12
417.159	1225.12
417.382	1217.12
417.605	1244.12
417.828	1234.12
418.051	1227.12
418.274	1237.12
418.497	1236.12
418.72	1314.12
418.943	1292.12
419.166	1374.12
419.389	1428.12
419.611	1402.12
419.834	1365.12
420.057	1313.12
420.28	1277.12
420.503	1253.12
420.726	1224.12
420.948	1232.12
421.171	1211.12
421.394	1238.12
421.617	1209.12
421.839	1255.12
422.062	1279.12
422.285	1178.12
422.507	1265.12
422.73	1262.12
422.953	1279.12
423.175	1271.12
423.398	1305.12
423.621	1294.12
423.843	1315.12
424.066	1337.12
424.288	1309.12
424.511	1324.12
424.733	1280.12
424.956	1251.12
425.178	1254.12
425.401	1224.12
425.623	1247.12
425.846	1228.12
426.068	1179.12
426.291	1182.12
426.513	1161.12
426.735	1159.12
426.958	1174.12
427.18	1121.12
427.402	1133.12
427.625	1133.12
427.847	1103.12
428.069	1126.12
428.292	1118.12
428.514	1097.12
428.736	1089.12
428.958	1122.12
429.181	1056.12
429.403	1035.12
429.625	1070.12
429.847	1061.12
430.069	1096.12
430.292	1077.12
430.514	1065.12
430.736	1068.12
430.958	1083.12
431.18	1075.12
431.402	1099.12
431.624	1079.12
431.846	1078.12
432.068	1131.12
432.29	1120.12
432.512	1069.12
432.734	1118.12
432.956	1110.12
433.178	1122.12
433.4	1106.12
433.622	1129.12
433.844	1118.12
434.066	1107.12
434.287	1101.12
434.509	1153.12
434.731	1187.12
434.953	1259.12
435.175	1250.12
435.397	1258.12
435.618	1167.12
435.84	1134.12
436.062	1107.12
436.284	1122.12
436.505	1083.12
436.727	1087.12
436.949	1133.12
437.17	1098.12
437.392	1081.12
437.614	1097.12
437.835	1030.12
438.057	1033.12
438.278	1047.12
438.5	1030.12
438.721	1050.12
438.943	1051.12
439.165	1053.12
439.386	1116.12
439.608	1083.12
439.829	1095.12
440.05	1110.12
440.272	1103.12
440.493	1098.12
440.715	1140.12
440.936	1137.12
441.158	1167.12
441.379	1178.12
441.6	1254.12
441.822	1235.12
442.043	1286.12
442.264	1239.12
442.486	1197.12
442.707	1214.12
442.928	1232.12
443.149	1240.12
443.371	1223.12
443.592	1208.12
443.813	1250.12
444.034	1248.12
444.255	1303.12
444.476	1353.12
444.698	1441.12
444.919	1526.12
445.14	1609.12
445.361	1430.12
445.582	1320.12
445.803	1179.12
446.024	1161.12
446.245	1174.12
446.466	1138.12
446.687	1111.12
446.908	1127.12
447.129	1099.12
447.35	1079.12
447.571	1073.12
447.792	1065.12
448.013	1055.12
448.234	1025.12
448.455	1025.12
448.675	1011.12
448.896	1037.12
449.117	1000.12
449.338	989.12
449.559	993.12
449.779	976.12
450	988.12
450.221	1012.12
450.442	1023.12
450.662	1027.12
450.883	1011.12
451.104	1060.12
451.324	1040.12
451.545	1035.12
451.766	1035.12
451.986	1014.12
452.207	994.12
452.428	1006.12
452.648	1015.12
452.869	989.12
453.089	968.12
453.31	1007.12
453.53	975.12
453.751	961.12
453.971	953.12
454.192	967.12
454.412	981.12
454.633	973.12
454.853	969.12
455.073	947.12
455.294	973.12
455.514	951.12
455.734	942.12
455.955	899.12
456.175	937.12
456.395	942.12
456.616	919.12
456.836	951.12
457.056	904.12
457.276	942.12
457.497	935.12
457.717	918.12
457.937	951.12
458.157	962.12
458.377	978.12
458.598	993.12
458.818	1005.12
459.038	1044.12
459.258	1047.12
459.478	1108.12
459.698	1157.12
459.918	1151.12
460.138	1216.12
460.358	1293.12
460.578	1302.12
460.798	1352.12
461.018	1329.12
461.238	1314.12
461.458	1278.12
461.678	1301.12
461.898	1294.12
462.118	1311.12
462.338	1377.12
462.558	1447.12
462.777	1468.12
462.997	1624.12
463.217	1726.12
463.437	1770.12
463.657	1631.12
463.876	1537.12
464.096	1546.12
464.316	1508.12
464.536	1524.12
464.755	1478.12
464.975	1429.12
465.195	1346.12
465.414	1284.12
465.634	1181.12
465.854	1141.12
466.073	1139.12
466.293	1146.12
466.512	1087.12
466.732	1082.12
466.951	1087.12
467.171	1053.12
467.391	1046.12
467.61	1065.12
467.829	1052.12
468.049	1040.12
468.268	1007.12
468.488	992.12
468.707	999.12
468.927	1006.12
469.146	1011.12
469.365	1016.12
469.585	1013.12
469.804	1049.12
470.023	1064.12
470.243	1075.12
470.462	1095.12
470.681	1102.12
470.901	1089.12
471.12	1086.12
471.339	1044.12
471.558	1054.12
471.777	1038.12
471.997	998.12
472.216	998.12
472.435	974.12
472.654	995.12
472.873	992.12
473.092	986.12
473.311	966.12
473.53	966.12
473.749	974.12
473.968	995.12
474.187	983.12
474.406	953.12
474.625	964.12
474.844	980.12
475.063	997.12
475.282	994.12
475.501	986.12
475.72	966.12
475.939	1010.12
476.158	1021.12
476.377	1024.12
476.596	1014.12
476.814	1042.12
477.033	1031.12
477.252	1091.12
477.471	1061.12
477.69	1109.12
477.908	1126.12
478.127	1188.12
478.346	1185.12
478.564	1221.12
478.783	1238.12
479.002	1218.12
479.22	1235.12
479.439	1265.12
479.658	1198.12
479.876	1212.12
480.095	1230.12
480.313	1312.12
480.532	1337.12
480.751	1330.12
480.969	1299.12
481.188	1219.12
481.406	1189.12
481.624	1135.12
481.843	1143.12
482.061	1132.12
482.28	1139.12
482.498	1133.12
482.717	1100.12
482.935	1119.12
483.153	1130.12
483.372	1079.12
483.59	1126.12
483.808	1127.12
484.027	1110.12
484.245	1112.12
484.463	1144.12
484.681	1169.12
484.9	1144.12
485.118	1149.12
485.336	1139.12
485.554	1167.12
485.772	1192.12
485.99	1225.12
486.209	1206.12
486.427	1193.12
486.645	1168.12
486.863	1168.12
487.081	1184.12
487.299	1187.12
487.517	1201.12
487.735	1172.12
487.953	1165.12
488.171	1187.12
488.389	1175.12
488.607	1152.12
488.825	1140.12
489.043	1146.12
489.261	1133.12
489.479	1166.12
489.696	1172.12
489.914	1175.12
490.132	1171.12
490.35	1188.12
490.568	1178.12
490.786	1180.12
491.003	1175.12
491.221	1192.12
491.439	1207.12
491.657	1182.12
491.874	1189.12
492.092	1169.12
492.31	1186.12
492.527	1210.12
492.745	1201.12
492.963	1236.12
493.18	1191.12
493.398	1229.12
493.615	1215.12
493.833	1208.12
494.05	1230.12
494.268	1259.12
494.485	1270.12
494.703	1254.12
494.92	1255.12
495.138	1219.12
495.355	1210.12
495.573	1269.12
495.79	1240.12
496.008	1276.12
496.225	1274.12
496.442	1280.12
496.66	1279.12
496.877	1312.12
497.094	1329.12
497.312	1340.12
497.529	1369.12
497.746	1441.12
497.963	1471.12
498.181	1486.12
498.398	1550.12
498.615	1659.12
498.832	1723.12
499.049	1930.12
499.267	2088.12
499.484	2263.12
499.701	2541.12
499.918	2783.12
500.135	3201.12
500.352	3709.12
500.569	3804.12
500.786	3795.12
501.003	3530.12
501.22	3191.12
501.437	2795.12
501.654	2426.12
501.871	2222.12
502.088	2025.12
502.305	1900.12
502.522	1812.12
502.739	1755.12
502.956	1658.12
503.172	1563.12
503.389	1481.12
503.606	1466.12
503.823	1414.12
504.04	1398.12
504.256	1415.12
504.473	1467.12
504.69	1486.12
504.907	1494.12
505.123	1351.12
505.34	1307.12
505.557	1233.12
505.773	1235.12
505.99	1173.12
506.207	1153.12
506.423	1126.12
506.64	1132.12
506.856	1149.12
507.073	1083.12
507.289	1105.12
507.506	1083.12
507.722	1096.12
507.939	1079.12
508.155	1061.12
508.372	1039.12
508.588	1021.12
508.805	1042.12
509.021	1043.12
509.238	1039.12
509.454	1030.12
509.67	1017.12
509.887	1008.12
510.103	1023.12
510.319	1014.12
510.536	1041.12
510.752	978.12
510.968	1018.12
511.184	986.12
511.401	1006.12
511.617	978.12
511.833	1005.12
512.049	980.12
512.265	991.12
512.481	999.12
512.698	1003.12
512.914	1003.12
513.13	1012.12
513.346	1014.12
513.562	980.12
513.778	980.12
513.994	996.12
514.21	985.12
514.426	990.12
514.642	1016.12
514.858	1019.12
515.074	1010.12
515.29	1054.12
515.506	1049.12
515.721	1073.12
515.937	1070.12
516.153	1067.12
516.369	1098.12
516.585	1132.12
516.801	1181.12
517.016	1218.12
517.232	1281.12
517.448	1358.12
517.664	1380.12
517.879	1383.12
518.095	1421.12
518.311	1366.12
518.527	1335.12
518.742	1253.12
518.958	1218.12
519.173	1162.12
519.389	1135.12
519.605	1079.12
519.82	1068.12
520.036	1068.12
520.251	985.12
520.467	1018.12
520.682	1042.12
520.898	1004.12
521.113	997.12
521.329	991.12
521.544	998.12
521.76	975.12
521.975	952.12
522.19	966.12
522.406	971.12
522.621	943.12
522.836	965.12
523.052	932.12
523.267	908.12
523.482	948.12
523.698	921.12
523.913	902.12
524.128	954.12
524.343	937.12
524.559	924.12
524.774	917.12
524.989	927.12
525.204	928.12
525.419	897.12
525.634	889.12
525.849	901.12
526.064	919.12
526.28	903.12
526.495	897.12
526.71	889.12
526.925	934.12
527.14	901.12
527.355	893.12
527.57	935.12
527.785	921.12
527.999	909.12
528.214	901.12
528.429	899.12
528.644	904.12
528.859	921.12
529.074	881.12
529.289	893.12
529.503	907.12
529.718	891.12
529.933	890.12
530.148	887.12
530.363	901.12
530.577	901.12
530.792	886.12
531.007	898.12
531.221	904.12
531.436	866.12
531.651	886.12
531.865	890.12
532.08	902.12
532.295	887.12
532.509	870.12
532.724	889.12
532.938	897.12
533.153	883.12
533.367	868.12
533.582	884.12
533.796	907.12
534.011	898.12
534.225	890.12
534.44	870.12
534.654	872.12
534.868	863.12
535.083	897.12
535.297	857.12
535.511	873.12
535.726	842.12
535.94	842.12
536.154	861.12
536.369	842.12
536.583	843.12
536.797	858.12
537.011	822.12
537.225	828.12
537.44	825.12
537.654	810.12
537.868	817.12
538.082	829.12
538.296	802.12
538.51	813.12
538.724	806.12
538.938	803.12
539.153	818.12
539.367	813.12
539.581	803.12
539.795	801.12
540.009	852.12
540.222	798.12
540.436	812.12
540.65	814.12
540.864	776.12
541.078	813.12
541.292	805.12
541.506	801.12
541.72	803.12
541.934	805.12
542.147	809.12
542.361	805.12
542.575	775.12
542.789	793.12
543.002	760.12
543.216	812.12
543.43	773.12
543.644	803.12
543.857	802.12
544.071	791.12
544.285	796.12
544.498	789.12
544.712	808.12
544.925	808.12
545.139	830.12
545.352	812.12
545.566	844.12
545.779	851.12
545.993	855.12
546.206	825.12
546.42	854.12
546.633	848.12
546.847	799.12
547.06	801.12
547.274	823.12
547.487	778.12
547.7	824.12
547.914	826.12
548.127	833.12
548.34	840.12
548.554	831.12
548.767	800.12
548.98	821.12
549.193	834.12
549.407	852.12
549.62	835.12
549.833	883.12
550.046	850.12
550.259	851.12
550.473	821.12
550.686	815.12
550.899	823.12
551.112	814.12
551.325	805.12
551.538	831.12
551.751	785.12
551.964	821.12
552.177	834.12
552.39	805.12
552.603	855.12
552.816	861.12
553.029	883.12
553.242	922.12
553.455	919.12
553.667	919.12
553.88	882.12
554.093	881.12
554.306	859.12
554.519	865.12
554.732	830.12
554.944	796.12
555.157	810.12
555.37	795.12
555.583	794.12
555.795	771.12
556.008	732.12
556.221	748.12
556.433	735.12
556.646	724.12
556.859	740.12
557.071	701.12
557.284	710.12
557.496	721.12
557.709	726.12
557.921	718.12
558.134	677.12
558.346	689.12
558.559	700.12
558.771	699.12
558.984	687.12
559.196	704.12
559.409	669.12
559.621	695.12
559.833	647.12
560.046	670.12
560.258	683.12
560.47	686.12
560.683	674.12
560.895	680.12
561.107	660.12
561.32	659.12
561.532	663.12
561.744	674.12
561.956	683.12
562.168	669.12
562.381	683.12
562.593	677.12
562.805	668.12
563.017	675.12
563.229	671.12
563.441	675.12
563.653	673.12
563.865	685.12
564.077	693.12
564.289	687.12
564.501	699.12
564.713	725.12
564.925	725.12
565.137	738.12
565.349	759.12
565.561	775.12
565.773	805.12
565.985	840.12
566.197	866.12
566.408	961.12
566.62	1037.12
566.832	1109.12
567.044	1114.12
567.255	1132.12
567.467	1153.12
567.679	1233.12
567.891	1331.12
568.102	1345.12
568.314	1274.12
568.526	1140.12
568.737	1063.12
568.949	945.12
569.161	850.12
569.372	813.12
569.584	774.12
569.795	729.12
570.007	718.12
570.218	701.12
570.43	691.12
570.641	673.12
570.853	706.12
571.064	732.12
571.276	739.12
571.487	677.12
571.698	651.12
571.91	651.12
572.121	637.12
572.333	596.12
572.544	596.12
572.755	604.12
572.966	578.12
573.178	588.12
573.389	571.12
573.6	565.12
573.811	546.12
574.023	579.12
574.234	554.12
574.445	575.12
574.656	567.12
574.867	563.12
575.078	567.12
575.289	530.12
575.501	530.12
575.712	545.12
575.923	548.12
576.134	540.12
576.345	517.12
576.556	549.12
576.767	525.12
576.978	524.12
577.188	523.12
577.399	542.12
577.61	499.12
577.821	532.12
578.032	493.12
578.243	490.12
578.454	485.12
578.665	507.12
578.875	494.12
579.086	463.12
579.297	477.12
579.508	498.12
579.718	483.12
579.929	470.12
580.14	498.12
580.35	481.12
580.561	484.12
580.772	481.12
580.982	468.12
581.193	463.12
581.403	497.12
581.614	473.12
581.825	471.12
582.035	475.12
582.246	467.12
582.456	475.12
582.667	479.12
582.877	466.12
583.087	475.12
583.298	465.12
583.508	471.12
583.719	453.12
583.929	462.12
584.139	452.12
584.35	458.12
584.56	461.12
584.77	462.12
584.981	452.12
585.191	457.12
585.401	444.12
585.611	431.12
585.821	441.12
586.032	461.12
586.242	455.12
586.452	470.12
586.662	456.12
586.872	449.12
587.082	435.12
587.292	453.12
587.502	447.12
587.713	444.12
587.923	442.12
588.133	453.12
588.343	457.12
588.553	430.12
588.762	446.12
588.972	462.12
589.182	455.12
589.392	464.12
589.602	447.12
589.812	459.12
590.022	456.12
590.232	445.12
590.441	443.12
590.651	444.12
590.861	437.12
591.071	459.12
591.281	451.12
591.49	452.12
591.7	474.12
591.91	482.12
592.119	498.12
592.329	511.12
592.539	524.12
592.748	541.12
592.958	522.12
593.167	544.12
593.377	572.12
593.587	589.12
593.796	574.12
594.006	560.12
594.215	587.12
594.424	593.12
594.634	580.12
594.843	547.12
595.053	546.12
595.262	510.12
595.472	480.12
595.681	470.12
595.89	475.12
596.1	456.12
596.309	442.12
596.518	443.12
596.727	438.12
596.937	431.12
597.146	417.12
597.355	413.12
597.564	404.12
597.774	400.12
597.983	398.12
598.192	402.12
598.401	402.12
598.61	395.12
598.819	385.12
599.028	390.12
599.237	380.12
599.446	381.12
599.655	380.12
599.864	378.12
600.073	381.12
600.282	369.12
600.491	385.12
600.7	378.12
600.909	374.12
601.118	364.12
601.327	348.12
601.536	358.12
601.745	385.12
601.953	382.12
602.162	389.12
602.371	372.12
602.58	365.12
602.789	374.12
602.997	364.12
603.206	369.12
603.415	369.12
603.623	370.12
603.832	358.12
604.041	353.12
604.249	369.12
604.458	362.12
604.666	350.12
604.875	331.12
605.084	355.12
605.292	348.12
605.501	349.12
605.709	355.12
605.918	357.12
606.126	363.12
606.334	355.12
606.543	358.12
606.751	350.12
606.96	334.12
607.168	356.12
607.376	338.12
607.585	353.12
607.793	356.12
608.001	341.12
608.21	318.12
608.418	317.12
608.626	341.12
608.834	338.12
609.043	333.12
609.251	334.12
609.459	348.12
609.667	345.12
609.875	314.12
610.083	338.12
610.291	342.12
610.499	341.12
610.707	322.12
610.916	320.12
611.124	348.12
611.332	343.12
611.54	339.12
611.748	341.12
611.955	351.12
612.163	333.12
612.371	326.12
612.579	317.12
612.787	328.12
612.995	312.12
613.203	323.12
613.411	324.12
613.618	325.12
613.826	329.12
614.034	326.12
614.242	346.12
614.449	353.12
614.657	336.12
614.865	324.12
615.072	299.12
615.28	315.12
615.488	315.12
615.695	314.12
615.903	328.12
616.111	321.12
616.318	317.12
616.526	319.12
616.733	347.12
616.941	331.12
617.148	316.12
617.356	321.12
617.563	321.12
617.771	326.12
617.978	328.12
618.185	325.12
618.393	314.12
618.6	321.12
618.807	311.12
619.015	331.12
619.222	311.12
619.429	313.12
619.637	317.12
619.844	326.12
620.051	313.12
620.258	318.12
620.466	298.12
620.673	307.12
620.88	287.12
621.087	303.12
621.294	299.12
621.501	294.12
621.708	308.12
621.915	299.12
622.122	303.12
622.329	298.12
622.536	297.12
622.743	265.12
622.95	285.12
623.157	285.12
623.364	294.12
623.571	306.12
623.778	296.12
623.985	296.12
624.192	290.12
624.399	279.12
624.606	287.12
624.812	285.12
625.019	295.12
625.226	287.12
625.433	275.12
625.639	283.12
625.846	267.12
626.053	277.12
626.259	279.12
626.466	278.12
626.673	286.12
626.879	282.12
627.086	272.12
627.293	271.12
627.499	275.12
627.706	282.12
627.912	275.12
628.119	280.12
628.325	277.12
628.532	274.12
628.738	259.12
628.945	277.12
629.151	263.12
629.357	263.12
629.564	273.12
629.77	266.12
629.976	253.12
630.183	263.12
630.389	264.12
630.595	261.12
630.802	247.12
631.008	233.12
631.214	251.12
631.42	257.12
631.627	244.12
631.833	242.12
632.039	241.12
632.245	255.12
632.451	259.12
632.657	237.12
632.863	233.12
633.069	238.12
633.275	247.12
633.481	243.12
633.688	238.12
633.893	249.12
634.099	228.12
634.305	227.12
634.511	233.12
634.717	228.12
634.923	246.12
635.129	235.12
635.335	236.12
635.541	222.12
635.747	218.12
635.952	237.12
636.158	230.12
636.364	241.12
636.57	219.12
636.775	232.12
636.981	229.12
637.187	262.12
637.392	223.12
637.598	229.12
637.804	233.12
638.009	217.12
638.215	242.12
638.421	230.12
638.626	215.12
638.832	233.12
639.037	225.12
639.243	216.12
639.448	243.12
639.654	222.12
639.859	227.12
640.065	222.12
640.27	237.12
640.475	243.12
640.681	218.12
640.886	224.12
641.091	213.12
641.297	208.12
641.502	200.12
641.707	228.12
641.913	218.12
642.118	211.12
642.323	213.12
642.528	226.12
642.733	199.12
642.939	207.12
643.144	209.12
643.349	204.12
643.554	205.12
643.759	214.12
643.964	197.12
644.169	187.12
644.374	197.12
644.579	210.12
644.784	210.12
644.989	211.12
645.194	199.12
645.399	218.12
645.604	215.12
645.809	198.12
646.014	213.12
646.219	199.12
646.423	219.12
646.628	200.12
646.833	206.12
647.038	206.12
647.243	216.12
647.447	211.12
647.652	222.12
647.857	207.12
648.062	215.12
648.266	226.12
648.471	238.12
648.676	214.12
648.88	209.12
649.085	228.12
649.289	212.12
649.494	198.12
649.698	198.12
649.903	200.12
650.107	218.12
650.312	198.12
650.516	194.12
650.721	202.12
650.925	195.12
651.13	182.12
651.334	178.12
651.539	188.12
651.743	180.12
651.947	184.12
652.152	168.12
652.356	174.12
652.56	172.12
652.764	187.12
652.969	189.12
653.173	187.12
653.377	162.12
653.581	177.12
653.785	151.12
653.99	163.12
654.194	155.12
654.398	161.12
654.602	148.12
654.806	172.12
655.01	152.12
655.214	160.12
655.418	164.12
655.622	157.12
655.826	150.12
656.03	174.12
656.234	157.12
656.438	148.12
656.642	142.12
656.846	133.12
657.049	142.12
657.253	136.12
657.457	147.12
657.661	133.12
657.865	138.12
658.068	119.12
658.272	127.12
658.476	125.12
658.68	124.12
658.883	99.12
659.087	110.12
659.291	118.12
659.494	116.12
659.698	133.12
659.901	103.12
660.105	95.12
660.309	102.12
660.512	117.12
660.716	109.12
660.919	98.12
661.123	102.12
661.326	95.12
661.53	96.12
661.733	90.12
661.936	92.12
662.14	73.12
662.343	103.12
662.546	86.12
662.75	82.12
662.953	88.12
663.156	81.12
663.36	70.12
663.563	92.12
663.766	71.12
663.969	90.12
664.173	90.12
664.376	95.12
664.579	84.12
664.782	83.12
664.985	82.12
665.188	85.12
665.391	88.12
665.594	88.12
665.797	75.12
666	83.12
666.203	87.12
666.406	73.12
666.609	74.12
666.812	80.12
667.015	78.12
667.218	99.12
667.421	83.12
667.624	85.12
667.827	100.12
668.03	81.12
668.232	73.12
668.435	90.12
668.638	87.12
668.841	73.12
669.043	88.12
669.246	85.12
669.449	82.12
669.651	82.12
669.854	83.12
670.057	73.12
670.259	83.12
670.462	90.12
670.665	84.12
670.867	94.12
671.07	82.12
671.272	73.12
671.475	85.12
671.677	73.12
671.88	81.12
672.082	90.12
672.284	85.12
672.487	93.12
672.689	84.12
672.892	84.12
