Data from NiCl2@0.25M.TitratingCurve.Agarose3%dH2O.NegLispCup.LampEnergy10.LIBS07252019_HRD10591_18-25-23-627.txt Node
Date: Thu Jul 25 18:25:23 EDT 2019
User: cochatt
Spectrometer: HR+D1059
Trigger mode: 1
Integration Time (sec): 1.000000E-1
Scans to average: 1
Electric dark correction enabled: true
Nonlinearity correction enabled: false
Boxcar width: 0
XAxis mode: Wavelengths
Number of Pixels in Spectrum: 2048
>>>>>Begin Spectral Data<<<<<
223.165	-9.31
223.4	-9.31
223.635	-9.31
223.869	-18.31
224.104	-20.31
224.338	-4.31
224.573	-20.31
224.808	-15.31
225.042	-28.31
225.277	4.69
225.511	-16.31
225.746	-0.31
225.98	11.69
226.215	4.69
226.449	23.69
226.683	27.69
226.918	28.69
227.152	31.69
227.387	32.69
227.621	39.69
227.856	37.69
228.09	46.69
228.324	43.69
228.559	53.69
228.793	78.69
229.027	123.69
229.262	137.69
229.496	139.69
229.73	130.69
229.964	142.69
230.199	163.69
230.433	137.69
230.667	141.69
230.901	153.69
231.136	149.69
231.37	166.69
231.604	163.69
231.838	161.69
232.072	157.69
232.306	159.69
232.541	150.69
232.775	181.69
233.009	179.69
233.243	167.69
233.477	169.69
233.711	181.69
233.945	191.69
234.179	173.69
234.413	177.69
234.647	172.69
234.881	175.69
235.115	173.69
235.349	191.69
235.583	180.69
235.817	179.69
236.051	183.69
236.285	177.69
236.519	188.69
236.753	199.69
236.987	182.69
237.221	181.69
237.455	183.69
237.689	205.69
237.922	199.69
238.156	186.69
238.39	207.69
238.624	197.69
238.858	200.69
239.091	198.69
239.325	207.69
239.559	210.69
239.793	206.69
240.027	199.69
240.26	218.69
240.494	221.69
240.728	202.69
240.961	224.69
241.195	214.69
241.429	218.69
241.662	225.69
241.896	232.69
242.13	239.69
242.363	242.69
242.597	231.69
242.83	221.69
243.064	241.69
243.298	242.69
243.531	242.69
243.765	259.69
243.998	228.69
244.232	253.69
244.465	262.69
244.699	269.69
244.932	254.69
245.166	275.69
245.399	277.69
245.633	246.69
245.866	277.69
246.099	268.69
246.333	277.69
246.566	257.69
246.8	266.69
247.033	268.69
247.266	269.69
247.5	282.69
247.733	286.69
247.966	289.69
248.2	275.69
248.433	281.69
248.666	277.69
248.899	293.69
249.133	291.69
249.366	319.69
249.599	309.69
249.832	312.69
250.066	315.69
250.299	320.69
250.532	317.69
250.765	314.69
250.998	301.69
251.231	305.69
251.465	313.69
251.698	318.69
251.931	333.69
252.164	323.69
252.397	325.69
252.63	338.69
252.863	334.69
253.096	336.69
253.329	321.69
253.562	343.69
253.795	323.69
254.028	357.69
254.261	355.69
254.494	352.69
254.727	331.69
254.96	341.69
255.193	335.69
255.426	332.69
255.659	357.69
255.892	357.69
256.124	376.69
256.357	351.69
256.59	350.69
256.823	357.69
257.056	339.69
257.289	357.69
257.521	347.69
257.754	370.69
257.987	381.69
258.22	381.69
258.452	381.69
258.685	388.69
258.918	381.69
259.151	386.69
259.383	386.69
259.616	380.69
259.849	373.69
260.081	394.69
260.314	405.69
260.547	406.69
260.779	390.69
261.012	407.69
261.244	407.69
261.477	385.69
261.71	397.69
261.942	406.69
262.175	402.69
262.407	409.69
262.64	417.69
262.872	420.69
263.105	431.69
263.337	426.69
263.57	409.69
263.802	424.69
264.035	406.69
264.267	417.69
264.499	446.69
264.732	447.69
264.964	424.69
265.197	453.69
265.429	457.69
265.661	409.69
265.894	436.69
266.126	423.69
266.358	439.69
266.591	443.69
266.823	438.69
267.055	454.69
267.287	451.69
267.52	441.69
267.752	439.69
267.984	443.69
268.216	454.69
268.448	442.69
268.681	462.69
268.913	474.69
269.145	461.69
269.377	474.69
269.609	471.69
269.841	461.69
270.073	459.69
270.306	470.69
270.538	466.69
270.77	474.69
271.002	465.69
271.234	478.69
271.466	492.69
271.698	473.69
271.93	478.69
272.162	478.69
272.394	485.69
272.626	488.69
272.858	480.69
273.09	504.69
273.322	510.69
273.553	507.69
273.785	494.69
274.017	516.69
274.249	503.69
274.481	495.69
274.713	500.69
274.945	510.69
275.176	524.69
275.408	519.69
275.64	506.69
275.872	512.69
276.104	531.69
276.335	528.69
276.567	532.69
276.799	508.69
277.031	519.69
277.262	507.69
277.494	550.69
277.726	533.69
277.957	531.69
278.189	546.69
278.421	542.69
278.652	534.69
278.884	577.69
279.115	571.69
279.347	579.69
279.579	547.69
279.81	557.69
280.042	558.69
280.273	560.69
280.505	568.69
280.736	554.69
280.968	535.69
281.199	565.69
281.431	582.69
281.662	588.69
281.894	581.69
282.125	581.69
282.356	584.69
282.588	595.69
282.819	586.69
283.051	602.69
283.282	568.69
283.513	599.69
283.745	609.69
283.976	590.69
284.207	595.69
284.439	613.69
284.67	609.69
284.901	606.69
285.132	612.69
285.364	610.69
285.595	613.69
285.826	629.69
286.057	629.69
286.288	618.69
286.52	653.69
286.751	649.69
286.982	634.69
287.213	620.69
287.444	641.69
287.675	633.69
287.906	638.69
288.138	650.69
288.369	638.69
288.6	643.69
288.831	628.69
289.062	638.69
289.293	639.69
289.524	667.69
289.755	658.69
289.986	653.69
290.217	637.69
290.448	658.69
290.679	653.69
290.91	655.69
291.141	638.69
291.371	655.69
291.602	662.69
291.833	660.69
292.064	672.69
292.295	649.69
292.526	643.69
292.757	669.69
292.987	654.69
293.218	658.69
293.449	678.69
293.68	670.69
293.91	655.69
294.141	653.69
294.372	671.69
294.603	663.69
294.833	671.69
295.064	672.69
295.295	668.69
295.525	669.69
295.756	696.69
295.987	694.69
296.217	663.69
296.448	669.69
296.679	695.69
296.909	683.69
297.14	685.69
297.37	707.69
297.601	728.69
297.831	726.69
298.062	738.69
298.292	740.69
298.523	749.69
298.753	742.69
298.984	740.69
299.214	742.69
299.445	717.69
299.675	697.69
299.905	734.69
300.136	729.69
300.366	741.69
300.597	741.69
300.827	743.69
301.057	769.69
301.288	753.69
301.518	747.69
301.748	782.69
301.979	757.69
302.209	771.69
302.439	742.69
302.669	742.69
302.9	759.69
303.13	748.69
303.36	758.69
303.59	737.69
303.82	731.69
304.051	746.69
304.281	744.69
304.511	720.69
304.741	761.69
304.971	771.69
305.201	771.69
305.431	742.69
305.661	743.69
305.891	706.69
306.121	725.69
306.352	733.69
306.582	748.69
306.812	723.69
307.042	725.69
307.272	719.69
307.502	734.69
307.731	732.69
307.961	716.69
308.191	742.69
308.421	732.69
308.651	735.69
308.881	718.69
309.111	759.69
309.341	714.69
309.571	755.69
309.8	760.69
310.03	755.69
310.26	738.69
310.49	734.69
310.72	742.69
310.949	747.69
311.179	781.69
311.409	753.69
311.639	773.69
311.868	752.69
312.098	762.69
312.328	785.69
312.557	770.69
312.787	753.69
313.017	788.69
313.246	773.69
313.476	793.69
313.706	801.69
313.935	770.69
314.165	819.69
314.394	789.69
314.624	803.69
314.853	803.69
315.083	793.69
315.312	811.69
315.542	768.69
315.771	780.69
316.001	789.69
316.23	781.69
316.46	784.69
316.689	791.69
316.919	774.69
317.148	774.69
317.377	771.69
317.607	763.69
317.836	777.69
318.065	758.69
318.295	769.69
318.524	763.69
318.753	765.69
318.983	766.69
319.212	777.69
319.441	747.69
319.67	769.69
319.9	773.69
320.129	759.69
320.358	786.69
320.587	765.69
320.816	749.69
321.046	760.69
321.275	778.69
321.504	787.69
321.733	786.69
321.962	790.69
322.191	780.69
322.42	799.69
322.649	777.69
322.878	801.69
323.108	791.69
323.337	797.69
323.566	813.69
323.795	810.69
324.024	798.69
324.253	810.69
324.482	805.69
324.71	818.69
324.939	805.69
325.168	812.69
325.397	805.69
325.626	842.69
325.855	823.69
326.084	839.69
326.313	845.69
326.542	852.69
326.77	859.69
326.999	845.69
327.228	817.69
327.457	841.69
327.686	832.69
327.914	844.69
328.143	837.69
328.372	852.69
328.6	857.69
328.829	857.69
329.058	848.69
329.287	862.69
329.515	859.69
329.744	886.69
329.972	905.69
330.201	873.69
330.43	891.69
330.658	888.69
330.887	903.69
331.115	867.69
331.344	906.69
331.572	897.69
331.801	932.69
332.03	931.69
332.258	980.69
332.486	958.69
332.715	1010.69
332.943	1063.69
333.172	1087.69
333.4	1117.69
333.629	1148.69
333.857	1173.69
334.085	1164.69
334.314	1141.69
334.542	1138.69
334.771	1097.69
334.999	1108.69
335.227	1077.69
335.455	1080.69
335.684	1070.69
335.912	1043.69
336.14	1035.69
336.369	1062.69
336.597	1060.69
336.825	1020.69
337.053	1033.69
337.281	1014.69
337.51	981.69
337.738	966.69
337.966	955.69
338.194	924.69
338.422	907.69
338.65	942.69
338.878	929.69
339.106	957.69
339.334	945.69
339.562	921.69
339.79	913.69
340.018	887.69
340.246	875.69
340.474	898.69
340.702	881.69
340.93	907.69
341.158	879.69
341.386	917.69
341.614	893.69
341.842	907.69
342.07	884.69
342.298	898.69
342.526	891.69
342.754	887.69
342.981	890.69
343.209	898.69
343.437	966.69
343.665	999.69
343.893	1056.69
344.12	1102.69
344.348	1045.69
344.576	997.69
344.804	957.69
345.031	903.69
345.259	898.69
345.487	914.69
345.714	908.69
345.942	873.69
346.17	868.69
346.397	889.69
346.625	859.69
346.853	854.69
347.08	872.69
347.308	850.69
347.535	860.69
347.763	857.69
347.99	862.69
348.218	871.69
348.445	889.69
348.673	855.69
348.9	861.69
349.128	895.69
349.355	872.69
349.583	829.69
349.81	833.69
350.037	847.69
350.265	815.69
350.492	833.69
350.72	819.69
350.947	834.69
351.174	807.69
351.402	813.69
351.629	837.69
351.856	822.69
352.083	833.69
352.311	822.69
352.538	821.69
352.765	832.69
352.992	817.69
353.22	801.69
353.447	807.69
353.674	828.69
353.901	834.69
354.128	809.69
354.355	797.69
354.583	822.69
354.81	807.69
355.037	832.69
355.264	819.69
355.491	833.69
355.718	813.69
355.945	826.69
356.172	828.69
356.399	838.69
356.626	837.69
356.853	830.69
357.08	809.69
357.307	846.69
357.534	836.69
357.761	818.69
357.988	840.69
358.215	817.69
358.441	817.69
358.668	833.69
358.895	836.69
359.122	819.69
359.349	857.69
359.576	838.69
359.802	843.69
360.029	833.69
360.256	821.69
360.483	832.69
360.709	835.69
360.936	823.69
361.163	838.69
361.39	819.69
361.616	823.69
361.843	839.69
362.07	826.69
362.296	828.69
362.523	841.69
362.749	833.69
362.976	819.69
363.203	833.69
363.429	817.69
363.656	838.69
363.882	829.69
364.109	824.69
364.335	818.69
364.562	830.69
364.788	829.69
365.015	845.69
365.241	811.69
365.468	827.69
365.694	847.69
365.92	813.69
366.147	813.69
366.373	837.69
366.599	831.69
366.826	825.69
367.052	797.69
367.278	827.69
367.505	801.69
367.731	821.69
367.957	841.69
368.184	820.69
368.41	819.69
368.636	838.69
368.862	855.69
369.089	830.69
369.315	836.69
369.541	859.69
369.767	847.69
369.993	860.69
370.219	839.69
370.445	867.69
370.672	853.69
370.898	866.69
371.124	885.69
371.35	913.69
371.576	927.69
371.802	921.69
372.028	890.69
372.254	914.69
372.48	933.69
372.706	948.69
372.932	925.69
373.158	924.69
373.384	920.69
373.61	929.69
373.835	909.69
374.061	891.69
374.287	918.69
374.513	927.69
374.739	961.69
374.965	990.69
375.191	1012.69
375.416	980.69
375.642	956.69
375.868	958.69
376.094	942.69
376.319	921.69
376.545	895.69
376.771	922.69
376.997	899.69
377.222	896.69
377.448	879.69
377.674	894.69
377.899	874.69
378.125	894.69
378.35	881.69
378.576	873.69
378.802	895.69
379.027	883.69
379.253	889.69
379.478	891.69
379.704	907.69
379.929	900.69
380.155	892.69
380.38	888.69
380.606	906.69
380.831	875.69
381.057	881.69
381.282	901.69
381.507	895.69
381.733	887.69
381.958	885.69
382.184	904.69
382.409	935.69
382.634	939.69
382.86	938.69
383.085	934.69
383.31	953.69
383.535	981.69
383.761	979.69
383.986	993.69
384.211	1007.69
384.436	1053.69
384.662	1051.69
384.887	1073.69
385.112	1091.69
385.337	1093.69
385.562	1084.69
385.787	1101.69
386.013	1101.69
386.238	1117.69
386.463	1085.69
386.688	1101.69
386.913	1071.69
387.138	1071.69
387.363	1064.69
387.588	1032.69
387.813	1105.69
388.038	1074.69
388.263	1090.69
388.488	1063.69
388.713	1086.69
388.938	1068.69
389.163	1086.69
389.387	1049.69
389.612	1078.69
389.837	1041.69
390.062	1049.69
390.287	1051.69
390.512	1062.69
390.736	1104.69
390.961	1074.69
391.186	1086.69
391.411	1126.69
391.636	1172.69
391.86	1203.69
392.085	1244.69
392.31	1245.69
392.534	1209.69
392.759	1179.69
392.984	1141.69
393.208	1153.69
393.433	1129.69
393.658	1135.69
393.882	1151.69
394.107	1191.69
394.331	1174.69
394.556	1123.69
394.78	1181.69
395.005	1177.69
395.229	1192.69
395.454	1225.69
395.678	1218.69
395.903	1225.69
396.127	1217.69
396.352	1197.69
396.576	1177.69
396.801	1172.69
397.025	1167.69
397.249	1169.69
397.474	1224.69
397.698	1236.69
397.922	1231.69
398.147	1230.69
398.371	1292.69
398.595	1286.69
398.82	1374.69
399.044	1452.69
399.268	1582.69
399.492	1842.69
399.717	2059.69
399.941	2062.69
400.165	1894.69
400.389	1686.69
400.613	1565.69
400.837	1493.69
401.062	1439.69
401.286	1368.69
401.51	1386.69
401.734	1381.69
401.958	1383.69
402.182	1407.69
402.406	1431.69
402.63	1405.69
402.854	1453.69
403.078	1480.69
403.302	1499.69
403.526	1554.69
403.75	1534.69
403.974	1574.69
404.198	1602.69
404.422	1567.69
404.645	1586.69
404.869	1569.69
405.093	1540.69
405.317	1521.69
405.541	1516.69
405.765	1499.69
405.988	1477.69
406.212	1501.69
406.436	1509.69
406.66	1542.69
406.883	1575.69
407.107	1662.69
407.331	1724.69
407.555	1795.69
407.778	1777.69
408.002	1778.69
408.226	1705.69
408.449	1654.69
408.673	1587.69
408.896	1573.69
409.12	1517.69
409.344	1550.69
409.567	1507.69
409.791	1559.69
410.014	1533.69
410.238	1507.69
410.461	1530.69
410.685	1505.69
410.908	1456.69
411.132	1445.69
411.355	1374.69
411.578	1443.69
411.802	1401.69
412.025	1420.69
412.249	1446.69
412.472	1447.69
412.695	1405.69
412.919	1359.69
413.142	1379.69
413.365	1332.69
413.589	1372.69
413.812	1334.69
414.035	1349.69
414.258	1361.69
414.482	1373.69
414.705	1399.69
414.928	1369.69
415.151	1398.69
415.374	1375.69
415.597	1355.69
415.821	1330.69
416.044	1341.69
416.267	1286.69
416.49	1317.69
416.713	1323.69
416.936	1323.69
417.159	1345.69
417.382	1319.69
417.605	1308.69
417.828	1333.69
418.051	1320.69
418.274	1366.69
418.497	1335.69
418.72	1394.69
418.943	1384.69
419.166	1473.69
419.389	1573.69
419.611	1529.69
419.834	1467.69
420.057	1417.69
420.28	1356.69
420.503	1306.69
420.726	1338.69
420.948	1345.69
421.171	1324.69
421.394	1325.69
421.617	1315.69
421.839	1375.69
422.062	1351.69
422.285	1311.69
422.507	1363.69
422.73	1358.69
422.953	1340.69
423.175	1393.69
423.398	1412.69
423.621	1365.69
423.843	1401.69
424.066	1398.69
424.288	1412.69
424.511	1407.69
424.733	1359.69
424.956	1401.69
425.178	1363.69
425.401	1351.69
425.623	1361.69
425.846	1313.69
426.068	1326.69
426.291	1303.69
426.513	1306.69
426.735	1294.69
426.958	1265.69
427.18	1207.69
427.402	1210.69
427.625	1236.69
427.847	1174.69
428.069	1210.69
428.292	1201.69
428.514	1168.69
428.736	1209.69
428.958	1193.69
429.181	1167.69
429.403	1149.69
429.625	1151.69
429.847	1159.69
430.069	1127.69
430.292	1139.69
430.514	1149.69
430.736	1169.69
430.958	1156.69
431.18	1186.69
431.402	1155.69
431.624	1172.69
431.846	1166.69
432.068	1177.69
432.29	1249.69
432.512	1174.69
432.734	1211.69
432.956	1174.69
433.178	1175.69
433.4	1158.69
433.622	1201.69
433.844	1214.69
434.066	1260.69
434.287	1217.69
434.509	1242.69
434.731	1308.69
434.953	1322.69
435.175	1336.69
435.397	1332.69
435.618	1261.69
435.84	1235.69
436.062	1198.69
436.284	1227.69
436.505	1155.69
436.727	1191.69
436.949	1186.69
437.17	1197.69
437.392	1159.69
437.614	1175.69
437.835	1121.69
438.057	1101.69
438.278	1117.69
438.5	1160.69
438.721	1101.69
438.943	1154.69
439.165	1131.69
439.386	1148.69
439.608	1175.69
439.829	1173.69
440.05	1184.69
440.272	1198.69
440.493	1183.69
440.715	1192.69
440.936	1194.69
441.158	1206.69
441.379	1265.69
441.6	1310.69
441.822	1353.69
442.043	1329.69
442.264	1346.69
442.486	1307.69
442.707	1337.69
442.928	1318.69
443.149	1335.69
443.371	1295.69
443.592	1315.69
443.813	1314.69
444.034	1335.69
444.255	1386.69
444.476	1453.69
444.698	1508.69
444.919	1575.69
445.14	1656.69
445.361	1502.69
445.582	1399.69
445.803	1291.69
446.024	1283.69
446.245	1224.69
446.466	1228.69
446.687	1159.69
446.908	1175.69
447.129	1165.69
447.35	1153.69
447.571	1136.69
447.792	1117.69
448.013	1092.69
448.234	1084.69
448.455	1096.69
448.675	1070.69
448.896	1065.69
449.117	1061.69
449.338	1049.69
449.559	1051.69
449.779	1080.69
450	1059.69
450.221	1072.69
450.442	1062.69
450.662	1092.69
450.883	1094.69
451.104	1112.69
451.324	1095.69
451.545	1106.69
451.766	1105.69
451.986	1062.69
452.207	1065.69
452.428	1062.69
452.648	1082.69
452.869	1051.69
453.089	1046.69
453.31	1086.69
453.53	1036.69
453.751	1045.69
453.971	1046.69
454.192	1042.69
454.412	1016.69
454.633	1008.69
454.853	1032.69
455.073	1002.69
455.294	1011.69
455.514	987.69
455.734	983.69
455.955	967.69
456.175	1007.69
456.395	1003.69
456.616	984.69
456.836	998.69
457.056	980.69
457.276	1005.69
457.497	1003.69
457.717	1037.69
457.937	1012.69
458.157	1036.69
458.377	1036.69
458.598	1078.69
458.818	1109.69
459.038	1121.69
459.258	1150.69
459.478	1208.69
459.698	1231.69
459.918	1271.69
460.138	1331.69
460.358	1370.69
460.578	1393.69
460.798	1405.69
461.018	1395.69
461.238	1415.69
461.458	1374.69
461.678	1368.69
461.898	1430.69
462.118	1415.69
462.338	1521.69
462.558	1568.69
462.777	1621.69
462.997	1697.69
463.217	1846.69
463.437	1862.69
463.657	1731.69
463.876	1677.69
464.096	1662.69
464.316	1640.69
464.536	1667.69
464.755	1582.69
464.975	1505.69
465.195	1440.69
465.414	1367.69
465.634	1301.69
465.854	1254.69
466.073	1203.69
466.293	1221.69
466.512	1169.69
466.732	1156.69
466.951	1161.69
467.171	1126.69
467.391	1123.69
467.61	1122.69
467.829	1106.69
468.049	1099.69
468.268	1092.69
468.488	1109.69
468.707	1081.69
468.927	1073.69
469.146	1090.69
469.365	1097.69
469.585	1115.69
469.804	1120.69
470.023	1177.69
470.243	1149.69
470.462	1166.69
470.681	1166.69
470.901	1174.69
471.12	1163.69
471.339	1148.69
471.558	1123.69
471.777	1125.69
471.997	1112.69
472.216	1094.69
472.435	1086.69
472.654	1106.69
472.873	1052.69
473.092	1062.69
473.311	1054.69
473.53	1034.69
473.749	1087.69
473.968	1063.69
474.187	1046.69
474.406	1048.69
474.625	1033.69
474.844	1065.69
475.063	1078.69
475.282	1039.69
475.501	1073.69
475.72	1066.69
475.939	1057.69
476.158	1070.69
476.377	1101.69
476.596	1088.69
476.814	1117.69
477.033	1139.69
477.252	1159.69
477.471	1181.69
477.69	1171.69
477.908	1224.69
478.127	1254.69
478.346	1261.69
478.564	1334.69
478.783	1347.69
479.002	1342.69
479.22	1335.69
479.439	1343.69
479.658	1313.69
479.876	1352.69
480.095	1337.69
480.313	1407.69
480.532	1420.69
480.751	1431.69
480.969	1370.69
481.188	1295.69
481.406	1299.69
481.624	1265.69
481.843	1215.69
482.061	1234.69
482.28	1198.69
482.498	1201.69
482.717	1212.69
482.935	1237.69
483.153	1213.69
483.372	1205.69
483.59	1213.69
483.808	1217.69
484.027	1185.69
484.245	1226.69
484.463	1188.69
484.681	1226.69
484.9	1253.69
485.118	1256.69
485.336	1293.69
485.554	1260.69
485.772	1297.69
485.99	1265.69
486.209	1289.69
486.427	1310.69
486.645	1297.69
486.863	1267.69
487.081	1286.69
487.299	1259.69
487.517	1255.69
487.735	1259.69
487.953	1281.69
488.171	1296.69
488.389	1266.69
488.607	1228.69
488.825	1238.69
489.043	1231.69
489.261	1252.69
489.479	1242.69
489.696	1237.69
489.914	1267.69
490.132	1262.69
490.35	1288.69
490.568	1289.69
490.786	1245.69
491.003	1262.69
491.221	1256.69
491.439	1290.69
491.657	1309.69
491.874	1258.69
492.092	1306.69
492.31	1313.69
492.527	1287.69
492.745	1294.69
492.963	1304.69
493.18	1303.69
493.398	1317.69
493.615	1325.69
493.833	1335.69
494.05	1331.69
494.268	1339.69
494.485	1377.69
494.703	1371.69
494.92	1386.69
495.138	1323.69
495.355	1359.69
495.573	1354.69
495.79	1347.69
496.008	1421.69
496.225	1409.69
496.442	1417.69
496.66	1386.69
496.877	1447.69
497.094	1451.69
497.312	1493.69
497.529	1526.69
497.746	1555.69
497.963	1626.69
498.181	1699.69
498.398	1752.69
498.615	1910.69
498.832	2003.69
499.049	2141.69
499.267	2345.69
499.484	2552.69
499.701	2811.69
499.918	3155.69
500.135	3528.69
500.352	3971.69
500.569	4246.69
500.786	4171.69
501.003	3851.69
501.22	3587.69
501.437	3122.69
501.654	2771.69
501.871	2475.69
502.088	2299.69
502.305	2147.69
502.522	2005.69
502.739	1921.69
502.956	1812.69
503.172	1746.69
503.389	1666.69
503.606	1628.69
503.823	1589.69
504.04	1561.69
504.256	1619.69
504.473	1595.69
504.69	1643.69
504.907	1635.69
505.123	1510.69
505.34	1446.69
505.557	1366.69
505.773	1345.69
505.99	1334.69
506.207	1283.69
506.423	1257.69
506.64	1253.69
506.856	1225.69
507.073	1201.69
507.289	1204.69
507.506	1212.69
507.722	1197.69
507.939	1145.69
508.155	1166.69
508.372	1150.69
508.588	1177.69
508.805	1139.69
509.021	1125.69
509.238	1139.69
509.454	1148.69
509.67	1131.69
509.887	1117.69
510.103	1099.69
510.319	1103.69
510.536	1097.69
510.752	1086.69
510.968	1099.69
511.184	1075.69
511.401	1091.69
511.617	1071.69
511.833	1077.69
512.049	1079.69
512.265	1058.69
512.481	1085.69
512.698	1067.69
512.914	1073.69
513.13	1090.69
513.346	1085.69
513.562	1103.69
513.778	1110.69
513.994	1095.69
514.21	1118.69
514.426	1103.69
514.642	1113.69
514.858	1119.69
515.074	1148.69
515.29	1141.69
515.506	1137.69
515.721	1176.69
515.937	1173.69
516.153	1210.69
516.369	1239.69
516.585	1273.69
516.801	1277.69
517.016	1340.69
517.232	1410.69
517.448	1479.69
517.664	1533.69
517.879	1530.69
518.095	1545.69
518.311	1515.69
518.527	1436.69
518.742	1412.69
518.958	1365.69
519.173	1291.69
519.389	1235.69
519.605	1194.69
519.82	1166.69
520.036	1166.69
520.251	1131.69
520.467	1126.69
520.682	1122.69
520.898	1098.69
521.113	1103.69
521.329	1084.69
521.544	1051.69
521.76	1050.69
521.975	1061.69
522.19	1031.69
522.406	1031.69
522.621	1025.69
522.836	1058.69
523.052	1017.69
523.267	1006.69
523.482	1020.69
523.698	998.69
523.913	1015.69
524.128	1003.69
524.343	998.69
524.559	999.69
524.774	996.69
524.989	1003.69
525.204	1009.69
525.419	969.69
525.634	976.69
525.849	1006.69
526.064	994.69
526.28	1025.69
526.495	958.69
526.71	973.69
526.925	993.69
527.14	973.69
527.355	995.69
527.57	977.69
527.785	976.69
527.999	950.69
528.214	1000.69
528.429	961.69
528.644	972.69
528.859	968.69
529.074	962.69
529.289	978.69
529.503	995.69
529.718	971.69
529.933	951.69
530.148	958.69
530.363	988.69
530.577	968.69
530.792	992.69
531.007	955.69
531.221	973.69
531.436	959.69
531.651	941.69
531.865	953.69
532.08	977.69
532.295	990.69
532.509	989.69
532.724	984.69
532.938	1006.69
533.153	971.69
533.367	961.69
533.582	976.69
533.796	973.69
534.011	950.69
534.225	941.69
534.44	933.69
534.654	970.69
534.868	955.69
535.083	937.69
535.297	925.69
535.511	921.69
535.726	929.69
535.94	925.69
536.154	936.69
536.369	904.69
536.583	925.69
536.797	922.69
537.011	898.69
537.225	892.69
537.44	903.69
537.654	898.69
537.868	907.69
538.082	884.69
538.296	903.69
538.51	891.69
538.724	902.69
538.938	882.69
539.153	881.69
539.367	896.69
539.581	874.69
539.795	885.69
540.009	885.69
540.222	837.69
540.436	864.69
540.65	842.69
540.864	843.69
541.078	855.69
541.292	857.69
541.506	866.69
541.72	863.69
541.934	848.69
542.147	884.69
542.361	863.69
542.575	831.69
542.789	839.69
543.002	845.69
543.216	850.69
543.43	857.69
543.644	836.69
543.857	885.69
544.071	825.69
544.285	869.69
544.498	867.69
544.712	881.69
544.925	899.69
545.139	894.69
545.352	904.69
545.566	892.69
545.779	880.69
545.993	885.69
546.206	889.69
546.42	895.69
546.633	918.69
546.847	897.69
547.06	905.69
547.274	892.69
547.487	866.69
547.7	889.69
547.914	897.69
548.127	895.69
548.34	911.69
548.554	896.69
548.767	890.69
548.98	902.69
549.193	919.69
549.407	907.69
549.62	886.69
549.833	906.69
550.046	926.69
550.259	894.69
550.473	864.69
550.686	887.69
550.899	896.69
551.112	873.69
551.325	878.69
551.538	887.69
551.751	853.69
551.964	884.69
552.177	905.69
552.39	889.69
552.603	918.69
552.816	925.69
553.029	958.69
553.242	957.69
553.455	977.69
553.667	983.69
553.88	957.69
554.093	946.69
554.306	903.69
554.519	914.69
554.732	886.69
554.944	852.69
555.157	862.69
555.37	827.69
555.583	830.69
555.795	804.69
556.008	792.69
556.221	791.69
556.433	799.69
556.646	797.69
556.859	778.69
557.071	783.69
557.284	777.69
557.496	745.69
557.709	761.69
557.921	745.69
558.134	743.69
558.346	749.69
558.559	740.69
558.771	735.69
558.984	713.69
559.196	742.69
559.409	733.69
559.621	709.69
559.833	745.69
560.046	734.69
560.258	746.69
560.47	722.69
560.683	736.69
560.895	707.69
561.107	723.69
561.32	730.69
561.532	733.69
561.744	721.69
561.956	720.69
562.168	742.69
562.381	713.69
562.593	743.69
562.805	732.69
563.017	744.69
563.229	733.69
563.441	717.69
563.653	739.69
563.865	738.69
564.077	779.69
564.289	750.69
564.501	777.69
564.713	761.69
564.925	793.69
565.137	808.69
565.349	824.69
565.561	837.69
565.773	857.69
565.985	892.69
566.197	961.69
566.408	1033.69
566.62	1103.69
566.832	1204.69
567.044	1193.69
567.255	1244.69
567.467	1281.69
567.679	1348.69
567.891	1412.69
568.102	1397.69
568.314	1326.69
568.526	1213.69
568.737	1117.69
568.949	1049.69
569.161	949.69
569.372	892.69
569.584	856.69
569.795	817.69
570.007	807.69
570.218	771.69
570.43	773.69
570.641	769.69
570.853	761.69
571.064	756.69
571.276	747.69
571.487	741.69
571.698	715.69
571.91	690.69
572.121	673.69
572.333	655.69
572.544	649.69
572.755	630.69
572.966	619.69
573.178	640.69
573.389	627.69
573.6	610.69
573.811	596.69
574.023	612.69
574.234	614.69
574.445	596.69
574.656	595.69
574.867	618.69
575.078	619.69
575.289	596.69
575.501	573.69
575.712	577.69
575.923	595.69
576.134	574.69
576.345	569.69
576.556	592.69
576.767	559.69
576.978	579.69
577.188	567.69
577.399	544.69
577.61	551.69
577.821	540.69
578.032	520.69
578.243	526.69
578.454	540.69
578.665	538.69
578.875	541.69
579.086	533.69
579.297	500.69
579.508	517.69
579.718	539.69
579.929	528.69
580.14	539.69
580.35	529.69
580.561	492.69
580.772	498.69
580.982	523.69
581.193	507.69
581.403	515.69
581.614	508.69
581.825	512.69
582.035	517.69
582.246	517.69
582.456	481.69
582.667	488.69
582.877	503.69
583.087	491.69
583.298	490.69
583.508	504.69
583.719	480.69
583.929	514.69
584.139	493.69
584.35	485.69
584.56	495.69
584.77	489.69
584.981	478.69
585.191	481.69
585.401	477.69
585.611	484.69
585.821	488.69
586.032	471.69
586.242	484.69
586.452	459.69
586.662	464.69
586.872	492.69
587.082	466.69
587.292	474.69
587.502	476.69
587.713	476.69
587.923	474.69
588.133	470.69
588.343	471.69
588.553	481.69
588.762	460.69
588.972	472.69
589.182	483.69
589.392	495.69
589.602	510.69
589.812	491.69
590.022	487.69
590.232	485.69
590.441	483.69
590.651	483.69
590.861	498.69
591.071	490.69
591.281	502.69
591.49	499.69
591.7	501.69
591.91	524.69
592.119	528.69
592.329	513.69
592.539	537.69
592.748	568.69
592.958	585.69
593.167	587.69
593.377	607.69
593.587	614.69
593.796	619.69
594.006	633.69
594.215	625.69
594.424	625.69
594.634	607.69
594.843	588.69
595.053	567.69
595.262	539.69
595.472	538.69
595.681	515.69
595.89	483.69
596.1	490.69
596.309	497.69
596.518	476.69
596.727	466.69
596.937	456.69
597.146	444.69
597.355	459.69
597.564	434.69
597.774	410.69
597.983	411.69
598.192	403.69
598.401	416.69
598.61	414.69
598.819	403.69
599.028	399.69
599.237	416.69
599.446	391.69
599.655	416.69
599.864	416.69
600.073	406.69
600.282	418.69
600.491	386.69
600.7	413.69
600.909	393.69
601.118	418.69
601.327	389.69
601.536	395.69
601.745	389.69
601.953	371.69
602.162	382.69
602.371	374.69
602.58	378.69
602.789	382.69
602.997	373.69
603.206	372.69
603.415	377.69
603.623	379.69
603.832	379.69
604.041	371.69
604.249	390.69
604.458	393.69
604.666	368.69
604.875	375.69
605.084	378.69
605.292	383.69
605.501	363.69
605.709	365.69
605.918	378.69
606.126	367.69
606.334	364.69
606.543	383.69
606.751	358.69
606.96	341.69
607.168	367.69
607.376	342.69
607.585	358.69
607.793	378.69
608.001	367.69
608.21	349.69
608.418	343.69
608.626	358.69
608.834	353.69
609.043	355.69
609.251	365.69
609.459	350.69
609.667	369.69
609.875	364.69
610.083	353.69
610.291	345.69
610.499	355.69
610.707	342.69
610.916	325.69
611.124	331.69
611.332	340.69
611.54	344.69
611.748	321.69
611.955	346.69
612.163	333.69
612.371	326.69
612.579	323.69
612.787	326.69
612.995	336.69
613.203	345.69
613.411	332.69
613.618	327.69
613.826	342.69
614.034	337.69
614.242	343.69
614.449	339.69
614.657	314.69
614.865	337.69
615.072	321.69
615.28	322.69
615.488	334.69
615.695	350.69
615.903	327.69
616.111	343.69
616.318	359.69
616.526	333.69
616.733	334.69
616.941	343.69
617.148	328.69
617.356	319.69
617.563	327.69
617.771	331.69
617.978	329.69
618.185	341.69
618.393	332.69
618.6	325.69
618.807	346.69
619.015	335.69
619.222	327.69
619.429	324.69
619.637	340.69
619.844	333.69
620.051	345.69
620.258	331.69
620.466	317.69
620.673	313.69
620.88	307.69
621.087	309.69
621.294	313.69
621.501	327.69
621.708	325.69
621.915	306.69
622.122	307.69
622.329	311.69
622.536	314.69
622.743	303.69
622.95	305.69
623.157	309.69
623.364	294.69
623.571	305.69
623.778	297.69
623.985	305.69
624.192	307.69
624.399	275.69
624.606	286.69
624.812	292.69
625.019	306.69
625.226	297.69
625.433	301.69
625.639	293.69
625.846	284.69
626.053	306.69
626.259	283.69
626.466	287.69
626.673	290.69
626.879	271.69
627.086	286.69
627.293	273.69
627.499	282.69
627.706	280.69
627.912	281.69
628.119	274.69
628.325	268.69
628.532	283.69
628.738	293.69
628.945	293.69
629.151	291.69
629.357	270.69
629.564	260.69
629.77	261.69
629.976	271.69
630.183	276.69
630.389	269.69
630.595	271.69
630.802	258.69
631.008	275.69
631.214	246.69
631.42	269.69
631.627	263.69
631.833	255.69
632.039	245.69
632.245	245.69
632.451	254.69
632.657	252.69
632.863	244.69
633.069	262.69
633.275	258.69
633.481	239.69
633.688	253.69
633.893	265.69
634.099	261.69
634.305	252.69
634.511	250.69
634.717	239.69
634.923	239.69
635.129	243.69
635.335	255.69
635.541	234.69
635.747	234.69
635.952	230.69
636.158	249.69
636.364	247.69
636.57	235.69
636.775	244.69
636.981	238.69
637.187	230.69
637.392	246.69
637.598	252.69
637.804	239.69
638.009	238.69
638.215	220.69
638.421	225.69
638.626	236.69
638.832	239.69
639.037	232.69
639.243	220.69
639.448	229.69
639.654	234.69
639.859	229.69
640.065	222.69
640.27	229.69
640.475	248.69
640.681	211.69
640.886	226.69
641.091	198.69
641.297	226.69
641.502	212.69
641.707	213.69
641.913	214.69
642.118	210.69
642.323	220.69
642.528	220.69
642.733	211.69
642.939	200.69
643.144	217.69
643.349	219.69
643.554	225.69
643.759	230.69
643.964	217.69
644.169	207.69
644.374	206.69
644.579	214.69
644.784	205.69
644.989	207.69
645.194	208.69
645.399	213.69
645.604	205.69
645.809	214.69
646.014	213.69
646.219	213.69
646.423	214.69
646.628	199.69
646.833	208.69
647.038	221.69
647.243	206.69
647.447	233.69
647.652	222.69
647.857	206.69
648.062	230.69
648.266	230.69
648.471	223.69
648.676	239.69
648.88	214.69
649.085	207.69
649.289	199.69
649.494	210.69
649.698	210.69
649.903	198.69
650.107	197.69
650.312	201.69
650.516	205.69
650.721	190.69
650.925	178.69
651.13	188.69
651.334	187.69
651.539	177.69
651.743	192.69
651.947	173.69
652.152	168.69
652.356	178.69
652.56	173.69
652.764	172.69
652.969	168.69
653.173	170.69
653.377	166.69
653.581	158.69
653.785	157.69
653.99	172.69
654.194	171.69
654.398	165.69
654.602	142.69
654.806	147.69
655.01	165.69
655.214	167.69
655.418	159.69
655.622	158.69
655.826	151.69
656.03	173.69
656.234	156.69
656.438	160.69
656.642	153.69
656.846	146.69
657.049	141.69
657.253	147.69
657.457	137.69
657.661	127.69
657.865	128.69
658.068	129.69
658.272	126.69
658.476	129.69
658.68	125.69
658.883	115.69
659.087	114.69
659.291	99.69
659.494	109.69
659.698	108.69
659.901	103.69
660.105	113.69
660.309	106.69
660.512	92.69
660.716	92.69
660.919	104.69
661.123	108.69
661.326	97.69
661.53	83.69
661.733	85.69
661.936	83.69
662.14	101.69
662.343	82.69
662.546	88.69
662.75	82.69
662.953	95.69
663.156	84.69
663.36	97.69
663.563	79.69
663.766	105.69
663.969	78.69
664.173	78.69
664.376	93.69
664.579	90.69
664.782	100.69
664.985	85.69
665.188	77.69
665.391	79.69
665.594	80.69
665.797	86.69
666	78.69
666.203	93.69
666.406	71.69
666.609	81.69
666.812	90.69
667.015	86.69
667.218	63.69
667.421	83.69
667.624	85.69
667.827	92.69
668.03	90.69
668.232	91.69
668.435	94.69
668.638	89.69
668.841	85.69
669.043	95.69
669.246	88.69
669.449	85.69
669.651	82.69
669.854	85.69
670.057	78.69
670.259	85.69
670.462	91.69
670.665	89.69
670.867	74.69
671.07	85.69
671.272	84.69
671.475	79.69
671.677	93.69
671.88	62.69
672.082	76.69
672.284	95.69
672.487	77.69
672.689	92.69
672.892	67.69
