Data from NiCl2@0.5M.TitratingCurve.Agarose3%dH2O.NegLispCup.LampEnergy10.LIBS07252019_HRD10591_18-19-24-572.txt Node
Date: Thu Jul 25 18:19:24 EDT 2019
User: cochatt
Spectrometer: HR+D1059
Trigger mode: 1
Integration Time (sec): 1.000000E-1
Scans to average: 1
Electric dark correction enabled: true
Nonlinearity correction enabled: false
Boxcar width: 0
XAxis mode: Wavelengths
Number of Pixels in Spectrum: 2048
>>>>>Begin Spectral Data<<<<<
223.165	-12.62
223.4	-12.62
223.635	-12.62
223.869	-12.62
224.104	-22.62
224.338	-11.62
224.573	-18.62
224.808	-19.62
225.042	-7.62
225.277	0.38
225.511	3.38
225.746	5.38
225.98	-5.62
226.215	-3.62
226.449	30.38
226.683	25.38
226.918	32.38
227.152	17.38
227.387	23.38
227.621	21.38
227.856	50.38
228.09	48.38
228.324	57.38
228.559	41.38
228.793	66.38
229.027	96.38
229.262	119.38
229.496	116.38
229.73	112.38
229.964	129.38
230.199	122.38
230.433	129.38
230.667	140.38
230.901	135.38
231.136	143.38
231.37	127.38
231.604	133.38
231.838	145.38
232.072	150.38
232.306	151.38
232.541	155.38
232.775	134.38
233.009	130.38
233.243	130.38
233.477	137.38
233.711	157.38
233.945	148.38
234.179	136.38
234.413	159.38
234.647	143.38
234.881	143.38
235.115	155.38
235.349	144.38
235.583	159.38
235.817	153.38
236.051	148.38
236.285	154.38
236.519	147.38
236.753	150.38
236.987	166.38
237.221	144.38
237.455	154.38
237.689	157.38
237.922	168.38
238.156	156.38
238.39	157.38
238.624	164.38
238.858	146.38
239.091	155.38
239.325	167.38
239.559	183.38
239.793	183.38
240.027	172.38
240.26	169.38
240.494	165.38
240.728	168.38
240.961	172.38
241.195	174.38
241.429	184.38
241.662	182.38
241.896	198.38
242.13	189.38
242.363	190.38
242.597	174.38
242.83	181.38
243.064	175.38
243.298	185.38
243.531	194.38
243.765	201.38
243.998	209.38
244.232	218.38
244.465	199.38
244.699	219.38
244.932	215.38
245.166	206.38
245.399	221.38
245.633	202.38
245.866	209.38
246.099	200.38
246.333	214.38
246.566	207.38
246.8	211.38
247.033	213.38
247.266	211.38
247.5	228.38
247.733	219.38
247.966	215.38
248.2	217.38
248.433	216.38
248.666	229.38
248.899	230.38
249.133	221.38
249.366	244.38
249.599	233.38
249.832	225.38
250.066	249.38
250.299	255.38
250.532	227.38
250.765	236.38
250.998	256.38
251.231	242.38
251.465	253.38
251.698	248.38
251.931	253.38
252.164	256.38
252.397	265.38
252.63	253.38
252.863	263.38
253.096	261.38
253.329	262.38
253.562	259.38
253.795	268.38
254.028	262.38
254.261	260.38
254.494	274.38
254.727	277.38
254.96	250.38
255.193	267.38
255.426	264.38
255.659	271.38
255.892	250.38
256.124	283.38
256.357	284.38
256.59	288.38
256.823	277.38
257.056	274.38
257.289	295.38
257.521	295.38
257.754	281.38
257.987	279.38
258.22	282.38
258.452	296.38
258.685	273.38
258.918	306.38
259.151	307.38
259.383	299.38
259.616	287.38
259.849	308.38
260.081	299.38
260.314	291.38
260.547	296.38
260.779	303.38
261.012	300.38
261.244	325.38
261.477	320.38
261.71	311.38
261.942	313.38
262.175	324.38
262.407	332.38
262.64	329.38
262.872	305.38
263.105	303.38
263.337	319.38
263.57	330.38
263.802	330.38
264.035	336.38
264.267	334.38
264.499	322.38
264.732	336.38
264.964	329.38
265.197	326.38
265.429	325.38
265.661	339.38
265.894	346.38
266.126	350.38
266.358	348.38
266.591	340.38
266.823	363.38
267.055	343.38
267.287	337.38
267.52	339.38
267.752	372.38
267.984	349.38
268.216	372.38
268.448	383.38
268.681	357.38
268.913	350.38
269.145	368.38
269.377	361.38
269.609	354.38
269.841	385.38
270.073	349.38
270.306	369.38
270.538	360.38
270.77	363.38
271.002	375.38
271.234	356.38
271.466	367.38
271.698	379.38
271.93	351.38
272.162	374.38
272.394	375.38
272.626	377.38
272.858	380.38
273.09	398.38
273.322	382.38
273.553	393.38
273.785	378.38
274.017	399.38
274.249	380.38
274.481	410.38
274.713	395.38
274.945	404.38
275.176	383.38
275.408	396.38
275.64	399.38
275.872	402.38
276.104	418.38
276.335	400.38
276.567	406.38
276.799	403.38
277.031	404.38
277.262	426.38
277.494	400.38
277.726	411.38
277.957	420.38
278.189	419.38
278.421	413.38
278.652	412.38
278.884	425.38
279.115	428.38
279.347	435.38
279.579	427.38
279.81	440.38
280.042	435.38
280.273	434.38
280.505	432.38
280.736	460.38
280.968	434.38
281.199	421.38
281.431	445.38
281.662	450.38
281.894	457.38
282.125	458.38
282.356	460.38
282.588	457.38
282.819	472.38
283.051	456.38
283.282	444.38
283.513	442.38
283.745	467.38
283.976	468.38
284.207	483.38
284.439	477.38
284.67	486.38
284.901	479.38
285.132	468.38
285.364	473.38
285.595	482.38
285.826	480.38
286.057	477.38
286.288	485.38
286.52	473.38
286.751	493.38
286.982	486.38
287.213	497.38
287.444	499.38
287.675	498.38
287.906	498.38
288.138	488.38
288.369	492.38
288.6	489.38
288.831	488.38
289.062	498.38
289.293	494.38
289.524	514.38
289.755	513.38
289.986	497.38
290.217	496.38
290.448	504.38
290.679	496.38
290.91	520.38
291.141	511.38
291.371	505.38
291.602	518.38
291.833	519.38
292.064	515.38
292.295	488.38
292.526	493.38
292.757	521.38
292.987	516.38
293.218	497.38
293.449	520.38
293.68	503.38
293.91	504.38
294.141	496.38
294.372	519.38
294.603	516.38
294.833	545.38
295.064	542.38
295.295	531.38
295.525	510.38
295.756	529.38
295.987	518.38
296.217	546.38
296.448	516.38
296.679	541.38
296.909	536.38
297.14	548.38
297.37	545.38
297.601	547.38
297.831	550.38
298.062	548.38
298.292	568.38
298.523	565.38
298.753	580.38
298.984	565.38
299.214	548.38
299.445	561.38
299.675	557.38
299.905	537.38
300.136	562.38
300.366	583.38
300.597	591.38
300.827	608.38
301.057	596.38
301.288	570.38
301.518	587.38
301.748	573.38
301.979	583.38
302.209	607.38
302.439	584.38
302.669	577.38
302.9	587.38
303.13	577.38
303.36	601.38
303.59	589.38
303.82	606.38
304.051	616.38
304.281	596.38
304.511	593.38
304.741	597.38
304.971	606.38
305.201	603.38
305.431	600.38
305.661	603.38
305.891	600.38
306.121	612.38
306.352	583.38
306.582	585.38
306.812	562.38
307.042	593.38
307.272	599.38
307.502	590.38
307.731	588.38
307.961	591.38
308.191	579.38
308.421	595.38
308.651	589.38
308.881	592.38
309.111	573.38
309.341	559.38
309.571	575.38
309.8	589.38
310.03	601.38
310.26	628.38
310.49	629.38
310.72	609.38
310.949	631.38
311.179	603.38
311.409	613.38
311.639	605.38
311.868	639.38
312.098	630.38
312.328	640.38
312.557	634.38
312.787	623.38
313.017	616.38
313.246	631.38
313.476	645.38
313.706	653.38
313.935	635.38
314.165	632.38
314.394	623.38
314.624	652.38
314.853	623.38
315.083	641.38
315.312	632.38
315.542	626.38
315.771	632.38
316.001	636.38
316.23	620.38
316.46	629.38
316.689	624.38
316.919	648.38
317.148	633.38
317.377	650.38
317.607	596.38
317.836	623.38
318.065	631.38
318.295	633.38
318.524	629.38
318.753	641.38
318.983	638.38
319.212	602.38
319.441	625.38
319.67	649.38
319.9	665.38
320.129	649.38
320.358	635.38
320.587	644.38
320.816	647.38
321.046	639.38
321.275	664.38
321.504	641.38
321.733	645.38
321.962	635.38
322.191	646.38
322.42	645.38
322.649	651.38
322.878	641.38
323.108	651.38
323.337	665.38
323.566	693.38
323.795	662.38
324.024	665.38
324.253	668.38
324.482	676.38
324.71	650.38
324.939	698.38
325.168	683.38
325.397	678.38
325.626	651.38
325.855	661.38
326.084	673.38
326.313	685.38
326.542	705.38
326.77	707.38
326.999	695.38
327.228	689.38
327.457	695.38
327.686	696.38
327.914	683.38
328.143	682.38
328.372	671.38
328.6	721.38
328.829	688.38
329.058	685.38
329.287	691.38
329.515	727.38
329.744	689.38
329.972	688.38
330.201	705.38
330.43	718.38
330.658	717.38
330.887	731.38
331.115	740.38
331.344	740.38
331.572	726.38
331.801	734.38
332.03	745.38
332.258	788.38
332.486	755.38
332.715	749.38
332.943	786.38
333.172	823.38
333.4	804.38
333.629	832.38
333.857	841.38
334.085	824.38
334.314	828.38
334.542	837.38
334.771	847.38
334.999	817.38
335.227	815.38
335.455	832.38
335.684	838.38
335.912	844.38
336.14	838.38
336.369	832.38
336.597	829.38
336.825	815.38
337.053	828.38
337.281	841.38
337.51	827.38
337.738	820.38
337.966	783.38
338.194	785.38
338.422	799.38
338.65	787.38
338.878	765.38
339.106	767.38
339.334	784.38
339.562	775.38
339.79	745.38
340.018	739.38
340.246	735.38
340.474	733.38
340.702	729.38
340.93	744.38
341.158	739.38
341.386	754.38
341.614	772.38
341.842	767.38
342.07	737.38
342.298	725.38
342.526	743.38
342.754	739.38
342.981	743.38
343.209	749.38
343.437	777.38
343.665	793.38
343.893	795.38
344.12	795.38
344.348	800.38
344.576	821.38
344.804	792.38
345.031	794.38
345.259	780.38
345.487	769.38
345.714	761.38
345.942	768.38
346.17	782.38
346.397	748.38
346.625	726.38
346.853	720.38
347.08	720.38
347.308	721.38
347.535	717.38
347.763	726.38
347.99	709.38
348.218	709.38
348.445	720.38
348.673	723.38
348.9	713.38
349.128	687.38
349.355	714.38
349.583	754.38
349.81	685.38
350.037	693.38
350.265	667.38
350.492	692.38
350.72	695.38
350.947	675.38
351.174	709.38
351.402	707.38
351.629	707.38
351.856	729.38
352.083	703.38
352.311	705.38
352.538	703.38
352.765	713.38
352.992	692.38
353.22	678.38
353.447	680.38
353.674	668.38
353.901	661.38
354.128	667.38
354.355	647.38
354.583	667.38
354.81	680.38
355.037	679.38
355.264	655.38
355.491	669.38
355.718	678.38
355.945	646.38
356.172	680.38
356.399	677.38
356.626	658.38
356.853	696.38
357.08	681.38
357.307	700.38
357.534	679.38
357.761	667.38
357.988	658.38
358.215	653.38
358.441	659.38
358.668	663.38
358.895	658.38
359.122	661.38
359.349	645.38
359.576	629.38
359.802	641.38
360.029	689.38
360.256	662.38
360.483	681.38
360.709	679.38
360.936	663.38
361.163	661.38
361.39	667.38
361.616	656.38
361.843	676.38
362.07	712.38
362.296	727.38
362.523	654.38
362.749	661.38
362.976	667.38
363.203	675.38
363.429	664.38
363.656	673.38
363.882	664.38
364.109	652.38
364.335	649.38
364.562	651.38
364.788	651.38
365.015	652.38
365.241	654.38
365.468	669.38
365.694	684.38
365.92	656.38
366.147	661.38
366.373	656.38
366.599	645.38
366.826	634.38
367.052	639.38
367.278	658.38
367.505	670.38
367.731	641.38
367.957	654.38
368.184	659.38
368.41	689.38
368.636	673.38
368.862	673.38
369.089	673.38
369.315	691.38
369.541	682.38
369.767	684.38
369.993	658.38
370.219	673.38
370.445	677.38
370.672	680.38
370.898	667.38
371.124	695.38
371.35	706.38
371.576	711.38
371.802	692.38
372.028	697.38
372.254	700.38
372.48	708.38
372.706	706.38
372.932	711.38
373.158	706.38
373.384	708.38
373.61	704.38
373.835	704.38
374.061	722.38
374.287	677.38
374.513	705.38
374.739	719.38
374.965	727.38
375.191	720.38
375.416	700.38
375.642	710.38
375.868	713.38
376.094	685.38
376.319	719.38
376.545	691.38
376.771	699.38
376.997	676.38
377.222	689.38
377.448	687.38
377.674	671.38
377.899	683.38
378.125	652.38
378.35	696.38
378.576	687.38
378.802	665.38
379.027	665.38
379.253	672.38
379.478	672.38
379.704	664.38
379.929	704.38
380.155	673.38
380.38	678.38
380.606	677.38
380.831	679.38
381.057	693.38
381.282	668.38
381.507	675.38
381.733	687.38
381.958	698.38
382.184	678.38
382.409	680.38
382.634	710.38
382.86	671.38
383.085	705.38
383.31	712.38
383.535	751.38
383.761	738.38
383.986	711.38
384.211	749.38
384.436	739.38
384.662	747.38
384.887	732.38
385.112	748.38
385.337	755.38
385.562	775.38
385.787	776.38
386.013	781.38
386.238	790.38
386.463	790.38
386.688	782.38
386.913	794.38
387.138	804.38
387.363	794.38
387.588	817.38
387.813	797.38
388.038	798.38
388.263	774.38
388.488	810.38
388.713	765.38
388.938	789.38
389.163	773.38
389.387	779.38
389.612	767.38
389.837	789.38
390.062	779.38
390.287	795.38
390.512	788.38
390.736	801.38
390.961	800.38
391.186	816.38
391.411	832.38
391.636	860.38
391.86	831.38
392.085	847.38
392.31	851.38
392.534	830.38
392.759	834.38
392.984	837.38
393.208	847.38
393.433	842.38
393.658	808.38
393.882	823.38
394.107	827.38
394.331	835.38
394.556	851.38
394.78	852.38
395.005	861.38
395.229	819.38
395.454	859.38
395.678	876.38
395.903	877.38
396.127	885.38
396.352	868.38
396.576	841.38
396.801	867.38
397.025	838.38
397.249	873.38
397.474	891.38
397.698	899.38
397.922	898.38
398.147	882.38
398.371	932.38
398.595	947.38
398.82	970.38
399.044	1013.38
399.268	1062.38
399.492	1144.38
399.717	1228.38
399.941	1208.38
400.165	1170.38
400.389	1119.38
400.613	1087.38
400.837	1030.38
401.062	1022.38
401.286	988.38
401.51	959.38
401.734	965.38
401.958	983.38
402.182	967.38
402.406	1003.38
402.63	988.38
402.854	1008.38
403.078	1002.38
403.302	997.38
403.526	1030.38
403.75	1011.38
403.974	1033.38
404.198	1022.38
404.422	1046.38
404.645	1048.38
404.869	1026.38
405.093	1004.38
405.317	1027.38
405.541	1041.38
405.765	1023.38
405.988	1023.38
406.212	1061.38
406.436	1032.38
406.66	1075.38
406.883	1047.38
407.107	1113.38
407.331	1130.38
407.555	1172.38
407.778	1178.38
408.002	1147.38
408.226	1135.38
408.449	1139.38
408.673	1084.38
408.896	1073.38
409.12	1099.38
409.344	1086.38
409.567	1089.38
409.791	1087.38
410.014	1073.38
410.238	1089.38
410.461	1072.38
410.685	1073.38
410.908	1076.38
411.132	1023.38
411.355	1011.38
411.578	1065.38
411.802	1032.38
412.025	1013.38
412.249	1047.38
412.472	1047.38
412.695	1022.38
412.919	991.38
413.142	1005.38
413.365	999.38
413.589	996.38
413.812	1000.38
414.035	993.38
414.258	965.38
414.482	988.38
414.705	1025.38
414.928	987.38
415.151	993.38
415.374	979.38
415.597	996.38
415.821	954.38
416.044	943.38
416.267	986.38
416.49	944.38
416.713	955.38
416.936	976.38
417.159	961.38
417.382	952.38
417.605	963.38
417.828	939.38
418.051	979.38
418.274	991.38
418.497	959.38
418.72	992.38
418.943	959.38
419.166	1044.38
419.389	1066.38
419.611	1074.38
419.834	1045.38
420.057	1013.38
420.28	997.38
420.503	970.38
420.726	963.38
420.948	959.38
421.171	961.38
421.394	976.38
421.617	953.38
421.839	975.38
422.062	962.38
422.285	965.38
422.507	973.38
422.73	980.38
422.953	975.38
423.175	1005.38
423.398	985.38
423.621	1003.38
423.843	993.38
424.066	1005.38
424.288	1001.38
424.511	1002.38
424.733	1000.38
424.956	980.38
425.178	959.38
425.401	960.38
425.623	994.38
425.846	960.38
426.068	970.38
426.291	963.38
426.513	935.38
426.735	944.38
426.958	947.38
427.18	926.38
427.402	951.38
427.625	948.38
427.847	895.38
428.069	921.38
428.292	936.38
428.514	898.38
428.736	912.38
428.958	937.38
429.181	928.38
429.403	895.38
429.625	926.38
429.847	928.38
430.069	899.38
430.292	905.38
430.514	876.38
430.736	894.38
430.958	905.38
431.18	919.38
431.402	948.38
431.624	903.38
431.846	936.38
432.068	944.38
432.29	944.38
432.512	934.38
432.734	949.38
432.956	929.38
433.178	953.38
433.4	943.38
433.622	980.38
433.844	945.38
434.066	919.38
434.287	963.38
434.509	953.38
434.731	1008.38
434.953	1002.38
435.175	1023.38
435.397	1005.38
435.618	984.38
435.84	927.38
436.062	937.38
436.284	950.38
436.505	964.38
436.727	933.38
436.949	934.38
437.17	915.38
437.392	927.38
437.614	943.38
437.835	879.38
438.057	876.38
438.278	905.38
438.5	901.38
438.721	904.38
438.943	915.38
439.165	915.38
439.386	911.38
439.608	923.38
439.829	921.38
440.05	939.38
440.272	945.38
440.493	924.38
440.715	932.38
440.936	975.38
441.158	957.38
441.379	973.38
441.6	1019.38
441.822	1009.38
442.043	1025.38
442.264	977.38
442.486	993.38
442.707	996.38
442.928	988.38
443.149	1003.38
443.371	1001.38
443.592	1041.38
443.813	994.38
444.034	1048.38
444.255	1066.38
444.476	1062.38
444.698	1101.38
444.919	1155.38
445.14	1224.38
445.361	1120.38
445.582	1064.38
445.803	1034.38
446.024	979.38
446.245	997.38
446.466	999.38
446.687	967.38
446.908	943.38
447.129	917.38
447.35	915.38
447.571	908.38
447.792	909.38
448.013	903.38
448.234	907.38
448.455	910.38
448.675	901.38
448.896	900.38
449.117	877.38
449.338	879.38
449.559	889.38
449.779	891.38
450	880.38
450.221	874.38
450.442	894.38
450.662	876.38
450.883	892.38
451.104	934.38
451.324	908.38
451.545	896.38
451.766	880.38
451.986	887.38
452.207	886.38
452.428	855.38
452.648	870.38
452.869	870.38
453.089	874.38
453.31	900.38
453.53	834.38
453.751	868.38
453.971	849.38
454.192	875.38
454.412	880.38
454.633	841.38
454.853	831.38
455.073	857.38
455.294	863.38
455.514	837.38
455.734	848.38
455.955	838.38
456.175	851.38
456.395	838.38
456.616	814.38
456.836	823.38
457.056	850.38
457.276	813.38
457.497	845.38
457.717	840.38
457.937	860.38
458.157	891.38
458.377	855.38
458.598	883.38
458.818	899.38
459.038	912.38
459.258	919.38
459.478	935.38
459.698	1011.38
459.918	1013.38
460.138	1046.38
460.358	1045.38
460.578	1059.38
460.798	1061.38
461.018	1105.38
461.238	1061.38
461.458	1071.38
461.678	1082.38
461.898	1089.38
462.118	1098.38
462.338	1117.38
462.558	1164.38
462.777	1189.38
462.997	1228.38
463.217	1303.38
463.437	1356.38
463.657	1265.38
463.876	1247.38
464.096	1227.38
464.316	1178.38
464.536	1217.38
464.755	1196.38
464.975	1150.38
465.195	1122.38
465.414	1078.38
465.634	1050.38
465.854	1007.38
466.073	991.38
466.293	983.38
466.512	938.38
466.732	940.38
466.951	972.38
467.171	950.38
467.391	940.38
467.61	939.38
467.829	937.38
468.049	927.38
468.268	928.38
468.488	912.38
468.707	894.38
468.927	897.38
469.146	937.38
469.365	905.38
469.585	929.38
469.804	950.38
470.023	945.38
470.243	935.38
470.462	965.38
470.681	923.38
470.901	962.38
471.12	935.38
471.339	942.38
471.558	953.38
471.777	900.38
471.997	939.38
472.216	949.38
472.435	901.38
472.654	897.38
472.873	883.38
473.092	913.38
473.311	905.38
473.53	918.38
473.749	914.38
473.968	921.38
474.187	901.38
474.406	893.38
474.625	925.38
474.844	920.38
475.063	908.38
475.282	925.38
475.501	940.38
475.72	931.38
475.939	926.38
476.158	933.38
476.377	950.38
476.596	939.38
476.814	939.38
477.033	964.38
477.252	946.38
477.471	967.38
477.69	1004.38
477.908	1026.38
478.127	1051.38
478.346	1026.38
478.564	1082.38
478.783	1092.38
479.002	1108.38
479.22	1116.38
479.439	1115.38
479.658	1096.38
479.876	1097.38
480.095	1116.38
480.313	1118.38
480.532	1155.38
480.751	1105.38
480.969	1119.38
481.188	1076.38
481.406	1091.38
481.624	1044.38
481.843	1032.38
482.061	1053.38
482.28	1029.38
482.498	1027.38
482.717	1050.38
482.935	1058.38
483.153	1044.38
483.372	1080.38
483.59	1057.38
483.808	1077.38
484.027	1060.38
484.245	1067.38
484.463	1083.38
484.681	1068.38
484.9	1044.38
485.118	1107.38
485.336	1070.38
485.554	1071.38
485.772	1091.38
485.99	1098.38
486.209	1059.38
486.427	1055.38
486.645	1099.38
486.863	1097.38
487.081	1101.38
487.299	1084.38
487.517	1100.38
487.735	1109.38
487.953	1131.38
488.171	1080.38
488.389	1129.38
488.607	1103.38
488.825	1090.38
489.043	1063.38
489.261	1045.38
489.479	1077.38
489.696	1105.38
489.914	1085.38
490.132	1105.38
490.35	1096.38
490.568	1100.38
490.786	1126.38
491.003	1104.38
491.221	1091.38
491.439	1130.38
491.657	1122.38
491.874	1183.38
492.092	1151.38
492.31	1157.38
492.527	1165.38
492.745	1174.38
492.963	1166.38
493.18	1184.38
493.398	1140.38
493.615	1151.38
493.833	1165.38
494.05	1183.38
494.268	1174.38
494.485	1141.38
494.703	1146.38
494.92	1177.38
495.138	1162.38
495.355	1155.38
495.573	1195.38
495.79	1173.38
496.008	1232.38
496.225	1201.38
496.442	1216.38
496.66	1268.38
496.877	1253.38
497.094	1290.38
497.312	1305.38
497.529	1334.38
497.746	1370.38
497.963	1384.38
498.181	1422.38
498.398	1469.38
498.615	1527.38
498.832	1596.38
499.049	1676.38
499.267	1737.38
499.484	1851.38
499.701	1949.38
499.918	2069.38
500.135	2307.38
500.352	2418.38
500.569	2476.38
500.786	2413.38
501.003	2342.38
501.22	2245.38
501.437	2065.38
501.654	1922.38
501.871	1781.38
502.088	1710.38
502.305	1654.38
502.522	1577.38
502.739	1552.38
502.956	1488.38
503.172	1420.38
503.389	1401.38
503.606	1361.38
503.823	1325.38
504.04	1342.38
504.256	1349.38
504.473	1349.38
504.69	1305.38
504.907	1292.38
505.123	1243.38
505.34	1225.38
505.557	1200.38
505.773	1161.38
505.99	1152.38
506.207	1092.38
506.423	1091.38
506.64	1085.38
506.856	1100.38
507.073	1060.38
507.289	1027.38
507.506	1033.38
507.722	1073.38
507.939	1022.38
508.155	1025.38
508.372	1015.38
508.588	1008.38
508.805	1007.38
509.021	963.38
509.238	961.38
509.454	976.38
509.67	975.38
509.887	979.38
510.103	950.38
510.319	970.38
510.536	944.38
510.752	947.38
510.968	954.38
511.184	924.38
511.401	961.38
511.617	939.38
511.833	917.38
512.049	949.38
512.265	933.38
512.481	941.38
512.698	923.38
512.914	924.38
513.13	933.38
513.346	937.38
513.562	937.38
513.778	927.38
513.994	947.38
514.21	966.38
514.426	938.38
514.642	976.38
514.858	975.38
515.074	962.38
515.29	964.38
515.506	964.38
515.721	954.38
515.937	988.38
516.153	982.38
516.369	1001.38
516.585	1023.38
516.801	1048.38
517.016	1081.38
517.232	1096.38
517.448	1147.38
517.664	1141.38
517.879	1147.38
518.095	1140.38
518.311	1105.38
518.527	1075.38
518.742	1071.38
518.958	1056.38
519.173	1025.38
519.389	992.38
519.605	1008.38
519.82	976.38
520.036	971.38
520.251	979.38
520.467	957.38
520.682	939.38
520.898	911.38
521.113	897.38
521.329	891.38
521.544	892.38
521.76	894.38
521.975	893.38
522.19	900.38
522.406	870.38
522.621	891.38
522.836	872.38
523.052	860.38
523.267	879.38
523.482	859.38
523.698	851.38
523.913	857.38
524.128	858.38
524.343	866.38
524.559	865.38
524.774	864.38
524.989	868.38
525.204	867.38
525.419	838.38
525.634	850.38
525.849	861.38
526.064	853.38
526.28	819.38
526.495	842.38
526.71	825.38
526.925	830.38
527.14	847.38
527.355	840.38
527.57	831.38
527.785	842.38
527.999	827.38
528.214	823.38
528.429	827.38
528.644	836.38
528.859	845.38
529.074	840.38
529.289	858.38
529.503	817.38
529.718	820.38
529.933	816.38
530.148	818.38
530.363	823.38
530.577	826.38
530.792	792.38
531.007	837.38
531.221	828.38
531.436	797.38
531.651	831.38
531.865	809.38
532.08	822.38
532.295	812.38
532.509	799.38
532.724	817.38
532.938	795.38
533.153	825.38
533.367	815.38
533.582	788.38
533.796	810.38
534.011	803.38
534.225	796.38
534.44	774.38
534.654	799.38
534.868	809.38
535.083	808.38
535.297	807.38
535.511	808.38
535.726	781.38
535.94	801.38
536.154	791.38
536.369	754.38
536.583	777.38
536.797	756.38
537.011	740.38
537.225	769.38
537.44	736.38
537.654	763.38
537.868	756.38
538.082	774.38
538.296	770.38
538.51	783.38
538.724	746.38
538.938	741.38
539.153	731.38
539.367	752.38
539.581	723.38
539.795	743.38
540.009	737.38
540.222	753.38
540.436	761.38
540.65	744.38
540.864	735.38
541.078	764.38
541.292	732.38
541.506	744.38
541.72	748.38
541.934	757.38
542.147	766.38
542.361	763.38
542.575	740.38
542.789	744.38
543.002	739.38
543.216	732.38
543.43	719.38
543.644	726.38
543.857	752.38
544.071	726.38
544.285	729.38
544.498	731.38
544.712	743.38
544.925	752.38
545.139	743.38
545.352	760.38
545.566	735.38
545.779	763.38
545.993	761.38
546.206	766.38
546.42	740.38
546.633	755.38
546.847	742.38
547.06	744.38
547.274	754.38
547.487	769.38
547.7	751.38
547.914	761.38
548.127	757.38
548.34	755.38
548.554	740.38
548.767	735.38
548.98	731.38
549.193	777.38
549.407	741.38
549.62	756.38
549.833	758.38
550.046	785.38
550.259	752.38
550.473	741.38
550.686	731.38
550.899	738.38
551.112	730.38
551.325	742.38
551.538	747.38
551.751	733.38
551.964	725.38
552.177	761.38
552.39	765.38
552.603	743.38
552.816	755.38
553.029	775.38
553.242	759.38
553.455	769.38
553.667	771.38
553.88	756.38
554.093	735.38
554.306	746.38
554.519	742.38
554.732	720.38
554.944	725.38
555.157	714.38
555.37	697.38
555.583	699.38
555.795	665.38
556.008	671.38
556.221	661.38
556.433	665.38
556.646	666.38
556.859	654.38
557.071	673.38
557.284	660.38
557.496	635.38
557.709	640.38
557.921	632.38
558.134	668.38
558.346	657.38
558.559	652.38
558.771	677.38
558.984	656.38
559.196	631.38
559.409	651.38
559.621	614.38
559.833	631.38
560.046	634.38
560.258	603.38
560.47	623.38
560.683	639.38
560.895	593.38
561.107	607.38
561.32	642.38
561.532	620.38
561.744	643.38
561.956	616.38
562.168	605.38
562.381	619.38
562.593	620.38
562.805	641.38
563.017	629.38
563.229	616.38
563.441	635.38
563.653	628.38
563.865	633.38
564.077	635.38
564.289	632.38
564.501	641.38
564.713	655.38
564.925	675.38
565.137	692.38
565.349	695.38
565.561	711.38
565.773	714.38
565.985	727.38
566.197	770.38
566.408	787.38
566.62	823.38
566.832	835.38
567.044	885.38
567.255	877.38
567.467	845.38
567.679	892.38
567.891	929.38
568.102	897.38
568.314	876.38
568.526	849.38
568.737	805.38
568.949	757.38
569.161	731.38
569.372	675.38
569.584	695.38
569.795	680.38
570.007	633.38
570.218	611.38
570.43	629.38
570.641	615.38
570.853	593.38
571.064	628.38
571.276	605.38
571.487	603.38
571.698	594.38
571.91	588.38
572.121	540.38
572.333	553.38
572.544	543.38
572.755	542.38
572.966	512.38
573.178	533.38
573.389	541.38
573.6	531.38
573.811	512.38
574.023	513.38
574.234	515.38
574.445	506.38
574.656	516.38
574.867	489.38
575.078	479.38
575.289	493.38
575.501	497.38
575.712	495.38
575.923	473.38
576.134	496.38
576.345	497.38
576.556	460.38
576.767	467.38
576.978	471.38
577.188	492.38
577.399	460.38
577.61	468.38
577.821	468.38
578.032	473.38
578.243	455.38
578.454	447.38
578.665	445.38
578.875	470.38
579.086	454.38
579.297	439.38
579.508	437.38
579.718	433.38
579.929	437.38
580.14	428.38
580.35	444.38
580.561	450.38
580.772	442.38
580.982	428.38
581.193	433.38
581.403	436.38
581.614	433.38
581.825	427.38
582.035	432.38
582.246	399.38
582.456	433.38
582.667	421.38
582.877	433.38
583.087	419.38
583.298	433.38
583.508	412.38
583.719	406.38
583.929	416.38
584.139	414.38
584.35	410.38
584.56	419.38
584.77	409.38
584.981	429.38
585.191	406.38
585.401	399.38
585.611	420.38
585.821	403.38
586.032	402.38
586.242	400.38
586.452	413.38
586.662	413.38
586.872	417.38
587.082	417.38
587.292	387.38
587.502	405.38
587.713	413.38
587.923	409.38
588.133	413.38
588.343	410.38
588.553	413.38
588.762	406.38
588.972	388.38
589.182	443.38
589.392	465.38
589.602	419.38
589.812	427.38
590.022	435.38
590.232	398.38
590.441	398.38
590.651	408.38
590.861	412.38
591.071	401.38
591.281	408.38
591.49	403.38
591.7	412.38
591.91	428.38
592.119	416.38
592.329	439.38
592.539	412.38
592.748	433.38
592.958	432.38
593.167	434.38
593.377	442.38
593.587	468.38
593.796	431.38
594.006	452.38
594.215	455.38
594.424	439.38
594.634	440.38
594.843	425.38
595.053	404.38
595.262	395.38
595.472	418.38
595.681	395.38
595.89	405.38
596.1	395.38
596.309	381.38
596.518	358.38
596.727	375.38
596.937	365.38
597.146	383.38
597.355	353.38
597.564	356.38
597.774	365.38
597.983	345.38
598.192	351.38
598.401	371.38
598.61	354.38
598.819	356.38
599.028	350.38
599.237	337.38
599.446	341.38
599.655	337.38
599.864	342.38
600.073	347.38
600.282	349.38
600.491	355.38
600.7	339.38
600.909	345.38
601.118	329.38
601.327	343.38
601.536	330.38
601.745	341.38
601.953	348.38
602.162	337.38
602.371	328.38
602.58	308.38
602.789	329.38
602.997	335.38
603.206	315.38
603.415	325.38
603.623	320.38
603.832	328.38
604.041	316.38
604.249	296.38
604.458	317.38
604.666	313.38
604.875	312.38
605.084	330.38
605.292	304.38
605.501	303.38
605.709	298.38
605.918	321.38
606.126	312.38
606.334	309.38
606.543	320.38
606.751	308.38
606.96	312.38
607.168	303.38
607.376	312.38
607.585	316.38
607.793	294.38
608.001	301.38
608.21	314.38
608.418	300.38
608.626	313.38
608.834	307.38
609.043	318.38
609.251	279.38
609.459	297.38
609.667	287.38
609.875	288.38
610.083	293.38
610.291	289.38
610.499	292.38
610.707	289.38
610.916	300.38
611.124	298.38
611.332	297.38
611.54	307.38
611.748	311.38
611.955	285.38
612.163	273.38
612.371	294.38
612.579	282.38
612.787	291.38
612.995	291.38
613.203	290.38
613.411	276.38
613.618	301.38
613.826	273.38
614.034	299.38
614.242	285.38
614.449	296.38
614.657	287.38
614.865	285.38
615.072	273.38
615.28	287.38
615.488	284.38
615.695	283.38
615.903	275.38
616.111	282.38
616.318	275.38
616.526	297.38
616.733	297.38
616.941	259.38
617.148	279.38
617.356	277.38
617.563	272.38
617.771	290.38
617.978	283.38
618.185	294.38
618.393	265.38
618.6	273.38
618.807	252.38
619.015	264.38
619.222	266.38
619.429	275.38
619.637	275.38
619.844	254.38
620.051	279.38
620.258	256.38
620.466	277.38
620.673	255.38
620.88	243.38
621.087	258.38
621.294	253.38
621.501	265.38
621.708	260.38
621.915	248.38
622.122	275.38
622.329	257.38
622.536	253.38
622.743	255.38
622.95	244.38
623.157	276.38
623.364	265.38
623.571	241.38
623.778	257.38
623.985	263.38
624.192	233.38
624.399	234.38
624.606	244.38
624.812	269.38
625.019	245.38
625.226	244.38
625.433	234.38
625.639	245.38
625.846	256.38
626.053	252.38
626.259	227.38
626.466	237.38
626.673	253.38
626.879	249.38
627.086	246.38
627.293	244.38
627.499	250.38
627.706	215.38
627.912	237.38
628.119	240.38
628.325	227.38
628.532	240.38
628.738	213.38
628.945	235.38
629.151	231.38
629.357	223.38
629.564	234.38
629.77	227.38
629.976	223.38
630.183	236.38
630.389	234.38
630.595	217.38
630.802	226.38
631.008	228.38
631.214	234.38
631.42	242.38
631.627	213.38
631.833	227.38
632.039	221.38
632.245	218.38
632.451	218.38
632.657	213.38
632.863	228.38
633.069	231.38
633.275	219.38
633.481	217.38
633.688	209.38
633.893	221.38
634.099	197.38
634.305	211.38
634.511	203.38
634.717	215.38
634.923	197.38
635.129	217.38
635.335	209.38
635.541	210.38
635.747	204.38
635.952	212.38
636.158	209.38
636.364	219.38
636.57	204.38
636.775	219.38
636.981	211.38
637.187	209.38
637.392	213.38
637.598	203.38
637.804	200.38
638.009	213.38
638.215	196.38
638.421	209.38
638.626	196.38
638.832	187.38
639.037	211.38
639.243	188.38
639.448	217.38
639.654	211.38
639.859	200.38
640.065	194.38
640.27	206.38
640.475	212.38
640.681	202.38
640.886	210.38
641.091	202.38
641.297	191.38
641.502	197.38
641.707	203.38
641.913	203.38
642.118	197.38
642.323	200.38
642.528	195.38
642.733	195.38
642.939	188.38
643.144	205.38
643.349	196.38
643.554	191.38
643.759	200.38
643.964	185.38
644.169	180.38
644.374	175.38
644.579	179.38
644.784	191.38
644.989	199.38
645.194	189.38
645.399	192.38
645.604	179.38
645.809	181.38
646.014	195.38
646.219	187.38
646.423	209.38
646.628	190.38
646.833	181.38
647.038	204.38
647.243	204.38
647.447	191.38
647.652	203.38
647.857	198.38
648.062	208.38
648.266	195.38
648.471	201.38
648.676	167.38
648.88	197.38
649.085	194.38
649.289	187.38
649.494	200.38
649.698	183.38
649.903	179.38
650.107	192.38
650.312	175.38
650.516	190.38
650.721	174.38
650.925	172.38
651.13	176.38
651.334	195.38
651.539	165.38
651.743	163.38
651.947	157.38
652.152	155.38
652.356	148.38
652.56	178.38
652.764	167.38
652.969	170.38
653.173	168.38
653.377	145.38
653.581	162.38
653.785	155.38
653.99	156.38
654.194	144.38
654.398	151.38
654.602	142.38
654.806	149.38
655.01	147.38
655.214	144.38
655.418	135.38
655.622	141.38
655.826	140.38
656.03	139.38
656.234	133.38
656.438	161.38
656.642	153.38
656.846	144.38
657.049	147.38
657.253	132.38
657.457	143.38
657.661	138.38
657.865	122.38
658.068	133.38
658.272	114.38
658.476	116.38
658.68	113.38
658.883	118.38
659.087	101.38
659.291	111.38
659.494	108.38
659.698	104.38
659.901	100.38
660.105	98.38
660.309	100.38
660.512	106.38
660.716	95.38
660.919	87.38
661.123	105.38
661.326	88.38
661.53	81.38
661.733	90.38
661.936	95.38
662.14	89.38
662.343	80.38
662.546	81.38
662.75	94.38
662.953	94.38
663.156	83.38
663.36	76.38
663.563	86.38
663.766	72.38
663.969	96.38
664.173	81.38
664.376	82.38
664.579	72.38
664.782	91.38
664.985	88.38
665.188	74.38
665.391	85.38
665.594	84.38
665.797	77.38
666	86.38
666.203	79.38
666.406	75.38
666.609	76.38
666.812	76.38
667.015	87.38
667.218	81.38
667.421	65.38
667.624	68.38
667.827	84.38
668.03	91.38
668.232	87.38
668.435	75.38
668.638	96.38
668.841	81.38
669.043	73.38
669.246	87.38
669.449	79.38
669.651	75.38
669.854	74.38
670.057	92.38
670.259	80.38
670.462	80.38
670.665	88.38
670.867	75.38
671.07	77.38
671.272	91.38
671.475	90.38
671.677	80.38
671.88	97.38
672.082	86.38
672.284	88.38
672.487	84.38
672.689	79.38
672.892	83.38
