Data from NiCl2@0.5M.TitratingCurve.Agarose3%dH2O.NegLispCup.LampEnergy10.LIBS07252019_HRD10591_18-19-04-570.txt Node
Date: Thu Jul 25 18:19:04 EDT 2019
User: cochatt
Spectrometer: HR+D1059
Trigger mode: 1
Integration Time (sec): 1.000000E-1
Scans to average: 1
Electric dark correction enabled: true
Nonlinearity correction enabled: false
Boxcar width: 0
XAxis mode: Wavelengths
Number of Pixels in Spectrum: 2048
>>>>>Begin Spectral Data<<<<<
223.165	-23.06
223.4	-23.06
223.635	-23.06
223.869	-31.06
224.104	-4.06
224.338	-17.06
224.573	-2.06
224.808	-5.06
225.042	-13.06
225.277	0.94
225.511	2.94
225.746	0.94
225.98	5.94
226.215	19.94
226.449	14.94
226.683	5.94
226.918	18.94
227.152	24.94
227.387	37.94
227.621	35.94
227.856	31.94
228.09	37.94
228.324	38.94
228.559	66.94
228.793	70.94
229.027	105.94
229.262	97.94
229.496	115.94
229.73	113.94
229.964	116.94
230.199	121.94
230.433	115.94
230.667	123.94
230.901	131.94
231.136	144.94
231.37	123.94
231.604	149.94
231.838	125.94
232.072	147.94
232.306	143.94
232.541	144.94
232.775	125.94
233.009	147.94
233.243	135.94
233.477	134.94
233.711	126.94
233.945	143.94
234.179	144.94
234.413	144.94
234.647	141.94
234.881	130.94
235.115	137.94
235.349	135.94
235.583	144.94
235.817	123.94
236.051	149.94
236.285	134.94
236.519	143.94
236.753	141.94
236.987	143.94
237.221	154.94
237.455	138.94
237.689	135.94
237.922	147.94
238.156	156.94
238.39	138.94
238.624	157.94
238.858	153.94
239.091	154.94
239.325	151.94
239.559	144.94
239.793	149.94
240.027	158.94
240.26	162.94
240.494	146.94
240.728	158.94
240.961	160.94
241.195	159.94
241.429	153.94
241.662	175.94
241.896	203.94
242.13	187.94
242.363	164.94
242.597	159.94
242.83	174.94
243.064	181.94
243.298	173.94
243.531	185.94
243.765	171.94
243.998	173.94
244.232	186.94
244.465	175.94
244.699	173.94
244.932	172.94
245.166	175.94
245.399	191.94
245.633	181.94
245.866	197.94
246.099	182.94
246.333	177.94
246.566	179.94
246.8	169.94
247.033	198.94
247.266	204.94
247.5	197.94
247.733	209.94
247.966	186.94
248.2	181.94
248.433	201.94
248.666	213.94
248.899	212.94
249.133	211.94
249.366	199.94
249.599	193.94
249.832	203.94
250.066	223.94
250.299	225.94
250.532	194.94
250.765	225.94
250.998	207.94
251.231	220.94
251.465	235.94
251.698	226.94
251.931	217.94
252.164	236.94
252.397	232.94
252.63	226.94
252.863	207.94
253.096	214.94
253.329	232.94
253.562	209.94
253.795	230.94
254.028	245.94
254.261	235.94
254.494	203.94
254.727	241.94
254.96	230.94
255.193	236.94
255.426	231.94
255.659	255.94
255.892	259.94
256.124	237.94
256.357	270.94
256.59	252.94
256.823	249.94
257.056	250.94
257.289	238.94
257.521	232.94
257.754	267.94
257.987	248.94
258.22	274.94
258.452	274.94
258.685	271.94
258.918	237.94
259.151	264.94
259.383	275.94
259.616	245.94
259.849	268.94
260.081	271.94
260.314	269.94
260.547	277.94
260.779	282.94
261.012	269.94
261.244	266.94
261.477	256.94
261.71	276.94
261.942	281.94
262.175	280.94
262.407	274.94
262.64	275.94
262.872	276.94
263.105	280.94
263.337	309.94
263.57	284.94
263.802	277.94
264.035	292.94
264.267	282.94
264.499	299.94
264.732	308.94
264.964	284.94
265.197	316.94
265.429	300.94
265.661	292.94
265.894	305.94
266.126	285.94
266.358	299.94
266.591	317.94
266.823	309.94
267.055	321.94
267.287	301.94
267.52	317.94
267.752	325.94
267.984	307.94
268.216	348.94
268.448	323.94
268.681	305.94
268.913	334.94
269.145	325.94
269.377	322.94
269.609	336.94
269.841	349.94
270.073	315.94
270.306	323.94
270.538	306.94
270.77	315.94
271.002	317.94
271.234	325.94
271.466	323.94
271.698	315.94
271.93	327.94
272.162	342.94
272.394	337.94
272.626	331.94
272.858	322.94
273.09	335.94
273.322	342.94
273.553	334.94
273.785	352.94
274.017	337.94
274.249	357.94
274.481	347.94
274.713	351.94
274.945	363.94
275.176	329.94
275.408	329.94
275.64	347.94
275.872	364.94
276.104	359.94
276.335	352.94
276.567	342.94
276.799	346.94
277.031	356.94
277.262	361.94
277.494	355.94
277.726	362.94
277.957	366.94
278.189	383.94
278.421	355.94
278.652	369.94
278.884	391.94
279.115	360.94
279.347	380.94
279.579	360.94
279.81	381.94
280.042	379.94
280.273	385.94
280.505	378.94
280.736	365.94
280.968	377.94
281.199	385.94
281.431	403.94
281.662	375.94
281.894	405.94
282.125	399.94
282.356	390.94
282.588	389.94
282.819	390.94
283.051	414.94
283.282	392.94
283.513	398.94
283.745	411.94
283.976	407.94
284.207	396.94
284.439	418.94
284.67	421.94
284.901	405.94
285.132	429.94
285.364	413.94
285.595	439.94
285.826	417.94
286.057	413.94
286.288	433.94
286.52	418.94
286.751	433.94
286.982	436.94
287.213	417.94
287.444	428.94
287.675	423.94
287.906	401.94
288.138	420.94
288.369	415.94
288.6	449.94
288.831	435.94
289.062	434.94
289.293	421.94
289.524	437.94
289.755	430.94
289.986	435.94
290.217	440.94
290.448	446.94
290.679	447.94
290.91	431.94
291.141	438.94
291.371	438.94
291.602	451.94
291.833	441.94
292.064	441.94
292.295	433.94
292.526	456.94
292.757	467.94
292.987	464.94
293.218	442.94
293.449	458.94
293.68	438.94
293.91	453.94
294.141	441.94
294.372	456.94
294.603	442.94
294.833	475.94
295.064	448.94
295.295	462.94
295.525	447.94
295.756	447.94
295.987	454.94
296.217	459.94
296.448	457.94
296.679	462.94
296.909	475.94
297.14	468.94
297.37	477.94
297.601	469.94
297.831	457.94
298.062	484.94
298.292	486.94
298.523	475.94
298.753	496.94
298.984	490.94
299.214	477.94
299.445	483.94
299.675	511.94
299.905	473.94
300.136	524.94
300.366	522.94
300.597	516.94
300.827	520.94
301.057	520.94
301.288	500.94
301.518	502.94
301.748	531.94
301.979	521.94
302.209	518.94
302.439	518.94
302.669	514.94
302.9	484.94
303.13	516.94
303.36	513.94
303.59	497.94
303.82	518.94
304.051	527.94
304.281	515.94
304.511	505.94
304.741	510.94
304.971	513.94
305.201	509.94
305.431	522.94
305.661	536.94
305.891	528.94
306.121	524.94
306.352	538.94
306.582	506.94
306.812	486.94
307.042	524.94
307.272	491.94
307.502	517.94
307.731	511.94
307.961	507.94
308.191	513.94
308.421	496.94
308.651	501.94
308.881	501.94
309.111	511.94
309.341	501.94
309.571	499.94
309.8	525.94
310.03	503.94
310.26	514.94
310.49	520.94
310.72	528.94
310.949	487.94
311.179	525.94
311.409	481.94
311.639	504.94
311.868	527.94
312.098	515.94
312.328	505.94
312.557	526.94
312.787	534.94
313.017	535.94
313.246	566.94
313.476	556.94
313.706	550.94
313.935	546.94
314.165	552.94
314.394	528.94
314.624	539.94
314.853	558.94
315.083	532.94
315.312	555.94
315.542	563.94
315.771	550.94
316.001	547.94
316.23	545.94
316.46	529.94
316.689	563.94
316.919	565.94
317.148	566.94
317.377	541.94
317.607	537.94
317.836	526.94
318.065	534.94
318.295	569.94
318.524	581.94
318.753	545.94
318.983	559.94
319.212	566.94
319.441	535.94
319.67	564.94
319.9	557.94
320.129	559.94
320.358	545.94
320.587	545.94
320.816	539.94
321.046	548.94
321.275	546.94
321.504	572.94
321.733	561.94
321.962	544.94
322.191	579.94
322.42	561.94
322.649	557.94
322.878	563.94
323.108	563.94
323.337	549.94
323.566	569.94
323.795	553.94
324.024	570.94
324.253	585.94
324.482	572.94
324.71	579.94
324.939	582.94
325.168	596.94
325.397	596.94
325.626	570.94
325.855	571.94
326.084	607.94
326.313	589.94
326.542	585.94
326.77	604.94
326.999	599.94
327.228	589.94
327.457	571.94
327.686	598.94
327.914	587.94
328.143	584.94
328.372	577.94
328.6	593.94
328.829	599.94
329.058	612.94
329.287	587.94
329.515	606.94
329.744	613.94
329.972	601.94
330.201	613.94
330.43	607.94
330.658	621.94
330.887	610.94
331.115	606.94
331.344	617.94
331.572	632.94
331.801	628.94
332.03	697.94
332.258	648.94
332.486	681.94
332.715	698.94
332.943	691.94
333.172	722.94
333.4	723.94
333.629	741.94
333.857	763.94
334.085	745.94
334.314	749.94
334.542	714.94
334.771	733.94
334.999	705.94
335.227	734.94
335.455	721.94
335.684	717.94
335.912	756.94
336.14	717.94
336.369	742.94
336.597	714.94
336.825	706.94
337.053	725.94
337.281	697.94
337.51	703.94
337.738	686.94
337.966	656.94
338.194	683.94
338.422	663.94
338.65	668.94
338.878	653.94
339.106	681.94
339.334	659.94
339.562	670.94
339.79	641.94
340.018	629.94
340.246	627.94
340.474	646.94
340.702	633.94
340.93	632.94
341.158	645.94
341.386	635.94
341.614	675.94
341.842	668.94
342.07	623.94
342.298	640.94
342.526	630.94
342.754	604.94
342.981	630.94
343.209	625.94
343.437	691.94
343.665	716.94
343.893	732.94
344.12	704.94
344.348	733.94
344.576	689.94
344.804	684.94
345.031	642.94
345.259	633.94
345.487	631.94
345.714	646.94
345.942	648.94
346.17	673.94
346.397	658.94
346.625	607.94
346.853	611.94
347.08	609.94
347.308	599.94
347.535	625.94
347.763	613.94
347.99	631.94
348.218	601.94
348.445	605.94
348.673	612.94
348.9	599.94
349.128	596.94
349.355	592.94
349.583	625.94
349.81	602.94
350.037	577.94
350.265	593.94
350.492	579.94
350.72	595.94
350.947	579.94
351.174	601.94
351.402	593.94
351.629	625.94
351.856	609.94
352.083	597.94
352.311	614.94
352.538	615.94
352.765	600.94
352.992	606.94
353.22	565.94
353.447	579.94
353.674	584.94
353.901	574.94
354.128	571.94
354.355	570.94
354.583	595.94
354.81	594.94
355.037	581.94
355.264	595.94
355.491	579.94
355.718	571.94
355.945	587.94
356.172	584.94
356.399	581.94
356.626	587.94
356.853	610.94
357.08	597.94
357.307	589.94
357.534	581.94
357.761	574.94
357.988	577.94
358.215	579.94
358.441	581.94
358.668	569.94
358.895	571.94
359.122	570.94
359.349	570.94
359.576	573.94
359.802	564.94
360.029	558.94
360.256	559.94
360.483	581.94
360.709	548.94
360.936	563.94
361.163	559.94
361.39	567.94
361.616	586.94
361.843	583.94
362.07	597.94
362.296	609.94
362.523	559.94
362.749	581.94
362.976	564.94
363.203	595.94
363.429	574.94
363.656	571.94
363.882	576.94
364.109	588.94
364.335	594.94
364.562	568.94
364.788	561.94
365.015	578.94
365.241	577.94
365.468	557.94
365.694	564.94
365.92	567.94
366.147	562.94
366.373	554.94
366.599	556.94
366.826	555.94
367.052	559.94
367.278	579.94
367.505	566.94
367.731	564.94
367.957	551.94
368.184	578.94
368.41	564.94
368.636	583.94
368.862	568.94
369.089	578.94
369.315	578.94
369.541	585.94
369.767	588.94
369.993	578.94
370.219	590.94
370.445	589.94
370.672	604.94
370.898	597.94
371.124	588.94
371.35	605.94
371.576	612.94
371.802	598.94
372.028	605.94
372.254	609.94
372.48	616.94
372.706	632.94
372.932	632.94
373.158	623.94
373.384	637.94
373.61	597.94
373.835	614.94
374.061	598.94
374.287	603.94
374.513	635.94
374.739	658.94
374.965	687.94
375.191	663.94
375.416	659.94
375.642	641.94
375.868	622.94
376.094	629.94
376.319	649.94
376.545	605.94
376.771	594.94
376.997	612.94
377.222	599.94
377.448	606.94
377.674	611.94
377.899	599.94
378.125	607.94
378.35	595.94
378.576	592.94
378.802	593.94
379.027	604.94
379.253	590.94
379.478	590.94
379.704	593.94
379.929	577.94
380.155	611.94
380.38	604.94
380.606	591.94
380.831	621.94
381.057	602.94
381.282	591.94
381.507	590.94
381.733	614.94
381.958	601.94
382.184	612.94
382.409	619.94
382.634	614.94
382.86	610.94
383.085	606.94
383.31	640.94
383.535	660.94
383.761	626.94
383.986	611.94
384.211	648.94
384.436	673.94
384.662	667.94
384.887	687.94
385.112	682.94
385.337	711.94
385.562	685.94
385.787	692.94
386.013	695.94
386.238	695.94
386.463	695.94
386.688	698.94
386.913	679.94
387.138	669.94
387.363	697.94
387.588	706.94
387.813	703.94
388.038	661.94
388.263	703.94
388.488	689.94
388.713	683.94
388.938	706.94
389.163	690.94
389.387	687.94
389.612	678.94
389.837	684.94
390.062	687.94
390.287	682.94
390.512	696.94
390.736	704.94
390.961	699.94
391.186	713.94
391.411	727.94
391.636	771.94
391.86	775.94
392.085	773.94
392.31	759.94
392.534	760.94
392.759	762.94
392.984	749.94
393.208	751.94
393.433	750.94
393.658	755.94
393.882	726.94
394.107	744.94
394.331	755.94
394.556	769.94
394.78	741.94
395.005	767.94
395.229	748.94
395.454	757.94
395.678	767.94
395.903	771.94
396.127	780.94
396.352	762.94
396.576	769.94
396.801	759.94
397.025	775.94
397.249	776.94
397.474	789.94
397.698	749.94
397.922	800.94
398.147	779.94
398.371	805.94
398.595	826.94
398.82	851.94
399.044	904.94
399.268	970.94
399.492	1081.94
399.717	1165.94
399.941	1177.94
400.165	1051.94
400.389	1015.94
400.613	955.94
400.837	904.94
401.062	882.94
401.286	873.94
401.51	886.94
401.734	876.94
401.958	860.94
402.182	862.94
402.406	862.94
402.63	877.94
402.854	894.94
403.078	890.94
403.302	915.94
403.526	926.94
403.75	954.94
403.974	972.94
404.198	961.94
404.422	977.94
404.645	949.94
404.869	966.94
405.093	958.94
405.317	920.94
405.541	933.94
405.765	953.94
405.988	926.94
406.212	928.94
406.436	938.94
406.66	938.94
406.883	971.94
407.107	1013.94
407.331	1047.94
407.555	1077.94
407.778	1067.94
408.002	1072.94
408.226	1019.94
408.449	1010.94
408.673	981.94
408.896	988.94
409.12	990.94
409.344	974.94
409.567	952.94
409.791	984.94
410.014	955.94
410.238	965.94
410.461	931.94
410.685	951.94
410.908	937.94
411.132	929.94
411.355	919.94
411.578	917.94
411.802	922.94
412.025	916.94
412.249	923.94
412.472	929.94
412.695	919.94
412.919	912.94
413.142	872.94
413.365	890.94
413.589	897.94
413.812	847.94
414.035	895.94
414.258	884.94
414.482	895.94
414.705	867.94
414.928	883.94
415.151	878.94
415.374	887.94
415.597	876.94
415.821	895.94
416.044	873.94
416.267	857.94
416.49	848.94
416.713	859.94
416.936	870.94
417.159	849.94
417.382	846.94
417.605	859.94
417.828	851.94
418.051	883.94
418.274	849.94
418.497	854.94
418.72	903.94
418.943	909.94
419.166	923.94
419.389	969.94
419.611	967.94
419.834	945.94
420.057	909.94
420.28	896.94
420.503	872.94
420.726	851.94
420.948	863.94
421.171	855.94
421.394	883.94
421.617	863.94
421.839	891.94
422.062	863.94
422.285	847.94
422.507	937.94
422.73	881.94
422.953	887.94
423.175	886.94
423.398	890.94
423.621	909.94
423.843	891.94
424.066	929.94
424.288	874.94
424.511	888.94
424.733	874.94
424.956	852.94
425.178	888.94
425.401	871.94
425.623	878.94
425.846	853.94
426.068	829.94
426.291	828.94
426.513	830.94
426.735	842.94
426.958	845.94
427.18	814.94
427.402	883.94
427.625	827.94
427.847	821.94
428.069	807.94
428.292	829.94
428.514	804.94
428.736	792.94
428.958	814.94
429.181	809.94
429.403	815.94
429.625	810.94
429.847	794.94
430.069	800.94
430.292	793.94
430.514	785.94
430.736	796.94
430.958	799.94
431.18	810.94
431.402	819.94
431.624	801.94
431.846	833.94
432.068	796.94
432.29	803.94
432.512	791.94
432.734	809.94
432.956	859.94
433.178	826.94
433.4	845.94
433.622	846.94
433.844	835.94
434.066	837.94
434.287	856.94
434.509	837.94
434.731	879.94
434.953	900.94
435.175	907.94
435.397	905.94
435.618	889.94
435.84	861.94
436.062	821.94
436.284	830.94
436.505	802.94
436.727	809.94
436.949	811.94
437.17	823.94
437.392	825.94
437.614	823.94
437.835	801.94
438.057	801.94
438.278	786.94
438.5	796.94
438.721	764.94
438.943	810.94
439.165	802.94
439.386	815.94
439.608	829.94
439.829	806.94
440.05	823.94
440.272	838.94
440.493	817.94
440.715	836.94
440.936	890.94
441.158	870.94
441.379	849.94
441.6	909.94
441.822	897.94
442.043	905.94
442.264	905.94
442.486	882.94
442.707	887.94
442.928	872.94
443.149	890.94
443.371	905.94
443.592	900.94
443.813	936.94
444.034	916.94
444.255	954.94
444.476	958.94
444.698	978.94
444.919	1052.94
445.14	1117.94
445.361	1004.94
445.582	943.94
445.803	893.94
446.024	885.94
446.245	857.94
446.466	852.94
446.687	815.94
446.908	825.94
447.129	843.94
447.35	822.94
447.571	831.94
447.792	801.94
448.013	795.94
448.234	773.94
448.455	794.94
448.675	775.94
448.896	794.94
449.117	759.94
449.338	792.94
449.559	762.94
449.779	748.94
450	773.94
450.221	779.94
450.442	782.94
450.662	777.94
450.883	768.94
451.104	788.94
451.324	771.94
451.545	791.94
451.766	768.94
451.986	783.94
452.207	768.94
452.428	737.94
452.648	759.94
452.869	769.94
453.089	730.94
453.31	772.94
453.53	749.94
453.751	743.94
453.971	758.94
454.192	778.94
454.412	745.94
454.633	732.94
454.853	742.94
455.073	758.94
455.294	721.94
455.514	743.94
455.734	741.94
455.955	723.94
456.175	748.94
456.395	733.94
456.616	722.94
456.836	738.94
457.056	741.94
457.276	692.94
457.497	734.94
457.717	744.94
457.937	734.94
458.157	752.94
458.377	760.94
458.598	754.94
458.818	777.94
459.038	783.94
459.258	781.94
459.478	837.94
459.698	877.94
459.918	871.94
460.138	898.94
460.358	945.94
460.578	926.94
460.798	983.94
461.018	971.94
461.238	943.94
461.458	961.94
461.678	951.94
461.898	959.94
462.118	1002.94
462.338	1019.94
462.558	1039.94
462.777	1091.94
462.997	1151.94
463.217	1199.94
463.437	1197.94
463.657	1154.94
463.876	1105.94
464.096	1079.94
464.316	1091.94
464.536	1095.94
464.755	1062.94
464.975	1033.94
465.195	1009.94
465.414	950.94
465.634	878.94
465.854	858.94
466.073	865.94
466.293	830.94
466.512	828.94
466.732	846.94
466.951	852.94
467.171	822.94
467.391	826.94
467.61	831.94
467.829	805.94
468.049	785.94
468.268	809.94
468.488	821.94
468.707	793.94
468.927	814.94
469.146	790.94
469.365	841.94
469.585	809.94
469.804	829.94
470.023	835.94
470.243	804.94
470.462	823.94
470.681	836.94
470.901	842.94
471.12	814.94
471.339	810.94
471.558	799.94
471.777	796.94
471.997	785.94
472.216	809.94
472.435	804.94
472.654	773.94
472.873	761.94
473.092	780.94
473.311	798.94
473.53	794.94
473.749	757.94
473.968	765.94
474.187	795.94
474.406	768.94
474.625	791.94
474.844	801.94
475.063	785.94
475.282	786.94
475.501	783.94
475.72	805.94
475.939	817.94
476.158	808.94
476.377	810.94
476.596	809.94
476.814	820.94
477.033	812.94
477.252	838.94
477.471	863.94
477.69	860.94
477.908	887.94
478.127	899.94
478.346	891.94
478.564	936.94
478.783	919.94
479.002	934.94
479.22	945.94
479.439	963.94
479.658	960.94
479.876	942.94
480.095	964.94
480.313	996.94
480.532	967.94
480.751	982.94
480.969	946.94
481.188	940.94
481.406	911.94
481.624	920.94
481.843	907.94
482.061	912.94
482.28	901.94
482.498	892.94
482.717	899.94
482.935	897.94
483.153	898.94
483.372	887.94
483.59	901.94
483.808	915.94
484.027	917.94
484.245	891.94
484.463	910.94
484.681	919.94
484.9	955.94
485.118	953.94
485.336	937.94
485.554	910.94
485.772	921.94
485.99	919.94
486.209	926.94
486.427	933.94
486.645	899.94
486.863	932.94
487.081	925.94
487.299	961.94
487.517	958.94
487.735	925.94
487.953	975.94
488.171	953.94
488.389	953.94
488.607	934.94
488.825	909.94
489.043	931.94
489.261	907.94
489.479	937.94
489.696	921.94
489.914	919.94
490.132	949.94
490.35	929.94
490.568	958.94
490.786	967.94
491.003	965.94
491.221	965.94
491.439	967.94
491.657	959.94
491.874	993.94
492.092	958.94
492.31	970.94
492.527	1003.94
492.745	981.94
492.963	966.94
493.18	1009.94
493.398	983.94
493.615	1019.94
493.833	1005.94
494.05	1002.94
494.268	982.94
494.485	1001.94
494.703	1013.94
494.92	998.94
495.138	989.94
495.355	1004.94
495.573	984.94
495.79	1018.94
496.008	1058.94
496.225	1046.94
496.442	1040.94
496.66	1055.94
496.877	1081.94
497.094	1079.94
497.312	1088.94
497.529	1122.94
497.746	1130.94
497.963	1179.94
498.181	1217.94
498.398	1252.94
498.615	1329.94
498.832	1347.94
499.049	1441.94
499.267	1541.94
499.484	1680.94
499.701	1822.94
499.918	1921.94
500.135	2168.94
500.352	2346.94
500.569	2401.94
500.786	2429.94
501.003	2268.94
501.22	2126.94
501.437	1931.94
501.654	1777.94
501.871	1637.94
502.088	1533.94
502.305	1417.94
502.522	1398.94
502.739	1326.94
502.956	1291.94
503.172	1214.94
503.389	1148.94
503.606	1139.94
503.823	1129.94
504.04	1119.94
504.256	1165.94
504.473	1121.94
504.69	1140.94
504.907	1132.94
505.123	1064.94
505.34	1028.94
505.557	1013.94
505.773	1005.94
505.99	957.94
506.207	950.94
506.423	930.94
506.64	892.94
506.856	934.94
507.073	910.94
507.289	910.94
507.506	914.94
507.722	872.94
507.939	878.94
508.155	872.94
508.372	850.94
508.588	860.94
508.805	824.94
509.021	855.94
509.238	857.94
509.454	842.94
509.67	814.94
509.887	838.94
510.103	811.94
510.319	812.94
510.536	792.94
510.752	795.94
510.968	826.94
511.184	783.94
511.401	821.94
511.617	812.94
511.833	777.94
512.049	808.94
512.265	804.94
512.481	794.94
512.698	771.94
512.914	807.94
513.13	777.94
513.346	777.94
513.562	781.94
513.778	818.94
513.994	797.94
514.21	819.94
514.426	807.94
514.642	810.94
514.858	825.94
515.074	831.94
515.29	812.94
515.506	831.94
515.721	832.94
515.937	841.94
516.153	857.94
516.369	866.94
516.585	907.94
516.801	901.94
517.016	945.94
517.232	975.94
517.448	1005.94
517.664	1013.94
517.879	1017.94
518.095	994.94
518.311	997.94
518.527	954.94
518.742	962.94
518.958	899.94
519.173	893.94
519.389	886.94
519.605	868.94
519.82	863.94
520.036	857.94
520.251	831.94
520.467	827.94
520.682	797.94
520.898	781.94
521.113	801.94
521.329	799.94
521.544	784.94
521.76	766.94
521.975	765.94
522.19	748.94
522.406	741.94
522.621	739.94
522.836	761.94
523.052	761.94
523.267	749.94
523.482	742.94
523.698	725.94
523.913	731.94
524.128	708.94
524.343	722.94
524.559	723.94
524.774	741.94
524.989	718.94
525.204	733.94
525.419	724.94
525.634	725.94
525.849	733.94
526.064	711.94
526.28	712.94
526.495	702.94
526.71	690.94
526.925	701.94
527.14	695.94
527.355	695.94
527.57	708.94
527.785	703.94
527.999	691.94
528.214	695.94
528.429	709.94
528.644	738.94
528.859	730.94
529.074	725.94
529.289	741.94
529.503	727.94
529.718	733.94
529.933	718.94
530.148	700.94
530.363	691.94
530.577	703.94
530.792	679.94
531.007	703.94
531.221	701.94
531.436	707.94
531.651	713.94
531.865	715.94
532.08	715.94
532.295	709.94
532.509	663.94
532.724	693.94
532.938	712.94
533.153	676.94
533.367	707.94
533.582	712.94
533.796	693.94
534.011	709.94
534.225	694.94
534.44	683.94
534.654	669.94
534.868	685.94
535.083	690.94
535.297	659.94
535.511	687.94
535.726	689.94
535.94	669.94
536.154	678.94
536.369	666.94
536.583	637.94
536.797	661.94
537.011	657.94
537.225	645.94
537.44	663.94
537.654	644.94
537.868	651.94
538.082	646.94
538.296	641.94
538.51	635.94
538.724	662.94
538.938	660.94
539.153	618.94
539.367	663.94
539.581	637.94
539.795	651.94
540.009	655.94
540.222	637.94
540.436	636.94
540.65	639.94
540.864	637.94
541.078	618.94
541.292	650.94
541.506	661.94
541.72	665.94
541.934	647.94
542.147	660.94
542.361	653.94
542.575	631.94
542.789	631.94
543.002	625.94
543.216	650.94
543.43	639.94
543.644	637.94
543.857	638.94
544.071	629.94
544.285	637.94
544.498	651.94
544.712	650.94
544.925	663.94
545.139	673.94
545.352	653.94
545.566	643.94
545.779	668.94
545.993	677.94
546.206	637.94
546.42	658.94
546.633	670.94
546.847	666.94
547.06	669.94
547.274	655.94
547.487	638.94
547.7	678.94
547.914	657.94
548.127	660.94
548.34	647.94
548.554	653.94
548.767	672.94
548.98	669.94
549.193	663.94
549.407	658.94
549.62	673.94
549.833	673.94
550.046	665.94
550.259	651.94
550.473	639.94
550.686	665.94
550.899	661.94
551.112	635.94
551.325	635.94
551.538	641.94
551.751	639.94
551.964	634.94
552.177	635.94
552.39	639.94
552.603	655.94
552.816	663.94
553.029	689.94
553.242	699.94
553.455	700.94
553.667	690.94
553.88	665.94
554.093	627.94
554.306	671.94
554.519	637.94
554.732	652.94
554.944	636.94
555.157	634.94
555.37	629.94
555.583	613.94
555.795	607.94
556.008	583.94
556.221	582.94
556.433	578.94
556.646	583.94
556.859	585.94
557.071	579.94
557.284	558.94
557.496	561.94
557.709	574.94
557.921	569.94
558.134	571.94
558.346	561.94
558.559	577.94
558.771	571.94
558.984	541.94
559.196	557.94
559.409	556.94
559.621	550.94
559.833	546.94
560.046	551.94
560.258	554.94
560.47	534.94
560.683	534.94
560.895	542.94
561.107	547.94
561.32	546.94
561.532	520.94
561.744	551.94
561.956	564.94
562.168	563.94
562.381	571.94
562.593	551.94
562.805	557.94
563.017	553.94
563.229	542.94
563.441	543.94
563.653	564.94
563.865	549.94
564.077	576.94
564.289	557.94
564.501	598.94
564.713	558.94
564.925	580.94
565.137	581.94
565.349	588.94
565.561	608.94
565.773	633.94
565.985	637.94
566.197	664.94
566.408	723.94
566.62	735.94
566.832	773.94
567.044	789.94
567.255	758.94
567.467	784.94
567.679	832.94
567.891	866.94
568.102	865.94
568.314	825.94
568.526	778.94
568.737	724.94
568.949	681.94
569.161	642.94
569.372	624.94
569.584	611.94
569.795	557.94
570.007	557.94
570.218	542.94
570.43	558.94
570.641	547.94
570.853	528.94
571.064	521.94
571.276	527.94
571.487	542.94
571.698	503.94
571.91	486.94
572.121	481.94
572.333	488.94
572.544	467.94
572.755	471.94
572.966	469.94
573.178	465.94
573.389	467.94
573.6	443.94
573.811	463.94
574.023	443.94
574.234	429.94
574.445	438.94
574.656	419.94
574.867	450.94
575.078	428.94
575.289	441.94
575.501	445.94
575.712	449.94
575.923	417.94
576.134	427.94
576.345	423.94
576.556	414.94
576.767	434.94
576.978	394.94
577.188	425.94
577.399	427.94
577.61	408.94
577.821	409.94
578.032	394.94
578.243	403.94
578.454	403.94
578.665	401.94
578.875	362.94
579.086	383.94
579.297	395.94
579.508	388.94
579.718	391.94
579.929	383.94
580.14	382.94
580.35	399.94
580.561	378.94
580.772	381.94
580.982	364.94
581.193	376.94
581.403	381.94
581.614	380.94
581.825	387.94
582.035	381.94
582.246	373.94
582.456	379.94
582.667	378.94
582.877	384.94
583.087	381.94
583.298	396.94
583.508	381.94
583.719	365.94
583.929	361.94
584.139	348.94
584.35	370.94
584.56	375.94
584.77	373.94
584.981	359.94
585.191	341.94
585.401	359.94
585.611	377.94
585.821	359.94
586.032	355.94
586.242	357.94
586.452	380.94
586.662	358.94
586.872	360.94
587.082	348.94
587.292	338.94
587.502	357.94
587.713	353.94
587.923	376.94
588.133	351.94
588.343	372.94
588.553	361.94
588.762	353.94
588.972	364.94
589.182	413.94
589.392	395.94
589.602	371.94
589.812	402.94
590.022	389.94
590.232	382.94
590.441	355.94
590.651	379.94
590.861	363.94
591.071	373.94
591.281	367.94
591.49	359.94
591.7	377.94
591.91	375.94
592.119	358.94
592.329	379.94
592.539	381.94
592.748	385.94
592.958	385.94
593.167	445.94
593.377	408.94
593.587	417.94
593.796	414.94
594.006	426.94
594.215	421.94
594.424	405.94
594.634	406.94
594.843	403.94
595.053	372.94
595.262	365.94
595.472	376.94
595.681	353.94
595.89	346.94
596.1	354.94
596.309	337.94
596.518	340.94
596.727	332.94
596.937	348.94
597.146	324.94
597.355	329.94
597.564	302.94
597.774	325.94
597.983	336.94
598.192	331.94
598.401	325.94
598.61	314.94
598.819	303.94
599.028	301.94
599.237	295.94
599.446	289.94
599.655	292.94
599.864	305.94
600.073	313.94
600.282	291.94
600.491	295.94
600.7	297.94
600.909	302.94
601.118	279.94
601.327	297.94
601.536	305.94
601.745	289.94
601.953	313.94
602.162	307.94
602.371	308.94
602.58	286.94
602.789	293.94
602.997	275.94
603.206	286.94
603.415	311.94
603.623	311.94
603.832	293.94
604.041	279.94
604.249	288.94
604.458	283.94
604.666	279.94
604.875	301.94
605.084	269.94
605.292	259.94
605.501	287.94
605.709	275.94
605.918	291.94
606.126	296.94
606.334	272.94
606.543	301.94
606.751	260.94
606.96	271.94
607.168	279.94
607.376	265.94
607.585	281.94
607.793	274.94
608.001	270.94
608.21	281.94
608.418	257.94
608.626	289.94
608.834	261.94
609.043	269.94
609.251	278.94
609.459	259.94
609.667	252.94
609.875	282.94
610.083	277.94
610.291	271.94
610.499	266.94
610.707	269.94
610.916	269.94
611.124	276.94
611.332	251.94
611.54	255.94
611.748	271.94
611.955	248.94
612.163	257.94
612.371	244.94
612.579	252.94
612.787	283.94
612.995	274.94
613.203	256.94
613.411	255.94
613.618	254.94
613.826	274.94
614.034	233.94
614.242	249.94
614.449	237.94
614.657	258.94
614.865	245.94
615.072	250.94
615.28	255.94
615.488	253.94
615.695	268.94
615.903	257.94
616.111	241.94
616.318	271.94
616.526	261.94
616.733	264.94
616.941	261.94
617.148	242.94
617.356	256.94
617.563	246.94
617.771	247.94
617.978	232.94
618.185	238.94
618.393	248.94
618.6	259.94
618.807	248.94
619.015	268.94
619.222	257.94
619.429	249.94
619.637	255.94
619.844	241.94
620.051	249.94
620.258	257.94
620.466	231.94
620.673	237.94
620.88	234.94
621.087	242.94
621.294	218.94
621.501	225.94
621.708	238.94
621.915	224.94
622.122	238.94
622.329	238.94
622.536	248.94
622.743	230.94
622.95	247.94
623.157	211.94
623.364	242.94
623.571	234.94
623.778	235.94
623.985	242.94
624.192	213.94
624.399	212.94
624.606	219.94
624.812	231.94
625.019	231.94
625.226	225.94
625.433	225.94
625.639	217.94
625.846	224.94
626.053	223.94
626.259	225.94
626.466	220.94
626.673	222.94
626.879	202.94
627.086	215.94
627.293	213.94
627.499	228.94
627.706	197.94
627.912	213.94
628.119	232.94
628.325	213.94
628.532	218.94
628.738	212.94
628.945	211.94
629.151	212.94
629.357	204.94
629.564	213.94
629.77	208.94
629.976	212.94
630.183	206.94
630.389	192.94
630.595	182.94
630.802	213.94
631.008	199.94
631.214	192.94
631.42	216.94
631.627	214.94
631.833	210.94
632.039	203.94
632.245	193.94
632.451	215.94
632.657	204.94
632.863	198.94
633.069	194.94
633.275	218.94
633.481	189.94
633.688	204.94
633.893	189.94
634.099	203.94
634.305	177.94
634.511	198.94
634.717	197.94
634.923	187.94
635.129	194.94
635.335	194.94
635.541	188.94
635.747	193.94
635.952	197.94
636.158	178.94
636.364	188.94
636.57	199.94
636.775	186.94
636.981	206.94
637.187	196.94
637.392	186.94
637.598	175.94
637.804	202.94
638.009	187.94
638.215	193.94
638.421	182.94
638.626	186.94
638.832	193.94
639.037	189.94
639.243	187.94
639.448	189.94
639.654	187.94
639.859	203.94
640.065	193.94
640.27	207.94
640.475	182.94
640.681	186.94
640.886	185.94
641.091	189.94
641.297	186.94
641.502	201.94
641.707	168.94
641.913	178.94
642.118	186.94
642.323	195.94
642.528	182.94
642.733	177.94
642.939	182.94
643.144	181.94
643.349	171.94
643.554	169.94
643.759	173.94
643.964	181.94
644.169	184.94
644.374	180.94
644.579	175.94
644.784	167.94
644.989	170.94
645.194	181.94
645.399	176.94
645.604	179.94
645.809	174.94
646.014	184.94
646.219	177.94
646.423	199.94
646.628	170.94
646.833	179.94
647.038	168.94
647.243	165.94
647.447	161.94
647.652	156.94
647.857	166.94
648.062	186.94
648.266	193.94
648.471	181.94
648.676	169.94
648.88	174.94
649.085	172.94
649.289	174.94
649.494	166.94
649.698	157.94
649.903	170.94
650.107	178.94
650.312	172.94
650.516	184.94
650.721	179.94
650.925	166.94
651.13	166.94
651.334	151.94
651.539	166.94
651.743	174.94
651.947	165.94
652.152	165.94
652.356	173.94
652.56	156.94
652.764	170.94
652.969	157.94
653.173	144.94
653.377	147.94
653.581	136.94
653.785	147.94
653.99	150.94
654.194	148.94
654.398	146.94
654.602	158.94
654.806	142.94
655.01	158.94
655.214	134.94
655.418	125.94
655.622	131.94
655.826	147.94
656.03	137.94
656.234	127.94
656.438	139.94
656.642	161.94
656.846	137.94
657.049	133.94
657.253	139.94
657.457	130.94
657.661	112.94
657.865	121.94
658.068	134.94
658.272	118.94
658.476	127.94
658.68	116.94
658.883	101.94
659.087	116.94
659.291	107.94
659.494	115.94
659.698	96.94
659.901	105.94
660.105	96.94
660.309	101.94
660.512	93.94
660.716	100.94
660.919	95.94
661.123	92.94
661.326	102.94
661.53	93.94
661.733	95.94
661.936	88.94
662.14	89.94
662.343	82.94
662.546	95.94
662.75	96.94
662.953	95.94
663.156	104.94
663.36	85.94
663.563	105.94
663.766	76.94
663.969	79.94
664.173	102.94
664.376	86.94
664.579	85.94
664.782	81.94
664.985	76.94
665.188	81.94
665.391	92.94
665.594	81.94
665.797	78.94
666	87.94
666.203	94.94
666.406	67.94
666.609	67.94
666.812	80.94
667.015	74.94
667.218	75.94
667.421	90.94
667.624	74.94
667.827	87.94
668.03	93.94
668.232	76.94
668.435	79.94
668.638	80.94
668.841	71.94
669.043	87.94
669.246	86.94
669.449	82.94
669.651	81.94
669.854	86.94
670.057	69.94
670.259	81.94
670.462	92.94
670.665	79.94
670.867	72.94
671.07	96.94
671.272	91.94
671.475	82.94
671.677	79.94
671.88	93.94
672.082	76.94
672.284	95.94
672.487	84.94
672.689	88.94
672.892	72.94
