Data from NiCl2@0.5M.TitratingCurve.Agarose3%dH2O.NegLispCup.LampEnergy10.LIBS07252019_HRD10591_18-19-36-570.txt Node
Date: Thu Jul 25 18:19:36 EDT 2019
User: cochatt
Spectrometer: HR+D1059
Trigger mode: 1
Integration Time (sec): 1.000000E-1
Scans to average: 1
Electric dark correction enabled: true
Nonlinearity correction enabled: false
Boxcar width: 0
XAxis mode: Wavelengths
Number of Pixels in Spectrum: 2048
>>>>>Begin Spectral Data<<<<<
223.165	-8.25
223.4	-8.25
223.635	-8.25
223.869	-30.25
224.104	-14.25
224.338	-16.25
224.573	-26.25
224.808	-12.25
225.042	-13.25
225.277	-7.25
225.511	2.75
225.746	5.75
225.98	12.75
226.215	11.75
226.449	11.75
226.683	10.75
226.918	30.75
227.152	41.75
227.387	27.75
227.621	39.75
227.856	29.75
228.09	51.75
228.324	51.75
228.559	56.75
228.793	69.75
229.027	104.75
229.262	82.75
229.496	97.75
229.73	100.75
229.964	111.75
230.199	120.75
230.433	101.75
230.667	126.75
230.901	113.75
231.136	113.75
231.37	136.75
231.604	125.75
231.838	142.75
232.072	125.75
232.306	134.75
232.541	133.75
232.775	125.75
233.009	134.75
233.243	120.75
233.477	135.75
233.711	143.75
233.945	126.75
234.179	117.75
234.413	131.75
234.647	122.75
234.881	129.75
235.115	139.75
235.349	129.75
235.583	121.75
235.817	134.75
236.051	127.75
236.285	132.75
236.519	136.75
236.753	138.75
236.987	139.75
237.221	139.75
237.455	137.75
237.689	139.75
237.922	146.75
238.156	135.75
238.39	140.75
238.624	121.75
238.858	136.75
239.091	133.75
239.325	138.75
239.559	144.75
239.793	157.75
240.027	148.75
240.26	153.75
240.494	183.75
240.728	138.75
240.961	148.75
241.195	144.75
241.429	168.75
241.662	156.75
241.896	171.75
242.13	162.75
242.363	159.75
242.597	150.75
242.83	151.75
243.064	148.75
243.298	169.75
243.531	156.75
243.765	153.75
243.998	167.75
244.232	167.75
244.465	169.75
244.699	176.75
244.932	183.75
245.166	185.75
245.399	166.75
245.633	168.75
245.866	169.75
246.099	196.75
246.333	186.75
246.566	181.75
246.8	177.75
247.033	184.75
247.266	175.75
247.5	187.75
247.733	204.75
247.966	186.75
248.2	197.75
248.433	185.75
248.666	198.75
248.899	196.75
249.133	179.75
249.366	191.75
249.599	185.75
249.832	202.75
250.066	198.75
250.299	197.75
250.532	215.75
250.765	206.75
250.998	198.75
251.231	193.75
251.465	187.75
251.698	209.75
251.931	217.75
252.164	210.75
252.397	203.75
252.63	211.75
252.863	209.75
253.096	239.75
253.329	222.75
253.562	212.75
253.795	214.75
254.028	219.75
254.261	227.75
254.494	222.75
254.727	213.75
254.96	219.75
255.193	235.75
255.426	223.75
255.659	205.75
255.892	232.75
256.124	220.75
256.357	246.75
256.59	237.75
256.823	222.75
257.056	228.75
257.289	226.75
257.521	234.75
257.754	235.75
257.987	218.75
258.22	230.75
258.452	255.75
258.685	245.75
258.918	226.75
259.151	253.75
259.383	248.75
259.616	233.75
259.849	221.75
260.081	247.75
260.314	234.75
260.547	271.75
260.779	251.75
261.012	259.75
261.244	259.75
261.477	263.75
261.71	279.75
261.942	259.75
262.175	281.75
262.407	270.75
262.64	258.75
262.872	271.75
263.105	263.75
263.337	280.75
263.57	269.75
263.802	282.75
264.035	277.75
264.267	276.75
264.499	288.75
264.732	286.75
264.964	273.75
265.197	282.75
265.429	280.75
265.661	288.75
265.894	290.75
266.126	281.75
266.358	287.75
266.591	279.75
266.823	296.75
267.055	278.75
267.287	275.75
267.52	295.75
267.752	294.75
267.984	301.75
268.216	301.75
268.448	290.75
268.681	280.75
268.913	303.75
269.145	306.75
269.377	297.75
269.609	317.75
269.841	291.75
270.073	294.75
270.306	277.75
270.538	294.75
270.77	291.75
271.002	303.75
271.234	313.75
271.466	308.75
271.698	305.75
271.93	330.75
272.162	307.75
272.394	328.75
272.626	329.75
272.858	307.75
273.09	320.75
273.322	315.75
273.553	311.75
273.785	338.75
274.017	338.75
274.249	342.75
274.481	322.75
274.713	337.75
274.945	330.75
275.176	318.75
275.408	331.75
275.64	341.75
275.872	331.75
276.104	346.75
276.335	347.75
276.567	346.75
276.799	339.75
277.031	328.75
277.262	343.75
277.494	352.75
277.726	335.75
277.957	340.75
278.189	334.75
278.421	337.75
278.652	343.75
278.884	349.75
279.115	346.75
279.347	358.75
279.579	339.75
279.81	341.75
280.042	373.75
280.273	339.75
280.505	364.75
280.736	363.75
280.968	365.75
281.199	363.75
281.431	354.75
281.662	376.75
281.894	355.75
282.125	352.75
282.356	358.75
282.588	377.75
282.819	367.75
283.051	361.75
283.282	376.75
283.513	389.75
283.745	373.75
283.976	368.75
284.207	402.75
284.439	384.75
284.67	398.75
284.901	403.75
285.132	386.75
285.364	395.75
285.595	377.75
285.826	390.75
286.057	395.75
286.288	398.75
286.52	378.75
286.751	392.75
286.982	390.75
287.213	400.75
287.444	393.75
287.675	405.75
287.906	427.75
288.138	423.75
288.369	399.75
288.6	393.75
288.831	404.75
289.062	399.75
289.293	427.75
289.524	413.75
289.755	422.75
289.986	424.75
290.217	407.75
290.448	418.75
290.679	403.75
290.91	416.75
291.141	394.75
291.371	406.75
291.602	421.75
291.833	416.75
292.064	418.75
292.295	408.75
292.526	429.75
292.757	413.75
292.987	415.75
293.218	405.75
293.449	426.75
293.68	413.75
293.91	414.75
294.141	433.75
294.372	440.75
294.603	433.75
294.833	432.75
295.064	421.75
295.295	429.75
295.525	426.75
295.756	441.75
295.987	438.75
296.217	436.75
296.448	416.75
296.679	441.75
296.909	451.75
297.14	436.75
297.37	450.75
297.601	463.75
297.831	452.75
298.062	470.75
298.292	454.75
298.523	459.75
298.753	475.75
298.984	452.75
299.214	456.75
299.445	467.75
299.675	481.75
299.905	459.75
300.136	475.75
300.366	461.75
300.597	468.75
300.827	465.75
301.057	478.75
301.288	458.75
301.518	474.75
301.748	472.75
301.979	502.75
302.209	497.75
302.439	464.75
302.669	467.75
302.9	477.75
303.13	484.75
303.36	474.75
303.59	489.75
303.82	483.75
304.051	497.75
304.281	493.75
304.511	477.75
304.741	481.75
304.971	486.75
305.201	474.75
305.431	513.75
305.661	506.75
305.891	483.75
306.121	479.75
306.352	476.75
306.582	496.75
306.812	481.75
307.042	466.75
307.272	471.75
307.502	478.75
307.731	484.75
307.961	487.75
308.191	473.75
308.421	483.75
308.651	488.75
308.881	462.75
309.111	485.75
309.341	467.75
309.571	497.75
309.8	495.75
310.03	498.75
310.26	503.75
310.49	485.75
310.72	514.75
310.949	465.75
311.179	491.75
311.409	483.75
311.639	503.75
311.868	495.75
312.098	516.75
312.328	502.75
312.557	499.75
312.787	497.75
313.017	495.75
313.246	521.75
313.476	515.75
313.706	533.75
313.935	522.75
314.165	529.75
314.394	522.75
314.624	519.75
314.853	506.75
315.083	528.75
315.312	514.75
315.542	526.75
315.771	503.75
316.001	521.75
316.23	523.75
316.46	524.75
316.689	520.75
316.919	522.75
317.148	511.75
317.377	506.75
317.607	511.75
317.836	527.75
318.065	530.75
318.295	528.75
318.524	512.75
318.753	509.75
318.983	516.75
319.212	496.75
319.441	515.75
319.67	522.75
319.9	509.75
320.129	517.75
320.358	530.75
320.587	533.75
320.816	513.75
321.046	512.75
321.275	530.75
321.504	509.75
321.733	535.75
321.962	521.75
322.191	538.75
322.42	552.75
322.649	533.75
322.878	523.75
323.108	516.75
323.337	532.75
323.566	534.75
323.795	551.75
324.024	546.75
324.253	533.75
324.482	561.75
324.71	517.75
324.939	522.75
325.168	530.75
325.397	550.75
325.626	542.75
325.855	565.75
326.084	579.75
326.313	563.75
326.542	565.75
326.77	580.75
326.999	573.75
327.228	542.75
327.457	566.75
327.686	549.75
327.914	548.75
328.143	581.75
328.372	577.75
328.6	559.75
328.829	565.75
329.058	557.75
329.287	557.75
329.515	587.75
329.744	567.75
329.972	580.75
330.201	585.75
330.43	553.75
330.658	554.75
330.887	579.75
331.115	586.75
331.344	585.75
331.572	583.75
331.801	590.75
332.03	619.75
332.258	648.75
332.486	621.75
332.715	655.75
332.943	678.75
333.172	682.75
333.4	705.75
333.629	704.75
333.857	726.75
334.085	705.75
334.314	725.75
334.542	705.75
334.771	710.75
334.999	673.75
335.227	689.75
335.455	704.75
335.684	687.75
335.912	711.75
336.14	708.75
336.369	680.75
336.597	692.75
336.825	673.75
337.053	672.75
337.281	691.75
337.51	659.75
337.738	640.75
337.966	645.75
338.194	652.75
338.422	624.75
338.65	639.75
338.878	610.75
339.106	611.75
339.334	614.75
339.562	613.75
339.79	629.75
340.018	605.75
340.246	592.75
340.474	573.75
340.702	593.75
340.93	588.75
341.158	599.75
341.386	610.75
341.614	614.75
341.842	612.75
342.07	582.75
342.298	579.75
342.526	607.75
342.754	598.75
342.981	600.75
343.209	623.75
343.437	616.75
343.665	645.75
343.893	652.75
344.12	682.75
344.348	673.75
344.576	655.75
344.804	628.75
345.031	625.75
345.259	636.75
345.487	602.75
345.714	611.75
345.942	585.75
346.17	635.75
346.397	609.75
346.625	578.75
346.853	577.75
347.08	574.75
347.308	603.75
347.535	576.75
347.763	577.75
347.99	590.75
348.218	568.75
348.445	575.75
348.673	567.75
348.9	576.75
349.128	573.75
349.355	583.75
349.583	588.75
349.81	580.75
350.037	571.75
350.265	557.75
350.492	565.75
350.72	530.75
350.947	554.75
351.174	541.75
351.402	560.75
351.629	576.75
351.856	590.75
352.083	563.75
352.311	546.75
352.538	552.75
352.765	582.75
352.992	552.75
353.22	550.75
353.447	543.75
353.674	539.75
353.901	537.75
354.128	538.75
354.355	533.75
354.583	539.75
354.81	545.75
355.037	534.75
355.264	551.75
355.491	546.75
355.718	548.75
355.945	554.75
356.172	537.75
356.399	550.75
356.626	555.75
356.853	587.75
357.08	559.75
357.307	542.75
357.534	524.75
357.761	557.75
357.988	530.75
358.215	541.75
358.441	539.75
358.668	521.75
358.895	543.75
359.122	520.75
359.349	527.75
359.576	543.75
359.802	557.75
360.029	539.75
360.256	535.75
360.483	536.75
360.709	535.75
360.936	537.75
361.163	536.75
361.39	524.75
361.616	556.75
361.843	539.75
362.07	560.75
362.296	553.75
362.523	539.75
362.749	522.75
362.976	539.75
363.203	532.75
363.429	503.75
363.656	559.75
363.882	530.75
364.109	518.75
364.335	537.75
364.562	525.75
364.788	529.75
365.015	552.75
365.241	530.75
365.468	545.75
365.694	527.75
365.92	514.75
366.147	542.75
366.373	530.75
366.599	554.75
366.826	537.75
367.052	535.75
367.278	551.75
367.505	520.75
367.731	547.75
367.957	530.75
368.184	544.75
368.41	549.75
368.636	538.75
368.862	547.75
369.089	543.75
369.315	557.75
369.541	536.75
369.767	542.75
369.993	554.75
370.219	556.75
370.445	567.75
370.672	569.75
370.898	541.75
371.124	550.75
371.35	586.75
371.576	591.75
371.802	559.75
372.028	563.75
372.254	569.75
372.48	592.75
372.706	581.75
372.932	581.75
373.158	559.75
373.384	575.75
373.61	561.75
373.835	576.75
374.061	579.75
374.287	581.75
374.513	585.75
374.739	595.75
374.965	600.75
375.191	618.75
375.416	624.75
375.642	586.75
375.868	591.75
376.094	579.75
376.319	570.75
376.545	584.75
376.771	558.75
376.997	576.75
377.222	563.75
377.448	563.75
377.674	554.75
377.899	554.75
378.125	549.75
378.35	567.75
378.576	559.75
378.802	551.75
379.027	543.75
379.253	566.75
379.478	549.75
379.704	555.75
379.929	556.75
380.155	557.75
380.38	543.75
380.606	534.75
380.831	549.75
381.057	581.75
381.282	549.75
381.507	550.75
381.733	552.75
381.958	550.75
382.184	566.75
382.409	566.75
382.634	571.75
382.86	595.75
383.085	571.75
383.31	622.75
383.535	595.75
383.761	576.75
383.986	618.75
384.211	608.75
384.436	625.75
384.662	626.75
384.887	638.75
385.112	632.75
385.337	652.75
385.562	623.75
385.787	669.75
386.013	666.75
386.238	666.75
386.463	637.75
386.688	637.75
386.913	629.75
387.138	634.75
387.363	622.75
387.588	645.75
387.813	637.75
388.038	648.75
388.263	633.75
388.488	653.75
388.713	627.75
388.938	658.75
389.163	606.75
389.387	651.75
389.612	635.75
389.837	638.75
390.062	632.75
390.287	616.75
390.512	646.75
390.736	642.75
390.961	661.75
391.186	671.75
391.411	655.75
391.636	698.75
391.86	709.75
392.085	728.75
392.31	716.75
392.534	691.75
392.759	687.75
392.984	670.75
393.208	664.75
393.433	687.75
393.658	653.75
393.882	689.75
394.107	672.75
394.331	694.75
394.556	701.75
394.78	689.75
395.005	670.75
395.229	689.75
395.454	719.75
395.678	725.75
395.903	727.75
396.127	730.75
396.352	698.75
396.576	705.75
396.801	679.75
397.025	715.75
397.249	708.75
397.474	750.75
397.698	741.75
397.922	735.75
398.147	704.75
398.371	733.75
398.595	768.75
398.82	779.75
399.044	816.75
399.268	903.75
399.492	1019.75
399.717	1106.75
399.941	1091.75
400.165	992.75
400.389	938.75
400.613	863.75
400.837	854.75
401.062	839.75
401.286	824.75
401.51	788.75
401.734	802.75
401.958	794.75
402.182	828.75
402.406	793.75
402.63	821.75
402.854	824.75
403.078	835.75
403.302	856.75
403.526	889.75
403.75	870.75
403.974	889.75
404.198	893.75
404.422	884.75
404.645	894.75
404.869	867.75
405.093	866.75
405.317	860.75
405.541	865.75
405.765	865.75
405.988	865.75
406.212	891.75
406.436	883.75
406.66	886.75
406.883	886.75
407.107	931.75
407.331	966.75
407.555	1017.75
407.778	990.75
408.002	969.75
408.226	936.75
408.449	948.75
408.673	907.75
408.896	895.75
409.12	922.75
409.344	913.75
409.567	928.75
409.791	922.75
410.014	906.75
410.238	898.75
410.461	899.75
410.685	873.75
410.908	877.75
411.132	865.75
411.355	841.75
411.578	824.75
411.802	854.75
412.025	844.75
412.249	865.75
412.472	858.75
412.695	829.75
412.919	787.75
413.142	838.75
413.365	839.75
413.589	837.75
413.812	834.75
414.035	819.75
414.258	784.75
414.482	810.75
414.705	834.75
414.928	818.75
415.151	838.75
415.374	843.75
415.597	809.75
415.821	827.75
416.044	786.75
416.267	814.75
416.49	822.75
416.713	817.75
416.936	809.75
417.159	806.75
417.382	801.75
417.605	803.75
417.828	789.75
418.051	835.75
418.274	809.75
418.497	789.75
418.72	816.75
418.943	801.75
419.166	878.75
419.389	967.75
419.611	897.75
419.834	861.75
420.057	856.75
420.28	814.75
420.503	827.75
420.726	805.75
420.948	794.75
421.171	806.75
421.394	847.75
421.617	835.75
421.839	824.75
422.062	802.75
422.285	828.75
422.507	834.75
422.73	856.75
422.953	821.75
423.175	827.75
423.398	847.75
423.621	842.75
423.843	866.75
424.066	863.75
424.288	844.75
424.511	844.75
424.733	856.75
424.956	830.75
425.178	814.75
425.401	834.75
425.623	832.75
425.846	795.75
426.068	813.75
426.291	786.75
426.513	786.75
426.735	791.75
426.958	795.75
427.18	783.75
427.402	775.75
427.625	772.75
427.847	765.75
428.069	756.75
428.292	776.75
428.514	788.75
428.736	779.75
428.958	765.75
429.181	744.75
429.403	754.75
429.625	746.75
429.847	749.75
430.069	761.75
430.292	779.75
430.514	759.75
430.736	753.75
430.958	765.75
431.18	746.75
431.402	765.75
431.624	758.75
431.846	774.75
432.068	794.75
432.29	777.75
432.512	783.75
432.734	765.75
432.956	737.75
433.178	747.75
433.4	776.75
433.622	790.75
433.844	774.75
434.066	796.75
434.287	792.75
434.509	799.75
434.731	832.75
434.953	831.75
435.175	844.75
435.397	862.75
435.618	804.75
435.84	814.75
436.062	785.75
436.284	809.75
436.505	794.75
436.727	811.75
436.949	787.75
437.17	773.75
437.392	777.75
437.614	741.75
437.835	724.75
438.057	778.75
438.278	752.75
438.5	773.75
438.721	751.75
438.943	759.75
439.165	747.75
439.386	774.75
439.608	761.75
439.829	783.75
440.05	772.75
440.272	791.75
440.493	779.75
440.715	800.75
440.936	787.75
441.158	812.75
441.379	843.75
441.6	881.75
441.822	843.75
442.043	890.75
442.264	863.75
442.486	842.75
442.707	838.75
442.928	859.75
443.149	874.75
443.371	859.75
443.592	878.75
443.813	839.75
444.034	849.75
444.255	877.75
444.476	911.75
444.698	964.75
444.919	1000.75
445.14	1077.75
445.361	980.75
445.582	889.75
445.803	836.75
446.024	826.75
446.245	839.75
446.466	822.75
446.687	807.75
446.908	805.75
447.129	751.75
447.35	787.75
447.571	771.75
447.792	769.75
448.013	780.75
448.234	734.75
448.455	756.75
448.675	733.75
448.896	724.75
449.117	725.75
449.338	751.75
449.559	744.75
449.779	712.75
450	741.75
450.221	742.75
450.442	741.75
450.662	773.75
450.883	747.75
451.104	762.75
451.324	733.75
451.545	741.75
451.766	741.75
451.986	734.75
452.207	730.75
452.428	719.75
452.648	719.75
452.869	706.75
453.089	704.75
453.31	737.75
453.53	749.75
453.751	713.75
453.971	704.75
454.192	720.75
454.412	688.75
454.633	669.75
454.853	693.75
455.073	708.75
455.294	699.75
455.514	695.75
455.734	695.75
455.955	676.75
456.175	672.75
456.395	703.75
456.616	669.75
456.836	690.75
457.056	699.75
457.276	705.75
457.497	710.75
457.717	665.75
457.937	726.75
458.157	714.75
458.377	731.75
458.598	720.75
458.818	718.75
459.038	763.75
459.258	777.75
459.478	793.75
459.698	807.75
459.918	848.75
460.138	851.75
460.358	888.75
460.578	893.75
460.798	915.75
461.018	930.75
461.238	913.75
461.458	911.75
461.678	906.75
461.898	949.75
462.118	944.75
462.338	948.75
462.558	961.75
462.777	1007.75
462.997	1087.75
463.217	1147.75
463.437	1155.75
463.657	1060.75
463.876	1034.75
464.096	1021.75
464.316	1003.75
464.536	1029.75
464.755	1009.75
464.975	992.75
465.195	945.75
465.414	879.75
465.634	833.75
465.854	849.75
466.073	825.75
466.293	816.75
466.512	825.75
466.732	789.75
466.951	782.75
467.171	787.75
467.391	779.75
467.61	778.75
467.829	762.75
468.049	750.75
468.268	745.75
468.488	781.75
468.707	751.75
468.927	761.75
469.146	746.75
469.365	774.75
469.585	770.75
469.804	803.75
470.023	803.75
470.243	786.75
470.462	807.75
470.681	831.75
470.901	821.75
471.12	780.75
471.339	786.75
471.558	768.75
471.777	749.75
471.997	769.75
472.216	751.75
472.435	762.75
472.654	737.75
472.873	749.75
473.092	741.75
473.311	729.75
473.53	745.75
473.749	752.75
473.968	727.75
474.187	736.75
474.406	739.75
474.625	740.75
474.844	767.75
475.063	783.75
475.282	775.75
475.501	764.75
475.72	782.75
475.939	768.75
476.158	768.75
476.377	794.75
476.596	775.75
476.814	795.75
477.033	785.75
477.252	782.75
477.471	809.75
477.69	839.75
477.908	844.75
478.127	865.75
478.346	882.75
478.564	873.75
478.783	889.75
479.002	911.75
479.22	935.75
479.439	899.75
479.658	915.75
479.876	872.75
480.095	922.75
480.313	932.75
480.532	954.75
480.751	960.75
480.969	918.75
481.188	866.75
481.406	865.75
481.624	883.75
481.843	865.75
482.061	883.75
482.28	849.75
482.498	872.75
482.717	861.75
482.935	879.75
483.153	883.75
483.372	873.75
483.59	865.75
483.808	898.75
484.027	881.75
484.245	877.75
484.463	890.75
484.681	907.75
484.9	930.75
485.118	911.75
485.336	914.75
485.554	884.75
485.772	890.75
485.99	880.75
486.209	926.75
486.427	896.75
486.645	914.75
486.863	920.75
487.081	922.75
487.299	917.75
487.517	893.75
487.735	906.75
487.953	895.75
488.171	921.75
488.389	913.75
488.607	891.75
488.825	874.75
489.043	883.75
489.261	895.75
489.479	903.75
489.696	894.75
489.914	895.75
490.132	904.75
490.35	918.75
490.568	923.75
490.786	919.75
491.003	927.75
491.221	922.75
491.439	962.75
491.657	938.75
491.874	947.75
492.092	967.75
492.31	933.75
492.527	967.75
492.745	969.75
492.963	937.75
493.18	950.75
493.398	954.75
493.615	957.75
493.833	925.75
494.05	957.75
494.268	963.75
494.485	965.75
494.703	993.75
494.92	979.75
495.138	967.75
495.355	1000.75
495.573	959.75
495.79	966.75
496.008	1015.75
496.225	1015.75
496.442	1031.75
496.66	995.75
496.877	1008.75
497.094	1040.75
497.312	1048.75
497.529	1065.75
497.746	1102.75
497.963	1110.75
498.181	1131.75
498.398	1182.75
498.615	1235.75
498.832	1318.75
499.049	1381.75
499.267	1470.75
499.484	1561.75
499.701	1700.75
499.918	1831.75
500.135	2025.75
500.352	2227.75
500.569	2335.75
500.786	2274.75
501.003	2137.75
501.22	1989.75
501.437	1794.75
501.654	1644.75
501.871	1547.75
502.088	1425.75
502.305	1349.75
502.522	1317.75
502.739	1270.75
502.956	1225.75
503.172	1161.75
503.389	1128.75
503.606	1110.75
503.823	1064.75
504.04	1057.75
504.256	1070.75
504.473	1075.75
504.69	1088.75
504.907	1085.75
505.123	1024.75
505.34	985.75
505.557	955.75
505.773	907.75
505.99	943.75
506.207	895.75
506.423	870.75
506.64	879.75
506.856	858.75
507.073	864.75
507.289	844.75
507.506	859.75
507.722	847.75
507.939	829.75
508.155	825.75
508.372	843.75
508.588	840.75
508.805	817.75
509.021	805.75
509.238	769.75
509.454	778.75
509.67	786.75
509.887	775.75
510.103	787.75
510.319	758.75
510.536	798.75
510.752	768.75
510.968	738.75
511.184	732.75
511.401	762.75
511.617	777.75
511.833	731.75
512.049	786.75
512.265	775.75
512.481	762.75
512.698	763.75
512.914	756.75
513.13	769.75
513.346	767.75
513.562	766.75
513.778	745.75
513.994	774.75
514.21	785.75
514.426	755.75
514.642	763.75
514.858	788.75
515.074	775.75
515.29	787.75
515.506	778.75
515.721	785.75
515.937	854.75
516.153	823.75
516.369	832.75
516.585	836.75
516.801	862.75
517.016	915.75
517.232	936.75
517.448	931.75
517.664	981.75
517.879	969.75
518.095	969.75
518.311	946.75
518.527	929.75
518.742	924.75
518.958	847.75
519.173	858.75
519.389	832.75
519.605	826.75
519.82	803.75
520.036	829.75
520.251	797.75
520.467	757.75
520.682	740.75
520.898	746.75
521.113	735.75
521.329	757.75
521.544	733.75
521.76	745.75
521.975	712.75
522.19	715.75
522.406	751.75
522.621	722.75
522.836	710.75
523.052	703.75
523.267	708.75
523.482	718.75
523.698	732.75
523.913	712.75
524.128	728.75
524.343	712.75
524.559	706.75
524.774	701.75
524.989	727.75
525.204	705.75
525.419	698.75
525.634	713.75
525.849	681.75
526.064	662.75
526.28	687.75
526.495	706.75
526.71	705.75
526.925	693.75
527.14	689.75
527.355	661.75
527.57	687.75
527.785	665.75
527.999	709.75
528.214	666.75
528.429	683.75
528.644	693.75
528.859	692.75
529.074	711.75
529.289	686.75
529.503	701.75
529.718	695.75
529.933	699.75
530.148	691.75
530.363	712.75
530.577	663.75
530.792	674.75
531.007	707.75
531.221	688.75
531.436	674.75
531.651	680.75
531.865	688.75
532.08	658.75
532.295	665.75
532.509	663.75
532.724	693.75
532.938	679.75
533.153	671.75
533.367	687.75
533.582	690.75
533.796	657.75
534.011	688.75
534.225	678.75
534.44	670.75
534.654	667.75
534.868	661.75
535.083	640.75
535.297	664.75
535.511	663.75
535.726	626.75
535.94	663.75
536.154	650.75
536.369	647.75
536.583	661.75
536.797	657.75
537.011	633.75
537.225	631.75
537.44	616.75
537.654	630.75
537.868	624.75
538.082	612.75
538.296	625.75
538.51	617.75
538.724	618.75
538.938	640.75
539.153	635.75
539.367	627.75
539.581	626.75
539.795	628.75
540.009	618.75
540.222	637.75
540.436	619.75
540.65	614.75
540.864	627.75
541.078	633.75
541.292	625.75
541.506	617.75
541.72	638.75
541.934	639.75
542.147	647.75
542.361	628.75
542.575	644.75
542.789	617.75
543.002	612.75
543.216	632.75
543.43	609.75
543.644	621.75
543.857	609.75
544.071	609.75
544.285	634.75
544.498	607.75
544.712	608.75
544.925	618.75
545.139	635.75
545.352	622.75
545.566	643.75
545.779	628.75
545.993	636.75
546.206	634.75
546.42	640.75
546.633	655.75
546.847	633.75
547.06	624.75
547.274	632.75
547.487	636.75
547.7	625.75
547.914	640.75
548.127	643.75
548.34	650.75
548.554	616.75
548.767	633.75
548.98	627.75
549.193	640.75
549.407	663.75
549.62	639.75
549.833	637.75
550.046	634.75
550.259	609.75
550.473	621.75
550.686	630.75
550.899	622.75
551.112	610.75
551.325	619.75
551.538	628.75
551.751	611.75
551.964	630.75
552.177	614.75
552.39	634.75
552.603	650.75
552.816	648.75
553.029	650.75
553.242	669.75
553.455	671.75
553.667	666.75
553.88	679.75
554.093	641.75
554.306	634.75
554.519	615.75
554.732	615.75
554.944	625.75
555.157	586.75
555.37	583.75
555.583	563.75
555.795	568.75
556.008	586.75
556.221	569.75
556.433	574.75
556.646	547.75
556.859	550.75
557.071	551.75
557.284	541.75
557.496	533.75
557.709	537.75
557.921	539.75
558.134	544.75
558.346	538.75
558.559	537.75
558.771	569.75
558.984	528.75
559.196	517.75
559.409	546.75
559.621	530.75
559.833	528.75
560.046	525.75
560.258	498.75
560.47	518.75
560.683	530.75
560.895	533.75
561.107	535.75
561.32	523.75
561.532	518.75
561.744	514.75
561.956	519.75
562.168	522.75
562.381	540.75
562.593	505.75
562.805	544.75
563.017	516.75
563.229	529.75
563.441	513.75
563.653	512.75
563.865	534.75
564.077	530.75
564.289	562.75
564.501	539.75
564.713	544.75
564.925	543.75
565.137	575.75
565.349	558.75
565.561	563.75
565.773	615.75
565.985	627.75
566.197	656.75
566.408	645.75
566.62	700.75
566.832	759.75
567.044	731.75
567.255	760.75
567.467	757.75
567.679	780.75
567.891	833.75
568.102	855.75
568.314	777.75
568.526	732.75
568.737	708.75
568.949	663.75
569.161	641.75
569.372	592.75
569.584	580.75
569.795	541.75
570.007	549.75
570.218	541.75
570.43	538.75
570.641	503.75
570.853	531.75
571.064	541.75
571.276	516.75
571.487	509.75
571.698	491.75
571.91	477.75
572.121	481.75
572.333	456.75
572.544	460.75
572.755	448.75
572.966	465.75
573.178	456.75
573.389	433.75
573.6	422.75
573.811	435.75
574.023	429.75
574.234	442.75
574.445	429.75
574.656	445.75
574.867	409.75
575.078	418.75
575.289	426.75
575.501	430.75
575.712	405.75
575.923	399.75
576.134	418.75
576.345	410.75
576.556	415.75
576.767	408.75
576.978	409.75
577.188	396.75
577.399	395.75
577.61	391.75
577.821	393.75
578.032	382.75
578.243	389.75
578.454	391.75
578.665	395.75
578.875	369.75
579.086	365.75
579.297	370.75
579.508	379.75
579.718	373.75
579.929	385.75
580.14	389.75
580.35	354.75
580.561	378.75
580.772	369.75
580.982	377.75
581.193	374.75
581.403	372.75
581.614	376.75
581.825	365.75
582.035	372.75
582.246	357.75
582.456	367.75
582.667	349.75
582.877	357.75
583.087	362.75
583.298	351.75
583.508	366.75
583.719	335.75
583.929	346.75
584.139	358.75
584.35	334.75
584.56	349.75
584.77	341.75
584.981	346.75
585.191	326.75
585.401	350.75
585.611	352.75
585.821	354.75
586.032	342.75
586.242	338.75
586.452	353.75
586.662	337.75
586.872	358.75
587.082	356.75
587.292	346.75
587.502	352.75
587.713	339.75
587.923	343.75
588.133	345.75
588.343	350.75
588.553	349.75
588.762	341.75
588.972	344.75
589.182	381.75
589.392	382.75
589.602	376.75
589.812	368.75
590.022	363.75
590.232	343.75
590.441	343.75
590.651	354.75
590.861	352.75
591.071	356.75
591.281	341.75
591.49	354.75
591.7	344.75
591.91	373.75
592.119	370.75
592.329	367.75
592.539	357.75
592.748	403.75
592.958	379.75
593.167	391.75
593.377	417.75
593.587	408.75
593.796	406.75
594.006	401.75
594.215	409.75
594.424	405.75
594.634	394.75
594.843	374.75
595.053	396.75
595.262	360.75
595.472	348.75
595.681	337.75
595.89	369.75
596.1	350.75
596.309	352.75
596.518	318.75
596.727	337.75
596.937	337.75
597.146	319.75
597.355	313.75
597.564	314.75
597.774	330.75
597.983	293.75
598.192	305.75
598.401	314.75
598.61	305.75
598.819	279.75
599.028	287.75
599.237	301.75
599.446	318.75
599.655	313.75
599.864	291.75
600.073	294.75
600.282	301.75
600.491	309.75
600.7	286.75
600.909	282.75
601.118	295.75
601.327	287.75
601.536	280.75
601.745	287.75
601.953	289.75
602.162	291.75
602.371	279.75
602.58	286.75
602.789	304.75
602.997	282.75
603.206	266.75
603.415	278.75
603.623	278.75
603.832	278.75
604.041	293.75
604.249	290.75
604.458	293.75
604.666	277.75
604.875	255.75
605.084	253.75
605.292	262.75
605.501	269.75
605.709	259.75
605.918	261.75
606.126	282.75
606.334	275.75
606.543	274.75
606.751	266.75
606.96	257.75
607.168	262.75
607.376	258.75
607.585	249.75
607.793	261.75
608.001	268.75
608.21	273.75
608.418	279.75
608.626	265.75
608.834	261.75
609.043	262.75
609.251	256.75
609.459	259.75
609.667	259.75
609.875	259.75
610.083	255.75
610.291	252.75
610.499	275.75
610.707	257.75
610.916	241.75
611.124	263.75
611.332	267.75
611.54	247.75
611.748	265.75
611.955	246.75
612.163	250.75
612.371	264.75
612.579	239.75
612.787	239.75
612.995	254.75
613.203	263.75
613.411	246.75
613.618	258.75
613.826	247.75
614.034	243.75
614.242	256.75
614.449	239.75
614.657	262.75
614.865	245.75
615.072	262.75
615.28	264.75
615.488	255.75
615.695	256.75
615.903	260.75
616.111	256.75
616.318	268.75
616.526	253.75
616.733	268.75
616.941	241.75
617.148	238.75
617.356	234.75
617.563	236.75
617.771	251.75
617.978	242.75
618.185	224.75
618.393	238.75
618.6	234.75
618.807	234.75
619.015	230.75
619.222	231.75
619.429	240.75
619.637	250.75
619.844	220.75
620.051	242.75
620.258	243.75
620.466	224.75
620.673	229.75
620.88	242.75
621.087	234.75
621.294	238.75
621.501	228.75
621.708	232.75
621.915	218.75
622.122	242.75
622.329	234.75
622.536	243.75
622.743	218.75
622.95	226.75
623.157	238.75
623.364	218.75
623.571	241.75
623.778	213.75
623.985	219.75
624.192	217.75
624.399	231.75
624.606	239.75
624.812	225.75
625.019	209.75
625.226	198.75
625.433	213.75
625.639	225.75
625.846	222.75
626.053	216.75
626.259	200.75
626.466	204.75
626.673	217.75
626.879	223.75
627.086	214.75
627.293	209.75
627.499	215.75
627.706	215.75
627.912	210.75
628.119	212.75
628.325	219.75
628.532	216.75
628.738	210.75
628.945	209.75
629.151	200.75
629.357	206.75
629.564	205.75
629.77	207.75
629.976	215.75
630.183	214.75
630.389	209.75
630.595	209.75
630.802	192.75
631.008	195.75
631.214	209.75
631.42	197.75
631.627	206.75
631.833	180.75
632.039	210.75
632.245	193.75
632.451	203.75
632.657	193.75
632.863	207.75
633.069	189.75
633.275	199.75
633.481	190.75
633.688	195.75
633.893	183.75
634.099	186.75
634.305	198.75
634.511	186.75
634.717	184.75
634.923	197.75
635.129	190.75
635.335	190.75
635.541	186.75
635.747	189.75
635.952	177.75
636.158	190.75
636.364	194.75
636.57	185.75
636.775	185.75
636.981	187.75
637.187	186.75
637.392	190.75
637.598	186.75
637.804	182.75
638.009	181.75
638.215	173.75
638.421	178.75
638.626	195.75
638.832	180.75
639.037	187.75
639.243	179.75
639.448	186.75
639.654	186.75
639.859	184.75
640.065	189.75
640.27	183.75
640.475	170.75
640.681	161.75
640.886	177.75
641.091	177.75
641.297	185.75
641.502	168.75
641.707	170.75
641.913	188.75
642.118	179.75
642.323	169.75
642.528	169.75
642.733	185.75
642.939	187.75
643.144	183.75
643.349	170.75
643.554	173.75
643.759	169.75
643.964	168.75
644.169	169.75
644.374	175.75
644.579	165.75
644.784	181.75
644.989	166.75
645.194	164.75
645.399	165.75
645.604	177.75
645.809	153.75
646.014	148.75
646.219	188.75
646.423	165.75
646.628	167.75
646.833	173.75
647.038	176.75
647.243	185.75
647.447	176.75
647.652	162.75
647.857	183.75
648.062	187.75
648.266	178.75
648.471	184.75
648.676	168.75
648.88	178.75
649.085	164.75
649.289	165.75
649.494	182.75
649.698	165.75
649.903	186.75
650.107	173.75
650.312	152.75
650.516	180.75
650.721	163.75
650.925	163.75
651.13	149.75
651.334	175.75
651.539	157.75
651.743	135.75
651.947	147.75
652.152	155.75
652.356	158.75
652.56	165.75
652.764	162.75
652.969	149.75
653.173	154.75
653.377	130.75
653.581	146.75
653.785	141.75
653.99	143.75
654.194	144.75
654.398	142.75
654.602	152.75
654.806	146.75
655.01	139.75
655.214	140.75
655.418	146.75
655.622	138.75
655.826	151.75
656.03	134.75
656.234	135.75
656.438	132.75
656.642	143.75
656.846	137.75
657.049	143.75
657.253	136.75
657.457	138.75
657.661	127.75
657.865	126.75
658.068	111.75
658.272	121.75
658.476	128.75
658.68	119.75
658.883	99.75
659.087	107.75
659.291	105.75
659.494	90.75
659.698	100.75
659.901	101.75
660.105	88.75
660.309	99.75
660.512	101.75
660.716	82.75
660.919	98.75
661.123	87.75
661.326	93.75
661.53	91.75
661.733	86.75
661.936	91.75
662.14	81.75
662.343	87.75
662.546	78.75
662.75	99.75
662.953	85.75
663.156	83.75
663.36	80.75
663.563	83.75
663.766	72.75
663.969	86.75
664.173	86.75
664.376	73.75
664.579	85.75
664.782	86.75
664.985	88.75
665.188	72.75
665.391	86.75
665.594	81.75
665.797	84.75
666	90.75
666.203	62.75
666.406	79.75
666.609	67.75
666.812	88.75
667.015	71.75
667.218	93.75
667.421	64.75
667.624	75.75
667.827	96.75
668.03	74.75
668.232	79.75
668.435	83.75
668.638	58.75
668.841	70.75
669.043	78.75
669.246	73.75
669.449	72.75
669.651	87.75
669.854	63.75
670.057	75.75
670.259	74.75
670.462	71.75
670.665	80.75
670.867	68.75
671.07	86.75
671.272	98.75
671.475	93.75
671.677	71.75
671.88	77.75
672.082	77.75
672.284	82.75
672.487	86.75
672.689	74.75
672.892	75.75
