Data from NiCl2@0.125M.TitratingCurve.Agarose3%dH2O.NegLispCup.LampEnergy10.LIBS07252019_HRD10591_18-27-12-574.txt Node
Date: Thu Jul 25 18:27:12 EDT 2019
User: cochatt
Spectrometer: HR+D1059
Trigger mode: 1
Integration Time (sec): 1.000000E-1
Scans to average: 1
Electric dark correction enabled: true
Nonlinearity correction enabled: false
Boxcar width: 0
XAxis mode: Wavelengths
Number of Pixels in Spectrum: 2048
>>>>>Begin Spectral Data<<<<<
223.165	-19.44
223.4	-19.44
223.635	-19.44
223.869	1.56
224.104	-19.44
224.338	-28.44
224.573	-8.44
224.808	-14.44
225.042	-7.44
225.277	-2.44
225.511	9.56
225.746	1.56
225.98	5.56
226.215	2.56
226.449	21.56
226.683	17.56
226.918	18.56
227.152	21.56
227.387	32.56
227.621	32.56
227.856	36.56
228.09	34.56
228.324	47.56
228.559	54.56
228.793	64.56
229.027	127.56
229.262	138.56
229.496	153.56
229.73	156.56
229.964	163.56
230.199	146.56
230.433	179.56
230.667	177.56
230.901	180.56
231.136	162.56
231.37	172.56
231.604	180.56
231.838	193.56
232.072	188.56
232.306	196.56
232.541	200.56
232.775	176.56
233.009	187.56
233.243	191.56
233.477	177.56
233.711	191.56
233.945	183.56
234.179	203.56
234.413	200.56
234.647	204.56
234.881	202.56
235.115	204.56
235.349	189.56
235.583	184.56
235.817	188.56
236.051	187.56
236.285	192.56
236.519	213.56
236.753	211.56
236.987	204.56
237.221	221.56
237.455	207.56
237.689	226.56
237.922	222.56
238.156	216.56
238.39	222.56
238.624	224.56
238.858	224.56
239.091	221.56
239.325	234.56
239.559	232.56
239.793	245.56
240.027	237.56
240.26	253.56
240.494	247.56
240.728	253.56
240.961	247.56
241.195	260.56
241.429	262.56
241.662	277.56
241.896	278.56
242.13	246.56
242.363	264.56
242.597	269.56
242.83	257.56
243.064	267.56
243.298	280.56
243.531	300.56
243.765	297.56
243.998	292.56
244.232	283.56
244.465	295.56
244.699	280.56
244.932	293.56
245.166	297.56
245.399	314.56
245.633	301.56
245.866	311.56
246.099	313.56
246.333	309.56
246.566	312.56
246.8	321.56
247.033	326.56
247.266	308.56
247.5	319.56
247.733	341.56
247.966	337.56
248.2	358.56
248.433	349.56
248.666	341.56
248.899	347.56
249.133	333.56
249.366	352.56
249.599	349.56
249.832	359.56
250.066	352.56
250.299	339.56
250.532	337.56
250.765	359.56
250.998	354.56
251.231	370.56
251.465	379.56
251.698	386.56
251.931	383.56
252.164	384.56
252.397	394.56
252.63	375.56
252.863	381.56
253.096	376.56
253.329	389.56
253.562	410.56
253.795	398.56
254.028	390.56
254.261	403.56
254.494	408.56
254.727	405.56
254.96	407.56
255.193	396.56
255.426	403.56
255.659	403.56
255.892	432.56
256.124	427.56
256.357	426.56
256.59	438.56
256.823	439.56
257.056	428.56
257.289	440.56
257.521	442.56
257.754	433.56
257.987	437.56
258.22	451.56
258.452	423.56
258.685	455.56
258.918	459.56
259.151	461.56
259.383	461.56
259.616	459.56
259.849	455.56
260.081	453.56
260.314	463.56
260.547	471.56
260.779	475.56
261.012	469.56
261.244	476.56
261.477	480.56
261.71	461.56
261.942	471.56
262.175	470.56
262.407	489.56
262.64	480.56
262.872	504.56
263.105	497.56
263.337	496.56
263.57	477.56
263.802	497.56
264.035	500.56
264.267	487.56
264.499	491.56
264.732	517.56
264.964	518.56
265.197	507.56
265.429	516.56
265.661	531.56
265.894	517.56
266.126	528.56
266.358	520.56
266.591	520.56
266.823	552.56
267.055	524.56
267.287	547.56
267.52	513.56
267.752	555.56
267.984	528.56
268.216	556.56
268.448	573.56
268.681	564.56
268.913	565.56
269.145	560.56
269.377	578.56
269.609	547.56
269.841	563.56
270.073	547.56
270.306	580.56
270.538	569.56
270.77	567.56
271.002	566.56
271.234	587.56
271.466	567.56
271.698	571.56
271.93	574.56
272.162	599.56
272.394	589.56
272.626	590.56
272.858	604.56
273.09	591.56
273.322	610.56
273.553	590.56
273.785	617.56
274.017	624.56
274.249	623.56
274.481	609.56
274.713	604.56
274.945	639.56
275.176	623.56
275.408	630.56
275.64	652.56
275.872	644.56
276.104	641.56
276.335	639.56
276.567	634.56
276.799	626.56
277.031	644.56
277.262	649.56
277.494	641.56
277.726	664.56
277.957	635.56
278.189	669.56
278.421	661.56
278.652	661.56
278.884	658.56
279.115	683.56
279.347	668.56
279.579	673.56
279.81	668.56
280.042	675.56
280.273	677.56
280.505	696.56
280.736	695.56
280.968	693.56
281.199	677.56
281.431	698.56
281.662	701.56
281.894	710.56
282.125	717.56
282.356	720.56
282.588	715.56
282.819	698.56
283.051	717.56
283.282	705.56
283.513	735.56
283.745	711.56
283.976	733.56
284.207	717.56
284.439	733.56
284.67	739.56
284.901	730.56
285.132	741.56
285.364	730.56
285.595	749.56
285.826	747.56
286.057	744.56
286.288	753.56
286.52	757.56
286.751	759.56
286.982	762.56
287.213	763.56
287.444	776.56
287.675	780.56
287.906	777.56
288.138	786.56
288.369	751.56
288.6	775.56
288.831	776.56
289.062	762.56
289.293	775.56
289.524	787.56
289.755	769.56
289.986	781.56
290.217	791.56
290.448	789.56
290.679	778.56
290.91	801.56
291.141	803.56
291.371	816.56
291.602	796.56
291.833	799.56
292.064	781.56
292.295	795.56
292.526	778.56
292.757	806.56
292.987	780.56
293.218	801.56
293.449	822.56
293.68	787.56
293.91	796.56
294.141	804.56
294.372	799.56
294.603	796.56
294.833	852.56
295.064	825.56
295.295	827.56
295.525	819.56
295.756	810.56
295.987	812.56
296.217	823.56
296.448	802.56
296.679	837.56
296.909	825.56
297.14	836.56
297.37	838.56
297.601	823.56
297.831	880.56
298.062	857.56
298.292	847.56
298.523	899.56
298.753	887.56
298.984	863.56
299.214	846.56
299.445	877.56
299.675	852.56
299.905	901.56
300.136	901.56
300.366	861.56
300.597	877.56
300.827	909.56
301.057	903.56
301.288	928.56
301.518	889.56
301.748	907.56
301.979	907.56
302.209	937.56
302.439	913.56
302.669	929.56
302.9	913.56
303.13	885.56
303.36	916.56
303.59	930.56
303.82	897.56
304.051	925.56
304.281	914.56
304.511	927.56
304.741	913.56
304.971	927.56
305.201	874.56
305.431	908.56
305.661	932.56
305.891	876.56
306.121	896.56
306.352	879.56
306.582	904.56
306.812	880.56
307.042	909.56
307.272	897.56
307.502	845.56
307.731	905.56
307.961	909.56
308.191	913.56
308.421	892.56
308.651	885.56
308.881	900.56
309.111	898.56
309.341	896.56
309.571	927.56
309.8	904.56
310.03	907.56
310.26	925.56
310.49	884.56
310.72	911.56
310.949	927.56
311.179	934.56
311.409	895.56
311.639	912.56
311.868	936.56
312.098	949.56
312.328	935.56
312.557	951.56
312.787	924.56
313.017	933.56
313.246	943.56
313.476	956.56
313.706	985.56
313.935	948.56
314.165	972.56
314.394	973.56
314.624	948.56
314.853	969.56
315.083	973.56
315.312	969.56
315.542	965.56
315.771	937.56
316.001	972.56
316.23	974.56
316.46	946.56
316.689	984.56
316.919	959.56
317.148	968.56
317.377	967.56
317.607	960.56
317.836	933.56
318.065	949.56
318.295	978.56
318.524	940.56
318.753	917.56
318.983	953.56
319.212	922.56
319.441	967.56
319.67	965.56
319.9	947.56
320.129	962.56
320.358	931.56
320.587	954.56
320.816	935.56
321.046	962.56
321.275	951.56
321.504	975.56
321.733	991.56
321.962	965.56
322.191	983.56
322.42	973.56
322.649	986.56
322.878	978.56
323.108	963.56
323.337	965.56
323.566	1003.56
323.795	998.56
324.024	1023.56
324.253	982.56
324.482	968.56
324.71	1005.56
324.939	995.56
325.168	1032.56
325.397	1008.56
325.626	1009.56
325.855	992.56
326.084	1043.56
326.313	1058.56
326.542	1024.56
326.77	1093.56
326.999	1031.56
327.228	1027.56
327.457	1008.56
327.686	1030.56
327.914	1053.56
328.143	1045.56
328.372	1024.56
328.6	1061.56
328.829	1072.56
329.058	1059.56
329.287	1065.56
329.515	1075.56
329.744	1063.56
329.972	1063.56
330.201	1076.56
330.43	1077.56
330.658	1046.56
330.887	1096.56
331.115	1092.56
331.344	1107.56
331.572	1120.56
331.801	1122.56
332.03	1165.56
332.258	1172.56
332.486	1215.56
332.715	1239.56
332.943	1243.56
333.172	1325.56
333.4	1352.56
333.629	1360.56
333.857	1415.56
334.085	1387.56
334.314	1391.56
334.542	1348.56
334.771	1346.56
334.999	1357.56
335.227	1330.56
335.455	1291.56
335.684	1331.56
335.912	1340.56
336.14	1290.56
336.369	1293.56
336.597	1294.56
336.825	1247.56
337.053	1233.56
337.281	1234.56
337.51	1229.56
337.738	1225.56
337.966	1208.56
338.194	1180.56
338.422	1169.56
338.65	1164.56
338.878	1173.56
339.106	1160.56
339.334	1154.56
339.562	1161.56
339.79	1098.56
340.018	1111.56
340.246	1114.56
340.474	1098.56
340.702	1100.56
340.93	1112.56
341.158	1104.56
341.386	1090.56
341.614	1123.56
341.842	1093.56
342.07	1089.56
342.298	1081.56
342.526	1138.56
342.754	1131.56
342.981	1091.56
343.209	1138.56
343.437	1178.56
343.665	1259.56
343.893	1336.56
344.12	1354.56
344.348	1316.56
344.576	1266.56
344.804	1216.56
345.031	1187.56
345.259	1136.56
345.487	1131.56
345.714	1122.56
345.942	1074.56
346.17	1080.56
346.397	1083.56
346.625	1061.56
346.853	1066.56
347.08	1072.56
347.308	1052.56
347.535	1066.56
347.763	1077.56
347.99	1050.56
348.218	1091.56
348.445	1049.56
348.673	1060.56
348.9	1045.56
349.128	1055.56
349.355	1036.56
349.583	1056.56
349.81	1052.56
350.037	1034.56
350.265	1051.56
350.492	1042.56
350.72	1027.56
350.947	1047.56
351.174	1035.56
351.402	1038.56
351.629	1020.56
351.856	1031.56
352.083	1011.56
352.311	1007.56
352.538	1029.56
352.765	1063.56
352.992	1038.56
353.22	1032.56
353.447	1036.56
353.674	1005.56
353.901	1006.56
354.128	1037.56
354.355	992.56
354.583	1020.56
354.81	1036.56
355.037	1031.56
355.264	1043.56
355.491	1047.56
355.718	1040.56
355.945	1052.56
356.172	1051.56
356.399	1020.56
356.626	1018.56
356.853	1021.56
357.08	1025.56
357.307	1033.56
357.534	1015.56
357.761	1035.56
357.988	1039.56
358.215	1061.56
358.441	1043.56
358.668	1033.56
358.895	1061.56
359.122	1011.56
359.349	1030.56
359.576	1072.56
359.802	1024.56
360.029	1022.56
360.256	1024.56
360.483	1052.56
360.709	1052.56
360.936	1025.56
361.163	1026.56
361.39	1025.56
361.616	1046.56
361.843	1049.56
362.07	1056.56
362.296	1048.56
362.523	1003.56
362.749	1039.56
362.976	1043.56
363.203	1059.56
363.429	1028.56
363.656	1041.56
363.882	1035.56
364.109	1060.56
364.335	1036.56
364.562	1015.56
364.788	1048.56
365.015	1005.56
365.241	1041.56
365.468	1010.56
365.694	1044.56
365.92	1051.56
366.147	1049.56
366.373	1046.56
366.599	1047.56
366.826	1023.56
367.052	992.56
367.278	1045.56
367.505	1021.56
367.731	1040.56
367.957	1061.56
368.184	1068.56
368.41	1059.56
368.636	1049.56
368.862	1067.56
369.089	1071.56
369.315	1065.56
369.541	1067.56
369.767	1112.56
369.993	1101.56
370.219	1093.56
370.445	1072.56
370.672	1098.56
370.898	1075.56
371.124	1098.56
371.35	1136.56
371.576	1112.56
371.802	1120.56
372.028	1133.56
372.254	1112.56
372.48	1125.56
372.706	1151.56
372.932	1141.56
373.158	1181.56
373.384	1165.56
373.61	1145.56
373.835	1141.56
374.061	1113.56
374.287	1130.56
374.513	1162.56
374.739	1195.56
374.965	1256.56
375.191	1234.56
375.416	1220.56
375.642	1221.56
375.868	1169.56
376.094	1159.56
376.319	1121.56
376.545	1145.56
376.771	1147.56
376.997	1122.56
377.222	1131.56
377.448	1125.56
377.674	1135.56
377.899	1129.56
378.125	1127.56
378.35	1127.56
378.576	1118.56
378.802	1140.56
379.027	1111.56
379.253	1143.56
379.478	1099.56
379.704	1107.56
379.929	1103.56
380.155	1120.56
380.38	1116.56
380.606	1102.56
380.831	1119.56
381.057	1123.56
381.282	1120.56
381.507	1121.56
381.733	1149.56
381.958	1124.56
382.184	1128.56
382.409	1168.56
382.634	1203.56
382.86	1150.56
383.085	1201.56
383.31	1186.56
383.535	1191.56
383.761	1238.56
383.986	1258.56
384.211	1255.56
384.436	1307.56
384.662	1253.56
384.887	1329.56
385.112	1332.56
385.337	1317.56
385.562	1359.56
385.787	1335.56
386.013	1373.56
386.238	1373.56
386.463	1370.56
386.688	1372.56
386.913	1376.56
387.138	1341.56
387.363	1353.56
387.588	1367.56
387.813	1347.56
388.038	1351.56
388.263	1331.56
388.488	1347.56
388.713	1335.56
388.938	1306.56
389.163	1337.56
389.387	1329.56
389.612	1299.56
389.837	1337.56
390.062	1312.56
390.287	1319.56
390.512	1382.56
390.736	1341.56
390.961	1373.56
391.186	1381.56
391.411	1415.56
391.636	1415.56
391.86	1491.56
392.085	1506.56
392.31	1498.56
392.534	1461.56
392.759	1487.56
392.984	1439.56
393.208	1421.56
393.433	1437.56
393.658	1452.56
393.882	1429.56
394.107	1421.56
394.331	1431.56
394.556	1423.56
394.78	1434.56
395.005	1470.56
395.229	1468.56
395.454	1484.56
395.678	1500.56
395.903	1501.56
396.127	1495.56
396.352	1461.56
396.576	1426.56
396.801	1455.56
397.025	1475.56
397.249	1477.56
397.474	1534.56
397.698	1553.56
397.922	1529.56
398.147	1498.56
398.371	1539.56
398.595	1567.56
398.82	1666.56
399.044	1743.56
399.268	1930.56
399.492	2205.56
399.717	2357.56
399.941	2385.56
400.165	2186.56
400.389	2047.56
400.613	1894.56
400.837	1822.56
401.062	1740.56
401.286	1724.56
401.51	1717.56
401.734	1700.56
401.958	1675.56
402.182	1669.56
402.406	1676.56
402.63	1695.56
402.854	1773.56
403.078	1746.56
403.302	1803.56
403.526	1835.56
403.75	1849.56
403.974	1868.56
404.198	1898.56
404.422	1864.56
404.645	1868.56
404.869	1856.56
405.093	1822.56
405.317	1836.56
405.541	1833.56
405.765	1855.56
405.988	1783.56
406.212	1851.56
406.436	1820.56
406.66	1875.56
406.883	1901.56
407.107	1969.56
407.331	2088.56
407.555	2153.56
407.778	2113.56
408.002	2037.56
408.226	2028.56
408.449	2028.56
408.673	1924.56
408.896	1897.56
409.12	1872.56
409.344	1882.56
409.567	1874.56
409.791	1892.56
410.014	1856.56
410.238	1810.56
410.461	1821.56
410.685	1821.56
410.908	1795.56
411.132	1760.56
411.355	1727.56
411.578	1768.56
411.802	1736.56
412.025	1747.56
412.249	1791.56
412.472	1766.56
412.695	1734.56
412.919	1682.56
413.142	1677.56
413.365	1683.56
413.589	1718.56
413.812	1700.56
414.035	1619.56
414.258	1671.56
414.482	1657.56
414.705	1695.56
414.928	1703.56
415.151	1687.56
415.374	1672.56
415.597	1694.56
415.821	1681.56
416.044	1607.56
416.267	1605.56
416.49	1597.56
416.713	1631.56
416.936	1663.56
417.159	1640.56
417.382	1628.56
417.605	1616.56
417.828	1628.56
418.051	1677.56
418.274	1647.56
418.497	1628.56
418.72	1666.56
418.943	1650.56
419.166	1800.56
419.389	1905.56
419.611	1865.56
419.834	1758.56
420.057	1716.56
420.28	1625.56
420.503	1610.56
420.726	1626.56
420.948	1632.56
421.171	1621.56
421.394	1632.56
421.617	1618.56
421.839	1660.56
422.062	1635.56
422.285	1649.56
422.507	1650.56
422.73	1648.56
422.953	1659.56
423.175	1700.56
423.398	1702.56
423.621	1706.56
423.843	1707.56
424.066	1726.56
424.288	1716.56
424.511	1675.56
424.733	1673.56
424.956	1668.56
425.178	1626.56
425.401	1631.56
425.623	1636.56
425.846	1593.56
426.068	1608.56
426.291	1580.56
426.513	1589.56
426.735	1562.56
426.958	1569.56
427.18	1511.56
427.402	1537.56
427.625	1548.56
427.847	1473.56
428.069	1493.56
428.292	1488.56
428.514	1474.56
428.736	1490.56
428.958	1476.56
429.181	1436.56
429.403	1447.56
429.625	1459.56
429.847	1466.56
430.069	1455.56
430.292	1458.56
430.514	1444.56
430.736	1470.56
430.958	1476.56
431.18	1462.56
431.402	1461.56
431.624	1488.56
431.846	1441.56
432.068	1516.56
432.29	1497.56
432.512	1469.56
432.734	1459.56
432.956	1461.56
433.178	1497.56
433.4	1505.56
433.622	1539.56
433.844	1517.56
434.066	1510.56
434.287	1525.56
434.509	1545.56
434.731	1600.56
434.953	1636.56
435.175	1632.56
435.397	1628.56
435.618	1562.56
435.84	1538.56
436.062	1501.56
436.284	1470.56
436.505	1494.56
436.727	1479.56
436.949	1496.56
437.17	1472.56
437.392	1433.56
437.614	1447.56
437.835	1407.56
438.057	1384.56
438.278	1395.56
438.5	1409.56
438.721	1390.56
438.943	1402.56
439.165	1404.56
439.386	1421.56
439.608	1454.56
439.829	1463.56
440.05	1476.56
440.272	1460.56
440.493	1465.56
440.715	1491.56
440.936	1506.56
441.158	1544.56
441.379	1567.56
441.6	1608.56
441.822	1619.56
442.043	1626.56
442.264	1652.56
442.486	1573.56
442.707	1619.56
442.928	1607.56
443.149	1614.56
443.371	1625.56
443.592	1600.56
443.813	1630.56
444.034	1628.56
444.255	1715.56
444.476	1770.56
444.698	1854.56
444.919	1887.56
445.14	1953.56
445.361	1793.56
445.582	1644.56
445.803	1569.56
446.024	1542.56
446.245	1564.56
446.466	1494.56
446.687	1471.56
446.908	1481.56
447.129	1471.56
447.35	1413.56
447.571	1419.56
447.792	1374.56
448.013	1410.56
448.234	1371.56
448.455	1343.56
448.675	1359.56
448.896	1349.56
449.117	1329.56
449.338	1337.56
449.559	1355.56
449.779	1327.56
450	1308.56
450.221	1325.56
450.442	1355.56
450.662	1345.56
450.883	1331.56
451.104	1366.56
451.324	1319.56
451.545	1338.56
451.766	1352.56
451.986	1311.56
452.207	1323.56
452.428	1330.56
452.648	1324.56
452.869	1289.56
453.089	1298.56
453.31	1288.56
453.53	1281.56
453.751	1268.56
453.971	1263.56
454.192	1299.56
454.412	1287.56
454.633	1269.56
454.853	1285.56
455.073	1254.56
455.294	1257.56
455.514	1237.56
455.734	1249.56
455.955	1227.56
456.175	1220.56
456.395	1265.56
456.616	1248.56
456.836	1253.56
457.056	1238.56
457.276	1222.56
457.497	1237.56
457.717	1263.56
457.937	1289.56
458.157	1297.56
458.377	1309.56
458.598	1305.56
458.818	1366.56
459.038	1379.56
459.258	1398.56
459.478	1477.56
459.698	1539.56
459.918	1558.56
460.138	1618.56
460.358	1675.56
460.578	1671.56
460.798	1711.56
461.018	1673.56
461.238	1688.56
461.458	1667.56
461.678	1654.56
461.898	1672.56
462.118	1714.56
462.338	1834.56
462.558	1835.56
462.777	1911.56
462.997	2034.56
463.217	2175.56
463.437	2168.56
463.657	2041.56
463.876	1966.56
464.096	1925.56
464.316	1912.56
464.536	1931.56
464.755	1856.56
464.975	1801.56
465.195	1755.56
465.414	1672.56
465.634	1551.56
465.854	1543.56
466.073	1478.56
466.293	1457.56
466.512	1443.56
466.732	1423.56
466.951	1416.56
467.171	1388.56
467.391	1395.56
467.61	1375.56
467.829	1388.56
468.049	1385.56
468.268	1359.56
468.488	1323.56
468.707	1343.56
468.927	1365.56
469.146	1341.56
469.365	1369.56
469.585	1394.56
469.804	1386.56
470.023	1411.56
470.243	1405.56
470.462	1455.56
470.681	1412.56
470.901	1448.56
471.12	1441.56
471.339	1404.56
471.558	1393.56
471.777	1407.56
471.997	1387.56
472.216	1364.56
472.435	1340.56
472.654	1346.56
472.873	1312.56
473.092	1347.56
473.311	1336.56
473.53	1349.56
473.749	1320.56
473.968	1335.56
474.187	1314.56
474.406	1303.56
474.625	1315.56
474.844	1297.56
475.063	1343.56
475.282	1357.56
475.501	1340.56
475.72	1354.56
475.939	1383.56
476.158	1380.56
476.377	1420.56
476.596	1401.56
476.814	1435.56
477.033	1402.56
477.252	1402.56
477.471	1455.56
477.69	1533.56
477.908	1547.56
478.127	1595.56
478.346	1570.56
478.564	1610.56
478.783	1590.56
479.002	1659.56
479.22	1707.56
479.439	1672.56
479.658	1676.56
479.876	1677.56
480.095	1707.56
480.313	1733.56
480.532	1792.56
480.751	1759.56
480.969	1731.56
481.188	1661.56
481.406	1649.56
481.624	1602.56
481.843	1611.56
482.061	1574.56
482.28	1548.56
482.498	1560.56
482.717	1553.56
482.935	1581.56
483.153	1579.56
483.372	1589.56
483.59	1608.56
483.808	1566.56
484.027	1569.56
484.245	1594.56
484.463	1619.56
484.681	1612.56
484.9	1627.56
485.118	1656.56
485.336	1627.56
485.554	1653.56
485.772	1660.56
485.99	1635.56
486.209	1641.56
486.427	1652.56
486.645	1654.56
486.863	1655.56
487.081	1632.56
487.299	1623.56
487.517	1636.56
487.735	1637.56
487.953	1648.56
488.171	1685.56
488.389	1660.56
488.607	1605.56
488.825	1642.56
489.043	1612.56
489.261	1663.56
489.479	1661.56
489.696	1656.56
489.914	1596.56
490.132	1622.56
490.35	1635.56
490.568	1627.56
490.786	1657.56
491.003	1655.56
491.221	1656.56
491.439	1679.56
491.657	1629.56
491.874	1643.56
492.092	1654.56
492.31	1657.56
492.527	1664.56
492.745	1685.56
492.963	1670.56
493.18	1685.56
493.398	1696.56
493.615	1662.56
493.833	1652.56
494.05	1707.56
494.268	1702.56
494.485	1735.56
494.703	1705.56
494.92	1724.56
495.138	1699.56
495.355	1734.56
495.573	1741.56
495.79	1706.56
496.008	1755.56
496.225	1764.56
496.442	1782.56
496.66	1851.56
496.877	1768.56
497.094	1847.56
497.312	1900.56
497.529	1908.56
497.746	1927.56
497.963	1983.56
498.181	2071.56
498.398	2138.56
498.615	2235.56
498.832	2397.56
499.049	2549.56
499.267	2735.56
499.484	3004.56
499.701	3201.56
499.918	3509.56
500.135	3877.56
500.352	4228.56
500.569	4447.56
500.786	4353.56
501.003	4175.56
501.22	3845.56
501.437	3427.56
501.654	3161.56
501.871	2885.56
502.088	2658.56
502.305	2476.56
502.522	2377.56
502.739	2293.56
502.956	2200.56
503.172	2101.56
503.389	2045.56
503.606	1980.56
503.823	1910.56
504.04	1951.56
504.256	1943.56
504.473	1931.56
504.69	1974.56
504.907	1909.56
505.123	1853.56
505.34	1744.56
505.557	1685.56
505.773	1662.56
505.99	1639.56
506.207	1607.56
506.423	1531.56
506.64	1526.56
506.856	1475.56
507.073	1538.56
507.289	1499.56
507.506	1505.56
507.722	1463.56
507.939	1449.56
508.155	1425.56
508.372	1425.56
508.588	1426.56
508.805	1391.56
509.021	1409.56
509.238	1379.56
509.454	1403.56
509.67	1335.56
509.887	1387.56
510.103	1358.56
510.319	1349.56
510.536	1356.56
510.752	1339.56
510.968	1330.56
511.184	1318.56
511.401	1321.56
511.617	1335.56
511.833	1329.56
512.049	1323.56
512.265	1322.56
512.481	1324.56
512.698	1345.56
512.914	1330.56
513.13	1333.56
513.346	1320.56
513.562	1329.56
513.778	1325.56
513.994	1339.56
514.21	1356.56
514.426	1334.56
514.642	1345.56
514.858	1363.56
515.074	1393.56
515.29	1375.56
515.506	1396.56
515.721	1443.56
515.937	1421.56
516.153	1443.56
516.369	1471.56
516.585	1543.56
516.801	1546.56
517.016	1625.56
517.232	1659.56
517.448	1706.56
517.664	1763.56
517.879	1786.56
518.095	1802.56
518.311	1762.56
518.527	1700.56
518.742	1656.56
518.958	1579.56
519.173	1523.56
519.389	1485.56
519.605	1473.56
519.82	1475.56
520.036	1417.56
520.251	1388.56
520.467	1419.56
520.682	1367.56
520.898	1287.56
521.113	1330.56
521.329	1310.56
521.544	1308.56
521.76	1276.56
521.975	1266.56
522.19	1275.56
522.406	1248.56
522.621	1261.56
522.836	1243.56
523.052	1251.56
523.267	1231.56
523.482	1221.56
523.698	1233.56
523.913	1224.56
524.128	1198.56
524.343	1189.56
524.559	1225.56
524.774	1183.56
524.989	1197.56
525.204	1213.56
525.419	1212.56
525.634	1215.56
525.849	1250.56
526.064	1176.56
526.28	1200.56
526.495	1179.56
526.71	1169.56
526.925	1180.56
527.14	1159.56
527.355	1199.56
527.57	1180.56
527.785	1171.56
527.999	1186.56
528.214	1166.56
528.429	1189.56
528.644	1187.56
528.859	1184.56
529.074	1191.56
529.289	1161.56
529.503	1199.56
529.718	1186.56
529.933	1175.56
530.148	1184.56
530.363	1178.56
530.577	1157.56
530.792	1153.56
531.007	1143.56
531.221	1187.56
531.436	1199.56
531.651	1187.56
531.865	1143.56
532.08	1188.56
532.295	1205.56
532.509	1199.56
532.724	1169.56
532.938	1180.56
533.153	1177.56
533.367	1173.56
533.582	1165.56
533.796	1152.56
534.011	1165.56
534.225	1175.56
534.44	1168.56
534.654	1159.56
534.868	1155.56
535.083	1183.56
535.297	1148.56
535.511	1155.56
535.726	1105.56
535.94	1123.56
536.154	1146.56
536.369	1128.56
536.583	1088.56
536.797	1077.56
537.011	1090.56
537.225	1114.56
537.44	1096.56
537.654	1072.56
537.868	1091.56
538.082	1035.56
538.296	1066.56
538.51	1045.56
538.724	1101.56
538.938	1063.56
539.153	1071.56
539.367	1063.56
539.581	1034.56
539.795	1098.56
540.009	1074.56
540.222	1030.56
540.436	1050.56
540.65	1054.56
540.864	1067.56
541.078	1037.56
541.292	1069.56
541.506	1047.56
541.72	1036.56
541.934	1041.56
542.147	1051.56
542.361	1046.56
542.575	1053.56
542.789	1059.56
543.002	1042.56
543.216	1044.56
543.43	1064.56
543.644	1025.56
543.857	1034.56
544.071	1027.56
544.285	1047.56
544.498	1043.56
544.712	1037.56
544.925	1081.56
545.139	1093.56
545.352	1098.56
545.566	1062.56
545.779	1068.56
545.993	1110.56
546.206	1084.56
546.42	1094.56
546.633	1062.56
546.847	1069.56
547.06	1069.56
547.274	1070.56
547.487	1079.56
547.7	1047.56
547.914	1099.56
548.127	1071.56
548.34	1073.56
548.554	1090.56
548.767	1083.56
548.98	1088.56
549.193	1073.56
549.407	1094.56
549.62	1075.56
549.833	1089.56
550.046	1080.56
550.259	1082.56
550.473	1090.56
550.686	1063.56
550.899	1084.56
551.112	1053.56
551.325	1056.56
551.538	1085.56
551.751	1041.56
551.964	1040.56
552.177	1046.56
552.39	1086.56
552.603	1079.56
552.816	1112.56
553.029	1133.56
553.242	1107.56
553.455	1153.56
553.667	1143.56
553.88	1166.56
554.093	1120.56
554.306	1084.56
554.519	1067.56
554.732	1027.56
554.944	1017.56
555.157	1023.56
555.37	1010.56
555.583	972.56
555.795	985.56
556.008	949.56
556.221	956.56
556.433	960.56
556.646	948.56
556.859	959.56
557.071	939.56
557.284	905.56
557.496	923.56
557.709	925.56
557.921	923.56
558.134	927.56
558.346	895.56
558.559	885.56
558.771	897.56
558.984	874.56
559.196	886.56
559.409	899.56
559.621	917.56
559.833	897.56
560.046	888.56
560.258	863.56
560.47	868.56
560.683	890.56
560.895	901.56
561.107	888.56
561.32	895.56
561.532	895.56
561.744	876.56
561.956	882.56
562.168	853.56
562.381	869.56
562.593	867.56
562.805	872.56
563.017	882.56
563.229	868.56
563.441	877.56
563.653	879.56
563.865	916.56
564.077	914.56
564.289	921.56
564.501	927.56
564.713	957.56
564.925	950.56
565.137	983.56
565.349	991.56
565.561	1032.56
565.773	1071.56
565.985	1100.56
566.197	1126.56
566.408	1187.56
566.62	1264.56
566.832	1337.56
567.044	1415.56
567.255	1423.56
567.467	1413.56
567.679	1477.56
567.891	1558.56
568.102	1571.56
568.314	1525.56
568.526	1392.56
568.737	1291.56
568.949	1159.56
569.161	1129.56
569.372	1024.56
569.584	1011.56
569.795	952.56
570.007	921.56
570.218	899.56
570.43	899.56
570.641	908.56
570.853	891.56
571.064	894.56
571.276	887.56
571.487	889.56
571.698	849.56
571.91	805.56
572.121	790.56
572.333	759.56
572.544	787.56
572.755	758.56
572.966	743.56
573.178	733.56
573.389	755.56
573.6	741.56
573.811	723.56
574.023	682.56
574.234	695.56
574.445	707.56
574.656	713.56
574.867	700.56
575.078	715.56
575.289	709.56
575.501	706.56
575.712	708.56
575.923	696.56
576.134	669.56
576.345	676.56
576.556	665.56
576.767	668.56
576.978	661.56
577.188	685.56
577.399	664.56
577.61	676.56
577.821	634.56
578.032	608.56
578.243	653.56
578.454	633.56
578.665	632.56
578.875	620.56
579.086	637.56
579.297	629.56
579.508	622.56
579.718	619.56
579.929	628.56
580.14	617.56
580.35	627.56
580.561	610.56
580.772	612.56
580.982	603.56
581.193	607.56
581.403	619.56
581.614	603.56
581.825	602.56
582.035	612.56
582.246	593.56
582.456	571.56
582.667	589.56
582.877	585.56
583.087	579.56
583.298	591.56
583.508	592.56
583.719	607.56
583.929	589.56
584.139	585.56
584.35	585.56
584.56	585.56
584.77	577.56
584.981	593.56
585.191	580.56
585.401	581.56
585.611	563.56
585.821	579.56
586.032	576.56
586.242	571.56
586.452	585.56
586.662	559.56
586.872	576.56
587.082	592.56
587.292	579.56
587.502	546.56
587.713	567.56
587.923	575.56
588.133	567.56
588.343	568.56
588.553	561.56
588.762	557.56
588.972	573.56
589.182	582.56
589.392	585.56
589.602	568.56
589.812	593.56
590.022	559.56
590.232	585.56
590.441	560.56
590.651	579.56
590.861	600.56
591.071	598.56
591.281	582.56
591.49	585.56
591.7	586.56
591.91	626.56
592.119	639.56
592.329	639.56
592.539	618.56
592.748	650.56
592.958	651.56
593.167	694.56
593.377	695.56
593.587	722.56
593.796	691.56
594.006	705.56
594.215	705.56
594.424	701.56
594.634	690.56
594.843	670.56
595.053	649.56
595.262	611.56
595.472	595.56
595.681	607.56
595.89	576.56
596.1	554.56
596.309	586.56
596.518	569.56
596.727	544.56
596.937	530.56
597.146	525.56
597.355	505.56
597.564	540.56
597.774	507.56
597.983	499.56
598.192	509.56
598.401	512.56
598.61	500.56
598.819	510.56
599.028	472.56
599.237	487.56
599.446	482.56
599.655	466.56
599.864	477.56
600.073	478.56
600.282	474.56
600.491	464.56
600.7	478.56
600.909	487.56
601.118	459.56
601.327	477.56
601.536	434.56
601.745	474.56
601.953	457.56
602.162	451.56
602.371	469.56
602.58	451.56
602.789	447.56
602.997	436.56
603.206	439.56
603.415	451.56
603.623	466.56
603.832	437.56
604.041	440.56
604.249	442.56
604.458	459.56
604.666	452.56
604.875	428.56
605.084	428.56
605.292	440.56
605.501	441.56
605.709	436.56
605.918	429.56
606.126	436.56
606.334	433.56
606.543	423.56
606.751	431.56
606.96	415.56
607.168	424.56
607.376	421.56
607.585	433.56
607.793	424.56
608.001	427.56
608.21	418.56
608.418	419.56
608.626	435.56
608.834	415.56
609.043	423.56
609.251	413.56
609.459	431.56
609.667	414.56
609.875	427.56
610.083	439.56
610.291	420.56
610.499	403.56
610.707	409.56
610.916	412.56
611.124	403.56
611.332	394.56
611.54	411.56
611.748	414.56
611.955	401.56
612.163	397.56
612.371	423.56
612.579	403.56
612.787	428.56
612.995	392.56
613.203	396.56
613.411	398.56
613.618	423.56
613.826	403.56
614.034	388.56
614.242	403.56
614.449	377.56
614.657	401.56
614.865	405.56
615.072	409.56
615.28	394.56
615.488	388.56
615.695	390.56
615.903	397.56
616.111	387.56
616.318	387.56
616.526	400.56
616.733	415.56
616.941	394.56
617.148	391.56
617.356	411.56
617.563	394.56
617.771	388.56
617.978	389.56
618.185	402.56
618.393	397.56
618.6	373.56
618.807	399.56
619.015	385.56
619.222	392.56
619.429	388.56
619.637	378.56
619.844	379.56
620.051	391.56
620.258	372.56
620.466	375.56
620.673	340.56
620.88	357.56
621.087	386.56
621.294	358.56
621.501	360.56
621.708	361.56
621.915	373.56
622.122	373.56
622.329	352.56
622.536	359.56
622.743	369.56
622.95	361.56
623.157	344.56
623.364	351.56
623.571	368.56
623.778	367.56
623.985	362.56
624.192	355.56
624.399	369.56
624.606	358.56
624.812	341.56
625.019	331.56
625.226	339.56
625.433	339.56
625.639	330.56
625.846	343.56
626.053	331.56
626.259	357.56
626.466	315.56
626.673	347.56
626.879	306.56
627.086	339.56
627.293	342.56
627.499	333.56
627.706	328.56
627.912	329.56
628.119	333.56
628.325	327.56
628.532	326.56
628.738	342.56
628.945	307.56
629.151	319.56
629.357	333.56
629.564	323.56
629.77	321.56
629.976	336.56
630.183	321.56
630.389	330.56
630.595	324.56
630.802	303.56
631.008	311.56
631.214	313.56
631.42	312.56
631.627	284.56
631.833	301.56
632.039	308.56
632.245	312.56
632.451	279.56
632.657	284.56
632.863	309.56
633.069	287.56
633.275	298.56
633.481	291.56
633.688	305.56
633.893	311.56
634.099	297.56
634.305	307.56
634.511	296.56
634.717	291.56
634.923	301.56
635.129	307.56
635.335	294.56
635.541	293.56
635.747	303.56
635.952	286.56
636.158	283.56
636.364	281.56
636.57	285.56
636.775	291.56
636.981	314.56
637.187	312.56
637.392	288.56
637.598	297.56
637.804	281.56
638.009	299.56
638.215	280.56
638.421	276.56
638.626	272.56
638.832	269.56
639.037	269.56
639.243	267.56
639.448	275.56
639.654	265.56
639.859	280.56
640.065	273.56
640.27	271.56
640.475	284.56
640.681	269.56
640.886	278.56
641.091	270.56
641.297	256.56
641.502	271.56
641.707	284.56
641.913	280.56
642.118	281.56
642.323	243.56
642.528	273.56
642.733	273.56
642.939	246.56
643.144	280.56
643.349	262.56
643.554	270.56
643.759	263.56
643.964	266.56
644.169	257.56
644.374	279.56
644.579	281.56
644.784	269.56
644.989	249.56
645.194	254.56
645.399	276.56
645.604	250.56
645.809	266.56
646.014	269.56
646.219	262.56
646.423	270.56
646.628	265.56
646.833	265.56
647.038	257.56
647.243	280.56
647.447	263.56
647.652	264.56
647.857	280.56
648.062	267.56
648.266	285.56
648.471	291.56
648.676	284.56
648.88	271.56
649.085	264.56
649.289	268.56
649.494	282.56
649.698	263.56
649.903	278.56
650.107	262.56
650.312	275.56
650.516	255.56
650.721	251.56
650.925	267.56
651.13	251.56
651.334	258.56
651.539	265.56
651.743	249.56
651.947	237.56
652.152	216.56
652.356	233.56
652.56	229.56
652.764	235.56
652.969	248.56
653.173	243.56
653.377	251.56
653.581	236.56
653.785	229.56
653.99	232.56
654.194	232.56
654.398	214.56
654.602	219.56
654.806	225.56
655.01	239.56
655.214	216.56
655.418	243.56
655.622	259.56
655.826	239.56
656.03	259.56
656.234	235.56
656.438	239.56
656.642	263.56
656.846	232.56
657.049	231.56
657.253	214.56
657.457	189.56
657.661	201.56
657.865	176.56
658.068	187.56
658.272	175.56
658.476	163.56
658.68	149.56
658.883	152.56
659.087	159.56
659.291	134.56
659.494	120.56
659.698	121.56
659.901	118.56
660.105	120.56
660.309	109.56
660.512	118.56
660.716	119.56
660.919	118.56
661.123	112.56
661.326	106.56
661.53	104.56
661.733	103.56
661.936	83.56
662.14	95.56
662.343	85.56
662.546	91.56
662.75	98.56
662.953	91.56
663.156	80.56
663.36	90.56
663.563	88.56
663.766	89.56
663.969	83.56
664.173	86.56
664.376	76.56
664.579	67.56
664.782	81.56
664.985	78.56
665.188	75.56
665.391	71.56
665.594	82.56
665.797	77.56
666	95.56
666.203	71.56
666.406	74.56
666.609	75.56
666.812	76.56
667.015	83.56
667.218	82.56
667.421	90.56
667.624	85.56
667.827	94.56
668.03	81.56
668.232	89.56
668.435	93.56
668.638	71.56
668.841	88.56
669.043	79.56
669.246	87.56
669.449	75.56
669.651	92.56
669.854	82.56
670.057	94.56
670.259	73.56
670.462	64.56
670.665	92.56
670.867	73.56
671.07	77.56
671.272	87.56
671.475	76.56
671.677	88.56
671.88	88.56
672.082	76.56
672.284	78.56
672.487	86.56
672.689	81.56
672.892	72.56
