Data from NiCl2@0.125M.TitratingCurve.Agarose3%dH2O.NegLispCup.LampEnergy10.LIBS07252019_HRD10591_18-29-51-575.txt Node
Date: Thu Jul 25 18:29:51 EDT 2019
User: cochatt
Spectrometer: HR+D1059
Trigger mode: 1
Integration Time (sec): 1.000000E-1
Scans to average: 1
Electric dark correction enabled: true
Nonlinearity correction enabled: false
Boxcar width: 0
XAxis mode: Wavelengths
Number of Pixels in Spectrum: 2048
>>>>>Begin Spectral Data<<<<<
223.165	-7.19
223.4	-7.19
223.635	-7.19
223.869	-26.19
224.104	-27.19
224.338	-9.19
224.573	-16.19
224.808	-25.19
225.042	-12.19
225.277	0.81
225.511	-10.19
225.746	2.81
225.98	1.81
226.215	11.81
226.449	33.81
226.683	15.81
226.918	37.81
227.152	28.81
227.387	28.81
227.621	46.81
227.856	56.81
228.09	50.81
228.324	61.81
228.559	54.81
228.793	76.81
229.027	115.81
229.262	105.81
229.496	118.81
229.73	133.81
229.964	147.81
230.199	141.81
230.433	139.81
230.667	140.81
230.901	156.81
231.136	161.81
231.37	162.81
231.604	159.81
231.838	150.81
232.072	162.81
232.306	177.81
232.541	170.81
232.775	160.81
233.009	183.81
233.243	168.81
233.477	171.81
233.711	190.81
233.945	186.81
234.179	177.81
234.413	177.81
234.647	167.81
234.881	176.81
235.115	189.81
235.349	187.81
235.583	184.81
235.817	171.81
236.051	177.81
236.285	188.81
236.519	173.81
236.753	184.81
236.987	188.81
237.221	191.81
237.455	197.81
237.689	200.81
237.922	188.81
238.156	198.81
238.39	197.81
238.624	207.81
238.858	193.81
239.091	205.81
239.325	227.81
239.559	221.81
239.793	204.81
240.027	208.81
240.26	218.81
240.494	210.81
240.728	211.81
240.961	221.81
241.195	232.81
241.429	231.81
241.662	231.81
241.896	256.81
242.13	253.81
242.363	225.81
242.597	235.81
242.83	238.81
243.064	244.81
243.298	267.81
243.531	253.81
243.765	240.81
243.998	261.81
244.232	248.81
244.465	264.81
244.699	274.81
244.932	273.81
245.166	267.81
245.399	252.81
245.633	261.81
245.866	259.81
246.099	278.81
246.333	298.81
246.566	271.81
246.8	276.81
247.033	289.81
247.266	272.81
247.5	290.81
247.733	286.81
247.966	292.81
248.2	292.81
248.433	295.81
248.666	295.81
248.899	299.81
249.133	307.81
249.366	306.81
249.599	310.81
249.832	314.81
250.066	319.81
250.299	319.81
250.532	319.81
250.765	317.81
250.998	326.81
251.231	313.81
251.465	312.81
251.698	343.81
251.931	333.81
252.164	325.81
252.397	345.81
252.63	347.81
252.863	341.81
253.096	352.81
253.329	352.81
253.562	329.81
253.795	355.81
254.028	369.81
254.261	361.81
254.494	342.81
254.727	347.81
254.96	363.81
255.193	359.81
255.426	367.81
255.659	373.81
255.892	381.81
256.124	355.81
256.357	371.81
256.59	369.81
256.823	368.81
257.056	362.81
257.289	374.81
257.521	388.81
257.754	376.81
257.987	396.81
258.22	378.81
258.452	391.81
258.685	382.81
258.918	399.81
259.151	390.81
259.383	388.81
259.616	386.81
259.849	372.81
260.081	400.81
260.314	398.81
260.547	398.81
260.779	409.81
261.012	410.81
261.244	396.81
261.477	410.81
261.71	420.81
261.942	419.81
262.175	423.81
262.407	438.81
262.64	405.81
262.872	419.81
263.105	416.81
263.337	443.81
263.57	427.81
263.802	419.81
264.035	435.81
264.267	433.81
264.499	428.81
264.732	450.81
264.964	452.81
265.197	440.81
265.429	458.81
265.661	438.81
265.894	460.81
266.126	452.81
266.358	443.81
266.591	461.81
266.823	462.81
267.055	473.81
267.287	478.81
267.52	450.81
267.752	466.81
267.984	476.81
268.216	474.81
268.448	484.81
268.681	488.81
268.913	471.81
269.145	468.81
269.377	476.81
269.609	486.81
269.841	482.81
270.073	490.81
270.306	500.81
270.538	505.81
270.77	484.81
271.002	494.81
271.234	469.81
271.466	476.81
271.698	498.81
271.93	515.81
272.162	517.81
272.394	505.81
272.626	532.81
272.858	510.81
273.09	514.81
273.322	517.81
273.553	504.81
273.785	531.81
274.017	536.81
274.249	525.81
274.481	527.81
274.713	536.81
274.945	544.81
275.176	543.81
275.408	525.81
275.64	529.81
275.872	530.81
276.104	543.81
276.335	536.81
276.567	550.81
276.799	546.81
277.031	535.81
277.262	546.81
277.494	565.81
277.726	572.81
277.957	542.81
278.189	562.81
278.421	540.81
278.652	580.81
278.884	548.81
279.115	579.81
279.347	580.81
279.579	563.81
279.81	551.81
280.042	569.81
280.273	566.81
280.505	586.81
280.736	574.81
280.968	607.81
281.199	583.81
281.431	583.81
281.662	607.81
281.894	610.81
282.125	598.81
282.356	594.81
282.588	584.81
282.819	607.81
283.051	641.81
283.282	603.81
283.513	653.81
283.745	640.81
283.976	606.81
284.207	628.81
284.439	622.81
284.67	622.81
284.901	654.81
285.132	619.81
285.364	636.81
285.595	646.81
285.826	628.81
286.057	644.81
286.288	634.81
286.52	652.81
286.751	662.81
286.982	642.81
287.213	638.81
287.444	658.81
287.675	667.81
287.906	663.81
288.138	671.81
288.369	640.81
288.6	659.81
288.831	673.81
289.062	678.81
289.293	659.81
289.524	656.81
289.755	665.81
289.986	674.81
290.217	678.81
290.448	680.81
290.679	695.81
290.91	683.81
291.141	672.81
291.371	687.81
291.602	691.81
291.833	701.81
292.064	706.81
292.295	678.81
292.526	672.81
292.757	696.81
292.987	703.81
293.218	674.81
293.449	719.81
293.68	702.81
293.91	697.81
294.141	704.81
294.372	682.81
294.603	698.81
294.833	699.81
295.064	696.81
295.295	703.81
295.525	688.81
295.756	672.81
295.987	696.81
296.217	704.81
296.448	704.81
296.679	720.81
296.909	704.81
297.14	713.81
297.37	736.81
297.601	711.81
297.831	733.81
298.062	727.81
298.292	744.81
298.523	780.81
298.753	778.81
298.984	764.81
299.214	747.81
299.445	732.81
299.675	725.81
299.905	747.81
300.136	747.81
300.366	781.81
300.597	784.81
300.827	783.81
301.057	771.81
301.288	804.81
301.518	780.81
301.748	802.81
301.979	769.81
302.209	802.81
302.439	814.81
302.669	792.81
302.9	782.81
303.13	759.81
303.36	794.81
303.59	760.81
303.82	775.81
304.051	779.81
304.281	763.81
304.511	769.81
304.741	773.81
304.971	794.81
305.201	791.81
305.431	775.81
305.661	770.81
305.891	765.81
306.121	768.81
306.352	755.81
306.582	766.81
306.812	767.81
307.042	742.81
307.272	770.81
307.502	769.81
307.731	738.81
307.961	759.81
308.191	746.81
308.421	768.81
308.651	746.81
308.881	774.81
309.111	769.81
309.341	755.81
309.571	761.81
309.8	763.81
310.03	748.81
310.26	750.81
310.49	747.81
310.72	762.81
310.949	743.81
311.179	786.81
311.409	758.81
311.639	780.81
311.868	762.81
312.098	767.81
312.328	787.81
312.557	792.81
312.787	793.81
313.017	793.81
313.246	811.81
313.476	791.81
313.706	810.81
313.935	818.81
314.165	808.81
314.394	797.81
314.624	802.81
314.853	823.81
315.083	814.81
315.312	814.81
315.542	828.81
315.771	814.81
316.001	794.81
316.23	787.81
316.46	794.81
316.689	792.81
316.919	805.81
317.148	798.81
317.377	802.81
317.607	798.81
317.836	798.81
318.065	793.81
318.295	774.81
318.524	794.81
318.753	778.81
318.983	792.81
319.212	778.81
319.441	796.81
319.67	807.81
319.9	795.81
320.129	800.81
320.358	816.81
320.587	795.81
320.816	811.81
321.046	796.81
321.275	792.81
321.504	801.81
321.733	814.81
321.962	817.81
322.191	820.81
322.42	799.81
322.649	819.81
322.878	821.81
323.108	803.81
323.337	798.81
323.566	844.81
323.795	831.81
324.024	806.81
324.253	801.81
324.482	829.81
324.71	834.81
324.939	855.81
325.168	825.81
325.397	840.81
325.626	858.81
325.855	853.81
326.084	870.81
326.313	895.81
326.542	883.81
326.77	908.81
326.999	876.81
327.228	882.81
327.457	895.81
327.686	862.81
327.914	873.81
328.143	903.81
328.372	888.81
328.6	862.81
328.829	870.81
329.058	869.81
329.287	897.81
329.515	866.81
329.744	894.81
329.972	896.81
330.201	881.81
330.43	874.81
330.658	882.81
330.887	902.81
331.115	924.81
331.344	961.81
331.572	929.81
331.801	939.81
332.03	981.81
332.258	979.81
332.486	1026.81
332.715	1082.81
332.943	1097.81
333.172	1144.81
333.4	1188.81
333.629	1202.81
333.857	1219.81
334.085	1218.81
334.314	1190.81
334.542	1132.81
334.771	1146.81
334.999	1094.81
335.227	1097.81
335.455	1100.81
335.684	1086.81
335.912	1096.81
336.14	1050.81
336.369	1061.81
336.597	1082.81
336.825	1062.81
337.053	1030.81
337.281	1045.81
337.51	1040.81
337.738	1000.81
337.966	968.81
338.194	967.81
338.422	946.81
338.65	955.81
338.878	969.81
339.106	952.81
339.334	954.81
339.562	931.81
339.79	943.81
340.018	920.81
340.246	902.81
340.474	920.81
340.702	902.81
340.93	916.81
341.158	941.81
341.386	938.81
341.614	944.81
341.842	923.81
342.07	894.81
342.298	916.81
342.526	906.81
342.754	904.81
342.981	927.81
343.209	926.81
343.437	960.81
343.665	1042.81
343.893	1107.81
344.12	1176.81
344.348	1115.81
344.576	1029.81
344.804	1011.81
345.031	956.81
345.259	918.81
345.487	939.81
345.714	934.81
345.942	905.81
346.17	929.81
346.397	885.81
346.625	902.81
346.853	881.81
347.08	897.81
347.308	886.81
347.535	879.81
347.763	895.81
347.99	891.81
348.218	882.81
348.445	904.81
348.673	894.81
348.9	878.81
349.128	869.81
349.355	832.81
349.583	854.81
349.81	868.81
350.037	873.81
350.265	827.81
350.492	838.81
350.72	865.81
350.947	870.81
351.174	850.81
351.402	856.81
351.629	819.81
351.856	834.81
352.083	862.81
352.311	841.81
352.538	848.81
352.765	855.81
352.992	841.81
353.22	826.81
353.447	843.81
353.674	853.81
353.901	850.81
354.128	861.81
354.355	853.81
354.583	840.81
354.81	860.81
355.037	857.81
355.264	852.81
355.491	864.81
355.718	882.81
355.945	878.81
356.172	875.81
356.399	865.81
356.626	867.81
356.853	856.81
357.08	871.81
357.307	866.81
357.534	855.81
357.761	855.81
357.988	891.81
358.215	858.81
358.441	844.81
358.668	850.81
358.895	838.81
359.122	832.81
359.349	866.81
359.576	865.81
359.802	842.81
360.029	870.81
360.256	859.81
360.483	853.81
360.709	835.81
360.936	842.81
361.163	860.81
361.39	856.81
361.616	844.81
361.843	846.81
362.07	866.81
362.296	838.81
362.523	836.81
362.749	832.81
362.976	868.81
363.203	853.81
363.429	854.81
363.656	842.81
363.882	839.81
364.109	870.81
364.335	853.81
364.562	834.81
364.788	825.81
365.015	832.81
365.241	838.81
365.468	841.81
365.694	853.81
365.92	826.81
366.147	823.81
366.373	839.81
366.599	859.81
366.826	837.81
367.052	856.81
367.278	854.81
367.505	865.81
367.731	863.81
367.957	863.81
368.184	854.81
368.41	858.81
368.636	864.81
368.862	875.81
369.089	894.81
369.315	886.81
369.541	897.81
369.767	903.81
369.993	886.81
370.219	892.81
370.445	895.81
370.672	913.81
370.898	909.81
371.124	935.81
371.35	904.81
371.576	974.81
371.802	944.81
372.028	925.81
372.254	915.81
372.48	937.81
372.706	962.81
372.932	968.81
373.158	974.81
373.384	940.81
373.61	908.81
373.835	926.81
374.061	942.81
374.287	976.81
374.513	978.81
374.739	1009.81
374.965	1046.81
375.191	1058.81
375.416	1063.81
375.642	1010.81
375.868	1003.81
376.094	968.81
376.319	960.81
376.545	935.81
376.771	944.81
376.997	925.81
377.222	939.81
377.448	932.81
377.674	921.81
377.899	963.81
378.125	914.81
378.35	904.81
378.576	935.81
378.802	903.81
379.027	936.81
379.253	926.81
379.478	912.81
379.704	944.81
379.929	907.81
380.155	917.81
380.38	886.81
380.606	923.81
380.831	896.81
381.057	968.81
381.282	915.81
381.507	930.81
381.733	942.81
381.958	944.81
382.184	986.81
382.409	955.81
382.634	993.81
382.86	977.81
383.085	977.81
383.31	1011.81
383.535	1030.81
383.761	1040.81
383.986	1064.81
384.211	1072.81
384.436	1106.81
384.662	1159.81
384.887	1128.81
385.112	1144.81
385.337	1127.81
385.562	1143.81
385.787	1141.81
386.013	1146.81
386.238	1115.81
386.463	1123.81
386.688	1143.81
386.913	1119.81
387.138	1094.81
387.363	1091.81
387.588	1132.81
387.813	1109.81
388.038	1107.81
388.263	1130.81
388.488	1108.81
388.713	1088.81
388.938	1107.81
389.163	1103.81
389.387	1094.81
389.612	1091.81
389.837	1101.81
390.062	1110.81
390.287	1098.81
390.512	1119.81
390.736	1139.81
390.961	1146.81
391.186	1137.81
391.411	1189.81
391.636	1219.81
391.86	1257.81
392.085	1289.81
392.31	1264.81
392.534	1222.81
392.759	1204.81
392.984	1207.81
393.208	1187.81
393.433	1161.81
393.658	1180.81
393.882	1211.81
394.107	1217.81
394.331	1210.81
394.556	1194.81
394.78	1163.81
395.005	1205.81
395.229	1238.81
395.454	1202.81
395.678	1276.81
395.903	1263.81
396.127	1257.81
396.352	1194.81
396.576	1160.81
396.801	1185.81
397.025	1177.81
397.249	1186.81
397.474	1252.81
397.698	1267.81
397.922	1238.81
398.147	1211.81
398.371	1264.81
398.595	1331.81
398.82	1362.81
399.044	1491.81
399.268	1641.81
399.492	1922.81
399.717	2218.81
399.941	2192.81
400.165	1919.81
400.389	1710.81
400.613	1582.81
400.837	1473.81
401.062	1435.81
401.286	1443.81
401.51	1428.81
401.734	1411.81
401.958	1411.81
402.182	1427.81
402.406	1425.81
402.63	1507.81
402.854	1496.81
403.078	1541.81
403.302	1561.81
403.526	1607.81
403.75	1626.81
403.974	1667.81
404.198	1650.81
404.422	1672.81
404.645	1651.81
404.869	1632.81
405.093	1643.81
405.317	1571.81
405.541	1588.81
405.765	1538.81
405.988	1513.81
406.212	1523.81
406.436	1564.81
406.66	1599.81
406.883	1617.81
407.107	1754.81
407.331	1784.81
407.555	1844.81
407.778	1854.81
408.002	1808.81
408.226	1748.81
408.449	1685.81
408.673	1628.81
408.896	1576.81
409.12	1612.81
409.344	1607.81
409.567	1600.81
409.791	1682.81
410.014	1608.81
410.238	1618.81
410.461	1578.81
410.685	1590.81
410.908	1540.81
411.132	1536.81
411.355	1465.81
411.578	1463.81
411.802	1447.81
412.025	1474.81
412.249	1528.81
412.472	1509.81
412.695	1410.81
412.919	1420.81
413.142	1409.81
413.365	1413.81
413.589	1452.81
413.812	1390.81
414.035	1385.81
414.258	1383.81
414.482	1421.81
414.705	1471.81
414.928	1441.81
415.151	1422.81
415.374	1450.81
415.597	1434.81
415.821	1379.81
416.044	1378.81
416.267	1359.81
416.49	1370.81
416.713	1385.81
416.936	1374.81
417.159	1368.81
417.382	1374.81
417.605	1355.81
417.828	1392.81
418.051	1422.81
418.274	1402.81
418.497	1402.81
418.72	1459.81
418.943	1436.81
419.166	1490.81
419.389	1645.81
419.611	1584.81
419.834	1510.81
420.057	1457.81
420.28	1449.81
420.503	1414.81
420.726	1372.81
420.948	1356.81
421.171	1379.81
421.394	1379.81
421.617	1385.81
421.839	1411.81
422.062	1393.81
422.285	1356.81
422.507	1447.81
422.73	1438.81
422.953	1436.81
423.175	1469.81
423.398	1500.81
423.621	1473.81
423.843	1510.81
424.066	1491.81
424.288	1474.81
424.511	1516.81
424.733	1476.81
424.956	1444.81
425.178	1427.81
425.401	1408.81
425.623	1356.81
425.846	1323.81
426.068	1344.81
426.291	1316.81
426.513	1310.81
426.735	1313.81
426.958	1289.81
427.18	1298.81
427.402	1276.81
427.625	1282.81
427.847	1263.81
428.069	1240.81
428.292	1260.81
428.514	1219.81
428.736	1227.81
428.958	1236.81
429.181	1212.81
429.403	1214.81
429.625	1222.81
429.847	1202.81
430.069	1202.81
430.292	1219.81
430.514	1209.81
430.736	1201.81
430.958	1150.81
431.18	1184.81
431.402	1182.81
431.624	1214.81
431.846	1214.81
432.068	1226.81
432.29	1266.81
432.512	1236.81
432.734	1244.81
432.956	1238.81
433.178	1269.81
433.4	1234.81
433.622	1228.81
433.844	1272.81
434.066	1254.81
434.287	1301.81
434.509	1335.81
434.731	1395.81
434.953	1417.81
435.175	1435.81
435.397	1397.81
435.618	1344.81
435.84	1296.81
436.062	1272.81
436.284	1240.81
436.505	1254.81
436.727	1298.81
436.949	1256.81
437.17	1223.81
437.392	1205.81
437.614	1201.81
437.835	1186.81
438.057	1202.81
438.278	1199.81
438.5	1203.81
438.721	1163.81
438.943	1204.81
439.165	1146.81
439.386	1237.81
439.608	1254.81
439.829	1234.81
440.05	1219.81
440.272	1280.81
440.493	1263.81
440.715	1271.81
440.936	1244.81
441.158	1288.81
441.379	1355.81
441.6	1412.81
441.822	1424.81
442.043	1421.81
442.264	1399.81
442.486	1374.81
442.707	1382.81
442.928	1383.81
443.149	1394.81
443.371	1366.81
443.592	1400.81
443.813	1424.81
444.034	1431.81
444.255	1437.81
444.476	1529.81
444.698	1640.81
444.919	1688.81
445.14	1756.81
445.361	1579.81
445.582	1440.81
445.803	1351.81
446.024	1321.81
446.245	1302.81
446.466	1265.81
446.687	1249.81
446.908	1259.81
447.129	1199.81
447.35	1188.81
447.571	1189.81
447.792	1203.81
448.013	1202.81
448.234	1149.81
448.455	1152.81
448.675	1158.81
448.896	1120.81
449.117	1122.81
449.338	1124.81
449.559	1132.81
449.779	1147.81
450	1120.81
450.221	1152.81
450.442	1126.81
450.662	1122.81
450.883	1173.81
451.104	1164.81
451.324	1151.81
451.545	1157.81
451.766	1150.81
451.986	1158.81
452.207	1136.81
452.428	1128.81
452.648	1127.81
452.869	1104.81
453.089	1117.81
453.31	1142.81
453.53	1105.81
453.751	1098.81
453.971	1076.81
454.192	1115.81
454.412	1050.81
454.633	1060.81
454.853	1091.81
455.073	1051.81
455.294	1068.81
455.514	1062.81
455.734	1051.81
455.955	1039.81
456.175	1059.81
456.395	1025.81
456.616	1047.81
456.836	1071.81
457.056	1059.81
457.276	1008.81
457.497	1053.81
457.717	1047.81
457.937	1059.81
458.157	1092.81
458.377	1086.81
458.598	1134.81
458.818	1137.81
459.038	1174.81
459.258	1207.81
459.478	1227.81
459.698	1275.81
459.918	1293.81
460.138	1348.81
460.358	1479.81
460.578	1449.81
460.798	1485.81
461.018	1487.81
461.238	1463.81
461.458	1457.81
461.678	1479.81
461.898	1460.81
462.118	1462.81
462.338	1568.81
462.558	1585.81
462.777	1643.81
462.997	1804.81
463.217	2002.81
463.437	2019.81
463.657	1781.81
463.876	1714.81
464.096	1715.81
464.316	1729.81
464.536	1714.81
464.755	1666.81
464.975	1578.81
465.195	1480.81
465.414	1433.81
465.634	1330.81
465.854	1294.81
466.073	1281.81
466.293	1258.81
466.512	1222.81
466.732	1175.81
466.951	1213.81
467.171	1187.81
467.391	1184.81
467.61	1165.81
467.829	1154.81
468.049	1130.81
468.268	1153.81
468.488	1098.81
468.707	1132.81
468.927	1111.81
469.146	1146.81
469.365	1127.81
469.585	1174.81
469.804	1186.81
470.023	1237.81
470.243	1221.81
470.462	1187.81
470.681	1262.81
470.901	1220.81
471.12	1202.81
471.339	1167.81
471.558	1143.81
471.777	1131.81
471.997	1141.81
472.216	1144.81
472.435	1104.81
472.654	1106.81
472.873	1079.81
473.092	1073.81
473.311	1094.81
473.53	1133.81
473.749	1115.81
473.968	1122.81
474.187	1085.81
474.406	1068.81
474.625	1107.81
474.844	1110.81
475.063	1080.81
475.282	1100.81
475.501	1118.81
475.72	1120.81
475.939	1155.81
476.158	1145.81
476.377	1123.81
476.596	1113.81
476.814	1198.81
477.033	1190.81
477.252	1186.81
477.471	1192.81
477.69	1270.81
477.908	1241.81
478.127	1327.81
478.346	1328.81
478.564	1352.81
478.783	1366.81
479.002	1376.81
479.22	1406.81
479.439	1356.81
479.658	1380.81
479.876	1361.81
480.095	1405.81
480.313	1445.81
480.532	1484.81
480.751	1498.81
480.969	1440.81
481.188	1371.81
481.406	1334.81
481.624	1331.81
481.843	1264.81
482.061	1286.81
482.28	1285.81
482.498	1258.81
482.717	1282.81
482.935	1240.81
483.153	1249.81
483.372	1254.81
483.59	1281.81
483.808	1254.81
484.027	1218.81
484.245	1281.81
484.463	1304.81
484.681	1326.81
484.9	1339.81
485.118	1326.81
485.336	1305.81
485.554	1310.81
485.772	1315.81
485.99	1343.81
486.209	1346.81
486.427	1370.81
486.645	1400.81
486.863	1343.81
487.081	1330.81
487.299	1383.81
487.517	1340.81
487.735	1340.81
487.953	1323.81
488.171	1323.81
488.389	1335.81
488.607	1316.81
488.825	1290.81
489.043	1316.81
489.261	1299.81
489.479	1311.81
489.696	1315.81
489.914	1292.81
490.132	1304.81
490.35	1320.81
490.568	1335.81
490.786	1322.81
491.003	1352.81
491.221	1317.81
491.439	1335.81
491.657	1330.81
491.874	1362.81
492.092	1335.81
492.31	1324.81
492.527	1331.81
492.745	1363.81
492.963	1386.81
493.18	1366.81
493.398	1367.81
493.615	1345.81
493.833	1406.81
494.05	1345.81
494.268	1378.81
494.485	1363.81
494.703	1396.81
494.92	1410.81
495.138	1401.81
495.355	1381.81
495.573	1386.81
495.79	1389.81
496.008	1416.81
496.225	1420.81
496.442	1394.81
496.66	1456.81
496.877	1443.81
497.094	1461.81
497.312	1532.81
497.529	1528.81
497.746	1583.81
497.963	1624.81
498.181	1695.81
498.398	1740.81
498.615	1847.81
498.832	1985.81
499.049	2170.81
499.267	2307.81
499.484	2527.81
499.701	2870.81
499.918	3145.81
500.135	3648.81
500.352	4234.81
500.569	4479.81
500.786	4341.81
501.003	4094.81
501.22	3597.81
501.437	3136.81
501.654	2722.81
501.871	2441.81
502.088	2251.81
502.305	2129.81
502.522	2010.81
502.739	1920.81
502.956	1824.81
503.172	1792.81
503.389	1636.81
503.606	1639.81
503.823	1585.81
504.04	1578.81
504.256	1610.81
504.473	1646.81
504.69	1687.81
504.907	1682.81
505.123	1546.81
505.34	1470.81
505.557	1395.81
505.773	1360.81
505.99	1327.81
506.207	1296.81
506.423	1286.81
506.64	1277.81
506.856	1237.81
507.073	1241.81
507.289	1226.81
507.506	1245.81
507.722	1201.81
507.939	1215.81
508.155	1177.81
508.372	1210.81
508.588	1177.81
508.805	1173.81
509.021	1164.81
509.238	1138.81
509.454	1152.81
509.67	1111.81
509.887	1156.81
510.103	1153.81
510.319	1131.81
510.536	1135.81
510.752	1140.81
510.968	1147.81
511.184	1141.81
511.401	1107.81
511.617	1131.81
511.833	1122.81
512.049	1103.81
512.265	1112.81
512.481	1082.81
512.698	1093.81
512.914	1117.81
513.13	1088.81
513.346	1114.81
513.562	1115.81
513.778	1104.81
513.994	1122.81
514.21	1115.81
514.426	1124.81
514.642	1126.81
514.858	1142.81
515.074	1148.81
515.29	1147.81
515.506	1153.81
515.721	1173.81
515.937	1230.81
516.153	1247.81
516.369	1244.81
516.585	1280.81
516.801	1284.81
517.016	1410.81
517.232	1438.81
517.448	1542.81
517.664	1604.81
517.879	1617.81
518.095	1600.81
518.311	1591.81
518.527	1507.81
518.742	1413.81
518.958	1362.81
519.173	1322.81
519.389	1287.81
519.605	1244.81
519.82	1210.81
520.036	1203.81
520.251	1162.81
520.467	1125.81
520.682	1121.81
520.898	1125.81
521.113	1105.81
521.329	1111.81
521.544	1079.81
521.76	1100.81
521.975	1087.81
522.19	1065.81
522.406	1059.81
522.621	1068.81
522.836	1041.81
523.052	1047.81
523.267	1057.81
523.482	1063.81
523.698	1032.81
523.913	1026.81
524.128	1024.81
524.343	1056.81
524.559	1030.81
524.774	1032.81
524.989	1029.81
525.204	999.81
525.419	1016.81
525.634	1025.81
525.849	1035.81
526.064	999.81
526.28	1002.81
526.495	1013.81
526.71	1008.81
526.925	995.81
527.14	991.81
527.355	994.81
527.57	1007.81
527.785	1000.81
527.999	969.81
528.214	1015.81
528.429	1014.81
528.644	1049.81
528.859	1009.81
529.074	1022.81
529.289	1017.81
529.503	1003.81
529.718	999.81
529.933	993.81
530.148	1014.81
530.363	970.81
530.577	999.81
530.792	994.81
531.007	991.81
531.221	1035.81
531.436	1010.81
531.651	1018.81
531.865	1013.81
532.08	1003.81
532.295	985.81
532.509	1025.81
532.724	1029.81
532.938	1026.81
533.153	1027.81
533.367	1012.81
533.582	1022.81
533.796	1002.81
534.011	967.81
534.225	1000.81
534.44	989.81
534.654	990.81
534.868	1007.81
535.083	993.81
535.297	962.81
535.511	975.81
535.726	968.81
535.94	945.81
536.154	956.81
536.369	947.81
536.583	933.81
536.797	945.81
537.011	935.81
537.225	932.81
537.44	931.81
537.654	923.81
537.868	920.81
538.082	905.81
538.296	913.81
538.51	918.81
538.724	920.81
538.938	898.81
539.153	950.81
539.367	872.81
539.581	894.81
539.795	880.81
540.009	899.81
540.222	901.81
540.436	903.81
540.65	870.81
540.864	896.81
541.078	867.81
541.292	896.81
541.506	924.81
541.72	881.81
541.934	903.81
542.147	872.81
542.361	858.81
542.575	850.81
542.789	890.81
543.002	882.81
543.216	898.81
543.43	891.81
543.644	881.81
543.857	859.81
544.071	876.81
544.285	884.81
544.498	889.81
544.712	885.81
544.925	927.81
545.139	914.81
545.352	905.81
545.566	936.81
545.779	912.81
545.993	960.81
546.206	933.81
546.42	919.81
546.633	941.81
546.847	874.81
547.06	904.81
547.274	892.81
547.487	908.81
547.7	900.81
547.914	943.81
548.127	927.81
548.34	930.81
548.554	904.81
548.767	925.81
548.98	899.81
549.193	900.81
549.407	925.81
549.62	959.81
549.833	983.81
550.046	920.81
550.259	950.81
550.473	923.81
550.686	906.81
550.899	895.81
551.112	887.81
551.325	862.81
551.538	894.81
551.751	898.81
551.964	907.81
552.177	899.81
552.39	926.81
552.603	938.81
552.816	968.81
553.029	982.81
553.242	992.81
553.455	1011.81
553.667	986.81
553.88	993.81
554.093	978.81
554.306	945.81
554.519	940.81
554.732	928.81
554.944	895.81
555.157	886.81
555.37	859.81
555.583	846.81
555.795	846.81
556.008	835.81
556.221	790.81
556.433	828.81
556.646	792.81
556.859	803.81
557.071	800.81
557.284	786.81
557.496	789.81
557.709	807.81
557.921	784.81
558.134	769.81
558.346	806.81
558.559	781.81
558.771	778.81
558.984	771.81
559.196	780.81
559.409	745.81
559.621	770.81
559.833	735.81
560.046	744.81
560.258	769.81
560.47	731.81
560.683	715.81
560.895	750.81
561.107	741.81
561.32	747.81
561.532	757.81
561.744	736.81
561.956	742.81
562.168	734.81
562.381	740.81
562.593	731.81
562.805	764.81
563.017	752.81
563.229	743.81
563.441	758.81
563.653	786.81
563.865	753.81
564.077	783.81
564.289	789.81
564.501	780.81
564.713	793.81
564.925	793.81
565.137	837.81
565.349	842.81
565.561	854.81
565.773	891.81
565.985	933.81
566.197	978.81
566.408	1059.81
566.62	1146.81
566.832	1269.81
567.044	1298.81
567.255	1258.81
567.467	1332.81
567.679	1396.81
567.891	1490.81
568.102	1517.81
568.314	1479.81
568.526	1290.81
568.737	1164.81
568.949	1074.81
569.161	978.81
569.372	929.81
569.584	865.81
569.795	834.81
570.007	793.81
570.218	784.81
570.43	764.81
570.641	776.81
570.853	765.81
571.064	802.81
571.276	805.81
571.487	777.81
571.698	737.81
571.91	708.81
572.121	686.81
572.333	669.81
572.544	659.81
572.755	659.81
572.966	632.81
573.178	629.81
573.389	628.81
573.6	631.81
573.811	602.81
574.023	619.81
574.234	622.81
574.445	606.81
574.656	616.81
574.867	637.81
575.078	622.81
575.289	627.81
575.501	602.81
575.712	610.81
575.923	593.81
576.134	570.81
576.345	589.81
576.556	578.81
576.767	596.81
576.978	571.81
577.188	583.81
577.399	572.81
577.61	566.81
577.821	556.81
578.032	572.81
578.243	558.81
578.454	544.81
578.665	531.81
578.875	544.81
579.086	528.81
579.297	544.81
579.508	538.81
579.718	554.81
579.929	546.81
580.14	535.81
580.35	532.81
580.561	553.81
580.772	524.81
580.982	536.81
581.193	536.81
581.403	515.81
581.614	524.81
581.825	527.81
582.035	481.81
582.246	497.81
582.456	494.81
582.667	507.81
582.877	520.81
583.087	513.81
583.298	545.81
583.508	520.81
583.719	500.81
583.929	526.81
584.139	507.81
584.35	504.81
584.56	504.81
584.77	518.81
584.981	510.81
585.191	504.81
585.401	488.81
585.611	488.81
585.821	519.81
586.032	493.81
586.242	515.81
586.452	518.81
586.662	488.81
586.872	491.81
587.082	494.81
587.292	482.81
587.502	502.81
587.713	499.81
587.923	490.81
588.133	486.81
588.343	491.81
588.553	500.81
588.762	503.81
588.972	483.81
589.182	470.81
589.392	496.81
589.602	508.81
589.812	488.81
590.022	510.81
590.232	488.81
590.441	487.81
590.651	500.81
590.861	495.81
591.071	518.81
591.281	484.81
591.49	506.81
591.7	536.81
591.91	550.81
592.119	546.81
592.329	528.81
592.539	542.81
592.748	570.81
592.958	608.81
593.167	647.81
593.377	612.81
593.587	638.81
593.796	656.81
594.006	672.81
594.215	675.81
594.424	673.81
594.634	655.81
594.843	605.81
595.053	603.81
595.262	574.81
595.472	543.81
595.681	534.81
595.89	508.81
596.1	498.81
596.309	478.81
596.518	491.81
596.727	471.81
596.937	476.81
597.146	444.81
597.355	455.81
597.564	458.81
597.774	434.81
597.983	422.81
598.192	413.81
598.401	418.81
598.61	436.81
598.819	449.81
599.028	434.81
599.237	423.81
599.446	419.81
599.655	442.81
599.864	437.81
600.073	420.81
600.282	428.81
600.491	401.81
600.7	424.81
600.909	404.81
601.118	421.81
601.327	428.81
601.536	412.81
601.745	409.81
601.953	410.81
602.162	414.81
602.371	413.81
602.58	412.81
602.789	417.81
602.997	400.81
603.206	385.81
603.415	388.81
603.623	369.81
603.832	408.81
604.041	396.81
604.249	403.81
604.458	379.81
604.666	396.81
604.875	370.81
605.084	374.81
605.292	395.81
605.501	377.81
605.709	386.81
605.918	367.81
606.126	381.81
606.334	380.81
606.543	380.81
606.751	380.81
606.96	373.81
607.168	377.81
607.376	361.81
607.585	370.81
607.793	362.81
608.001	370.81
608.21	376.81
608.418	382.81
608.626	363.81
608.834	351.81
609.043	375.81
609.251	371.81
609.459	353.81
609.667	378.81
609.875	362.81
610.083	366.81
610.291	352.81
610.499	364.81
610.707	354.81
610.916	361.81
611.124	351.81
611.332	358.81
611.54	363.81
611.748	352.81
611.955	360.81
612.163	357.81
612.371	357.81
612.579	367.81
612.787	334.81
612.995	343.81
613.203	354.81
613.411	358.81
613.618	338.81
613.826	337.81
614.034	362.81
614.242	346.81
614.449	350.81
614.657	352.81
614.865	320.81
615.072	379.81
615.28	361.81
615.488	374.81
615.695	374.81
615.903	355.81
616.111	360.81
616.318	350.81
616.526	366.81
616.733	370.81
616.941	355.81
617.148	368.81
617.356	376.81
617.563	340.81
617.771	370.81
617.978	366.81
618.185	358.81
618.393	360.81
618.6	356.81
618.807	353.81
619.015	348.81
619.222	343.81
619.429	361.81
619.637	330.81
619.844	345.81
620.051	328.81
620.258	353.81
620.466	329.81
620.673	320.81
620.88	342.81
621.087	318.81
621.294	324.81
621.501	324.81
621.708	320.81
621.915	320.81
622.122	322.81
622.329	289.81
622.536	306.81
622.743	317.81
622.95	329.81
623.157	299.81
623.364	298.81
623.571	316.81
623.778	295.81
623.985	310.81
624.192	302.81
624.399	336.81
624.606	304.81
624.812	315.81
625.019	314.81
625.226	297.81
625.433	322.81
625.639	304.81
625.846	298.81
626.053	308.81
626.259	295.81
626.466	302.81
626.673	311.81
626.879	294.81
627.086	308.81
627.293	319.81
627.499	299.81
627.706	285.81
627.912	288.81
628.119	284.81
628.325	281.81
628.532	293.81
628.738	284.81
628.945	271.81
629.151	286.81
629.357	297.81
629.564	263.81
629.77	275.81
629.976	285.81
630.183	279.81
630.389	263.81
630.595	272.81
630.802	270.81
631.008	265.81
631.214	266.81
631.42	262.81
631.627	279.81
631.833	290.81
632.039	294.81
632.245	291.81
632.451	268.81
632.657	260.81
632.863	258.81
633.069	279.81
633.275	257.81
633.481	257.81
633.688	250.81
633.893	272.81
634.099	264.81
634.305	254.81
634.511	270.81
634.717	254.81
634.923	248.81
635.129	244.81
635.335	240.81
635.541	245.81
635.747	254.81
635.952	242.81
636.158	244.81
636.364	243.81
636.57	242.81
636.775	244.81
636.981	256.81
637.187	251.81
637.392	238.81
637.598	238.81
637.804	244.81
638.009	263.81
638.215	242.81
638.421	244.81
638.626	229.81
638.832	248.81
639.037	229.81
639.243	254.81
639.448	229.81
639.654	254.81
639.859	243.81
640.065	230.81
640.27	236.81
640.475	225.81
640.681	219.81
640.886	221.81
641.091	236.81
641.297	229.81
641.502	224.81
641.707	228.81
641.913	240.81
642.118	228.81
642.323	218.81
642.528	223.81
642.733	220.81
642.939	215.81
643.144	218.81
643.349	244.81
643.554	230.81
643.759	250.81
643.964	223.81
644.169	224.81
644.374	220.81
644.579	233.81
644.784	228.81
644.989	223.81
645.194	223.81
645.399	226.81
645.604	218.81
645.809	227.81
646.014	228.81
646.219	226.81
646.423	222.81
646.628	231.81
646.833	233.81
647.038	230.81
647.243	233.81
647.447	222.81
647.652	238.81
647.857	235.81
648.062	240.81
648.266	239.81
648.471	251.81
648.676	257.81
648.88	243.81
649.085	256.81
649.289	240.81
649.494	222.81
649.698	242.81
649.903	218.81
650.107	212.81
650.312	223.81
650.516	203.81
650.721	210.81
650.925	212.81
651.13	207.81
651.334	193.81
651.539	228.81
651.743	216.81
651.947	213.81
652.152	197.81
652.356	177.81
652.56	190.81
652.764	214.81
652.969	185.81
653.173	185.81
653.377	178.81
653.581	185.81
653.785	184.81
653.99	163.81
654.194	180.81
654.398	182.81
654.602	189.81
654.806	182.81
655.01	181.81
655.214	165.81
655.418	174.81
655.622	164.81
655.826	170.81
656.03	171.81
656.234	182.81
656.438	170.81
656.642	157.81
656.846	170.81
657.049	174.81
657.253	154.81
657.457	156.81
657.661	148.81
657.865	137.81
658.068	123.81
658.272	116.81
658.476	117.81
658.68	126.81
658.883	114.81
659.087	112.81
659.291	106.81
659.494	116.81
659.698	109.81
659.901	104.81
660.105	115.81
660.309	110.81
660.512	105.81
660.716	83.81
660.919	100.81
661.123	90.81
661.326	102.81
661.53	89.81
661.733	94.81
661.936	84.81
662.14	83.81
662.343	100.81
662.546	98.81
662.75	80.81
662.953	96.81
663.156	96.81
663.36	89.81
663.563	88.81
663.766	73.81
663.969	82.81
664.173	89.81
664.376	87.81
664.579	80.81
664.782	79.81
664.985	82.81
665.188	80.81
665.391	84.81
665.594	77.81
665.797	71.81
666	80.81
666.203	85.81
666.406	82.81
666.609	93.81
666.812	75.81
667.015	81.81
667.218	83.81
667.421	78.81
667.624	86.81
667.827	77.81
668.03	70.81
668.232	93.81
668.435	90.81
668.638	82.81
668.841	85.81
669.043	79.81
669.246	88.81
669.449	72.81
669.651	77.81
669.854	75.81
670.057	94.81
670.259	78.81
670.462	73.81
670.665	95.81
670.867	67.81
671.07	83.81
671.272	84.81
671.475	85.81
671.677	81.81
671.88	87.81
672.082	82.81
672.284	73.81
672.487	87.81
672.689	75.81
672.892	86.81
