Data from NiCl2@0.125M.TitratingCurve.Agarose3%dH2O.NegLispCup.LampEnergy10.LIBS07252019_HRD10591_18-30-09-575.txt Node
Date: Thu Jul 25 18:30:09 EDT 2019
User: cochatt
Spectrometer: HR+D1059
Trigger mode: 1
Integration Time (sec): 1.000000E-1
Scans to average: 1
Electric dark correction enabled: true
Nonlinearity correction enabled: false
Boxcar width: 0
XAxis mode: Wavelengths
Number of Pixels in Spectrum: 2048
>>>>>Begin Spectral Data<<<<<
223.165	-24.06
223.4	-24.06
223.635	-24.06
223.869	-2.06
224.104	-14.06
224.338	-7.06
224.573	-22.06
224.808	-17.06
225.042	-24.06
225.277	-15.06
225.511	-5.06
225.746	3.94
225.98	-7.06
226.215	17.94
226.449	22.94
226.683	23.94
226.918	36.94
227.152	31.94
227.387	24.94
227.621	48.94
227.856	46.94
228.09	42.94
228.324	53.94
228.559	55.94
228.793	77.94
229.027	112.94
229.262	101.94
229.496	123.94
229.73	109.94
229.964	112.94
230.199	125.94
230.433	135.94
230.667	145.94
230.901	137.94
231.136	133.94
231.37	138.94
231.604	144.94
231.838	133.94
232.072	131.94
232.306	149.94
232.541	151.94
232.775	134.94
233.009	145.94
233.243	153.94
233.477	138.94
233.711	149.94
233.945	130.94
234.179	166.94
234.413	154.94
234.647	151.94
234.881	160.94
235.115	152.94
235.349	153.94
235.583	168.94
235.817	150.94
236.051	144.94
236.285	144.94
236.519	150.94
236.753	160.94
236.987	156.94
237.221	164.94
237.455	162.94
237.689	157.94
237.922	163.94
238.156	174.94
238.39	168.94
238.624	176.94
238.858	163.94
239.091	178.94
239.325	175.94
239.559	173.94
239.793	171.94
240.027	180.94
240.26	188.94
240.494	187.94
240.728	174.94
240.961	204.94
241.195	169.94
241.429	194.94
241.662	185.94
241.896	182.94
242.13	194.94
242.363	186.94
242.597	193.94
242.83	185.94
243.064	198.94
243.298	208.94
243.531	200.94
243.765	197.94
243.998	214.94
244.232	223.94
244.465	212.94
244.699	208.94
244.932	217.94
245.166	221.94
245.399	213.94
245.633	218.94
245.866	214.94
246.099	209.94
246.333	217.94
246.566	229.94
246.8	224.94
247.033	239.94
247.266	232.94
247.5	227.94
247.733	228.94
247.966	245.94
248.2	237.94
248.433	227.94
248.666	225.94
248.899	255.94
249.133	238.94
249.366	229.94
249.599	241.94
249.832	233.94
250.066	233.94
250.299	240.94
250.532	246.94
250.765	257.94
250.998	265.94
251.231	264.94
251.465	281.94
251.698	249.94
251.931	264.94
252.164	252.94
252.397	267.94
252.63	265.94
252.863	273.94
253.096	284.94
253.329	276.94
253.562	268.94
253.795	280.94
254.028	277.94
254.261	267.94
254.494	271.94
254.727	283.94
254.96	284.94
255.193	271.94
255.426	277.94
255.659	255.94
255.892	297.94
256.124	294.94
256.357	279.94
256.59	285.94
256.823	283.94
257.056	300.94
257.289	305.94
257.521	297.94
257.754	289.94
257.987	300.94
258.22	302.94
258.452	304.94
258.685	296.94
258.918	310.94
259.151	275.94
259.383	328.94
259.616	312.94
259.849	325.94
260.081	316.94
260.314	309.94
260.547	309.94
260.779	324.94
261.012	299.94
261.244	305.94
261.477	316.94
261.71	324.94
261.942	301.94
262.175	320.94
262.407	317.94
262.64	331.94
262.872	319.94
263.105	318.94
263.337	349.94
263.57	339.94
263.802	324.94
264.035	324.94
264.267	327.94
264.499	314.94
264.732	333.94
264.964	342.94
265.197	357.94
265.429	352.94
265.661	381.94
265.894	349.94
266.126	349.94
266.358	337.94
266.591	360.94
266.823	341.94
267.055	345.94
267.287	356.94
267.52	343.94
267.752	373.94
267.984	355.94
268.216	367.94
268.448	358.94
268.681	358.94
268.913	364.94
269.145	360.94
269.377	362.94
269.609	367.94
269.841	366.94
270.073	375.94
270.306	367.94
270.538	389.94
270.77	377.94
271.002	391.94
271.234	382.94
271.466	372.94
271.698	373.94
271.93	368.94
272.162	385.94
272.394	375.94
272.626	364.94
272.858	359.94
273.09	375.94
273.322	391.94
273.553	397.94
273.785	390.94
274.017	403.94
274.249	399.94
274.481	394.94
274.713	383.94
274.945	422.94
275.176	412.94
275.408	422.94
275.64	401.94
275.872	412.94
276.104	408.94
276.335	412.94
276.567	381.94
276.799	398.94
277.031	425.94
277.262	418.94
277.494	433.94
277.726	431.94
277.957	424.94
278.189	431.94
278.421	407.94
278.652	414.94
278.884	416.94
279.115	421.94
279.347	424.94
279.579	417.94
279.81	440.94
280.042	437.94
280.273	431.94
280.505	437.94
280.736	443.94
280.968	453.94
281.199	456.94
281.431	448.94
281.662	453.94
281.894	451.94
282.125	439.94
282.356	454.94
282.588	452.94
282.819	449.94
283.051	457.94
283.282	443.94
283.513	468.94
283.745	472.94
283.976	477.94
284.207	471.94
284.439	461.94
284.67	465.94
284.901	479.94
285.132	476.94
285.364	471.94
285.595	501.94
285.826	489.94
286.057	490.94
286.288	496.94
286.52	493.94
286.751	477.94
286.982	468.94
287.213	480.94
287.444	521.94
287.675	509.94
287.906	499.94
288.138	506.94
288.369	530.94
288.6	491.94
288.831	509.94
289.062	505.94
289.293	484.94
289.524	521.94
289.755	502.94
289.986	501.94
290.217	521.94
290.448	500.94
290.679	487.94
290.91	497.94
291.141	510.94
291.371	528.94
291.602	496.94
291.833	497.94
292.064	525.94
292.295	507.94
292.526	519.94
292.757	510.94
292.987	519.94
293.218	530.94
293.449	531.94
293.68	532.94
293.91	539.94
294.141	506.94
294.372	509.94
294.603	524.94
294.833	523.94
295.064	533.94
295.295	507.94
295.525	496.94
295.756	519.94
295.987	535.94
296.217	531.94
296.448	543.94
296.679	527.94
296.909	515.94
297.14	542.94
297.37	572.94
297.601	553.94
297.831	547.94
298.062	572.94
298.292	556.94
298.523	589.94
298.753	599.94
298.984	555.94
299.214	565.94
299.445	558.94
299.675	571.94
299.905	573.94
300.136	556.94
300.366	563.94
300.597	575.94
300.827	583.94
301.057	578.94
301.288	589.94
301.518	590.94
301.748	607.94
301.979	600.94
302.209	594.94
302.439	599.94
302.669	587.94
302.9	588.94
303.13	576.94
303.36	569.94
303.59	586.94
303.82	584.94
304.051	596.94
304.281	564.94
304.511	581.94
304.741	589.94
304.971	587.94
305.201	567.94
305.431	565.94
305.661	566.94
305.891	568.94
306.121	573.94
306.352	577.94
306.582	566.94
306.812	561.94
307.042	572.94
307.272	560.94
307.502	551.94
307.731	558.94
307.961	553.94
308.191	568.94
308.421	556.94
308.651	529.94
308.881	552.94
309.111	558.94
309.341	557.94
309.571	565.94
309.8	563.94
310.03	556.94
310.26	569.94
310.49	565.94
310.72	585.94
310.949	567.94
311.179	571.94
311.409	592.94
311.639	580.94
311.868	590.94
312.098	586.94
312.328	583.94
312.557	599.94
312.787	591.94
313.017	606.94
313.246	592.94
313.476	603.94
313.706	613.94
313.935	596.94
314.165	622.94
314.394	620.94
314.624	611.94
314.853	598.94
315.083	610.94
315.312	601.94
315.542	621.94
315.771	607.94
316.001	577.94
316.23	613.94
316.46	594.94
316.689	595.94
316.919	594.94
317.148	600.94
317.377	581.94
317.607	599.94
317.836	593.94
318.065	595.94
318.295	585.94
318.524	598.94
318.753	570.94
318.983	581.94
319.212	586.94
319.441	598.94
319.67	618.94
319.9	577.94
320.129	586.94
320.358	601.94
320.587	604.94
320.816	599.94
321.046	586.94
321.275	598.94
321.504	593.94
321.733	622.94
321.962	589.94
322.191	616.94
322.42	598.94
322.649	573.94
322.878	595.94
323.108	604.94
323.337	613.94
323.566	639.94
323.795	625.94
324.024	604.94
324.253	600.94
324.482	601.94
324.71	618.94
324.939	630.94
325.168	595.94
325.397	617.94
325.626	636.94
325.855	624.94
326.084	645.94
326.313	648.94
326.542	644.94
326.77	666.94
326.999	647.94
327.228	619.94
327.457	639.94
327.686	643.94
327.914	654.94
328.143	668.94
328.372	646.94
328.6	639.94
328.829	658.94
329.058	633.94
329.287	641.94
329.515	678.94
329.744	656.94
329.972	649.94
330.201	654.94
330.43	653.94
330.658	648.94
330.887	667.94
331.115	675.94
331.344	678.94
331.572	682.94
331.801	685.94
332.03	713.94
332.258	714.94
332.486	717.94
332.715	758.94
332.943	801.94
333.172	841.94
333.4	869.94
333.629	890.94
333.857	889.94
334.085	843.94
334.314	837.94
334.542	813.94
334.771	851.94
334.999	814.94
335.227	821.94
335.455	816.94
335.684	791.94
335.912	767.94
336.14	764.94
336.369	774.94
336.597	780.94
336.825	768.94
337.053	785.94
337.281	765.94
337.51	716.94
337.738	733.94
337.966	705.94
338.194	726.94
338.422	724.94
338.65	705.94
338.878	718.94
339.106	697.94
339.334	720.94
339.562	687.94
339.79	682.94
340.018	664.94
340.246	660.94
340.474	673.94
340.702	665.94
340.93	682.94
341.158	661.94
341.386	695.94
341.614	688.94
341.842	676.94
342.07	676.94
342.298	656.94
342.526	676.94
342.754	714.94
342.981	677.94
343.209	693.94
343.437	708.94
343.665	749.94
343.893	829.94
344.12	848.94
344.348	807.94
344.576	784.94
344.804	743.94
345.031	707.94
345.259	681.94
345.487	667.94
345.714	696.94
345.942	663.94
346.17	663.94
346.397	663.94
346.625	664.94
346.853	676.94
347.08	646.94
347.308	669.94
347.535	659.94
347.763	654.94
347.99	687.94
348.218	688.94
348.445	688.94
348.673	672.94
348.9	666.94
349.128	660.94
349.355	648.94
349.583	672.94
349.81	644.94
350.037	635.94
350.265	657.94
350.492	615.94
350.72	624.94
350.947	634.94
351.174	664.94
351.402	638.94
351.629	638.94
351.856	639.94
352.083	640.94
352.311	644.94
352.538	621.94
352.765	610.94
352.992	633.94
353.22	642.94
353.447	616.94
353.674	608.94
353.901	604.94
354.128	637.94
354.355	613.94
354.583	641.94
354.81	647.94
355.037	633.94
355.264	615.94
355.491	629.94
355.718	620.94
355.945	616.94
356.172	645.94
356.399	655.94
356.626	658.94
356.853	645.94
357.08	623.94
357.307	627.94
357.534	627.94
357.761	622.94
357.988	645.94
358.215	648.94
358.441	621.94
358.668	620.94
358.895	656.94
359.122	633.94
359.349	636.94
359.576	671.94
359.802	617.94
360.029	653.94
360.256	638.94
360.483	645.94
360.709	637.94
360.936	654.94
361.163	657.94
361.39	643.94
361.616	631.94
361.843	616.94
362.07	631.94
362.296	633.94
362.523	646.94
362.749	637.94
362.976	639.94
363.203	619.94
363.429	616.94
363.656	647.94
363.882	623.94
364.109	623.94
364.335	614.94
364.562	633.94
364.788	642.94
365.015	645.94
365.241	625.94
365.468	623.94
365.694	620.94
365.92	645.94
366.147	650.94
366.373	629.94
366.599	637.94
366.826	628.94
367.052	633.94
367.278	631.94
367.505	607.94
367.731	643.94
367.957	641.94
368.184	639.94
368.41	638.94
368.636	637.94
368.862	648.94
369.089	642.94
369.315	644.94
369.541	641.94
369.767	677.94
369.993	668.94
370.219	663.94
370.445	675.94
370.672	663.94
370.898	671.94
371.124	685.94
371.35	704.94
371.576	693.94
371.802	672.94
372.028	687.94
372.254	688.94
372.48	678.94
372.706	731.94
372.932	740.94
373.158	700.94
373.384	695.94
373.61	683.94
373.835	708.94
374.061	691.94
374.287	707.94
374.513	710.94
374.739	729.94
374.965	757.94
375.191	773.94
375.416	799.94
375.642	771.94
375.868	743.94
376.094	703.94
376.319	708.94
376.545	703.94
376.771	705.94
376.997	696.94
377.222	702.94
377.448	687.94
377.674	700.94
377.899	688.94
378.125	694.94
378.35	696.94
378.576	717.94
378.802	697.94
379.027	691.94
379.253	712.94
379.478	698.94
379.704	663.94
379.929	681.94
380.155	688.94
380.38	679.94
380.606	683.94
380.831	691.94
381.057	714.94
381.282	675.94
381.507	692.94
381.733	700.94
381.958	702.94
382.184	683.94
382.409	691.94
382.634	704.94
382.86	723.94
383.085	757.94
383.31	759.94
383.535	764.94
383.761	779.94
383.986	751.94
384.211	778.94
384.436	783.94
384.662	823.94
384.887	837.94
385.112	835.94
385.337	838.94
385.562	853.94
385.787	822.94
386.013	868.94
386.238	840.94
386.463	843.94
386.688	838.94
386.913	869.94
387.138	838.94
387.363	827.94
387.588	827.94
387.813	814.94
388.038	811.94
388.263	793.94
388.488	823.94
388.713	838.94
388.938	804.94
389.163	796.94
389.387	832.94
389.612	813.94
389.837	800.94
390.062	798.94
390.287	808.94
390.512	811.94
390.736	827.94
390.961	821.94
391.186	845.94
391.411	880.94
391.636	909.94
391.86	919.94
392.085	926.94
392.31	922.94
392.534	896.94
392.759	921.94
392.984	888.94
393.208	878.94
393.433	859.94
393.658	848.94
393.882	872.94
394.107	889.94
394.331	877.94
394.556	867.94
394.78	884.94
395.005	924.94
395.229	900.94
395.454	903.94
395.678	934.94
395.903	925.94
396.127	948.94
396.352	876.94
396.576	874.94
396.801	891.94
397.025	859.94
397.249	907.94
397.474	919.94
397.698	905.94
397.922	910.94
398.147	914.94
398.371	960.94
398.595	977.94
398.82	1015.94
399.044	1063.94
399.268	1149.94
399.492	1323.94
399.717	1543.94
399.941	1588.94
400.165	1451.94
400.389	1260.94
400.613	1165.94
400.837	1085.94
401.062	1074.94
401.286	1041.94
401.51	1045.94
401.734	1039.94
401.958	1073.94
402.182	1069.94
402.406	1070.94
402.63	1064.94
402.854	1100.94
403.078	1113.94
403.302	1161.94
403.526	1154.94
403.75	1170.94
403.974	1215.94
404.198	1201.94
404.422	1238.94
404.645	1210.94
404.869	1195.94
405.093	1233.94
405.317	1183.94
405.541	1157.94
405.765	1145.94
405.988	1161.94
406.212	1167.94
406.436	1128.94
406.66	1163.94
406.883	1177.94
407.107	1257.94
407.331	1328.94
407.555	1343.94
407.778	1355.94
408.002	1349.94
408.226	1297.94
408.449	1238.94
408.673	1196.94
408.896	1196.94
409.12	1175.94
409.344	1190.94
409.567	1166.94
409.791	1206.94
410.014	1208.94
410.238	1166.94
410.461	1161.94
410.685	1166.94
410.908	1106.94
411.132	1104.94
411.355	1075.94
411.578	1091.94
411.802	1060.94
412.025	1080.94
412.249	1117.94
412.472	1120.94
412.695	1065.94
412.919	1065.94
413.142	1029.94
413.365	1026.94
413.589	1051.94
413.812	1016.94
414.035	1028.94
414.258	1039.94
414.482	1072.94
414.705	1059.94
414.928	1087.94
415.151	1069.94
415.374	1068.94
415.597	1065.94
415.821	1030.94
416.044	1017.94
416.267	990.94
416.49	981.94
416.713	1014.94
416.936	1019.94
417.159	1038.94
417.382	1016.94
417.605	1000.94
417.828	1012.94
418.051	1037.94
418.274	1089.94
418.497	1055.94
418.72	1054.94
418.943	1065.94
419.166	1149.94
419.389	1224.94
419.611	1179.94
419.834	1147.94
420.057	1084.94
420.28	1056.94
420.503	1045.94
420.726	1028.94
420.948	1012.94
421.171	991.94
421.394	1027.94
421.617	1039.94
421.839	1036.94
422.062	1045.94
422.285	1013.94
422.507	1073.94
422.73	1068.94
422.953	1096.94
423.175	1095.94
423.398	1107.94
423.621	1082.94
423.843	1137.94
424.066	1089.94
424.288	1104.94
424.511	1110.94
424.733	1077.94
424.956	1062.94
425.178	1050.94
425.401	1039.94
425.623	1038.94
425.846	1017.94
426.068	1042.94
426.291	988.94
426.513	976.94
426.735	985.94
426.958	972.94
427.18	984.94
427.402	948.94
427.625	973.94
427.847	948.94
428.069	924.94
428.292	952.94
428.514	919.94
428.736	950.94
428.958	965.94
429.181	914.94
429.403	919.94
429.625	911.94
429.847	891.94
430.069	913.94
430.292	908.94
430.514	913.94
430.736	894.94
430.958	899.94
431.18	905.94
431.402	932.94
431.624	907.94
431.846	911.94
432.068	934.94
432.29	955.94
432.512	949.94
432.734	949.94
432.956	913.94
433.178	928.94
433.4	931.94
433.622	941.94
433.844	970.94
434.066	959.94
434.287	955.94
434.509	981.94
434.731	982.94
434.953	1056.94
435.175	1070.94
435.397	1062.94
435.618	1004.94
435.84	982.94
436.062	967.94
436.284	931.94
436.505	931.94
436.727	919.94
436.949	939.94
437.17	937.94
437.392	935.94
437.614	925.94
437.835	904.94
438.057	903.94
438.278	893.94
438.5	895.94
438.721	908.94
438.943	924.94
439.165	912.94
439.386	894.94
439.608	932.94
439.829	946.94
440.05	928.94
440.272	963.94
440.493	955.94
440.715	978.94
440.936	948.94
441.158	987.94
441.379	1012.94
441.6	1065.94
441.822	1050.94
442.043	1056.94
442.264	1055.94
442.486	1017.94
442.707	1015.94
442.928	1057.94
443.149	1042.94
443.371	1022.94
443.592	1017.94
443.813	1057.94
444.034	1027.94
444.255	1107.94
444.476	1148.94
444.698	1211.94
444.919	1248.94
445.14	1381.94
445.361	1212.94
445.582	1099.94
445.803	1025.94
446.024	1023.94
446.245	989.94
446.466	979.94
446.687	937.94
446.908	971.94
447.129	964.94
447.35	919.94
447.571	904.94
447.792	887.94
448.013	909.94
448.234	908.94
448.455	884.94
448.675	869.94
448.896	878.94
449.117	845.94
449.338	848.94
449.559	883.94
449.779	873.94
450	855.94
450.221	859.94
450.442	906.94
450.662	870.94
450.883	881.94
451.104	921.94
451.324	926.94
451.545	894.94
451.766	903.94
451.986	863.94
452.207	871.94
452.428	878.94
452.648	877.94
452.869	848.94
453.089	806.94
453.31	871.94
453.53	848.94
453.751	857.94
453.971	827.94
454.192	854.94
454.412	835.94
454.633	826.94
454.853	831.94
455.073	821.94
455.294	832.94
455.514	809.94
455.734	827.94
455.955	801.94
456.175	786.94
456.395	801.94
456.616	796.94
456.836	800.94
457.056	804.94
457.276	781.94
457.497	792.94
457.717	811.94
457.937	795.94
458.157	820.94
458.377	845.94
458.598	823.94
458.818	878.94
459.038	891.94
459.258	931.94
459.478	956.94
459.698	1020.94
459.918	993.94
460.138	1045.94
460.358	1104.94
460.578	1107.94
460.798	1136.94
461.018	1152.94
461.238	1113.94
461.458	1112.94
461.678	1115.94
461.898	1112.94
462.118	1135.94
462.338	1189.94
462.558	1226.94
462.777	1264.94
462.997	1406.94
463.217	1536.94
463.437	1549.94
463.657	1415.94
463.876	1379.94
464.096	1328.94
464.316	1325.94
464.536	1331.94
464.755	1308.94
464.975	1237.94
465.195	1179.94
465.414	1117.94
465.634	1021.94
465.854	989.94
466.073	986.94
466.293	928.94
466.512	921.94
466.732	909.94
466.951	911.94
467.171	918.94
467.391	931.94
467.61	912.94
467.829	931.94
468.049	892.94
468.268	888.94
468.488	853.94
468.707	855.94
468.927	892.94
469.146	865.94
469.365	892.94
469.585	887.94
469.804	871.94
470.023	918.94
470.243	940.94
470.462	940.94
470.681	949.94
470.901	929.94
471.12	908.94
471.339	906.94
471.558	905.94
471.777	914.94
471.997	881.94
472.216	873.94
472.435	855.94
472.654	841.94
472.873	833.94
473.092	837.94
473.311	857.94
473.53	847.94
473.749	849.94
473.968	834.94
474.187	840.94
474.406	844.94
474.625	879.94
474.844	859.94
475.063	862.94
475.282	850.94
475.501	873.94
475.72	878.94
475.939	843.94
476.158	867.94
476.377	895.94
476.596	899.94
476.814	876.94
477.033	903.94
477.252	903.94
477.471	933.94
477.69	936.94
477.908	975.94
478.127	993.94
478.346	1000.94
478.564	1016.94
478.783	1039.94
479.002	1068.94
479.22	1055.94
479.439	1054.94
479.658	1039.94
479.876	1065.94
480.095	1068.94
480.313	1111.94
480.532	1151.94
480.751	1143.94
480.969	1101.94
481.188	1052.94
481.406	1036.94
481.624	1008.94
481.843	1015.94
482.061	976.94
482.28	989.94
482.498	966.94
482.717	947.94
482.935	975.94
483.153	954.94
483.372	973.94
483.59	976.94
483.808	996.94
484.027	983.94
484.245	1012.94
484.463	953.94
484.681	1000.94
484.9	1009.94
485.118	1029.94
485.336	1022.94
485.554	1031.94
485.772	1041.94
485.99	1042.94
486.209	1048.94
486.427	1049.94
486.645	1048.94
486.863	1051.94
487.081	1042.94
487.299	1041.94
487.517	1065.94
487.735	1018.94
487.953	1022.94
488.171	1037.94
488.389	1039.94
488.607	1011.94
488.825	970.94
489.043	997.94
489.261	1014.94
489.479	1023.94
489.696	1037.94
489.914	1039.94
490.132	1029.94
490.35	1064.94
490.568	1043.94
490.786	1029.94
491.003	1032.94
491.221	1044.94
491.439	1033.94
491.657	1035.94
491.874	1036.94
492.092	1039.94
492.31	1053.94
492.527	1054.94
492.745	1061.94
492.963	1066.94
493.18	1066.94
493.398	1041.94
493.615	1031.94
493.833	1037.94
494.05	1046.94
494.268	1094.94
494.485	1105.94
494.703	1084.94
494.92	1113.94
495.138	1095.94
495.355	1104.94
495.573	1123.94
495.79	1096.94
496.008	1067.94
496.225	1109.94
496.442	1102.94
496.66	1086.94
496.877	1129.94
497.094	1135.94
497.312	1121.94
497.529	1183.94
497.746	1213.94
497.963	1264.94
498.181	1271.94
498.398	1326.94
498.615	1443.94
498.832	1538.94
499.049	1629.94
499.267	1755.94
499.484	1937.94
499.701	2127.94
499.918	2405.94
500.135	2704.94
500.352	3087.94
500.569	3232.94
500.786	3227.94
501.003	3027.94
501.22	2708.94
501.437	2388.94
501.654	2107.94
501.871	1872.94
502.088	1710.94
502.305	1620.94
502.522	1547.94
502.739	1471.94
502.956	1431.94
503.172	1351.94
503.389	1295.94
503.606	1233.94
503.823	1219.94
504.04	1203.94
504.256	1230.94
504.473	1253.94
504.69	1292.94
504.907	1301.94
505.123	1182.94
505.34	1105.94
505.557	1072.94
505.773	1059.94
505.99	1037.94
506.207	996.94
506.423	976.94
506.64	998.94
506.856	984.94
507.073	985.94
507.289	977.94
507.506	945.94
507.722	950.94
507.939	951.94
508.155	935.94
508.372	920.94
508.588	888.94
508.805	908.94
509.021	904.94
509.238	944.94
509.454	887.94
509.67	875.94
509.887	873.94
510.103	884.94
510.319	868.94
510.536	882.94
510.752	860.94
510.968	893.94
511.184	892.94
511.401	871.94
511.617	878.94
511.833	892.94
512.049	861.94
512.265	858.94
512.481	893.94
512.698	861.94
512.914	878.94
513.13	859.94
513.346	856.94
513.562	860.94
513.778	877.94
513.994	888.94
514.21	867.94
514.426	903.94
514.642	869.94
514.858	872.94
515.074	883.94
515.29	886.94
515.506	877.94
515.721	901.94
515.937	933.94
516.153	938.94
516.369	973.94
516.585	981.94
516.801	1019.94
517.016	1071.94
517.232	1115.94
517.448	1174.94
517.664	1198.94
517.879	1233.94
518.095	1205.94
518.311	1184.94
518.527	1153.94
518.742	1107.94
518.958	1053.94
519.173	1020.94
519.389	954.94
519.605	953.94
519.82	950.94
520.036	918.94
520.251	919.94
520.467	892.94
520.682	873.94
520.898	909.94
521.113	855.94
521.329	890.94
521.544	845.94
521.76	832.94
521.975	835.94
522.19	808.94
522.406	842.94
522.621	828.94
522.836	831.94
523.052	819.94
523.267	820.94
523.482	813.94
523.698	815.94
523.913	839.94
524.128	834.94
524.343	822.94
524.559	810.94
524.774	781.94
524.989	796.94
525.204	811.94
525.419	803.94
525.634	790.94
525.849	796.94
526.064	796.94
526.28	799.94
526.495	786.94
526.71	783.94
526.925	784.94
527.14	793.94
527.355	789.94
527.57	785.94
527.785	792.94
527.999	782.94
528.214	783.94
528.429	789.94
528.644	805.94
528.859	811.94
529.074	817.94
529.289	816.94
529.503	780.94
529.718	768.94
529.933	784.94
530.148	773.94
530.363	809.94
530.577	782.94
530.792	788.94
531.007	801.94
531.221	803.94
531.436	805.94
531.651	809.94
531.865	792.94
532.08	807.94
532.295	795.94
532.509	799.94
532.724	784.94
532.938	798.94
533.153	789.94
533.367	765.94
533.582	820.94
533.796	775.94
534.011	813.94
534.225	776.94
534.44	784.94
534.654	785.94
534.868	782.94
535.083	794.94
535.297	773.94
535.511	755.94
535.726	765.94
535.94	741.94
536.154	743.94
536.369	760.94
536.583	734.94
536.797	739.94
537.011	750.94
537.225	748.94
537.44	755.94
537.654	739.94
537.868	728.94
538.082	739.94
538.296	720.94
538.51	751.94
538.724	725.94
538.938	729.94
539.153	706.94
539.367	704.94
539.581	697.94
539.795	705.94
540.009	712.94
540.222	705.94
540.436	730.94
540.65	712.94
540.864	714.94
541.078	721.94
541.292	684.94
541.506	718.94
541.72	706.94
541.934	717.94
542.147	710.94
542.361	706.94
542.575	682.94
542.789	693.94
543.002	688.94
543.216	721.94
543.43	705.94
543.644	695.94
543.857	687.94
544.071	711.94
544.285	710.94
544.498	719.94
544.712	701.94
544.925	728.94
545.139	686.94
545.352	733.94
545.566	721.94
545.779	734.94
545.993	715.94
546.206	743.94
546.42	717.94
546.633	698.94
546.847	714.94
547.06	704.94
547.274	707.94
547.487	727.94
547.7	732.94
547.914	724.94
548.127	744.94
548.34	725.94
548.554	730.94
548.767	703.94
548.98	709.94
549.193	710.94
549.407	747.94
549.62	732.94
549.833	740.94
550.046	733.94
550.259	728.94
550.473	749.94
550.686	730.94
550.899	713.94
551.112	725.94
551.325	693.94
551.538	715.94
551.751	698.94
551.964	709.94
552.177	711.94
552.39	733.94
552.603	747.94
552.816	746.94
553.029	790.94
553.242	793.94
553.455	807.94
553.667	780.94
553.88	789.94
554.093	791.94
554.306	750.94
554.519	747.94
554.732	729.94
554.944	697.94
555.157	700.94
555.37	700.94
555.583	681.94
555.795	681.94
556.008	655.94
556.221	648.94
556.433	657.94
556.646	651.94
556.859	642.94
557.071	628.94
557.284	601.94
557.496	637.94
557.709	630.94
557.921	627.94
558.134	624.94
558.346	608.94
558.559	616.94
558.771	633.94
558.984	597.94
559.196	619.94
559.409	601.94
559.621	602.94
559.833	595.94
560.046	582.94
560.258	592.94
560.47	594.94
560.683	579.94
560.895	600.94
561.107	591.94
561.32	593.94
561.532	602.94
561.744	639.94
561.956	585.94
562.168	609.94
562.381	609.94
562.593	614.94
562.805	610.94
563.017	629.94
563.229	611.94
563.441	619.94
563.653	610.94
563.865	613.94
564.077	619.94
564.289	612.94
564.501	637.94
564.713	636.94
564.925	654.94
565.137	664.94
565.349	667.94
565.561	660.94
565.773	716.94
565.985	727.94
566.197	767.94
566.408	837.94
566.62	911.94
566.832	997.94
567.044	995.94
567.255	1003.94
567.467	996.94
567.679	1083.94
567.891	1157.94
568.102	1183.94
568.314	1154.94
568.526	1000.94
568.737	900.94
568.949	852.94
569.161	776.94
569.372	716.94
569.584	685.94
569.795	671.94
570.007	666.94
570.218	641.94
570.43	619.94
570.641	618.94
570.853	613.94
571.064	618.94
571.276	630.94
571.487	612.94
571.698	598.94
571.91	570.94
572.121	543.94
572.333	567.94
572.544	540.94
572.755	505.94
572.966	534.94
573.178	515.94
573.389	524.94
573.6	487.94
573.811	535.94
574.023	535.94
574.234	527.94
574.445	499.94
574.656	503.94
574.867	488.94
575.078	517.94
575.289	494.94
575.501	511.94
575.712	499.94
575.923	495.94
576.134	489.94
576.345	503.94
576.556	484.94
576.767	474.94
576.978	473.94
577.188	483.94
577.399	468.94
577.61	477.94
577.821	484.94
578.032	457.94
578.243	477.94
578.454	485.94
578.665	461.94
578.875	465.94
579.086	451.94
579.297	448.94
579.508	458.94
579.718	438.94
579.929	442.94
580.14	442.94
580.35	438.94
580.561	439.94
580.772	444.94
580.982	443.94
581.193	430.94
581.403	438.94
581.614	424.94
581.825	439.94
582.035	433.94
582.246	405.94
582.456	427.94
582.667	438.94
582.877	410.94
583.087	417.94
583.298	429.94
583.508	425.94
583.719	453.94
583.929	401.94
584.139	419.94
584.35	419.94
584.56	422.94
584.77	426.94
584.981	401.94
585.191	426.94
585.401	417.94
585.611	450.94
585.821	432.94
586.032	424.94
586.242	423.94
586.452	410.94
586.662	401.94
586.872	392.94
587.082	401.94
587.292	402.94
587.502	420.94
587.713	405.94
587.923	422.94
588.133	423.94
588.343	414.94
588.553	424.94
588.762	433.94
588.972	398.94
589.182	406.94
589.392	409.94
589.602	407.94
589.812	412.94
590.022	430.94
590.232	392.94
590.441	414.94
590.651	434.94
590.861	409.94
591.071	425.94
591.281	408.94
591.49	446.94
591.7	436.94
591.91	447.94
592.119	437.94
592.329	439.94
592.539	470.94
592.748	484.94
592.958	508.94
593.167	514.94
593.377	521.94
593.587	529.94
593.796	507.94
594.006	527.94
594.215	526.94
594.424	515.94
594.634	503.94
594.843	493.94
595.053	475.94
595.262	479.94
595.472	443.94
595.681	447.94
595.89	461.94
596.1	424.94
596.309	424.94
596.518	382.94
596.727	387.94
596.937	391.94
597.146	379.94
597.355	386.94
597.564	385.94
597.774	384.94
597.983	361.94
598.192	387.94
598.401	386.94
598.61	373.94
598.819	352.94
599.028	372.94
599.237	352.94
599.446	357.94
599.655	341.94
599.864	369.94
600.073	356.94
600.282	336.94
600.491	355.94
600.7	370.94
600.909	355.94
601.118	352.94
601.327	359.94
601.536	335.94
601.745	351.94
601.953	336.94
602.162	331.94
602.371	336.94
602.58	355.94
602.789	323.94
602.997	325.94
603.206	335.94
603.415	352.94
603.623	327.94
603.832	335.94
604.041	327.94
604.249	330.94
604.458	335.94
604.666	329.94
604.875	314.94
605.084	333.94
605.292	313.94
605.501	314.94
605.709	324.94
605.918	323.94
606.126	313.94
606.334	322.94
606.543	309.94
606.751	343.94
606.96	339.94
607.168	315.94
607.376	328.94
607.585	317.94
607.793	315.94
608.001	324.94
608.21	327.94
608.418	333.94
608.626	316.94
608.834	320.94
609.043	302.94
609.251	322.94
609.459	311.94
609.667	323.94
609.875	300.94
610.083	310.94
610.291	317.94
610.499	323.94
610.707	329.94
610.916	329.94
611.124	311.94
611.332	302.94
611.54	314.94
611.748	304.94
611.955	307.94
612.163	325.94
612.371	318.94
612.579	317.94
612.787	309.94
612.995	301.94
613.203	315.94
613.411	300.94
613.618	294.94
613.826	299.94
614.034	301.94
614.242	311.94
614.449	309.94
614.657	321.94
614.865	309.94
615.072	302.94
615.28	295.94
615.488	302.94
615.695	300.94
615.903	294.94
616.111	301.94
616.318	301.94
616.526	308.94
616.733	298.94
616.941	311.94
617.148	307.94
617.356	309.94
617.563	293.94
617.771	303.94
617.978	294.94
618.185	306.94
618.393	297.94
618.6	314.94
618.807	309.94
619.015	303.94
619.222	301.94
619.429	293.94
619.637	295.94
619.844	294.94
620.051	311.94
620.258	283.94
620.466	288.94
620.673	292.94
620.88	285.94
621.087	280.94
621.294	290.94
621.501	279.94
621.708	292.94
621.915	272.94
622.122	299.94
622.329	280.94
622.536	279.94
622.743	264.94
622.95	271.94
623.157	287.94
623.364	270.94
623.571	281.94
623.778	288.94
623.985	295.94
624.192	264.94
624.399	260.94
624.606	260.94
624.812	277.94
625.019	261.94
625.226	266.94
625.433	244.94
625.639	274.94
625.846	261.94
626.053	277.94
626.259	273.94
626.466	253.94
626.673	266.94
626.879	271.94
627.086	250.94
627.293	254.94
627.499	255.94
627.706	253.94
627.912	254.94
628.119	238.94
628.325	267.94
628.532	248.94
628.738	249.94
628.945	243.94
629.151	252.94
629.357	274.94
629.564	247.94
629.77	244.94
629.976	241.94
630.183	246.94
630.389	219.94
630.595	230.94
630.802	240.94
631.008	237.94
631.214	234.94
631.42	247.94
631.627	232.94
631.833	238.94
632.039	218.94
632.245	246.94
632.451	227.94
632.657	235.94
632.863	230.94
633.069	238.94
633.275	233.94
633.481	230.94
633.688	226.94
633.893	236.94
634.099	238.94
634.305	223.94
634.511	206.94
634.717	205.94
634.923	226.94
635.129	224.94
635.335	236.94
635.541	232.94
635.747	215.94
635.952	214.94
636.158	237.94
636.364	206.94
636.57	220.94
636.775	217.94
636.981	215.94
637.187	208.94
637.392	236.94
637.598	219.94
637.804	207.94
638.009	210.94
638.215	231.94
638.421	218.94
638.626	205.94
638.832	218.94
639.037	204.94
639.243	212.94
639.448	199.94
639.654	220.94
639.859	211.94
640.065	208.94
640.27	213.94
640.475	199.94
640.681	205.94
640.886	211.94
641.091	207.94
641.297	222.94
641.502	193.94
641.707	204.94
641.913	195.94
642.118	207.94
642.323	199.94
642.528	213.94
642.733	208.94
642.939	196.94
643.144	187.94
643.349	191.94
643.554	209.94
643.759	187.94
643.964	196.94
644.169	196.94
644.374	213.94
644.579	203.94
644.784	193.94
644.989	197.94
645.194	213.94
645.399	188.94
645.604	202.94
645.809	194.94
646.014	197.94
646.219	213.94
646.423	197.94
646.628	219.94
646.833	208.94
647.038	187.94
647.243	191.94
647.447	214.94
647.652	216.94
647.857	202.94
648.062	216.94
648.266	230.94
648.471	218.94
648.676	225.94
648.88	207.94
649.085	199.94
649.289	213.94
649.494	218.94
649.698	206.94
649.903	185.94
650.107	199.94
650.312	198.94
650.516	181.94
650.721	188.94
650.925	181.94
651.13	172.94
651.334	173.94
651.539	174.94
651.743	169.94
651.947	164.94
652.152	182.94
652.356	176.94
652.56	170.94
652.764	161.94
652.969	172.94
653.173	180.94
653.377	179.94
653.581	166.94
653.785	166.94
653.99	160.94
654.194	169.94
654.398	165.94
654.602	164.94
654.806	164.94
655.01	166.94
655.214	185.94
655.418	157.94
655.622	160.94
655.826	153.94
656.03	145.94
656.234	159.94
656.438	159.94
656.642	143.94
656.846	153.94
657.049	146.94
657.253	153.94
657.457	131.94
657.661	119.94
657.865	129.94
658.068	126.94
658.272	119.94
658.476	114.94
658.68	124.94
658.883	129.94
659.087	109.94
659.291	108.94
659.494	116.94
659.698	109.94
659.901	115.94
660.105	101.94
660.309	115.94
660.512	86.94
660.716	102.94
660.919	89.94
661.123	98.94
661.326	87.94
661.53	97.94
661.733	91.94
661.936	89.94
662.14	84.94
662.343	101.94
662.546	92.94
662.75	94.94
662.953	88.94
663.156	81.94
663.36	87.94
663.563	91.94
663.766	91.94
663.969	92.94
664.173	94.94
664.376	94.94
664.579	77.94
664.782	77.94
664.985	68.94
665.188	80.94
665.391	86.94
665.594	88.94
665.797	73.94
666	90.94
666.203	93.94
666.406	87.94
666.609	84.94
666.812	87.94
667.015	102.94
667.218	99.94
667.421	78.94
667.624	84.94
667.827	81.94
668.03	90.94
668.232	87.94
668.435	68.94
668.638	91.94
668.841	91.94
669.043	63.94
669.246	88.94
669.449	77.94
669.651	81.94
669.854	84.94
670.057	84.94
670.259	73.94
670.462	76.94
670.665	86.94
670.867	80.94
671.07	76.94
671.272	96.94
671.475	89.94
671.677	97.94
671.88	92.94
672.082	79.94
672.284	76.94
672.487	92.94
672.689	77.94
672.892	79.94
