Data from NiCl2@0.25M.TitratingCurve.Agarose3%dH2O.NegLispCup.LampEnergy10.LIBS07252019_HRD10591_18-26-08-575.txt Node
Date: Thu Jul 25 18:26:08 EDT 2019
User: cochatt
Spectrometer: HR+D1059
Trigger mode: 1
Integration Time (sec): 1.000000E-1
Scans to average: 1
Electric dark correction enabled: true
Nonlinearity correction enabled: false
Boxcar width: 0
XAxis mode: Wavelengths
Number of Pixels in Spectrum: 2048
>>>>>Begin Spectral Data<<<<<
223.165	-15.44
223.4	-15.44
223.635	-15.44
223.869	-1.44
224.104	-25.44
224.338	-22.44
224.573	-13.44
224.808	-3.44
225.042	4.56
225.277	-6.44
225.511	6.56
225.746	-0.44
225.98	10.56
226.215	14.56
226.449	-9.44
226.683	21.56
226.918	13.56
227.152	26.56
227.387	26.56
227.621	32.56
227.856	46.56
228.09	60.56
228.324	58.56
228.559	54.56
228.793	62.56
229.027	121.56
229.262	123.56
229.496	145.56
229.73	141.56
229.964	147.56
230.199	154.56
230.433	170.56
230.667	161.56
230.901	160.56
231.136	163.56
231.37	158.56
231.604	167.56
231.838	166.56
232.072	182.56
232.306	191.56
232.541	181.56
232.775	180.56
233.009	213.56
233.243	201.56
233.477	185.56
233.711	188.56
233.945	198.56
234.179	183.56
234.413	195.56
234.647	184.56
234.881	179.56
235.115	191.56
235.349	181.56
235.583	207.56
235.817	193.56
236.051	198.56
236.285	192.56
236.519	193.56
236.753	207.56
236.987	189.56
237.221	176.56
237.455	211.56
237.689	203.56
237.922	201.56
238.156	207.56
238.39	200.56
238.624	219.56
238.858	224.56
239.091	234.56
239.325	220.56
239.559	238.56
239.793	235.56
240.027	234.56
240.26	224.56
240.494	229.56
240.728	230.56
240.961	251.56
241.195	246.56
241.429	235.56
241.662	250.56
241.896	261.56
242.13	247.56
242.363	275.56
242.597	258.56
242.83	258.56
243.064	262.56
243.298	280.56
243.531	260.56
243.765	278.56
243.998	283.56
244.232	302.56
244.465	304.56
244.699	297.56
244.932	298.56
245.166	300.56
245.399	311.56
245.633	298.56
245.866	298.56
246.099	299.56
246.333	287.56
246.566	310.56
246.8	298.56
247.033	303.56
247.266	315.56
247.5	310.56
247.733	308.56
247.966	328.56
248.2	318.56
248.433	337.56
248.666	330.56
248.899	340.56
249.133	329.56
249.366	337.56
249.599	341.56
249.832	354.56
250.066	347.56
250.299	356.56
250.532	356.56
250.765	362.56
250.998	362.56
251.231	355.56
251.465	356.56
251.698	381.56
251.931	372.56
252.164	385.56
252.397	379.56
252.63	358.56
252.863	379.56
253.096	370.56
253.329	380.56
253.562	399.56
253.795	382.56
254.028	386.56
254.261	386.56
254.494	392.56
254.727	374.56
254.96	404.56
255.193	395.56
255.426	406.56
255.659	383.56
255.892	399.56
256.124	403.56
256.357	411.56
256.59	406.56
256.823	416.56
257.056	407.56
257.289	403.56
257.521	438.56
257.754	438.56
257.987	435.56
258.22	439.56
258.452	407.56
258.685	415.56
258.918	443.56
259.151	445.56
259.383	428.56
259.616	420.56
259.849	420.56
260.081	463.56
260.314	463.56
260.547	442.56
260.779	432.56
261.012	465.56
261.244	465.56
261.477	459.56
261.71	475.56
261.942	462.56
262.175	439.56
262.407	463.56
262.64	460.56
262.872	478.56
263.105	462.56
263.337	489.56
263.57	487.56
263.802	480.56
264.035	472.56
264.267	491.56
264.499	465.56
264.732	491.56
264.964	520.56
265.197	498.56
265.429	500.56
265.661	506.56
265.894	497.56
266.126	516.56
266.358	480.56
266.591	506.56
266.823	510.56
267.055	506.56
267.287	529.56
267.52	522.56
267.752	499.56
267.984	499.56
268.216	531.56
268.448	530.56
268.681	538.56
268.913	516.56
269.145	543.56
269.377	525.56
269.609	516.56
269.841	537.56
270.073	532.56
270.306	546.56
270.538	534.56
270.77	544.56
271.002	540.56
271.234	544.56
271.466	555.56
271.698	549.56
271.93	564.56
272.162	554.56
272.394	583.56
272.626	564.56
272.858	562.56
273.09	572.56
273.322	577.56
273.553	566.56
273.785	575.56
274.017	576.56
274.249	585.56
274.481	596.56
274.713	598.56
274.945	618.56
275.176	599.56
275.408	633.56
275.64	617.56
275.872	593.56
276.104	596.56
276.335	611.56
276.567	598.56
276.799	586.56
277.031	610.56
277.262	616.56
277.494	618.56
277.726	636.56
277.957	622.56
278.189	606.56
278.421	623.56
278.652	622.56
278.884	632.56
279.115	625.56
279.347	638.56
279.579	637.56
279.81	642.56
280.042	675.56
280.273	650.56
280.505	654.56
280.736	665.56
280.968	649.56
281.199	665.56
281.431	654.56
281.662	678.56
281.894	688.56
282.125	678.56
282.356	672.56
282.588	699.56
282.819	681.56
283.051	682.56
283.282	681.56
283.513	698.56
283.745	670.56
283.976	674.56
284.207	710.56
284.439	714.56
284.67	689.56
284.901	718.56
285.132	707.56
285.364	713.56
285.595	708.56
285.826	717.56
286.057	715.56
286.288	730.56
286.52	747.56
286.751	724.56
286.982	715.56
287.213	695.56
287.444	736.56
287.675	753.56
287.906	743.56
288.138	721.56
288.369	723.56
288.6	732.56
288.831	775.56
289.062	743.56
289.293	740.56
289.524	738.56
289.755	735.56
289.986	739.56
290.217	764.56
290.448	737.56
290.679	750.56
290.91	736.56
291.141	745.56
291.371	766.56
291.602	771.56
291.833	737.56
292.064	740.56
292.295	775.56
292.526	741.56
292.757	775.56
292.987	732.56
293.218	737.56
293.449	786.56
293.68	778.56
293.91	775.56
294.141	787.56
294.372	753.56
294.603	764.56
294.833	780.56
295.064	773.56
295.295	789.56
295.525	811.56
295.756	789.56
295.987	790.56
296.217	821.56
296.448	782.56
296.679	797.56
296.909	824.56
297.14	800.56
297.37	820.56
297.601	809.56
297.831	808.56
298.062	835.56
298.292	835.56
298.523	860.56
298.753	859.56
298.984	834.56
299.214	846.56
299.445	835.56
299.675	810.56
299.905	852.56
300.136	844.56
300.366	842.56
300.597	844.56
300.827	876.56
301.057	868.56
301.288	889.56
301.518	853.56
301.748	858.56
301.979	924.56
302.209	914.56
302.439	876.56
302.669	869.56
302.9	881.56
303.13	848.56
303.36	884.56
303.59	866.56
303.82	857.56
304.051	867.56
304.281	860.56
304.511	878.56
304.741	870.56
304.971	857.56
305.201	880.56
305.431	875.56
305.661	862.56
305.891	866.56
306.121	840.56
306.352	844.56
306.582	835.56
306.812	870.56
307.042	871.56
307.272	846.56
307.502	828.56
307.731	859.56
307.961	857.56
308.191	843.56
308.421	829.56
308.651	851.56
308.881	852.56
309.111	855.56
309.341	854.56
309.571	860.56
309.8	857.56
310.03	857.56
310.26	860.56
310.49	850.56
310.72	852.56
310.949	860.56
311.179	882.56
311.409	844.56
311.639	878.56
311.868	859.56
312.098	860.56
312.328	904.56
312.557	878.56
312.787	890.56
313.017	908.56
313.246	901.56
313.476	888.56
313.706	914.56
313.935	898.56
314.165	936.56
314.394	906.56
314.624	923.56
314.853	943.56
315.083	916.56
315.312	929.56
315.542	932.56
315.771	906.56
316.001	873.56
316.23	893.56
316.46	889.56
316.689	879.56
316.919	901.56
317.148	920.56
317.377	926.56
317.607	907.56
317.836	905.56
318.065	859.56
318.295	872.56
318.524	904.56
318.753	869.56
318.983	904.56
319.212	889.56
319.441	890.56
319.67	903.56
319.9	890.56
320.129	908.56
320.358	911.56
320.587	888.56
320.816	913.56
321.046	902.56
321.275	922.56
321.504	903.56
321.733	905.56
321.962	909.56
322.191	898.56
322.42	916.56
322.649	900.56
322.878	913.56
323.108	902.56
323.337	926.56
323.566	919.56
323.795	904.56
324.024	933.56
324.253	934.56
324.482	924.56
324.71	950.56
324.939	966.56
325.168	938.56
325.397	931.56
325.626	965.56
325.855	958.56
326.084	985.56
326.313	976.56
326.542	994.56
326.77	1000.56
326.999	972.56
327.228	969.56
327.457	971.56
327.686	970.56
327.914	972.56
328.143	982.56
328.372	990.56
328.6	972.56
328.829	968.56
329.058	996.56
329.287	995.56
329.515	993.56
329.744	980.56
329.972	991.56
330.201	1006.56
330.43	998.56
330.658	1051.56
330.887	1028.56
331.115	1037.56
331.344	1022.56
331.572	1053.56
331.801	1063.56
332.03	1076.56
332.258	1110.56
332.486	1120.56
332.715	1135.56
332.943	1192.56
333.172	1233.56
333.4	1251.56
333.629	1312.56
333.857	1280.56
334.085	1326.56
334.314	1350.56
334.542	1296.56
334.771	1327.56
334.999	1262.56
335.227	1271.56
335.455	1269.56
335.684	1249.56
335.912	1249.56
336.14	1243.56
336.369	1193.56
336.597	1223.56
336.825	1210.56
337.053	1203.56
337.281	1181.56
337.51	1153.56
337.738	1106.56
337.966	1124.56
338.194	1117.56
338.422	1090.56
338.65	1065.56
338.878	1088.56
339.106	1096.56
339.334	1093.56
339.562	1066.56
339.79	1047.56
340.018	1015.56
340.246	1014.56
340.474	1012.56
340.702	1017.56
340.93	1001.56
341.158	1008.56
341.386	1022.56
341.614	1046.56
341.842	1017.56
342.07	1029.56
342.298	985.56
342.526	1028.56
342.754	1040.56
342.981	1034.56
343.209	1040.56
343.437	1111.56
343.665	1137.56
343.893	1214.56
344.12	1250.56
344.348	1254.56
344.576	1171.56
344.804	1146.56
345.031	1111.56
345.259	1062.56
345.487	1049.56
345.714	1008.56
345.942	1031.56
346.17	1030.56
346.397	1006.56
346.625	986.56
346.853	997.56
347.08	972.56
347.308	1006.56
347.535	1000.56
347.763	1003.56
347.99	1038.56
348.218	991.56
348.445	1006.56
348.673	1003.56
348.9	983.56
349.128	989.56
349.355	971.56
349.583	994.56
349.81	975.56
350.037	971.56
350.265	953.56
350.492	983.56
350.72	952.56
350.947	959.56
351.174	959.56
351.402	931.56
351.629	981.56
351.856	974.56
352.083	958.56
352.311	941.56
352.538	948.56
352.765	986.56
352.992	927.56
353.22	920.56
353.447	942.56
353.674	942.56
353.901	932.56
354.128	930.56
354.355	961.56
354.583	946.56
354.81	934.56
355.037	946.56
355.264	964.56
355.491	927.56
355.718	954.56
355.945	973.56
356.172	980.56
356.399	982.56
356.626	973.56
356.853	981.56
357.08	946.56
357.307	926.56
357.534	933.56
357.761	965.56
357.988	955.56
358.215	979.56
358.441	984.56
358.668	959.56
358.895	917.56
359.122	945.56
359.349	919.56
359.576	944.56
359.802	964.56
360.029	970.56
360.256	947.56
360.483	935.56
360.709	960.56
360.936	968.56
361.163	959.56
361.39	954.56
361.616	964.56
361.843	953.56
362.07	955.56
362.296	948.56
362.523	976.56
362.749	960.56
362.976	964.56
363.203	957.56
363.429	926.56
363.656	948.56
363.882	947.56
364.109	962.56
364.335	947.56
364.562	954.56
364.788	931.56
365.015	970.56
365.241	968.56
365.468	954.56
365.694	954.56
365.92	947.56
366.147	917.56
366.373	952.56
366.599	931.56
366.826	934.56
367.052	945.56
367.278	968.56
367.505	955.56
367.731	939.56
367.957	982.56
368.184	950.56
368.41	977.56
368.636	956.56
368.862	978.56
369.089	978.56
369.315	980.56
369.541	968.56
369.767	958.56
369.993	960.56
370.219	1008.56
370.445	962.56
370.672	1004.56
370.898	1022.56
371.124	1040.56
371.35	1048.56
371.576	1046.56
371.802	1065.56
372.028	1034.56
372.254	1037.56
372.48	1044.56
372.706	1054.56
372.932	1096.56
373.158	1100.56
373.384	1089.56
373.61	1050.56
373.835	1053.56
374.061	1048.56
374.287	1051.56
374.513	1051.56
374.739	1109.56
374.965	1184.56
375.191	1153.56
375.416	1182.56
375.642	1119.56
375.868	1140.56
376.094	1117.56
376.319	1100.56
376.545	1049.56
376.771	1023.56
376.997	1051.56
377.222	1064.56
377.448	1073.56
377.674	1036.56
377.899	1039.56
378.125	1028.56
378.35	1015.56
378.576	1028.56
378.802	1051.56
379.027	1018.56
379.253	1017.56
379.478	1034.56
379.704	1046.56
379.929	1044.56
380.155	1043.56
380.38	1072.56
380.606	1037.56
380.831	1036.56
381.057	1046.56
381.282	1044.56
381.507	1035.56
381.733	1054.56
381.958	1035.56
382.184	1076.56
382.409	1071.56
382.634	1059.56
382.86	1108.56
383.085	1103.56
383.31	1119.56
383.535	1089.56
383.761	1137.56
383.986	1167.56
384.211	1192.56
384.436	1211.56
384.662	1209.56
384.887	1215.56
385.112	1225.56
385.337	1236.56
385.562	1258.56
385.787	1256.56
386.013	1278.56
386.238	1290.56
386.463	1300.56
386.688	1299.56
386.913	1259.56
387.138	1268.56
387.363	1290.56
387.588	1262.56
387.813	1283.56
388.038	1248.56
388.263	1258.56
388.488	1301.56
388.713	1260.56
388.938	1262.56
389.163	1273.56
389.387	1236.56
389.612	1227.56
389.837	1256.56
390.062	1225.56
390.287	1254.56
390.512	1267.56
390.736	1255.56
390.961	1308.56
391.186	1304.56
391.411	1322.56
391.636	1368.56
391.86	1418.56
392.085	1424.56
392.31	1463.56
392.534	1431.56
392.759	1374.56
392.984	1344.56
393.208	1355.56
393.433	1374.56
393.658	1328.56
393.882	1346.56
394.107	1352.56
394.331	1363.56
394.556	1376.56
394.78	1347.56
395.005	1346.56
395.229	1368.56
395.454	1404.56
395.678	1422.56
395.903	1426.56
396.127	1440.56
396.352	1395.56
396.576	1382.56
396.801	1361.56
397.025	1361.56
397.249	1424.56
397.474	1448.56
397.698	1445.56
397.922	1471.56
398.147	1458.56
398.371	1510.56
398.595	1543.56
398.82	1628.56
399.044	1737.56
399.268	1852.56
399.492	2080.56
399.717	2328.56
399.941	2308.56
400.165	2231.56
400.389	2046.56
400.613	1926.56
400.837	1784.56
401.062	1723.56
401.286	1701.56
401.51	1652.56
401.734	1659.56
401.958	1638.56
402.182	1630.56
402.406	1657.56
402.63	1694.56
402.854	1659.56
403.078	1710.56
403.302	1768.56
403.526	1749.56
403.75	1791.56
403.974	1790.56
404.198	1774.56
404.422	1798.56
404.645	1778.56
404.869	1800.56
405.093	1813.56
405.317	1792.56
405.541	1774.56
405.765	1778.56
405.988	1719.56
406.212	1808.56
406.436	1810.56
406.66	1826.56
406.883	1819.56
407.107	1947.56
407.331	1990.56
407.555	2104.56
407.778	2102.56
408.002	2063.56
408.226	2009.56
408.449	1980.56
408.673	1894.56
408.896	1838.56
409.12	1822.56
409.344	1864.56
409.567	1837.56
409.791	1892.56
410.014	1808.56
410.238	1774.56
410.461	1768.56
410.685	1776.56
410.908	1734.56
411.132	1723.56
411.355	1679.56
411.578	1676.56
411.802	1673.56
412.025	1714.56
412.249	1703.56
412.472	1698.56
412.695	1699.56
412.919	1650.56
413.142	1585.56
413.365	1592.56
413.589	1633.56
413.812	1591.56
414.035	1584.56
414.258	1618.56
414.482	1629.56
414.705	1658.56
414.928	1628.56
415.151	1655.56
415.374	1601.56
415.597	1620.56
415.821	1570.56
416.044	1586.56
416.267	1534.56
416.49	1551.56
416.713	1559.56
416.936	1585.56
417.159	1521.56
417.382	1541.56
417.605	1551.56
417.828	1546.56
418.051	1566.56
418.274	1617.56
418.497	1553.56
418.72	1642.56
418.943	1609.56
419.166	1742.56
419.389	1856.56
419.611	1817.56
419.834	1751.56
420.057	1684.56
420.28	1643.56
420.503	1565.56
420.726	1576.56
420.948	1576.56
421.171	1611.56
421.394	1587.56
421.617	1571.56
421.839	1567.56
422.062	1575.56
422.285	1528.56
422.507	1573.56
422.73	1604.56
422.953	1599.56
423.175	1628.56
423.398	1635.56
423.621	1613.56
423.843	1639.56
424.066	1632.56
424.288	1602.56
424.511	1607.56
424.733	1615.56
424.956	1632.56
425.178	1595.56
425.401	1598.56
425.623	1563.56
425.846	1539.56
426.068	1533.56
426.291	1563.56
426.513	1522.56
426.735	1456.56
426.958	1496.56
427.18	1445.56
427.402	1478.56
427.625	1464.56
427.847	1438.56
428.069	1446.56
428.292	1437.56
428.514	1401.56
428.736	1433.56
428.958	1400.56
429.181	1402.56
429.403	1368.56
429.625	1396.56
429.847	1384.56
430.069	1402.56
430.292	1374.56
430.514	1355.56
430.736	1368.56
430.958	1394.56
431.18	1370.56
431.402	1414.56
431.624	1378.56
431.846	1424.56
432.068	1440.56
432.29	1410.56
432.512	1394.56
432.734	1414.56
432.956	1388.56
433.178	1390.56
433.4	1376.56
433.622	1396.56
433.844	1442.56
434.066	1435.56
434.287	1461.56
434.509	1495.56
434.731	1547.56
434.953	1574.56
435.175	1563.56
435.397	1570.56
435.618	1498.56
435.84	1472.56
436.062	1451.56
436.284	1444.56
436.505	1421.56
436.727	1406.56
436.949	1411.56
437.17	1376.56
437.392	1386.56
437.614	1380.56
437.835	1330.56
438.057	1342.56
438.278	1302.56
438.5	1338.56
438.721	1360.56
438.943	1359.56
439.165	1328.56
439.386	1330.56
439.608	1357.56
439.829	1400.56
440.05	1371.56
440.272	1394.56
440.493	1391.56
440.715	1410.56
440.936	1419.56
441.158	1469.56
441.379	1494.56
441.6	1545.56
441.822	1556.56
442.043	1541.56
442.264	1562.56
442.486	1501.56
442.707	1537.56
442.928	1490.56
443.149	1499.56
443.371	1510.56
443.592	1525.56
443.813	1526.56
444.034	1548.56
444.255	1639.56
444.476	1697.56
444.698	1769.56
444.919	1794.56
445.14	1870.56
445.361	1733.56
445.582	1654.56
445.803	1553.56
446.024	1495.56
446.245	1478.56
446.466	1466.56
446.687	1418.56
446.908	1408.56
447.129	1350.56
447.35	1364.56
447.571	1353.56
447.792	1328.56
448.013	1335.56
448.234	1298.56
448.455	1287.56
448.675	1292.56
448.896	1282.56
449.117	1247.56
449.338	1267.56
449.559	1275.56
449.779	1264.56
450	1238.56
450.221	1249.56
450.442	1217.56
450.662	1253.56
450.883	1300.56
451.104	1294.56
451.324	1293.56
451.545	1267.56
451.766	1241.56
451.986	1264.56
452.207	1287.56
452.428	1239.56
452.648	1239.56
452.869	1187.56
453.089	1211.56
453.31	1226.56
453.53	1186.56
453.751	1222.56
453.971	1211.56
454.192	1224.56
454.412	1188.56
454.633	1174.56
454.853	1180.56
455.073	1203.56
455.294	1232.56
455.514	1167.56
455.734	1210.56
455.955	1144.56
456.175	1159.56
456.395	1190.56
456.616	1167.56
456.836	1206.56
457.056	1213.56
457.276	1151.56
457.497	1210.56
457.717	1223.56
457.937	1210.56
458.157	1249.56
458.377	1226.56
458.598	1271.56
458.818	1328.56
459.038	1303.56
459.258	1374.56
459.478	1400.56
459.698	1464.56
459.918	1501.56
460.138	1568.56
460.358	1622.56
460.578	1640.56
460.798	1668.56
461.018	1646.56
461.238	1679.56
461.458	1652.56
461.678	1670.56
461.898	1733.56
462.118	1717.56
462.338	1770.56
462.558	1835.56
462.777	1926.56
462.997	2027.56
463.217	2138.56
463.437	2155.56
463.657	2064.56
463.876	1990.56
464.096	2004.56
464.316	1958.56
464.536	1932.56
464.755	1837.56
464.975	1844.56
465.195	1694.56
465.414	1608.56
465.634	1509.56
465.854	1499.56
466.073	1400.56
466.293	1396.56
466.512	1396.56
466.732	1351.56
466.951	1369.56
467.171	1340.56
467.391	1326.56
467.61	1316.56
467.829	1321.56
468.049	1313.56
468.268	1292.56
468.488	1234.56
468.707	1254.56
468.927	1300.56
469.146	1299.56
469.365	1314.56
469.585	1288.56
469.804	1360.56
470.023	1348.56
470.243	1332.56
470.462	1387.56
470.681	1370.56
470.901	1391.56
471.12	1356.56
471.339	1345.56
471.558	1332.56
471.777	1352.56
471.997	1307.56
472.216	1294.56
472.435	1308.56
472.654	1271.56
472.873	1263.56
473.092	1259.56
473.311	1251.56
473.53	1272.56
473.749	1230.56
473.968	1213.56
474.187	1246.56
474.406	1251.56
474.625	1278.56
474.844	1268.56
475.063	1266.56
475.282	1273.56
475.501	1259.56
475.72	1278.56
475.939	1295.56
476.158	1287.56
476.377	1313.56
476.596	1303.56
476.814	1319.56
477.033	1348.56
477.252	1386.56
477.471	1402.56
477.69	1423.56
477.908	1421.56
478.127	1454.56
478.346	1480.56
478.564	1543.56
478.783	1546.56
479.002	1580.56
479.22	1577.56
479.439	1591.56
479.658	1618.56
479.876	1603.56
480.095	1625.56
480.313	1676.56
480.532	1662.56
480.751	1684.56
480.969	1648.56
481.188	1571.56
481.406	1542.56
481.624	1527.56
481.843	1501.56
482.061	1480.56
482.28	1454.56
482.498	1472.56
482.717	1427.56
482.935	1446.56
483.153	1476.56
483.372	1403.56
483.59	1445.56
483.808	1449.56
484.027	1440.56
484.245	1443.56
484.463	1443.56
484.681	1461.56
484.9	1468.56
485.118	1502.56
485.336	1497.56
485.554	1485.56
485.772	1525.56
485.99	1476.56
486.209	1546.56
486.427	1559.56
486.645	1550.56
486.863	1561.56
487.081	1527.56
487.299	1518.56
487.517	1542.56
487.735	1491.56
487.953	1516.56
488.171	1512.56
488.389	1490.56
488.607	1481.56
488.825	1518.56
489.043	1490.56
489.261	1487.56
489.479	1520.56
489.696	1515.56
489.914	1501.56
490.132	1525.56
490.35	1533.56
490.568	1491.56
490.786	1506.56
491.003	1533.56
491.221	1523.56
491.439	1531.56
491.657	1569.56
491.874	1530.56
492.092	1523.56
492.31	1577.56
492.527	1535.56
492.745	1576.56
492.963	1591.56
493.18	1536.56
493.398	1577.56
493.615	1586.56
493.833	1575.56
494.05	1592.56
494.268	1594.56
494.485	1633.56
494.703	1637.56
494.92	1645.56
495.138	1618.56
495.355	1653.56
495.573	1640.56
495.79	1644.56
496.008	1656.56
496.225	1706.56
496.442	1726.56
496.66	1702.56
496.877	1713.56
497.094	1763.56
497.312	1807.56
497.529	1835.56
497.746	1885.56
497.963	1978.56
498.181	2065.56
498.398	2166.56
498.615	2267.56
498.832	2453.56
499.049	2667.56
499.267	2811.56
499.484	3079.56
499.701	3372.56
499.918	3697.56
500.135	4124.56
500.352	4480.56
500.569	4675.56
500.786	4666.56
501.003	4515.56
501.22	4154.56
501.437	3723.56
501.654	3362.56
501.871	3072.56
502.088	2852.56
502.305	2612.56
502.522	2504.56
502.739	2374.56
502.956	2238.56
503.172	2110.56
503.389	2073.56
503.606	2015.56
503.823	1928.56
504.04	1956.56
504.256	1967.56
504.473	1962.56
504.69	1950.56
504.907	1924.56
505.123	1858.56
505.34	1787.56
505.557	1658.56
505.773	1651.56
505.99	1597.56
506.207	1518.56
506.423	1544.56
506.64	1500.56
506.856	1472.56
507.073	1440.56
507.289	1446.56
507.506	1442.56
507.722	1441.56
507.939	1407.56
508.155	1386.56
508.372	1400.56
508.588	1381.56
508.805	1373.56
509.021	1381.56
509.238	1361.56
509.454	1335.56
509.67	1326.56
509.887	1335.56
510.103	1288.56
510.319	1321.56
510.536	1298.56
510.752	1333.56
510.968	1322.56
511.184	1281.56
511.401	1290.56
511.617	1285.56
511.833	1266.56
512.049	1292.56
512.265	1322.56
512.481	1299.56
512.698	1272.56
512.914	1283.56
513.13	1274.56
513.346	1319.56
513.562	1301.56
513.778	1260.56
513.994	1319.56
514.21	1332.56
514.426	1338.56
514.642	1344.56
514.858	1345.56
515.074	1362.56
515.29	1387.56
515.506	1384.56
515.721	1397.56
515.937	1440.56
516.153	1462.56
516.369	1475.56
516.585	1552.56
516.801	1552.56
517.016	1607.56
517.232	1710.56
517.448	1775.56
517.664	1831.56
517.879	1822.56
518.095	1834.56
518.311	1800.56
518.527	1758.56
518.742	1680.56
518.958	1631.56
519.173	1561.56
519.389	1524.56
519.605	1481.56
519.82	1410.56
520.036	1432.56
520.251	1367.56
520.467	1354.56
520.682	1324.56
520.898	1318.56
521.113	1284.56
521.329	1290.56
521.544	1271.56
521.76	1264.56
521.975	1243.56
522.19	1254.56
522.406	1258.56
522.621	1235.56
522.836	1238.56
523.052	1200.56
523.267	1211.56
523.482	1206.56
523.698	1183.56
523.913	1217.56
524.128	1191.56
524.343	1203.56
524.559	1184.56
524.774	1175.56
524.989	1187.56
525.204	1189.56
525.419	1190.56
525.634	1170.56
525.849	1180.56
526.064	1191.56
526.28	1174.56
526.495	1171.56
526.71	1142.56
526.925	1175.56
527.14	1175.56
527.355	1167.56
527.57	1175.56
527.785	1175.56
527.999	1163.56
528.214	1168.56
528.429	1164.56
528.644	1166.56
528.859	1169.56
529.074	1177.56
529.289	1165.56
529.503	1140.56
529.718	1196.56
529.933	1138.56
530.148	1155.56
530.363	1134.56
530.577	1163.56
530.792	1156.56
531.007	1191.56
531.221	1183.56
531.436	1158.56
531.651	1139.56
531.865	1192.56
532.08	1150.56
532.295	1168.56
532.509	1181.56
532.724	1134.56
532.938	1150.56
533.153	1155.56
533.367	1122.56
533.582	1150.56
533.796	1131.56
534.011	1115.56
534.225	1142.56
534.44	1154.56
534.654	1144.56
534.868	1104.56
535.083	1108.56
535.297	1137.56
535.511	1126.56
535.726	1080.56
535.94	1102.56
536.154	1109.56
536.369	1106.56
536.583	1098.56
536.797	1086.56
537.011	1111.56
537.225	1089.56
537.44	1065.56
537.654	1079.56
537.868	1057.56
538.082	1046.56
538.296	1068.56
538.51	1048.56
538.724	1061.56
538.938	1067.56
539.153	1032.56
539.367	1039.56
539.581	1047.56
539.795	1041.56
540.009	1024.56
540.222	1030.56
540.436	1027.56
540.65	1043.56
540.864	995.56
541.078	1038.56
541.292	1065.56
541.506	1029.56
541.72	1032.56
541.934	1049.56
542.147	1043.56
542.361	1039.56
542.575	1037.56
542.789	1031.56
543.002	1008.56
543.216	1042.56
543.43	1026.56
543.644	1026.56
543.857	1012.56
544.071	1015.56
544.285	1020.56
544.498	1018.56
544.712	1023.56
544.925	1018.56
545.139	1056.56
545.352	1066.56
545.566	1072.56
545.779	1062.56
545.993	1062.56
546.206	1060.56
546.42	1035.56
546.633	1055.56
546.847	1055.56
547.06	1066.56
547.274	1058.56
547.487	1040.56
547.7	1073.56
547.914	1048.56
548.127	1054.56
548.34	1071.56
548.554	1086.56
548.767	1072.56
548.98	1108.56
549.193	1073.56
549.407	1084.56
549.62	1094.56
549.833	1097.56
550.046	1107.56
550.259	1093.56
550.473	1072.56
550.686	1072.56
550.899	1041.56
551.112	1015.56
551.325	1026.56
551.538	1054.56
551.751	1055.56
551.964	1042.56
552.177	1095.56
552.39	1077.56
552.603	1105.56
552.816	1115.56
553.029	1131.56
553.242	1150.56
553.455	1168.56
553.667	1164.56
553.88	1172.56
554.093	1122.56
554.306	1130.56
554.519	1076.56
554.732	1067.56
554.944	1062.56
555.157	1028.56
555.37	1010.56
555.583	1016.56
555.795	959.56
556.008	942.56
556.221	958.56
556.433	961.56
556.646	919.56
556.859	921.56
557.071	910.56
557.284	907.56
557.496	920.56
557.709	913.56
557.921	917.56
558.134	897.56
558.346	870.56
558.559	895.56
558.771	912.56
558.984	918.56
559.196	895.56
559.409	876.56
559.621	887.56
559.833	886.56
560.046	870.56
560.258	861.56
560.47	853.56
560.683	879.56
560.895	852.56
561.107	868.56
561.32	863.56
561.532	865.56
561.744	850.56
561.956	880.56
562.168	871.56
562.381	883.56
562.593	896.56
562.805	891.56
563.017	887.56
563.229	884.56
563.441	885.56
563.653	888.56
563.865	940.56
564.077	879.56
564.289	913.56
564.501	954.56
564.713	942.56
564.925	970.56
565.137	973.56
565.349	999.56
565.561	1075.56
565.773	1063.56
565.985	1142.56
566.197	1202.56
566.408	1258.56
566.62	1352.56
566.832	1395.56
567.044	1480.56
567.255	1456.56
567.467	1477.56
567.679	1555.56
567.891	1625.56
568.102	1614.56
568.314	1546.56
568.526	1458.56
568.737	1344.56
568.949	1241.56
569.161	1103.56
569.372	1070.56
569.584	1018.56
569.795	992.56
570.007	942.56
570.218	919.56
570.43	917.56
570.641	930.56
570.853	904.56
571.064	921.56
571.276	894.56
571.487	884.56
571.698	855.56
571.91	837.56
572.121	806.56
572.333	776.56
572.544	765.56
572.755	762.56
572.966	742.56
573.178	753.56
573.389	725.56
573.6	722.56
573.811	746.56
574.023	716.56
574.234	726.56
574.445	726.56
574.656	715.56
574.867	726.56
575.078	696.56
575.289	703.56
575.501	707.56
575.712	700.56
575.923	686.56
576.134	689.56
576.345	661.56
576.556	661.56
576.767	679.56
576.978	650.56
577.188	661.56
577.399	670.56
577.61	652.56
577.821	631.56
578.032	641.56
578.243	648.56
578.454	638.56
578.665	658.56
578.875	626.56
579.086	620.56
579.297	657.56
579.508	626.56
579.718	636.56
579.929	620.56
580.14	605.56
580.35	615.56
580.561	595.56
580.772	628.56
580.982	619.56
581.193	610.56
581.403	654.56
581.614	614.56
581.825	592.56
582.035	605.56
582.246	586.56
582.456	584.56
582.667	588.56
582.877	580.56
583.087	599.56
583.298	570.56
583.508	587.56
583.719	583.56
583.929	607.56
584.139	586.56
584.35	562.56
584.56	603.56
584.77	617.56
584.981	596.56
585.191	580.56
585.401	578.56
585.611	560.56
585.821	554.56
586.032	560.56
586.242	569.56
586.452	566.56
586.662	556.56
586.872	564.56
587.082	549.56
587.292	571.56
587.502	564.56
587.713	575.56
587.923	564.56
588.133	577.56
588.343	561.56
588.553	561.56
588.762	585.56
588.972	545.56
589.182	548.56
589.392	549.56
589.602	570.56
589.812	576.56
590.022	568.56
590.232	564.56
590.441	573.56
590.651	602.56
590.861	576.56
591.071	600.56
591.281	606.56
591.49	596.56
591.7	614.56
591.91	624.56
592.119	624.56
592.329	627.56
592.539	652.56
592.748	663.56
592.958	691.56
593.167	689.56
593.377	683.56
593.587	738.56
593.796	707.56
594.006	731.56
594.215	745.56
594.424	712.56
594.634	726.56
594.843	672.56
595.053	640.56
595.262	645.56
595.472	610.56
595.681	612.56
595.89	598.56
596.1	577.56
596.309	559.56
596.518	556.56
596.727	555.56
596.937	533.56
597.146	529.56
597.355	536.56
597.564	534.56
597.774	516.56
597.983	493.56
598.192	485.56
598.401	515.56
598.61	470.56
598.819	487.56
599.028	475.56
599.237	488.56
599.446	479.56
599.655	478.56
599.864	455.56
600.073	455.56
600.282	467.56
600.491	467.56
600.7	487.56
600.909	472.56
601.118	454.56
601.327	465.56
601.536	443.56
601.745	446.56
601.953	470.56
602.162	462.56
602.371	462.56
602.58	460.56
602.789	457.56
602.997	450.56
603.206	462.56
603.415	456.56
603.623	456.56
603.832	441.56
604.041	443.56
604.249	442.56
604.458	432.56
604.666	428.56
604.875	436.56
605.084	407.56
605.292	426.56
605.501	426.56
605.709	433.56
605.918	421.56
606.126	429.56
606.334	432.56
606.543	426.56
606.751	419.56
606.96	415.56
607.168	437.56
607.376	423.56
607.585	421.56
607.793	430.56
608.001	418.56
608.21	397.56
608.418	398.56
608.626	421.56
608.834	393.56
609.043	424.56
609.251	405.56
609.459	406.56
609.667	417.56
609.875	401.56
610.083	401.56
610.291	420.56
610.499	407.56
610.707	388.56
610.916	408.56
611.124	399.56
611.332	398.56
611.54	404.56
611.748	400.56
611.955	385.56
612.163	400.56
612.371	407.56
612.579	399.56
612.787	410.56
612.995	384.56
613.203	400.56
613.411	396.56
613.618	418.56
613.826	392.56
614.034	377.56
614.242	396.56
614.449	371.56
614.657	394.56
614.865	410.56
615.072	385.56
615.28	384.56
615.488	391.56
615.695	412.56
615.903	393.56
616.111	381.56
616.318	391.56
616.526	372.56
616.733	394.56
616.941	384.56
617.148	393.56
617.356	393.56
617.563	394.56
617.771	388.56
617.978	384.56
618.185	381.56
618.393	377.56
618.6	387.56
618.807	390.56
619.015	384.56
619.222	378.56
619.429	382.56
619.637	371.56
619.844	368.56
620.051	367.56
620.258	388.56
620.466	355.56
620.673	351.56
620.88	356.56
621.087	374.56
621.294	371.56
621.501	357.56
621.708	362.56
621.915	342.56
622.122	350.56
622.329	370.56
622.536	363.56
622.743	358.56
622.95	375.56
623.157	365.56
623.364	359.56
623.571	351.56
623.778	352.56
623.985	350.56
624.192	353.56
624.399	347.56
624.606	337.56
624.812	323.56
625.019	345.56
625.226	333.56
625.433	339.56
625.639	326.56
625.846	331.56
626.053	330.56
626.259	339.56
626.466	328.56
626.673	344.56
626.879	324.56
627.086	336.56
627.293	331.56
627.499	340.56
627.706	331.56
627.912	331.56
628.119	318.56
628.325	319.56
628.532	320.56
628.738	322.56
628.945	304.56
629.151	321.56
629.357	327.56
629.564	307.56
629.77	321.56
629.976	297.56
630.183	294.56
630.389	294.56
630.595	305.56
630.802	290.56
631.008	315.56
631.214	306.56
631.42	290.56
631.627	304.56
631.833	288.56
632.039	285.56
632.245	291.56
632.451	292.56
632.657	291.56
632.863	293.56
633.069	292.56
633.275	295.56
633.481	303.56
633.688	287.56
633.893	295.56
634.099	275.56
634.305	294.56
634.511	266.56
634.717	292.56
634.923	259.56
635.129	281.56
635.335	265.56
635.541	281.56
635.747	283.56
635.952	287.56
636.158	248.56
636.364	266.56
636.57	282.56
636.775	300.56
636.981	282.56
637.187	284.56
637.392	280.56
637.598	283.56
637.804	271.56
638.009	247.56
638.215	275.56
638.421	258.56
638.626	245.56
638.832	246.56
639.037	260.56
639.243	257.56
639.448	252.56
639.654	271.56
639.859	248.56
640.065	246.56
640.27	256.56
640.475	266.56
640.681	252.56
640.886	271.56
641.091	279.56
641.297	252.56
641.502	256.56
641.707	254.56
641.913	245.56
642.118	245.56
642.323	256.56
642.528	261.56
642.733	265.56
642.939	244.56
643.144	226.56
643.349	233.56
643.554	243.56
643.759	233.56
643.964	230.56
644.169	243.56
644.374	236.56
644.579	238.56
644.784	262.56
644.989	265.56
645.194	248.56
645.399	264.56
645.604	241.56
645.809	264.56
646.014	247.56
646.219	248.56
646.423	260.56
646.628	244.56
646.833	244.56
647.038	256.56
647.243	239.56
647.447	245.56
647.652	265.56
647.857	258.56
648.062	264.56
648.266	226.56
648.471	260.56
648.676	239.56
648.88	254.56
649.085	260.56
649.289	218.56
649.494	241.56
649.698	230.56
649.903	216.56
650.107	241.56
650.312	233.56
650.516	215.56
650.721	219.56
650.925	219.56
651.13	220.56
651.334	210.56
651.539	215.56
651.743	196.56
651.947	215.56
652.152	212.56
652.356	192.56
652.56	217.56
652.764	211.56
652.969	195.56
653.173	190.56
653.377	185.56
653.581	185.56
653.785	192.56
653.99	194.56
654.194	192.56
654.398	183.56
654.602	167.56
654.806	161.56
655.01	180.56
655.214	162.56
655.418	164.56
655.622	166.56
655.826	169.56
656.03	183.56
656.234	168.56
656.438	164.56
656.642	160.56
656.846	168.56
657.049	149.56
657.253	144.56
657.457	146.56
657.661	151.56
657.865	122.56
658.068	140.56
658.272	135.56
658.476	131.56
658.68	135.56
658.883	135.56
659.087	122.56
659.291	122.56
659.494	118.56
659.698	103.56
659.901	106.56
660.105	96.56
660.309	105.56
660.512	95.56
660.716	100.56
660.919	99.56
661.123	108.56
661.326	88.56
661.53	113.56
661.733	100.56
661.936	93.56
662.14	97.56
662.343	98.56
662.546	98.56
662.75	98.56
662.953	94.56
663.156	105.56
663.36	88.56
663.563	94.56
663.766	83.56
663.969	96.56
664.173	74.56
664.376	81.56
664.579	84.56
664.782	94.56
664.985	93.56
665.188	76.56
665.391	95.56
665.594	79.56
665.797	86.56
666	78.56
666.203	77.56
666.406	82.56
666.609	77.56
666.812	85.56
667.015	79.56
667.218	83.56
667.421	87.56
667.624	90.56
667.827	81.56
668.03	85.56
668.232	81.56
668.435	90.56
668.638	82.56
668.841	82.56
669.043	84.56
669.246	77.56
669.449	76.56
669.651	80.56
669.854	78.56
670.057	73.56
670.259	88.56
670.462	87.56
670.665	91.56
670.867	70.56
671.07	89.56
671.272	80.56
671.475	95.56
671.677	88.56
671.88	90.56
672.082	79.56
672.284	88.56
672.487	90.56
672.689	83.56
672.892	88.56
