Data from NiCl2@0.25M.TitratingCurve.Agarose3%dH2O.NegLispCup.LampEnergy10.LIBS07252019_HRD10591_18-24-56-573.txt Node
Date: Thu Jul 25 18:24:56 EDT 2019
User: cochatt
Spectrometer: HR+D1059
Trigger mode: 1
Integration Time (sec): 1.000000E-1
Scans to average: 1
Electric dark correction enabled: true
Nonlinearity correction enabled: false
Boxcar width: 0
XAxis mode: Wavelengths
Number of Pixels in Spectrum: 2048
>>>>>Begin Spectral Data<<<<<
223.165	-10.88
223.4	-10.88
223.635	-10.88
223.869	-18.88
224.104	-12.88
224.338	-1.88
224.573	-19.88
224.808	-25.88
225.042	-4.88
225.277	-20.88
225.511	10.12
225.746	1.12
225.98	21.12
226.215	25.12
226.449	4.12
226.683	24.12
226.918	12.12
227.152	18.12
227.387	31.12
227.621	37.12
227.856	52.12
228.09	53.12
228.324	57.12
228.559	43.12
228.793	79.12
229.027	98.12
229.262	118.12
229.496	109.12
229.73	120.12
229.964	121.12
230.199	134.12
230.433	137.12
230.667	142.12
230.901	147.12
231.136	142.12
231.37	142.12
231.604	140.12
231.838	156.12
232.072	149.12
232.306	161.12
232.541	143.12
232.775	152.12
233.009	166.12
233.243	145.12
233.477	162.12
233.711	144.12
233.945	166.12
234.179	155.12
234.413	177.12
234.647	153.12
234.881	161.12
235.115	149.12
235.349	151.12
235.583	154.12
235.817	168.12
236.051	148.12
236.285	155.12
236.519	157.12
236.753	165.12
236.987	172.12
237.221	182.12
237.455	172.12
237.689	177.12
237.922	178.12
238.156	162.12
238.39	182.12
238.624	189.12
238.858	177.12
239.091	169.12
239.325	183.12
239.559	171.12
239.793	180.12
240.027	181.12
240.26	174.12
240.494	201.12
240.728	197.12
240.961	203.12
241.195	193.12
241.429	214.12
241.662	187.12
241.896	202.12
242.13	224.12
242.363	216.12
242.597	194.12
242.83	225.12
243.064	223.12
243.298	209.12
243.531	225.12
243.765	216.12
243.998	227.12
244.232	235.12
244.465	228.12
244.699	223.12
244.932	227.12
245.166	223.12
245.399	221.12
245.633	233.12
245.866	233.12
246.099	253.12
246.333	258.12
246.566	243.12
246.8	220.12
247.033	237.12
247.266	250.12
247.5	255.12
247.733	264.12
247.966	245.12
248.2	249.12
248.433	259.12
248.666	249.12
248.899	248.12
249.133	258.12
249.366	265.12
249.599	266.12
249.832	257.12
250.066	259.12
250.299	282.12
250.532	265.12
250.765	267.12
250.998	280.12
251.231	281.12
251.465	279.12
251.698	273.12
251.931	281.12
252.164	282.12
252.397	300.12
252.63	308.12
252.863	311.12
253.096	309.12
253.329	300.12
253.562	285.12
253.795	281.12
254.028	313.12
254.261	287.12
254.494	301.12
254.727	307.12
254.96	303.12
255.193	288.12
255.426	279.12
255.659	301.12
255.892	323.12
256.124	301.12
256.357	321.12
256.59	320.12
256.823	311.12
257.056	323.12
257.289	327.12
257.521	318.12
257.754	338.12
257.987	327.12
258.22	312.12
258.452	335.12
258.685	321.12
258.918	332.12
259.151	332.12
259.383	334.12
259.616	328.12
259.849	323.12
260.081	360.12
260.314	344.12
260.547	348.12
260.779	355.12
261.012	361.12
261.244	351.12
261.477	367.12
261.71	366.12
261.942	363.12
262.175	355.12
262.407	360.12
262.64	364.12
262.872	367.12
263.105	350.12
263.337	360.12
263.57	367.12
263.802	363.12
264.035	354.12
264.267	370.12
264.499	363.12
264.732	376.12
264.964	385.12
265.197	388.12
265.429	379.12
265.661	373.12
265.894	376.12
266.126	377.12
266.358	397.12
266.591	382.12
266.823	395.12
267.055	385.12
267.287	383.12
267.52	412.12
267.752	381.12
267.984	392.12
268.216	387.12
268.448	401.12
268.681	403.12
268.913	408.12
269.145	405.12
269.377	396.12
269.609	409.12
269.841	406.12
270.073	404.12
270.306	406.12
270.538	413.12
270.77	409.12
271.002	423.12
271.234	433.12
271.466	422.12
271.698	432.12
271.93	429.12
272.162	425.12
272.394	437.12
272.626	437.12
272.858	430.12
273.09	418.12
273.322	428.12
273.553	409.12
273.785	444.12
274.017	437.12
274.249	434.12
274.481	446.12
274.713	440.12
274.945	458.12
275.176	459.12
275.408	463.12
275.64	456.12
275.872	445.12
276.104	436.12
276.335	444.12
276.567	447.12
276.799	449.12
277.031	468.12
277.262	466.12
277.494	457.12
277.726	468.12
277.957	486.12
278.189	485.12
278.421	473.12
278.652	481.12
278.884	473.12
279.115	484.12
279.347	478.12
279.579	470.12
279.81	482.12
280.042	482.12
280.273	474.12
280.505	485.12
280.736	500.12
280.968	497.12
281.199	490.12
281.431	489.12
281.662	508.12
281.894	515.12
282.125	508.12
282.356	518.12
282.588	494.12
282.819	514.12
283.051	519.12
283.282	531.12
283.513	528.12
283.745	531.12
283.976	523.12
284.207	526.12
284.439	529.12
284.67	522.12
284.901	541.12
285.132	525.12
285.364	525.12
285.595	545.12
285.826	519.12
286.057	539.12
286.288	552.12
286.52	530.12
286.751	535.12
286.982	583.12
287.213	573.12
287.444	558.12
287.675	535.12
287.906	545.12
288.138	575.12
288.369	568.12
288.6	536.12
288.831	559.12
289.062	556.12
289.293	549.12
289.524	541.12
289.755	544.12
289.986	582.12
290.217	577.12
290.448	580.12
290.679	553.12
290.91	564.12
291.141	562.12
291.371	582.12
291.602	571.12
291.833	576.12
292.064	589.12
292.295	565.12
292.526	575.12
292.757	550.12
292.987	575.12
293.218	566.12
293.449	566.12
293.68	562.12
293.91	604.12
294.141	595.12
294.372	575.12
294.603	569.12
294.833	583.12
295.064	592.12
295.295	567.12
295.525	581.12
295.756	590.12
295.987	596.12
296.217	581.12
296.448	584.12
296.679	605.12
296.909	580.12
297.14	592.12
297.37	615.12
297.601	627.12
297.831	632.12
298.062	613.12
298.292	625.12
298.523	631.12
298.753	633.12
298.984	642.12
299.214	621.12
299.445	641.12
299.675	626.12
299.905	630.12
300.136	631.12
300.366	620.12
300.597	631.12
300.827	645.12
301.057	651.12
301.288	660.12
301.518	658.12
301.748	665.12
301.979	681.12
302.209	654.12
302.439	661.12
302.669	641.12
302.9	661.12
303.13	617.12
303.36	647.12
303.59	663.12
303.82	674.12
304.051	663.12
304.281	639.12
304.511	650.12
304.741	643.12
304.971	637.12
305.201	661.12
305.431	630.12
305.661	656.12
305.891	637.12
306.121	636.12
306.352	615.12
306.582	631.12
306.812	637.12
307.042	647.12
307.272	636.12
307.502	625.12
307.731	628.12
307.961	610.12
308.191	631.12
308.421	618.12
308.651	629.12
308.881	621.12
309.111	622.12
309.341	639.12
309.571	629.12
309.8	643.12
310.03	634.12
310.26	643.12
310.49	627.12
310.72	663.12
310.949	629.12
311.179	653.12
311.409	650.12
311.639	652.12
311.868	645.12
312.098	663.12
312.328	672.12
312.557	668.12
312.787	659.12
313.017	663.12
313.246	693.12
313.476	684.12
313.706	689.12
313.935	698.12
314.165	693.12
314.394	693.12
314.624	686.12
314.853	701.12
315.083	684.12
315.312	692.12
315.542	691.12
315.771	689.12
316.001	690.12
316.23	668.12
316.46	662.12
316.689	682.12
316.919	697.12
317.148	662.12
317.377	669.12
317.607	660.12
317.836	670.12
318.065	665.12
318.295	687.12
318.524	661.12
318.753	678.12
318.983	675.12
319.212	647.12
319.441	668.12
319.67	686.12
319.9	655.12
320.129	692.12
320.358	675.12
320.587	665.12
320.816	683.12
321.046	712.12
321.275	680.12
321.504	680.12
321.733	662.12
321.962	673.12
322.191	685.12
322.42	686.12
322.649	664.12
322.878	664.12
323.108	658.12
323.337	689.12
323.566	692.12
323.795	695.12
324.024	675.12
324.253	700.12
324.482	703.12
324.71	696.12
324.939	680.12
325.168	710.12
325.397	706.12
325.626	722.12
325.855	724.12
326.084	766.12
326.313	737.12
326.542	755.12
326.77	747.12
326.999	714.12
327.228	747.12
327.457	730.12
327.686	729.12
327.914	738.12
328.143	727.12
328.372	741.12
328.6	745.12
328.829	782.12
329.058	742.12
329.287	767.12
329.515	732.12
329.744	735.12
329.972	736.12
330.201	736.12
330.43	767.12
330.658	764.12
330.887	765.12
331.115	785.12
331.344	769.12
331.572	813.12
331.801	773.12
332.03	815.12
332.258	833.12
332.486	869.12
332.715	859.12
332.943	914.12
333.172	957.12
333.4	975.12
333.629	1015.12
333.857	1017.12
334.085	999.12
334.314	997.12
334.542	948.12
334.771	945.12
334.999	909.12
335.227	935.12
335.455	938.12
335.684	946.12
335.912	904.12
336.14	883.12
336.369	904.12
336.597	912.12
336.825	899.12
337.053	906.12
337.281	903.12
337.51	871.12
337.738	863.12
337.966	853.12
338.194	823.12
338.422	807.12
338.65	808.12
338.878	808.12
339.106	807.12
339.334	805.12
339.562	817.12
339.79	769.12
340.018	770.12
340.246	757.12
340.474	742.12
340.702	753.12
340.93	777.12
341.158	779.12
341.386	776.12
341.614	749.12
341.842	798.12
342.07	757.12
342.298	769.12
342.526	750.12
342.754	753.12
342.981	755.12
343.209	802.12
343.437	834.12
343.665	852.12
343.893	910.12
344.12	975.12
344.348	914.12
344.576	894.12
344.804	817.12
345.031	833.12
345.259	788.12
345.487	753.12
345.714	757.12
345.942	758.12
346.17	765.12
346.397	757.12
346.625	760.12
346.853	756.12
347.08	762.12
347.308	750.12
347.535	744.12
347.763	767.12
347.99	751.12
348.218	739.12
348.445	758.12
348.673	737.12
348.9	742.12
349.128	729.12
349.355	751.12
349.583	735.12
349.81	727.12
350.037	729.12
350.265	725.12
350.492	740.12
350.72	720.12
350.947	731.12
351.174	704.12
351.402	729.12
351.629	723.12
351.856	717.12
352.083	681.12
352.311	706.12
352.538	718.12
352.765	703.12
352.992	702.12
353.22	704.12
353.447	703.12
353.674	686.12
353.901	727.12
354.128	699.12
354.355	713.12
354.583	703.12
354.81	734.12
355.037	711.12
355.264	715.12
355.491	719.12
355.718	725.12
355.945	715.12
356.172	719.12
356.399	718.12
356.626	703.12
356.853	739.12
357.08	717.12
357.307	726.12
357.534	712.12
357.761	705.12
357.988	706.12
358.215	726.12
358.441	717.12
358.668	701.12
358.895	726.12
359.122	708.12
359.349	706.12
359.576	738.12
359.802	711.12
360.029	709.12
360.256	728.12
360.483	723.12
360.709	725.12
360.936	733.12
361.163	723.12
361.39	697.12
361.616	715.12
361.843	734.12
362.07	699.12
362.296	725.12
362.523	723.12
362.749	696.12
362.976	724.12
363.203	705.12
363.429	689.12
363.656	718.12
363.882	707.12
364.109	719.12
364.335	699.12
364.562	727.12
364.788	723.12
365.015	737.12
365.241	724.12
365.468	709.12
365.694	698.12
365.92	727.12
366.147	703.12
366.373	714.12
366.599	738.12
366.826	705.12
367.052	714.12
367.278	727.12
367.505	717.12
367.731	713.12
367.957	732.12
368.184	735.12
368.41	734.12
368.636	717.12
368.862	727.12
369.089	725.12
369.315	734.12
369.541	767.12
369.767	747.12
369.993	761.12
370.219	757.12
370.445	745.12
370.672	753.12
370.898	742.12
371.124	746.12
371.35	780.12
371.576	785.12
371.802	775.12
372.028	769.12
372.254	760.12
372.48	781.12
372.706	804.12
372.932	823.12
373.158	791.12
373.384	801.12
373.61	778.12
373.835	803.12
374.061	789.12
374.287	801.12
374.513	814.12
374.739	842.12
374.965	872.12
375.191	894.12
375.416	865.12
375.642	841.12
375.868	833.12
376.094	806.12
376.319	779.12
376.545	783.12
376.771	783.12
376.997	789.12
377.222	794.12
377.448	797.12
377.674	813.12
377.899	774.12
378.125	791.12
378.35	769.12
378.576	763.12
378.802	750.12
379.027	771.12
379.253	796.12
379.478	768.12
379.704	770.12
379.929	764.12
380.155	783.12
380.38	777.12
380.606	733.12
380.831	777.12
381.057	789.12
381.282	757.12
381.507	779.12
381.733	789.12
381.958	804.12
382.184	812.12
382.409	799.12
382.634	838.12
382.86	826.12
383.085	811.12
383.31	815.12
383.535	859.12
383.761	845.12
383.986	890.12
384.211	909.12
384.436	895.12
384.662	916.12
384.887	935.12
385.112	929.12
385.337	950.12
385.562	945.12
385.787	961.12
386.013	993.12
386.238	940.12
386.463	925.12
386.688	975.12
386.913	937.12
387.138	924.12
387.363	948.12
387.588	933.12
387.813	942.12
388.038	927.12
388.263	933.12
388.488	945.12
388.713	946.12
388.938	946.12
389.163	920.12
389.387	905.12
389.612	911.12
389.837	899.12
390.062	903.12
390.287	922.12
390.512	918.12
390.736	947.12
390.961	964.12
391.186	925.12
391.411	986.12
391.636	1005.12
391.86	1075.12
392.085	1061.12
392.31	1075.12
392.534	1046.12
392.759	1016.12
392.984	1018.12
393.208	1017.12
393.433	991.12
393.658	987.12
393.882	993.12
394.107	994.12
394.331	998.12
394.556	974.12
394.78	1031.12
395.005	1002.12
395.229	987.12
395.454	1009.12
395.678	1047.12
395.903	1050.12
396.127	1037.12
396.352	988.12
396.576	978.12
396.801	990.12
397.025	973.12
397.249	1014.12
397.474	1045.12
397.698	1069.12
397.922	1037.12
398.147	1049.12
398.371	1109.12
398.595	1096.12
398.82	1177.12
399.044	1233.12
399.268	1386.12
399.492	1612.12
399.717	1764.12
399.941	1789.12
400.165	1584.12
400.389	1420.12
400.613	1302.12
400.837	1255.12
401.062	1196.12
401.286	1175.12
401.51	1170.12
401.734	1155.12
401.958	1181.12
402.182	1194.12
402.406	1241.12
402.63	1245.12
402.854	1268.12
403.078	1273.12
403.302	1305.12
403.526	1322.12
403.75	1333.12
403.974	1363.12
404.198	1397.12
404.422	1347.12
404.645	1383.12
404.869	1356.12
405.093	1365.12
405.317	1289.12
405.541	1333.12
405.765	1309.12
405.988	1271.12
406.212	1311.12
406.436	1317.12
406.66	1323.12
406.883	1357.12
407.107	1450.12
407.331	1528.12
407.555	1555.12
407.778	1505.12
408.002	1461.12
408.226	1453.12
408.449	1417.12
408.673	1386.12
408.896	1349.12
409.12	1338.12
409.344	1342.12
409.567	1319.12
409.791	1358.12
410.014	1363.12
410.238	1335.12
410.461	1316.12
410.685	1287.12
410.908	1298.12
411.132	1238.12
411.355	1206.12
411.578	1212.12
411.802	1236.12
412.025	1211.12
412.249	1255.12
412.472	1255.12
412.695	1220.12
412.919	1201.12
413.142	1192.12
413.365	1187.12
413.589	1199.12
413.812	1174.12
414.035	1149.12
414.258	1155.12
414.482	1174.12
414.705	1195.12
414.928	1187.12
415.151	1158.12
415.374	1181.12
415.597	1165.12
415.821	1132.12
416.044	1132.12
416.267	1164.12
416.49	1148.12
416.713	1139.12
416.936	1170.12
417.159	1112.12
417.382	1133.12
417.605	1143.12
417.828	1133.12
418.051	1164.12
418.274	1194.12
418.497	1181.12
418.72	1211.12
418.943	1196.12
419.166	1299.12
419.389	1346.12
419.611	1318.12
419.834	1281.12
420.057	1236.12
420.28	1195.12
420.503	1133.12
420.726	1163.12
420.948	1162.12
421.171	1167.12
421.394	1165.12
421.617	1151.12
421.839	1148.12
422.062	1183.12
422.285	1148.12
422.507	1155.12
422.73	1211.12
422.953	1193.12
423.175	1225.12
423.398	1233.12
423.621	1241.12
423.843	1231.12
424.066	1225.12
424.288	1224.12
424.511	1229.12
424.733	1213.12
424.956	1196.12
425.178	1162.12
425.401	1180.12
425.623	1183.12
425.846	1109.12
426.068	1130.12
426.291	1127.12
426.513	1099.12
426.735	1090.12
426.958	1099.12
427.18	1058.12
427.402	1053.12
427.625	1094.12
427.847	1038.12
428.069	1045.12
428.292	1041.12
428.514	1023.12
428.736	1020.12
428.958	1041.12
429.181	1014.12
429.403	1045.12
429.625	1019.12
429.847	993.12
430.069	973.12
430.292	995.12
430.514	989.12
430.736	1021.12
430.958	1022.12
431.18	990.12
431.402	1008.12
431.624	1023.12
431.846	1019.12
432.068	1038.12
432.29	1064.12
432.512	1033.12
432.734	1025.12
432.956	1054.12
433.178	1015.12
433.4	1037.12
433.622	1015.12
433.844	1053.12
434.066	1031.12
434.287	1033.12
434.509	1077.12
434.731	1143.12
434.953	1148.12
435.175	1167.12
435.397	1152.12
435.618	1095.12
435.84	1061.12
436.062	1051.12
436.284	1038.12
436.505	1069.12
436.727	1019.12
436.949	1033.12
437.17	1009.12
437.392	1006.12
437.614	1004.12
437.835	994.12
438.057	975.12
438.278	953.12
438.5	987.12
438.721	1007.12
438.943	997.12
439.165	979.12
439.386	991.12
439.608	1032.12
439.829	995.12
440.05	1017.12
440.272	1010.12
440.493	1028.12
440.715	1044.12
440.936	1077.12
441.158	1062.12
441.379	1119.12
441.6	1173.12
441.822	1151.12
442.043	1167.12
442.264	1140.12
442.486	1119.12
442.707	1111.12
442.928	1098.12
443.149	1111.12
443.371	1129.12
443.592	1184.12
443.813	1148.12
444.034	1185.12
444.255	1194.12
444.476	1260.12
444.698	1339.12
444.919	1389.12
445.14	1479.12
445.361	1336.12
445.582	1190.12
445.803	1114.12
446.024	1106.12
446.245	1071.12
446.466	1059.12
446.687	1032.12
446.908	1023.12
447.129	1009.12
447.35	989.12
447.571	989.12
447.792	962.12
448.013	949.12
448.234	930.12
448.455	953.12
448.675	931.12
448.896	931.12
449.117	911.12
449.338	935.12
449.559	908.12
449.779	891.12
450	926.12
450.221	954.12
450.442	939.12
450.662	955.12
450.883	977.12
451.104	961.12
451.324	953.12
451.545	959.12
451.766	963.12
451.986	934.12
452.207	928.12
452.428	929.12
452.648	940.12
452.869	915.12
453.089	889.12
453.31	918.12
453.53	891.12
453.751	920.12
453.971	902.12
454.192	881.12
454.412	893.12
454.633	888.12
454.853	896.12
455.073	902.12
455.294	876.12
455.514	877.12
455.734	889.12
455.955	879.12
456.175	859.12
456.395	846.12
456.616	870.12
456.836	867.12
457.056	875.12
457.276	847.12
457.497	872.12
457.717	887.12
457.937	897.12
458.157	885.12
458.377	881.12
458.598	943.12
458.818	930.12
459.038	982.12
459.258	1009.12
459.478	1054.12
459.698	1066.12
459.918	1096.12
460.138	1127.12
460.358	1175.12
460.578	1217.12
460.798	1213.12
461.018	1230.12
461.238	1218.12
461.458	1196.12
461.678	1217.12
461.898	1279.12
462.118	1205.12
462.338	1301.12
462.558	1306.12
462.777	1383.12
462.997	1502.12
463.217	1652.12
463.437	1662.12
463.657	1493.12
463.876	1422.12
464.096	1448.12
464.316	1435.12
464.536	1464.12
464.755	1373.12
464.975	1309.12
465.195	1265.12
465.414	1206.12
465.634	1112.12
465.854	1053.12
466.073	1059.12
466.293	1045.12
466.512	987.12
466.732	979.12
466.951	989.12
467.171	969.12
467.391	984.12
467.61	989.12
467.829	981.12
468.049	994.12
468.268	935.12
468.488	927.12
468.707	930.12
468.927	983.12
469.146	942.12
469.365	947.12
469.585	961.12
469.804	983.12
470.023	1038.12
470.243	1014.12
470.462	1034.12
470.681	1003.12
470.901	1041.12
471.12	1017.12
471.339	1009.12
471.558	974.12
471.777	965.12
471.997	951.12
472.216	951.12
472.435	915.12
472.654	919.12
472.873	909.12
473.092	920.12
473.311	922.12
473.53	918.12
473.749	920.12
473.968	899.12
474.187	906.12
474.406	910.12
474.625	894.12
474.844	924.12
475.063	940.12
475.282	923.12
475.501	914.12
475.72	951.12
475.939	922.12
476.158	949.12
476.377	955.12
476.596	939.12
476.814	988.12
477.033	977.12
477.252	1023.12
477.471	1014.12
477.69	1015.12
477.908	1054.12
478.127	1094.12
478.346	1111.12
478.564	1089.12
478.783	1147.12
479.002	1124.12
479.22	1194.12
479.439	1149.12
479.658	1146.12
479.876	1166.12
480.095	1176.12
480.313	1204.12
480.532	1265.12
480.751	1242.12
480.969	1213.12
481.188	1177.12
481.406	1101.12
481.624	1107.12
481.843	1043.12
482.061	1058.12
482.28	1062.12
482.498	1037.12
482.717	1047.12
482.935	1053.12
483.153	1030.12
483.372	1041.12
483.59	1061.12
483.808	1051.12
484.027	1045.12
484.245	1046.12
484.463	1054.12
484.681	1097.12
484.9	1049.12
485.118	1069.12
485.336	1080.12
485.554	1086.12
485.772	1088.12
485.99	1102.12
486.209	1109.12
486.427	1101.12
486.645	1119.12
486.863	1111.12
487.081	1081.12
487.299	1137.12
487.517	1108.12
487.735	1101.12
487.953	1073.12
488.171	1095.12
488.389	1077.12
488.607	1076.12
488.825	1078.12
489.043	1037.12
489.261	1061.12
489.479	1078.12
489.696	1092.12
489.914	1114.12
490.132	1098.12
490.35	1082.12
490.568	1109.12
490.786	1102.12
491.003	1090.12
491.221	1139.12
491.439	1110.12
491.657	1121.12
491.874	1100.12
492.092	1116.12
492.31	1131.12
492.527	1130.12
492.745	1131.12
492.963	1147.12
493.18	1149.12
493.398	1151.12
493.615	1137.12
493.833	1129.12
494.05	1155.12
494.268	1177.12
494.485	1168.12
494.703	1162.12
494.92	1172.12
495.138	1150.12
495.355	1159.12
495.573	1163.12
495.79	1176.12
496.008	1196.12
496.225	1193.12
496.442	1221.12
496.66	1231.12
496.877	1212.12
497.094	1234.12
497.312	1299.12
497.529	1278.12
497.746	1339.12
497.963	1397.12
498.181	1459.12
498.398	1491.12
498.615	1576.12
498.832	1708.12
499.049	1875.12
499.267	1993.12
499.484	2185.12
499.701	2410.12
499.918	2673.12
500.135	3093.12
500.352	3573.12
500.569	3689.12
500.786	3681.12
501.003	3404.12
501.22	3080.12
501.437	2711.12
501.654	2353.12
501.871	2139.12
502.088	1946.12
502.305	1811.12
502.522	1747.12
502.739	1673.12
502.956	1551.12
503.172	1469.12
503.389	1409.12
503.606	1390.12
503.823	1356.12
504.04	1364.12
504.256	1363.12
504.473	1397.12
504.69	1450.12
504.907	1401.12
505.123	1307.12
505.34	1269.12
505.557	1162.12
505.773	1157.12
505.99	1127.12
506.207	1084.12
506.423	1102.12
506.64	1061.12
506.856	1025.12
507.073	1055.12
507.289	1063.12
507.506	1032.12
507.722	1029.12
507.939	1025.12
508.155	1020.12
508.372	998.12
508.588	1014.12
508.805	992.12
509.021	961.12
509.238	1005.12
509.454	975.12
509.67	969.12
509.887	966.12
510.103	957.12
510.319	939.12
510.536	964.12
510.752	944.12
510.968	969.12
511.184	950.12
511.401	945.12
511.617	950.12
511.833	966.12
512.049	943.12
512.265	940.12
512.481	956.12
512.698	938.12
512.914	964.12
513.13	951.12
513.346	926.12
513.562	926.12
513.778	939.12
513.994	953.12
514.21	963.12
514.426	929.12
514.642	945.12
514.858	992.12
515.074	993.12
515.29	979.12
515.506	980.12
515.721	1026.12
515.937	1017.12
516.153	1050.12
516.369	1035.12
516.585	1098.12
516.801	1131.12
517.016	1174.12
517.232	1236.12
517.448	1299.12
517.664	1339.12
517.879	1349.12
518.095	1329.12
518.311	1303.12
518.527	1271.12
518.742	1176.12
518.958	1165.12
519.173	1105.12
519.389	1049.12
519.605	1049.12
519.82	1016.12
520.036	995.12
520.251	971.12
520.467	974.12
520.682	984.12
520.898	951.12
521.113	918.12
521.329	949.12
521.544	946.12
521.76	894.12
521.975	904.12
522.19	921.12
522.406	890.12
522.621	892.12
522.836	876.12
523.052	897.12
523.267	865.12
523.482	885.12
523.698	876.12
523.913	869.12
524.128	877.12
524.343	852.12
524.559	863.12
524.774	870.12
524.989	872.12
525.204	871.12
525.419	868.12
525.634	860.12
525.849	840.12
526.064	884.12
526.28	864.12
526.495	843.12
526.71	853.12
526.925	838.12
527.14	861.12
527.355	850.12
527.57	843.12
527.785	843.12
527.999	857.12
528.214	838.12
528.429	846.12
528.644	849.12
528.859	853.12
529.074	867.12
529.289	856.12
529.503	875.12
529.718	864.12
529.933	845.12
530.148	829.12
530.363	857.12
530.577	810.12
530.792	828.12
531.007	842.12
531.221	846.12
531.436	845.12
531.651	843.12
531.865	866.12
532.08	857.12
532.295	853.12
532.509	826.12
532.724	855.12
532.938	836.12
533.153	857.12
533.367	823.12
533.582	840.12
533.796	851.12
534.011	827.12
534.225	834.12
534.44	822.12
534.654	833.12
534.868	831.12
535.083	836.12
535.297	830.12
535.511	824.12
535.726	818.12
535.94	790.12
536.154	810.12
536.369	777.12
536.583	793.12
536.797	779.12
537.011	788.12
537.225	805.12
537.44	778.12
537.654	773.12
537.868	772.12
538.082	767.12
538.296	765.12
538.51	771.12
538.724	803.12
538.938	783.12
539.153	776.12
539.367	773.12
539.581	773.12
539.795	734.12
540.009	759.12
540.222	783.12
540.436	783.12
540.65	758.12
540.864	776.12
541.078	748.12
541.292	747.12
541.506	726.12
541.72	756.12
541.934	765.12
542.147	771.12
542.361	754.12
542.575	756.12
542.789	762.12
543.002	729.12
543.216	767.12
543.43	765.12
543.644	756.12
543.857	747.12
544.071	731.12
544.285	770.12
544.498	753.12
544.712	752.12
544.925	742.12
545.139	787.12
545.352	791.12
545.566	775.12
545.779	761.12
545.993	780.12
546.206	773.12
546.42	795.12
546.633	760.12
546.847	774.12
547.06	770.12
547.274	762.12
547.487	750.12
547.7	765.12
547.914	785.12
548.127	793.12
548.34	772.12
548.554	771.12
548.767	791.12
548.98	808.12
549.193	790.12
549.407	783.12
549.62	835.12
549.833	813.12
550.046	783.12
550.259	786.12
550.473	771.12
550.686	776.12
550.899	765.12
551.112	739.12
551.325	745.12
551.538	758.12
551.751	781.12
551.964	758.12
552.177	773.12
552.39	809.12
552.603	813.12
552.816	839.12
553.029	824.12
553.242	865.12
553.455	883.12
553.667	857.12
553.88	840.12
554.093	829.12
554.306	790.12
554.519	783.12
554.732	753.12
554.944	755.12
555.157	743.12
555.37	773.12
555.583	733.12
555.795	731.12
556.008	686.12
556.221	690.12
556.433	682.12
556.646	678.12
556.859	691.12
557.071	680.12
557.284	662.12
557.496	659.12
557.709	643.12
557.921	657.12
558.134	651.12
558.346	673.12
558.559	646.12
558.771	624.12
558.984	635.12
559.196	642.12
559.409	652.12
559.621	620.12
559.833	626.12
560.046	653.12
560.258	631.12
560.47	638.12
560.683	633.12
560.895	645.12
561.107	620.12
561.32	633.12
561.532	652.12
561.744	637.12
561.956	613.12
562.168	618.12
562.381	641.12
562.593	620.12
562.805	622.12
563.017	645.12
563.229	638.12
563.441	623.12
563.653	652.12
563.865	656.12
564.077	660.12
564.289	666.12
564.501	664.12
564.713	706.12
564.925	679.12
565.137	689.12
565.349	741.12
565.561	735.12
565.773	769.12
565.985	802.12
566.197	833.12
566.408	887.12
566.62	984.12
566.832	1038.12
567.044	1056.12
567.255	1075.12
567.467	1109.12
567.679	1149.12
567.891	1266.12
568.102	1279.12
568.314	1190.12
568.526	1070.12
568.737	984.12
568.949	893.12
569.161	810.12
569.372	794.12
569.584	758.12
569.795	717.12
570.007	698.12
570.218	670.12
570.43	650.12
570.641	637.12
570.853	668.12
571.064	682.12
571.276	678.12
571.487	638.12
571.698	644.12
571.91	605.12
572.121	604.12
572.333	602.12
572.544	582.12
572.755	553.12
572.966	550.12
573.178	529.12
573.389	543.12
573.6	549.12
573.811	538.12
574.023	520.12
574.234	547.12
574.445	533.12
574.656	533.12
574.867	531.12
575.078	531.12
575.289	522.12
575.501	517.12
575.712	505.12
575.923	501.12
576.134	503.12
576.345	500.12
576.556	482.12
576.767	495.12
576.978	484.12
577.188	468.12
577.399	499.12
577.61	489.12
577.821	486.12
578.032	493.12
578.243	483.12
578.454	470.12
578.665	476.12
578.875	477.12
579.086	467.12
579.297	444.12
579.508	474.12
579.718	461.12
579.929	467.12
580.14	460.12
580.35	476.12
580.561	451.12
580.772	447.12
580.982	442.12
581.193	452.12
581.403	449.12
581.614	443.12
581.825	434.12
582.035	440.12
582.246	445.12
582.456	431.12
582.667	446.12
582.877	453.12
583.087	462.12
583.298	437.12
583.508	446.12
583.719	414.12
583.929	455.12
584.139	431.12
584.35	437.12
584.56	440.12
584.77	418.12
584.981	441.12
585.191	449.12
585.401	419.12
585.611	426.12
585.821	428.12
586.032	411.12
586.242	418.12
586.452	437.12
586.662	424.12
586.872	435.12
587.082	405.12
587.292	399.12
587.502	420.12
587.713	411.12
587.923	430.12
588.133	423.12
588.343	433.12
588.553	415.12
588.762	421.12
588.972	443.12
589.182	447.12
589.392	425.12
589.602	430.12
589.812	415.12
590.022	445.12
590.232	447.12
590.441	425.12
590.651	413.12
590.861	435.12
591.071	426.12
591.281	441.12
591.49	439.12
591.7	434.12
591.91	469.12
592.119	458.12
592.329	453.12
592.539	499.12
592.748	477.12
592.958	507.12
593.167	516.12
593.377	527.12
593.587	533.12
593.796	556.12
594.006	567.12
594.215	554.12
594.424	536.12
594.634	556.12
594.843	498.12
595.053	500.12
595.262	495.12
595.472	484.12
595.681	437.12
595.89	445.12
596.1	401.12
596.309	406.12
596.518	401.12
596.727	393.12
596.937	398.12
597.146	388.12
597.355	390.12
597.564	376.12
597.774	385.12
597.983	389.12
598.192	386.12
598.401	382.12
598.61	364.12
598.819	361.12
599.028	364.12
599.237	343.12
599.446	374.12
599.655	366.12
599.864	343.12
600.073	340.12
600.282	341.12
600.491	362.12
600.7	358.12
600.909	359.12
601.118	346.12
601.327	353.12
601.536	348.12
601.745	337.12
601.953	351.12
602.162	346.12
602.371	353.12
602.58	324.12
602.789	331.12
602.997	346.12
603.206	358.12
603.415	338.12
603.623	339.12
603.832	335.12
604.041	350.12
604.249	343.12
604.458	322.12
604.666	328.12
604.875	318.12
605.084	334.12
605.292	314.12
605.501	333.12
605.709	336.12
605.918	315.12
606.126	317.12
606.334	322.12
606.543	325.12
606.751	342.12
606.96	305.12
607.168	302.12
607.376	313.12
607.585	341.12
607.793	311.12
608.001	331.12
608.21	314.12
608.418	309.12
608.626	324.12
608.834	323.12
609.043	325.12
609.251	337.12
609.459	310.12
609.667	318.12
609.875	321.12
610.083	316.12
610.291	321.12
610.499	312.12
610.707	324.12
610.916	323.12
611.124	304.12
611.332	298.12
611.54	301.12
611.748	307.12
611.955	301.12
612.163	301.12
612.371	316.12
612.579	315.12
612.787	306.12
612.995	299.12
613.203	309.12
613.411	299.12
613.618	301.12
613.826	319.12
614.034	300.12
614.242	291.12
614.449	299.12
614.657	296.12
614.865	293.12
615.072	293.12
615.28	310.12
615.488	297.12
615.695	283.12
615.903	294.12
616.111	294.12
616.318	293.12
616.526	292.12
616.733	306.12
616.941	292.12
617.148	302.12
617.356	277.12
617.563	298.12
617.771	286.12
617.978	295.12
618.185	301.12
618.393	291.12
618.6	315.12
618.807	302.12
619.015	293.12
619.222	286.12
619.429	291.12
619.637	293.12
619.844	284.12
620.051	279.12
620.258	289.12
620.466	281.12
620.673	277.12
620.88	299.12
621.087	282.12
621.294	276.12
621.501	284.12
621.708	283.12
621.915	293.12
622.122	264.12
622.329	280.12
622.536	268.12
622.743	287.12
622.95	277.12
623.157	270.12
623.364	275.12
623.571	257.12
623.778	271.12
623.985	282.12
624.192	281.12
624.399	285.12
624.606	259.12
624.812	277.12
625.019	269.12
625.226	263.12
625.433	256.12
625.639	261.12
625.846	249.12
626.053	262.12
626.259	262.12
626.466	258.12
626.673	254.12
626.879	249.12
627.086	234.12
627.293	246.12
627.499	249.12
627.706	245.12
627.912	255.12
628.119	264.12
628.325	254.12
628.532	263.12
628.738	244.12
628.945	235.12
629.151	246.12
629.357	247.12
629.564	238.12
629.77	250.12
629.976	245.12
630.183	243.12
630.389	249.12
630.595	231.12
630.802	243.12
631.008	237.12
631.214	246.12
631.42	249.12
631.627	233.12
631.833	241.12
632.039	233.12
632.245	225.12
632.451	238.12
632.657	241.12
632.863	218.12
633.069	212.12
633.275	228.12
633.481	221.12
633.688	224.12
633.893	230.12
634.099	238.12
634.305	224.12
634.511	219.12
634.717	222.12
634.923	243.12
635.129	206.12
635.335	218.12
635.541	229.12
635.747	215.12
635.952	218.12
636.158	216.12
636.364	218.12
636.57	211.12
636.775	224.12
636.981	212.12
637.187	208.12
637.392	216.12
637.598	226.12
637.804	217.12
638.009	224.12
638.215	216.12
638.421	206.12
638.626	203.12
638.832	225.12
639.037	193.12
639.243	213.12
639.448	201.12
639.654	193.12
639.859	199.12
640.065	203.12
640.27	203.12
640.475	198.12
640.681	216.12
640.886	213.12
641.091	206.12
641.297	209.12
641.502	202.12
641.707	194.12
641.913	195.12
642.118	205.12
642.323	188.12
642.528	199.12
642.733	205.12
642.939	205.12
643.144	190.12
643.349	212.12
643.554	202.12
643.759	197.12
643.964	189.12
644.169	218.12
644.374	201.12
644.579	210.12
644.784	199.12
644.989	196.12
645.194	185.12
645.399	206.12
645.604	187.12
645.809	184.12
646.014	195.12
646.219	204.12
646.423	197.12
646.628	205.12
646.833	213.12
647.038	189.12
647.243	192.12
647.447	211.12
647.652	201.12
647.857	200.12
648.062	208.12
648.266	200.12
648.471	200.12
648.676	204.12
648.88	201.12
649.085	196.12
649.289	194.12
649.494	185.12
649.698	186.12
649.903	204.12
650.107	186.12
650.312	196.12
650.516	186.12
650.721	187.12
650.925	177.12
651.13	174.12
651.334	181.12
651.539	167.12
651.743	163.12
651.947	182.12
652.152	155.12
652.356	167.12
652.56	152.12
652.764	169.12
652.969	165.12
653.173	166.12
653.377	165.12
653.581	162.12
653.785	148.12
653.99	143.12
654.194	154.12
654.398	147.12
654.602	147.12
654.806	148.12
655.01	150.12
655.214	146.12
655.418	141.12
655.622	136.12
655.826	131.12
656.03	149.12
656.234	139.12
656.438	136.12
656.642	132.12
656.846	149.12
657.049	141.12
657.253	122.12
657.457	119.12
657.661	123.12
657.865	134.12
658.068	118.12
658.272	109.12
658.476	103.12
658.68	102.12
658.883	113.12
659.087	113.12
659.291	93.12
659.494	112.12
659.698	97.12
659.901	110.12
660.105	97.12
660.309	112.12
660.512	88.12
660.716	96.12
660.919	112.12
661.123	101.12
661.326	96.12
661.53	87.12
661.733	93.12
661.936	84.12
662.14	94.12
662.343	98.12
662.546	92.12
662.75	97.12
662.953	85.12
663.156	93.12
663.36	100.12
663.563	89.12
663.766	86.12
663.969	82.12
664.173	91.12
664.376	79.12
664.579	67.12
664.782	70.12
664.985	77.12
665.188	85.12
665.391	76.12
665.594	85.12
665.797	82.12
666	91.12
666.203	83.12
666.406	75.12
666.609	90.12
666.812	86.12
667.015	87.12
667.218	82.12
667.421	66.12
667.624	86.12
667.827	65.12
668.03	85.12
668.232	89.12
668.435	87.12
668.638	76.12
668.841	94.12
669.043	91.12
669.246	84.12
669.449	83.12
669.651	86.12
669.854	89.12
670.057	86.12
670.259	87.12
670.462	85.12
670.665	86.12
670.867	78.12
671.07	88.12
671.272	83.12
671.475	76.12
671.677	85.12
671.88	86.12
672.082	86.12
672.284	93.12
672.487	81.12
672.689	69.12
672.892	84.12
