Data from NiCl2@0.5M.TitratingCurve.Agarose3%dH2O.NegLispCup.LampEnergy10.LIBS07252019_HRD10591_18-19-05-572.txt Node
Date: Thu Jul 25 18:19:05 EDT 2019
User: cochatt
Spectrometer: HR+D1059
Trigger mode: 1
Integration Time (sec): 1.000000E-1
Scans to average: 1
Electric dark correction enabled: true
Nonlinearity correction enabled: false
Boxcar width: 0
XAxis mode: Wavelengths
Number of Pixels in Spectrum: 2048
>>>>>Begin Spectral Data<<<<<
223.165	-13.31
223.4	-13.31
223.635	-13.31
223.869	-8.31
224.104	-13.31
224.338	-10.31
224.573	-15.31
224.808	-28.31
225.042	-12.31
225.277	-11.31
225.511	8.69
225.746	6.69
225.98	-2.31
226.215	5.69
226.449	18.69
226.683	21.69
226.918	27.69
227.152	25.69
227.387	30.69
227.621	30.69
227.856	48.69
228.09	38.69
228.324	42.69
228.559	59.69
228.793	45.69
229.027	94.69
229.262	110.69
229.496	105.69
229.73	110.69
229.964	117.69
230.199	141.69
230.433	128.69
230.667	132.69
230.901	126.69
231.136	128.69
231.37	129.69
231.604	130.69
231.838	151.69
232.072	143.69
232.306	153.69
232.541	141.69
232.775	155.69
233.009	138.69
233.243	150.69
233.477	148.69
233.711	146.69
233.945	157.69
234.179	150.69
234.413	144.69
234.647	155.69
234.881	157.69
235.115	148.69
235.349	140.69
235.583	142.69
235.817	147.69
236.051	134.69
236.285	133.69
236.519	164.69
236.753	149.69
236.987	154.69
237.221	167.69
237.455	143.69
237.689	155.69
237.922	147.69
238.156	157.69
238.39	164.69
238.624	160.69
238.858	158.69
239.091	179.69
239.325	166.69
239.559	171.69
239.793	171.69
240.027	153.69
240.26	157.69
240.494	187.69
240.728	177.69
240.961	170.69
241.195	191.69
241.429	180.69
241.662	185.69
241.896	180.69
242.13	188.69
242.363	181.69
242.597	178.69
242.83	192.69
243.064	173.69
243.298	189.69
243.531	188.69
243.765	210.69
243.998	189.69
244.232	196.69
244.465	190.69
244.699	198.69
244.932	189.69
245.166	207.69
245.399	198.69
245.633	202.69
245.866	190.69
246.099	194.69
246.333	206.69
246.566	208.69
246.8	197.69
247.033	214.69
247.266	206.69
247.5	221.69
247.733	206.69
247.966	212.69
248.2	222.69
248.433	214.69
248.666	222.69
248.899	215.69
249.133	205.69
249.366	236.69
249.599	229.69
249.832	236.69
250.066	238.69
250.299	203.69
250.532	240.69
250.765	220.69
250.998	256.69
251.231	234.69
251.465	240.69
251.698	234.69
251.931	235.69
252.164	250.69
252.397	258.69
252.63	248.69
252.863	248.69
253.096	268.69
253.329	241.69
253.562	253.69
253.795	254.69
254.028	268.69
254.261	251.69
254.494	238.69
254.727	250.69
254.96	256.69
255.193	265.69
255.426	258.69
255.659	277.69
255.892	271.69
256.124	280.69
256.357	264.69
256.59	258.69
256.823	261.69
257.056	262.69
257.289	288.69
257.521	294.69
257.754	270.69
257.987	294.69
258.22	281.69
258.452	292.69
258.685	284.69
258.918	283.69
259.151	288.69
259.383	288.69
259.616	285.69
259.849	294.69
260.081	298.69
260.314	293.69
260.547	266.69
260.779	279.69
261.012	285.69
261.244	284.69
261.477	303.69
261.71	302.69
261.942	306.69
262.175	311.69
262.407	316.69
262.64	303.69
262.872	304.69
263.105	313.69
263.337	322.69
263.57	325.69
263.802	326.69
264.035	305.69
264.267	311.69
264.499	326.69
264.732	338.69
264.964	316.69
265.197	342.69
265.429	323.69
265.661	334.69
265.894	316.69
266.126	330.69
266.358	337.69
266.591	336.69
266.823	327.69
267.055	333.69
267.287	340.69
267.52	340.69
267.752	335.69
267.984	332.69
268.216	342.69
268.448	342.69
268.681	331.69
268.913	344.69
269.145	355.69
269.377	362.69
269.609	351.69
269.841	342.69
270.073	344.69
270.306	355.69
270.538	372.69
270.77	339.69
271.002	347.69
271.234	346.69
271.466	356.69
271.698	352.69
271.93	369.69
272.162	349.69
272.394	370.69
272.626	352.69
272.858	373.69
273.09	367.69
273.322	360.69
273.553	368.69
273.785	384.69
274.017	373.69
274.249	385.69
274.481	390.69
274.713	386.69
274.945	371.69
275.176	364.69
275.408	378.69
275.64	390.69
275.872	385.69
276.104	385.69
276.335	387.69
276.567	380.69
276.799	372.69
277.031	378.69
277.262	403.69
277.494	405.69
277.726	404.69
277.957	389.69
278.189	413.69
278.421	409.69
278.652	396.69
278.884	430.69
279.115	420.69
279.347	418.69
279.579	417.69
279.81	413.69
280.042	426.69
280.273	406.69
280.505	424.69
280.736	432.69
280.968	434.69
281.199	426.69
281.431	433.69
281.662	444.69
281.894	432.69
282.125	428.69
282.356	423.69
282.588	447.69
282.819	445.69
283.051	430.69
283.282	441.69
283.513	438.69
283.745	412.69
283.976	436.69
284.207	434.69
284.439	449.69
284.67	441.69
284.901	451.69
285.132	449.69
285.364	463.69
285.595	473.69
285.826	442.69
286.057	458.69
286.288	472.69
286.52	471.69
286.751	476.69
286.982	460.69
287.213	465.69
287.444	449.69
287.675	460.69
287.906	470.69
288.138	479.69
288.369	477.69
288.6	484.69
288.831	485.69
289.062	495.69
289.293	486.69
289.524	482.69
289.755	478.69
289.986	495.69
290.217	472.69
290.448	486.69
290.679	475.69
290.91	493.69
291.141	483.69
291.371	494.69
291.602	490.69
291.833	498.69
292.064	470.69
292.295	502.69
292.526	480.69
292.757	502.69
292.987	476.69
293.218	518.69
293.449	462.69
293.68	492.69
293.91	514.69
294.141	488.69
294.372	479.69
294.603	475.69
294.833	510.69
295.064	503.69
295.295	504.69
295.525	509.69
295.756	500.69
295.987	479.69
296.217	536.69
296.448	522.69
296.679	515.69
296.909	503.69
297.14	511.69
297.37	534.69
297.601	525.69
297.831	525.69
298.062	533.69
298.292	552.69
298.523	562.69
298.753	541.69
298.984	565.69
299.214	540.69
299.445	567.69
299.675	525.69
299.905	546.69
300.136	548.69
300.366	562.69
300.597	574.69
300.827	577.69
301.057	546.69
301.288	557.69
301.518	564.69
301.748	558.69
301.979	556.69
302.209	576.69
302.439	567.69
302.669	591.69
302.9	569.69
303.13	546.69
303.36	556.69
303.59	562.69
303.82	576.69
304.051	579.69
304.281	552.69
304.511	562.69
304.741	568.69
304.971	594.69
305.201	570.69
305.431	588.69
305.661	551.69
305.891	591.69
306.121	561.69
306.352	578.69
306.582	571.69
306.812	544.69
307.042	554.69
307.272	551.69
307.502	529.69
307.731	564.69
307.961	560.69
308.191	561.69
308.421	572.69
308.651	544.69
308.881	557.69
309.111	578.69
309.341	566.69
309.571	576.69
309.8	572.69
310.03	561.69
310.26	574.69
310.49	580.69
310.72	578.69
310.949	582.69
311.179	576.69
311.409	591.69
311.639	586.69
311.868	585.69
312.098	574.69
312.328	585.69
312.557	598.69
312.787	612.69
313.017	597.69
313.246	598.69
313.476	610.69
313.706	613.69
313.935	600.69
314.165	576.69
314.394	588.69
314.624	592.69
314.853	597.69
315.083	616.69
315.312	610.69
315.542	626.69
315.771	618.69
316.001	602.69
316.23	606.69
316.46	596.69
316.689	640.69
316.919	614.69
317.148	610.69
317.377	608.69
317.607	609.69
317.836	619.69
318.065	613.69
318.295	627.69
318.524	598.69
318.753	612.69
318.983	575.69
319.212	590.69
319.441	624.69
319.67	621.69
319.9	585.69
320.129	602.69
320.358	581.69
320.587	625.69
320.816	616.69
321.046	616.69
321.275	616.69
321.504	596.69
321.733	610.69
321.962	618.69
322.191	615.69
322.42	619.69
322.649	625.69
322.878	624.69
323.108	612.69
323.337	632.69
323.566	642.69
323.795	646.69
324.024	637.69
324.253	616.69
324.482	626.69
324.71	618.69
324.939	617.69
325.168	637.69
325.397	633.69
325.626	653.69
325.855	635.69
326.084	654.69
326.313	676.69
326.542	658.69
326.77	666.69
326.999	629.69
327.228	631.69
327.457	653.69
327.686	680.69
327.914	662.69
328.143	674.69
328.372	669.69
328.6	668.69
328.829	650.69
329.058	648.69
329.287	683.69
329.515	676.69
329.744	696.69
329.972	671.69
330.201	652.69
330.43	659.69
330.658	683.69
330.887	681.69
331.115	681.69
331.344	682.69
331.572	713.69
331.801	713.69
332.03	725.69
332.258	732.69
332.486	737.69
332.715	736.69
332.943	780.69
333.172	789.69
333.4	802.69
333.629	810.69
333.857	826.69
334.085	826.69
334.314	788.69
334.542	811.69
334.771	810.69
334.999	827.69
335.227	796.69
335.455	793.69
335.684	804.69
335.912	803.69
336.14	818.69
336.369	806.69
336.597	779.69
336.825	805.69
337.053	789.69
337.281	771.69
337.51	772.69
337.738	771.69
337.966	741.69
338.194	755.69
338.422	743.69
338.65	712.69
338.878	741.69
339.106	724.69
339.334	722.69
339.562	736.69
339.79	714.69
340.018	691.69
340.246	704.69
340.474	713.69
340.702	705.69
340.93	705.69
341.158	722.69
341.386	713.69
341.614	730.69
341.842	717.69
342.07	701.69
342.298	696.69
342.526	717.69
342.754	720.69
342.981	692.69
343.209	698.69
343.437	730.69
343.665	782.69
343.893	820.69
344.12	812.69
344.348	794.69
344.576	771.69
344.804	754.69
345.031	732.69
345.259	707.69
345.487	730.69
345.714	702.69
345.942	725.69
346.17	741.69
346.397	713.69
346.625	706.69
346.853	667.69
347.08	666.69
347.308	678.69
347.535	679.69
347.763	692.69
347.99	671.69
348.218	646.69
348.445	645.69
348.673	655.69
348.9	690.69
349.128	692.69
349.355	694.69
349.583	689.69
349.81	660.69
350.037	650.69
350.265	642.69
350.492	661.69
350.72	653.69
350.947	656.69
351.174	660.69
351.402	634.69
351.629	653.69
351.856	681.69
352.083	679.69
352.311	658.69
352.538	678.69
352.765	690.69
352.992	646.69
353.22	649.69
353.447	632.69
353.674	644.69
353.901	636.69
354.128	626.69
354.355	624.69
354.583	633.69
354.81	643.69
355.037	648.69
355.264	640.69
355.491	638.69
355.718	646.69
355.945	633.69
356.172	653.69
356.399	646.69
356.626	670.69
356.853	676.69
357.08	630.69
357.307	635.69
357.534	667.69
357.761	633.69
357.988	655.69
358.215	639.69
358.441	636.69
358.668	645.69
358.895	620.69
359.122	626.69
359.349	656.69
359.576	621.69
359.802	638.69
360.029	650.69
360.256	604.69
360.483	640.69
360.709	613.69
360.936	655.69
361.163	638.69
361.39	658.69
361.616	642.69
361.843	654.69
362.07	652.69
362.296	695.69
362.523	678.69
362.749	649.69
362.976	622.69
363.203	631.69
363.429	636.69
363.656	620.69
363.882	605.69
364.109	609.69
364.335	650.69
364.562	640.69
364.788	619.69
365.015	648.69
365.241	620.69
365.468	630.69
365.694	624.69
365.92	621.69
366.147	620.69
366.373	650.69
366.599	641.69
366.826	639.69
367.052	644.69
367.278	664.69
367.505	638.69
367.731	651.69
367.957	638.69
368.184	630.69
368.41	624.69
368.636	659.69
368.862	621.69
369.089	628.69
369.315	640.69
369.541	645.69
369.767	660.69
369.993	657.69
370.219	640.69
370.445	673.69
370.672	684.69
370.898	659.69
371.124	674.69
371.35	656.69
371.576	692.69
371.802	671.69
372.028	656.69
372.254	680.69
372.48	681.69
372.706	698.69
372.932	666.69
373.158	701.69
373.384	701.69
373.61	674.69
373.835	690.69
374.061	677.69
374.287	652.69
374.513	699.69
374.739	709.69
374.965	728.69
375.191	729.69
375.416	736.69
375.642	702.69
375.868	696.69
376.094	696.69
376.319	674.69
376.545	685.69
376.771	664.69
376.997	651.69
377.222	672.69
377.448	665.69
377.674	660.69
377.899	653.69
378.125	658.69
378.35	659.69
378.576	669.69
378.802	668.69
379.027	699.69
379.253	630.69
379.478	654.69
379.704	649.69
379.929	655.69
380.155	674.69
380.38	668.69
380.606	685.69
380.831	673.69
381.057	681.69
381.282	668.69
381.507	658.69
381.733	664.69
381.958	671.69
382.184	684.69
382.409	684.69
382.634	681.69
382.86	666.69
383.085	679.69
383.31	696.69
383.535	724.69
383.761	717.69
383.986	724.69
384.211	721.69
384.436	745.69
384.662	746.69
384.887	746.69
385.112	762.69
385.337	760.69
385.562	765.69
385.787	787.69
386.013	811.69
386.238	801.69
386.463	802.69
386.688	785.69
386.913	759.69
387.138	797.69
387.363	758.69
387.588	744.69
387.813	757.69
388.038	752.69
388.263	770.69
388.488	765.69
388.713	759.69
388.938	776.69
389.163	736.69
389.387	784.69
389.612	756.69
389.837	736.69
390.062	766.69
390.287	756.69
390.512	779.69
390.736	785.69
390.961	786.69
391.186	828.69
391.411	832.69
391.636	826.69
391.86	848.69
392.085	846.69
392.31	843.69
392.534	840.69
392.759	825.69
392.984	829.69
393.208	797.69
393.433	811.69
393.658	805.69
393.882	836.69
394.107	842.69
394.331	845.69
394.556	821.69
394.78	819.69
395.005	832.69
395.229	846.69
395.454	868.69
395.678	853.69
395.903	862.69
396.127	840.69
396.352	798.69
396.576	852.69
396.801	834.69
397.025	837.69
397.249	868.69
397.474	870.69
397.698	870.69
397.922	917.69
398.147	887.69
398.371	864.69
398.595	942.69
398.82	967.69
399.044	1012.69
399.268	1076.69
399.492	1204.69
399.717	1280.69
399.941	1262.69
400.165	1189.69
400.389	1112.69
400.613	1055.69
400.837	1010.69
401.062	975.69
401.286	984.69
401.51	965.69
401.734	966.69
401.958	987.69
402.182	971.69
402.406	953.69
402.63	976.69
402.854	1017.69
403.078	1012.69
403.302	1022.69
403.526	1022.69
403.75	1028.69
403.974	1064.69
404.198	1048.69
404.422	1033.69
404.645	1072.69
404.869	1060.69
405.093	1033.69
405.317	1028.69
405.541	1023.69
405.765	1011.69
405.988	1029.69
406.212	1027.69
406.436	1036.69
406.66	1057.69
406.883	1075.69
407.107	1110.69
407.331	1154.69
407.555	1189.69
407.778	1181.69
408.002	1147.69
408.226	1130.69
408.449	1147.69
408.673	1112.69
408.896	1070.69
409.12	1044.69
409.344	1077.69
409.567	1077.69
409.791	1092.69
410.014	1067.69
410.238	1092.69
410.461	1061.69
410.685	1068.69
410.908	1030.69
411.132	1009.69
411.355	1019.69
411.578	1005.69
411.802	1028.69
412.025	1004.69
412.249	1017.69
412.472	1014.69
412.695	1005.69
412.919	1001.69
413.142	1010.69
413.365	972.69
413.589	986.69
413.812	952.69
414.035	968.69
414.258	978.69
414.482	986.69
414.705	1026.69
414.928	1005.69
415.151	1006.69
415.374	969.69
415.597	969.69
415.821	933.69
416.044	936.69
416.267	937.69
416.49	967.69
416.713	944.69
416.936	937.69
417.159	952.69
417.382	947.69
417.605	938.69
417.828	978.69
418.051	966.69
418.274	946.69
418.497	944.69
418.72	968.69
418.943	964.69
419.166	1042.69
419.389	1082.69
419.611	1069.69
419.834	1009.69
420.057	1012.69
420.28	1010.69
420.503	972.69
420.726	954.69
420.948	956.69
421.171	924.69
421.394	947.69
421.617	945.69
421.839	940.69
422.062	973.69
422.285	967.69
422.507	978.69
422.73	987.69
422.953	987.69
423.175	960.69
423.398	1035.69
423.621	989.69
423.843	1001.69
424.066	988.69
424.288	1010.69
424.511	963.69
424.733	959.69
424.956	964.69
425.178	971.69
425.401	964.69
425.623	973.69
425.846	946.69
426.068	926.69
426.291	911.69
426.513	916.69
426.735	942.69
426.958	940.69
427.18	899.69
427.402	905.69
427.625	922.69
427.847	899.69
428.069	888.69
428.292	906.69
428.514	908.69
428.736	892.69
428.958	906.69
429.181	890.69
429.403	892.69
429.625	876.69
429.847	866.69
430.069	893.69
430.292	890.69
430.514	885.69
430.736	858.69
430.958	908.69
431.18	876.69
431.402	859.69
431.624	896.69
431.846	898.69
432.068	859.69
432.29	922.69
432.512	899.69
432.734	916.69
432.956	890.69
433.178	930.69
433.4	912.69
433.622	912.69
433.844	918.69
434.066	916.69
434.287	902.69
434.509	960.69
434.731	951.69
434.953	984.69
435.175	1002.69
435.397	1018.69
435.618	931.69
435.84	951.69
436.062	920.69
436.284	907.69
436.505	897.69
436.727	913.69
436.949	889.69
437.17	918.69
437.392	880.69
437.614	871.69
437.835	867.69
438.057	845.69
438.278	887.69
438.5	875.69
438.721	861.69
438.943	880.69
439.165	885.69
439.386	888.69
439.608	904.69
439.829	889.69
440.05	892.69
440.272	925.69
440.493	910.69
440.715	899.69
440.936	937.69
441.158	965.69
441.379	940.69
441.6	1017.69
441.822	1011.69
442.043	986.69
442.264	976.69
442.486	962.69
442.707	964.69
442.928	1004.69
443.149	994.69
443.371	970.69
443.592	995.69
443.813	1022.69
444.034	1003.69
444.255	1043.69
444.476	1069.69
444.698	1113.69
444.919	1143.69
445.14	1202.69
445.361	1110.69
445.582	1036.69
445.803	1010.69
446.024	980.69
446.245	955.69
446.466	924.69
446.687	947.69
446.908	940.69
447.129	910.69
447.35	914.69
447.571	935.69
447.792	893.69
448.013	888.69
448.234	881.69
448.455	867.69
448.675	850.69
448.896	855.69
449.117	846.69
449.338	842.69
449.559	841.69
449.779	852.69
450	856.69
450.221	851.69
450.442	867.69
450.662	852.69
450.883	842.69
451.104	886.69
451.324	861.69
451.545	873.69
451.766	856.69
451.986	850.69
452.207	844.69
452.428	844.69
452.648	844.69
452.869	834.69
453.089	817.69
453.31	826.69
453.53	814.69
453.751	804.69
453.971	806.69
454.192	817.69
454.412	836.69
454.633	812.69
454.853	820.69
455.073	791.69
455.294	783.69
455.514	777.69
455.734	828.69
455.955	798.69
456.175	804.69
456.395	800.69
456.616	820.69
456.836	774.69
457.056	793.69
457.276	782.69
457.497	832.69
457.717	782.69
457.937	803.69
458.157	816.69
458.377	804.69
458.598	829.69
458.818	851.69
459.038	870.69
459.258	858.69
459.478	968.69
459.698	954.69
459.918	976.69
460.138	999.69
460.358	1044.69
460.578	1069.69
460.798	1056.69
461.018	1074.69
461.238	1074.69
461.458	1067.69
461.678	1039.69
461.898	1085.69
462.118	1072.69
462.338	1138.69
462.558	1150.69
462.777	1223.69
462.997	1251.69
463.217	1324.69
463.437	1333.69
463.657	1277.69
463.876	1204.69
464.096	1198.69
464.316	1228.69
464.536	1197.69
464.755	1178.69
464.975	1109.69
465.195	1068.69
465.414	1017.69
465.634	1009.69
465.854	989.69
466.073	946.69
466.293	922.69
466.512	926.69
466.732	919.69
466.951	920.69
467.171	900.69
467.391	901.69
467.61	892.69
467.829	889.69
468.049	895.69
468.268	852.69
468.488	859.69
468.707	866.69
468.927	859.69
469.146	882.69
469.365	888.69
469.585	891.69
469.804	927.69
470.023	910.69
470.243	906.69
470.462	914.69
470.681	934.69
470.901	907.69
471.12	896.69
471.339	906.69
471.558	911.69
471.777	886.69
471.997	894.69
472.216	896.69
472.435	850.69
472.654	856.69
472.873	862.69
473.092	860.69
473.311	862.69
473.53	836.69
473.749	861.69
473.968	867.69
474.187	850.69
474.406	844.69
474.625	866.69
474.844	861.69
475.063	868.69
475.282	874.69
475.501	861.69
475.72	890.69
475.939	888.69
476.158	910.69
476.377	923.69
476.596	901.69
476.814	912.69
477.033	924.69
477.252	940.69
477.471	965.69
477.69	999.69
477.908	1003.69
478.127	1016.69
478.346	1007.69
478.564	1027.69
478.783	1027.69
479.002	1079.69
479.22	1048.69
479.439	1083.69
479.658	1034.69
479.876	1036.69
480.095	1064.69
480.313	1080.69
480.532	1105.69
480.751	1094.69
480.969	1050.69
481.188	1040.69
481.406	1024.69
481.624	1009.69
481.843	1000.69
482.061	977.69
482.28	1006.69
482.498	993.69
482.717	999.69
482.935	987.69
483.153	999.69
483.372	1012.69
483.59	1004.69
483.808	1004.69
484.027	988.69
484.245	1026.69
484.463	1032.69
484.681	1013.69
484.9	1003.69
485.118	1016.69
485.336	1025.69
485.554	1044.69
485.772	1036.69
485.99	1034.69
486.209	1017.69
486.427	1026.69
486.645	1033.69
486.863	1053.69
487.081	1028.69
487.299	1039.69
487.517	1029.69
487.735	1042.69
487.953	1052.69
488.171	1078.69
488.389	1060.69
488.607	1046.69
488.825	1029.69
489.043	1007.69
489.261	1042.69
489.479	1042.69
489.696	1058.69
489.914	1051.69
490.132	1066.69
490.35	1067.69
490.568	1060.69
490.786	1072.69
491.003	1064.69
491.221	1055.69
491.439	1070.69
491.657	1075.69
491.874	1069.69
492.092	1074.69
492.31	1101.69
492.527	1097.69
492.745	1117.69
492.963	1093.69
493.18	1103.69
493.398	1101.69
493.615	1099.69
493.833	1117.69
494.05	1137.69
494.268	1110.69
494.485	1096.69
494.703	1105.69
494.92	1107.69
495.138	1114.69
495.355	1132.69
495.573	1127.69
495.79	1141.69
496.008	1186.69
496.225	1139.69
496.442	1144.69
496.66	1184.69
496.877	1160.69
497.094	1197.69
497.312	1224.69
497.529	1213.69
497.746	1273.69
497.963	1272.69
498.181	1331.69
498.398	1380.69
498.615	1482.69
498.832	1562.69
499.049	1616.69
499.267	1721.69
499.484	1850.69
499.701	1971.69
499.918	2112.69
500.135	2381.69
500.352	2598.69
500.569	2638.69
500.786	2661.69
501.003	2501.69
501.22	2328.69
501.437	2096.69
501.654	1945.69
501.871	1824.69
502.088	1725.69
502.305	1610.69
502.522	1548.69
502.739	1489.69
502.956	1402.69
503.172	1344.69
503.389	1315.69
503.606	1300.69
503.823	1277.69
504.04	1264.69
504.256	1235.69
504.473	1270.69
504.69	1270.69
504.907	1239.69
505.123	1174.69
505.34	1161.69
505.557	1100.69
505.773	1068.69
505.99	1115.69
506.207	1059.69
506.423	1032.69
506.64	1001.69
506.856	1009.69
507.073	1028.69
507.289	968.69
507.506	981.69
507.722	976.69
507.939	960.69
508.155	928.69
508.372	954.69
508.588	943.69
508.805	925.69
509.021	934.69
509.238	916.69
509.454	917.69
509.67	917.69
509.887	906.69
510.103	896.69
510.319	884.69
510.536	887.69
510.752	900.69
510.968	872.69
511.184	882.69
511.401	898.69
511.617	885.69
511.833	884.69
512.049	880.69
512.265	886.69
512.481	859.69
512.698	888.69
512.914	860.69
513.13	877.69
513.346	878.69
513.562	889.69
513.778	896.69
513.994	902.69
514.21	878.69
514.426	899.69
514.642	920.69
514.858	896.69
515.074	888.69
515.29	935.69
515.506	936.69
515.721	946.69
515.937	966.69
516.153	958.69
516.369	984.69
516.585	1010.69
516.801	1014.69
517.016	1043.69
517.232	1089.69
517.448	1103.69
517.664	1150.69
517.879	1137.69
518.095	1099.69
518.311	1110.69
518.527	1094.69
518.742	1031.69
518.958	990.69
519.173	990.69
519.389	978.69
519.605	963.69
519.82	927.69
520.036	926.69
520.251	898.69
520.467	893.69
520.682	878.69
520.898	849.69
521.113	884.69
521.329	858.69
521.544	869.69
521.76	875.69
521.975	834.69
522.19	863.69
522.406	851.69
522.621	824.69
522.836	822.69
523.052	820.69
523.267	822.69
523.482	825.69
523.698	806.69
523.913	790.69
524.128	819.69
524.343	808.69
524.559	804.69
524.774	837.69
524.989	802.69
525.204	780.69
525.419	806.69
525.634	801.69
525.849	779.69
526.064	801.69
526.28	805.69
526.495	799.69
526.71	810.69
526.925	810.69
527.14	769.69
527.355	772.69
527.57	801.69
527.785	776.69
527.999	768.69
528.214	810.69
528.429	811.69
528.644	782.69
528.859	773.69
529.074	804.69
529.289	800.69
529.503	792.69
529.718	798.69
529.933	806.69
530.148	778.69
530.363	808.69
530.577	780.69
530.792	795.69
531.007	772.69
531.221	755.69
531.436	793.69
531.651	766.69
531.865	805.69
532.08	777.69
532.295	801.69
532.509	778.69
532.724	758.69
532.938	744.69
533.153	776.69
533.367	776.69
533.582	788.69
533.796	791.69
534.011	768.69
534.225	758.69
534.44	749.69
534.654	757.69
534.868	765.69
535.083	758.69
535.297	753.69
535.511	742.69
535.726	758.69
535.94	767.69
536.154	763.69
536.369	759.69
536.583	736.69
536.797	734.69
537.011	722.69
537.225	723.69
537.44	724.69
537.654	716.69
537.868	717.69
538.082	690.69
538.296	715.69
538.51	684.69
538.724	732.69
538.938	713.69
539.153	712.69
539.367	731.69
539.581	704.69
539.795	683.69
540.009	711.69
540.222	713.69
540.436	725.69
540.65	704.69
540.864	698.69
541.078	680.69
541.292	739.69
541.506	721.69
541.72	728.69
541.934	733.69
542.147	722.69
542.361	722.69
542.575	744.69
542.789	723.69
543.002	714.69
543.216	722.69
543.43	706.69
543.644	711.69
543.857	702.69
544.071	733.69
544.285	705.69
544.498	696.69
544.712	715.69
544.925	720.69
545.139	705.69
545.352	709.69
545.566	740.69
545.779	717.69
545.993	738.69
546.206	742.69
546.42	731.69
546.633	725.69
546.847	707.69
547.06	727.69
547.274	744.69
547.487	733.69
547.7	754.69
547.914	778.69
548.127	719.69
548.34	724.69
548.554	732.69
548.767	701.69
548.98	737.69
549.193	730.69
549.407	735.69
549.62	729.69
549.833	713.69
550.046	729.69
550.259	707.69
550.473	721.69
550.686	717.69
550.899	726.69
551.112	709.69
551.325	713.69
551.538	691.69
551.751	704.69
551.964	704.69
552.177	722.69
552.39	746.69
552.603	730.69
552.816	752.69
553.029	756.69
553.242	741.69
553.455	753.69
553.667	720.69
553.88	755.69
554.093	717.69
554.306	715.69
554.519	708.69
554.732	723.69
554.944	711.69
555.157	670.69
555.37	696.69
555.583	702.69
555.795	658.69
556.008	637.69
556.221	668.69
556.433	653.69
556.646	642.69
556.859	642.69
557.071	653.69
557.284	640.69
557.496	616.69
557.709	642.69
557.921	633.69
558.134	627.69
558.346	626.69
558.559	624.69
558.771	603.69
558.984	627.69
559.196	610.69
559.409	598.69
559.621	613.69
559.833	606.69
560.046	603.69
560.258	588.69
560.47	597.69
560.683	608.69
560.895	601.69
561.107	611.69
561.32	604.69
561.532	599.69
561.744	605.69
561.956	594.69
562.168	605.69
562.381	609.69
562.593	596.69
562.805	601.69
563.017	617.69
563.229	598.69
563.441	599.69
563.653	615.69
563.865	621.69
564.077	612.69
564.289	623.69
564.501	621.69
564.713	636.69
564.925	654.69
565.137	648.69
565.349	675.69
565.561	658.69
565.773	694.69
565.985	708.69
566.197	750.69
566.408	780.69
566.62	832.69
566.832	874.69
567.044	860.69
567.255	863.69
567.467	887.69
567.679	910.69
567.891	952.69
568.102	941.69
568.314	930.69
568.526	845.69
568.737	786.69
568.949	770.69
569.161	699.69
569.372	673.69
569.584	659.69
569.795	644.69
570.007	622.69
570.218	612.69
570.43	594.69
570.641	594.69
570.853	601.69
571.064	593.69
571.276	570.69
571.487	568.69
571.698	551.69
571.91	557.69
572.121	527.69
572.333	540.69
572.544	513.69
572.755	501.69
572.966	510.69
573.178	504.69
573.389	475.69
573.6	490.69
573.811	498.69
574.023	486.69
574.234	496.69
574.445	472.69
574.656	478.69
574.867	482.69
575.078	476.69
575.289	476.69
575.501	466.69
575.712	457.69
575.923	456.69
576.134	474.69
576.345	483.69
576.556	474.69
576.767	448.69
576.978	452.69
577.188	439.69
577.399	446.69
577.61	455.69
577.821	426.69
578.032	422.69
578.243	427.69
578.454	455.69
578.665	440.69
578.875	450.69
579.086	438.69
579.297	434.69
579.508	451.69
579.718	426.69
579.929	434.69
580.14	425.69
580.35	424.69
580.561	436.69
580.772	435.69
580.982	422.69
581.193	434.69
581.403	407.69
581.614	417.69
581.825	418.69
582.035	417.69
582.246	393.69
582.456	408.69
582.667	405.69
582.877	395.69
583.087	394.69
583.298	393.69
583.508	406.69
583.719	398.69
583.929	409.69
584.139	420.69
584.35	386.69
584.56	412.69
584.77	412.69
584.981	382.69
585.191	405.69
585.401	392.69
585.611	392.69
585.821	402.69
586.032	381.69
586.242	378.69
586.452	389.69
586.662	404.69
586.872	382.69
587.082	389.69
587.292	380.69
587.502	383.69
587.713	384.69
587.923	396.69
588.133	391.69
588.343	370.69
588.553	385.69
588.762	380.69
588.972	387.69
589.182	457.69
589.392	452.69
589.602	419.69
589.812	444.69
590.022	412.69
590.232	381.69
590.441	396.69
590.651	380.69
590.861	389.69
591.071	393.69
591.281	396.69
591.49	398.69
591.7	390.69
591.91	417.69
592.119	395.69
592.329	420.69
592.539	429.69
592.748	424.69
592.958	428.69
593.167	441.69
593.377	459.69
593.587	465.69
593.796	440.69
594.006	438.69
594.215	450.69
594.424	446.69
594.634	442.69
594.843	442.69
595.053	425.69
595.262	402.69
595.472	410.69
595.681	391.69
595.89	380.69
596.1	382.69
596.309	355.69
596.518	377.69
596.727	372.69
596.937	363.69
597.146	361.69
597.355	351.69
597.564	364.69
597.774	367.69
597.983	348.69
598.192	336.69
598.401	334.69
598.61	353.69
598.819	339.69
599.028	343.69
599.237	336.69
599.446	344.69
599.655	327.69
599.864	324.69
600.073	316.69
600.282	343.69
600.491	326.69
600.7	325.69
600.909	324.69
601.118	322.69
601.327	312.69
601.536	309.69
601.745	328.69
601.953	347.69
602.162	316.69
602.371	323.69
602.58	302.69
602.789	309.69
602.997	308.69
603.206	325.69
603.415	313.69
603.623	314.69
603.832	307.69
604.041	336.69
604.249	311.69
604.458	307.69
604.666	302.69
604.875	318.69
605.084	299.69
605.292	308.69
605.501	309.69
605.709	300.69
605.918	280.69
606.126	310.69
606.334	319.69
606.543	293.69
606.751	268.69
606.96	308.69
607.168	285.69
607.376	297.69
607.585	301.69
607.793	308.69
608.001	301.69
608.21	316.69
608.418	292.69
608.626	270.69
608.834	316.69
609.043	290.69
609.251	302.69
609.459	301.69
609.667	293.69
609.875	298.69
610.083	304.69
610.291	288.69
610.499	307.69
610.707	278.69
610.916	282.69
611.124	294.69
611.332	274.69
611.54	305.69
611.748	321.69
611.955	296.69
612.163	294.69
612.371	267.69
612.579	292.69
612.787	283.69
612.995	313.69
613.203	287.69
613.411	270.69
613.618	276.69
613.826	294.69
614.034	274.69
614.242	294.69
614.449	285.69
614.657	280.69
614.865	280.69
615.072	259.69
615.28	276.69
615.488	282.69
615.695	277.69
615.903	279.69
616.111	276.69
616.318	253.69
616.526	280.69
616.733	288.69
616.941	287.69
617.148	276.69
617.356	276.69
617.563	274.69
617.771	277.69
617.978	277.69
618.185	295.69
618.393	264.69
618.6	258.69
618.807	276.69
619.015	282.69
619.222	306.69
619.429	283.69
619.637	280.69
619.844	275.69
620.051	259.69
620.258	267.69
620.466	256.69
620.673	253.69
620.88	265.69
621.087	261.69
621.294	262.69
621.501	266.69
621.708	262.69
621.915	269.69
622.122	246.69
622.329	272.69
622.536	256.69
622.743	246.69
622.95	243.69
623.157	248.69
623.364	259.69
623.571	239.69
623.778	243.69
623.985	244.69
624.192	240.69
624.399	250.69
624.606	244.69
624.812	251.69
625.019	246.69
625.226	239.69
625.433	248.69
625.639	225.69
625.846	229.69
626.053	246.69
626.259	233.69
626.466	227.69
626.673	244.69
626.879	243.69
627.086	231.69
627.293	237.69
627.499	233.69
627.706	224.69
627.912	231.69
628.119	233.69
628.325	237.69
628.532	216.69
628.738	235.69
628.945	224.69
629.151	214.69
629.357	214.69
629.564	221.69
629.77	227.69
629.976	222.69
630.183	212.69
630.389	234.69
630.595	235.69
630.802	224.69
631.008	218.69
631.214	210.69
631.42	221.69
631.627	238.69
631.833	224.69
632.039	234.69
632.245	220.69
632.451	236.69
632.657	222.69
632.863	221.69
633.069	218.69
633.275	221.69
633.481	212.69
633.688	225.69
633.893	200.69
634.099	210.69
634.305	214.69
634.511	217.69
634.717	184.69
634.923	206.69
635.129	209.69
635.335	204.69
635.541	200.69
635.747	189.69
635.952	224.69
636.158	199.69
636.364	192.69
636.57	219.69
636.775	200.69
636.981	216.69
637.187	204.69
637.392	192.69
637.598	211.69
637.804	215.69
638.009	227.69
638.215	200.69
638.421	186.69
638.626	204.69
638.832	214.69
639.037	202.69
639.243	199.69
639.448	197.69
639.654	205.69
639.859	214.69
640.065	202.69
640.27	210.69
640.475	205.69
640.681	186.69
640.886	188.69
641.091	187.69
641.297	188.69
641.502	198.69
641.707	185.69
641.913	186.69
642.118	184.69
642.323	178.69
642.528	189.69
642.733	186.69
642.939	192.69
643.144	174.69
643.349	189.69
643.554	193.69
643.759	203.69
643.964	189.69
644.169	183.69
644.374	178.69
644.579	185.69
644.784	192.69
644.989	205.69
645.194	187.69
645.399	173.69
645.604	178.69
645.809	179.69
646.014	191.69
646.219	200.69
646.423	193.69
646.628	181.69
646.833	171.69
647.038	188.69
647.243	186.69
647.447	199.69
647.652	191.69
647.857	176.69
648.062	196.69
648.266	190.69
648.471	197.69
648.676	195.69
648.88	193.69
649.085	194.69
649.289	193.69
649.494	184.69
649.698	208.69
649.903	199.69
650.107	197.69
650.312	179.69
650.516	178.69
650.721	183.69
650.925	193.69
651.13	170.69
651.334	168.69
651.539	165.69
651.743	176.69
651.947	174.69
652.152	194.69
652.356	173.69
652.56	162.69
652.764	151.69
652.969	147.69
653.173	152.69
653.377	154.69
653.581	168.69
653.785	156.69
653.99	165.69
654.194	149.69
654.398	141.69
654.602	141.69
654.806	161.69
655.01	139.69
655.214	151.69
655.418	141.69
655.622	135.69
655.826	140.69
656.03	144.69
656.234	148.69
656.438	154.69
656.642	142.69
656.846	154.69
657.049	133.69
657.253	146.69
657.457	140.69
657.661	130.69
657.865	134.69
658.068	134.69
658.272	129.69
658.476	136.69
658.68	120.69
658.883	107.69
659.087	110.69
659.291	120.69
659.494	109.69
659.698	92.69
659.901	115.69
660.105	105.69
660.309	88.69
660.512	99.69
660.716	107.69
660.919	106.69
661.123	118.69
661.326	88.69
661.53	93.69
661.733	86.69
661.936	99.69
662.14	97.69
662.343	94.69
662.546	77.69
662.75	70.69
662.953	84.69
663.156	87.69
663.36	92.69
663.563	78.69
663.766	68.69
663.969	78.69
664.173	99.69
664.376	73.69
664.579	85.69
664.782	93.69
664.985	83.69
665.188	92.69
665.391	81.69
665.594	68.69
665.797	77.69
666	89.69
666.203	83.69
666.406	76.69
666.609	86.69
666.812	91.69
667.015	87.69
667.218	95.69
667.421	89.69
667.624	76.69
667.827	74.69
668.03	90.69
668.232	85.69
668.435	84.69
668.638	91.69
668.841	82.69
669.043	72.69
669.246	69.69
669.449	80.69
669.651	89.69
669.854	74.69
670.057	83.69
670.259	78.69
670.462	76.69
670.665	82.69
670.867	88.69
671.07	78.69
671.272	80.69
671.475	93.69
671.677	69.69
671.88	91.69
672.082	94.69
672.284	82.69
672.487	80.69
672.689	83.69
672.892	61.69
