Data from NiCl2@0.125M.TitratingCurve.Agarose3%dH2O.NegLispCup.LampEnergy10.LIBS07252019_HRD10591_18-29-08-575.txt Node
Date: Thu Jul 25 18:29:08 EDT 2019
User: cochatt
Spectrometer: HR+D1059
Trigger mode: 1
Integration Time (sec): 1.000000E-1
Scans to average: 1
Electric dark correction enabled: true
Nonlinearity correction enabled: false
Boxcar width: 0
XAxis mode: Wavelengths
Number of Pixels in Spectrum: 2048
>>>>>Begin Spectral Data<<<<<
223.165	-11.75
223.4	-11.75
223.635	-11.75
223.869	-19.75
224.104	1.25
224.338	-14.75
224.573	-19.75
224.808	-13.75
225.042	-5.75
225.277	-7.75
225.511	-5.75
225.746	13.25
225.98	9.25
226.215	1.25
226.449	12.25
226.683	9.25
226.918	19.25
227.152	33.25
227.387	28.25
227.621	24.25
227.856	59.25
228.09	49.25
228.324	46.25
228.559	48.25
228.793	78.25
229.027	114.25
229.262	137.25
229.496	127.25
229.73	125.25
229.964	139.25
230.199	136.25
230.433	137.25
230.667	147.25
230.901	153.25
231.136	160.25
231.37	151.25
231.604	158.25
231.838	146.25
232.072	157.25
232.306	163.25
232.541	156.25
232.775	155.25
233.009	161.25
233.243	148.25
233.477	150.25
233.711	185.25
233.945	165.25
234.179	168.25
234.413	163.25
234.647	152.25
234.881	170.25
235.115	171.25
235.349	168.25
235.583	168.25
235.817	159.25
236.051	165.25
236.285	184.25
236.519	165.25
236.753	169.25
236.987	164.25
237.221	180.25
237.455	167.25
237.689	171.25
237.922	199.25
238.156	192.25
238.39	183.25
238.624	186.25
238.858	184.25
239.091	186.25
239.325	202.25
239.559	199.25
239.793	209.25
240.027	210.25
240.26	189.25
240.494	200.25
240.728	209.25
240.961	186.25
241.195	211.25
241.429	207.25
241.662	215.25
241.896	208.25
242.13	212.25
242.363	215.25
242.597	215.25
242.83	225.25
243.064	225.25
243.298	230.25
243.531	224.25
243.765	227.25
243.998	230.25
244.232	240.25
244.465	238.25
244.699	244.25
244.932	225.25
245.166	241.25
245.399	234.25
245.633	251.25
245.866	241.25
246.099	258.25
246.333	259.25
246.566	258.25
246.8	248.25
247.033	240.25
247.266	258.25
247.5	263.25
247.733	272.25
247.966	275.25
248.2	281.25
248.433	265.25
248.666	279.25
248.899	268.25
249.133	269.25
249.366	273.25
249.599	297.25
249.832	283.25
250.066	278.25
250.299	297.25
250.532	289.25
250.765	268.25
250.998	288.25
251.231	296.25
251.465	308.25
251.698	290.25
251.931	313.25
252.164	312.25
252.397	309.25
252.63	315.25
252.863	311.25
253.096	315.25
253.329	307.25
253.562	316.25
253.795	325.25
254.028	321.25
254.261	320.25
254.494	321.25
254.727	306.25
254.96	329.25
255.193	323.25
255.426	333.25
255.659	323.25
255.892	328.25
256.124	339.25
256.357	334.25
256.59	321.25
256.823	346.25
257.056	326.25
257.289	336.25
257.521	343.25
257.754	347.25
257.987	369.25
258.22	355.25
258.452	356.25
258.685	331.25
258.918	349.25
259.151	350.25
259.383	352.25
259.616	361.25
259.849	356.25
260.081	368.25
260.314	378.25
260.547	367.25
260.779	363.25
261.012	377.25
261.244	384.25
261.477	392.25
261.71	382.25
261.942	389.25
262.175	373.25
262.407	361.25
262.64	387.25
262.872	373.25
263.105	382.25
263.337	393.25
263.57	408.25
263.802	397.25
264.035	391.25
264.267	396.25
264.499	393.25
264.732	373.25
264.964	388.25
265.197	416.25
265.429	398.25
265.661	406.25
265.894	408.25
266.126	406.25
266.358	404.25
266.591	425.25
266.823	431.25
267.055	408.25
267.287	418.25
267.52	399.25
267.752	415.25
267.984	426.25
268.216	414.25
268.448	448.25
268.681	426.25
268.913	419.25
269.145	412.25
269.377	440.25
269.609	422.25
269.841	424.25
270.073	421.25
270.306	423.25
270.538	420.25
270.77	437.25
271.002	444.25
271.234	441.25
271.466	446.25
271.698	441.25
271.93	434.25
272.162	428.25
272.394	465.25
272.626	432.25
272.858	451.25
273.09	446.25
273.322	448.25
273.553	457.25
273.785	451.25
274.017	476.25
274.249	477.25
274.481	465.25
274.713	483.25
274.945	461.25
275.176	468.25
275.408	479.25
275.64	476.25
275.872	490.25
276.104	506.25
276.335	477.25
276.567	489.25
276.799	466.25
277.031	481.25
277.262	507.25
277.494	467.25
277.726	484.25
277.957	523.25
278.189	496.25
278.421	519.25
278.652	501.25
278.884	529.25
279.115	494.25
279.347	509.25
279.579	523.25
279.81	513.25
280.042	503.25
280.273	488.25
280.505	525.25
280.736	502.25
280.968	511.25
281.199	523.25
281.431	531.25
281.662	542.25
281.894	521.25
282.125	545.25
282.356	550.25
282.588	549.25
282.819	551.25
283.051	541.25
283.282	530.25
283.513	549.25
283.745	542.25
283.976	540.25
284.207	533.25
284.439	570.25
284.67	543.25
284.901	560.25
285.132	543.25
285.364	569.25
285.595	567.25
285.826	561.25
286.057	565.25
286.288	570.25
286.52	585.25
286.751	577.25
286.982	581.25
287.213	568.25
287.444	575.25
287.675	580.25
287.906	581.25
288.138	605.25
288.369	601.25
288.6	577.25
288.831	585.25
289.062	586.25
289.293	603.25
289.524	587.25
289.755	598.25
289.986	618.25
290.217	598.25
290.448	607.25
290.679	620.25
290.91	608.25
291.141	604.25
291.371	600.25
291.602	584.25
291.833	610.25
292.064	604.25
292.295	613.25
292.526	601.25
292.757	607.25
292.987	623.25
293.218	585.25
293.449	603.25
293.68	583.25
293.91	603.25
294.141	609.25
294.372	601.25
294.603	593.25
294.833	608.25
295.064	627.25
295.295	623.25
295.525	627.25
295.756	633.25
295.987	609.25
296.217	652.25
296.448	615.25
296.679	647.25
296.909	641.25
297.14	671.25
297.37	660.25
297.601	666.25
297.831	639.25
298.062	673.25
298.292	674.25
298.523	689.25
298.753	709.25
298.984	667.25
299.214	643.25
299.445	663.25
299.675	663.25
299.905	671.25
300.136	672.25
300.366	663.25
300.597	663.25
300.827	695.25
301.057	699.25
301.288	695.25
301.518	703.25
301.748	703.25
301.979	706.25
302.209	690.25
302.439	710.25
302.669	691.25
302.9	715.25
303.13	662.25
303.36	682.25
303.59	673.25
303.82	669.25
304.051	695.25
304.281	683.25
304.511	683.25
304.741	709.25
304.971	695.25
305.201	676.25
305.431	676.25
305.661	692.25
305.891	676.25
306.121	684.25
306.352	681.25
306.582	688.25
306.812	643.25
307.042	661.25
307.272	671.25
307.502	652.25
307.731	654.25
307.961	670.25
308.191	669.25
308.421	666.25
308.651	659.25
308.881	653.25
309.111	665.25
309.341	674.25
309.571	661.25
309.8	657.25
310.03	676.25
310.26	667.25
310.49	667.25
310.72	694.25
310.949	666.25
311.179	659.25
311.409	675.25
311.639	688.25
311.868	677.25
312.098	666.25
312.328	679.25
312.557	705.25
312.787	712.25
313.017	691.25
313.246	714.25
313.476	708.25
313.706	706.25
313.935	717.25
314.165	713.25
314.394	710.25
314.624	731.25
314.853	726.25
315.083	698.25
315.312	733.25
315.542	722.25
315.771	699.25
316.001	717.25
316.23	721.25
316.46	688.25
316.689	720.25
316.919	681.25
317.148	729.25
317.377	691.25
317.607	679.25
317.836	705.25
318.065	691.25
318.295	693.25
318.524	712.25
318.753	671.25
318.983	704.25
319.212	680.25
319.441	716.25
319.67	696.25
319.9	693.25
320.129	711.25
320.358	692.25
320.587	664.25
320.816	695.25
321.046	681.25
321.275	676.25
321.504	693.25
321.733	703.25
321.962	691.25
322.191	701.25
322.42	711.25
322.649	713.25
322.878	697.25
323.108	687.25
323.337	703.25
323.566	701.25
323.795	740.25
324.024	728.25
324.253	716.25
324.482	739.25
324.71	711.25
324.939	703.25
325.168	743.25
325.397	717.25
325.626	708.25
325.855	721.25
326.084	752.25
326.313	743.25
326.542	775.25
326.77	779.25
326.999	778.25
327.228	743.25
327.457	740.25
327.686	778.25
327.914	756.25
328.143	748.25
328.372	759.25
328.6	762.25
328.829	769.25
329.058	766.25
329.287	763.25
329.515	801.25
329.744	771.25
329.972	778.25
330.201	756.25
330.43	767.25
330.658	777.25
330.887	805.25
331.115	794.25
331.344	810.25
331.572	807.25
331.801	840.25
332.03	859.25
332.258	851.25
332.486	863.25
332.715	921.25
332.943	957.25
333.172	984.25
333.4	1063.25
333.629	1087.25
333.857	1090.25
334.085	1036.25
334.314	1010.25
334.542	993.25
334.771	995.25
334.999	970.25
335.227	933.25
335.455	949.25
335.684	933.25
335.912	955.25
336.14	957.25
336.369	900.25
336.597	919.25
336.825	921.25
337.053	925.25
337.281	938.25
337.51	892.25
337.738	900.25
337.966	864.25
338.194	841.25
338.422	831.25
338.65	820.25
338.878	821.25
339.106	833.25
339.334	857.25
339.562	787.25
339.79	779.25
340.018	795.25
340.246	759.25
340.474	807.25
340.702	807.25
340.93	788.25
341.158	819.25
341.386	787.25
341.614	789.25
341.842	792.25
342.07	781.25
342.298	765.25
342.526	782.25
342.754	780.25
342.981	792.25
343.209	800.25
343.437	861.25
343.665	906.25
343.893	989.25
344.12	1013.25
344.348	954.25
344.576	884.25
344.804	848.25
345.031	829.25
345.259	828.25
345.487	788.25
345.714	804.25
345.942	775.25
346.17	760.25
346.397	790.25
346.625	781.25
346.853	767.25
347.08	771.25
347.308	776.25
347.535	791.25
347.763	789.25
347.99	789.25
348.218	790.25
348.445	787.25
348.673	774.25
348.9	768.25
349.128	754.25
349.355	753.25
349.583	771.25
349.81	746.25
350.037	728.25
350.265	735.25
350.492	760.25
350.72	739.25
350.947	724.25
351.174	738.25
351.402	769.25
351.629	716.25
351.856	728.25
352.083	724.25
352.311	740.25
352.538	748.25
352.765	737.25
352.992	735.25
353.22	704.25
353.447	721.25
353.674	705.25
353.901	735.25
354.128	714.25
354.355	755.25
354.583	742.25
354.81	740.25
355.037	745.25
355.264	738.25
355.491	739.25
355.718	743.25
355.945	724.25
356.172	743.25
356.399	738.25
356.626	745.25
356.853	725.25
357.08	709.25
357.307	724.25
357.534	708.25
357.761	761.25
357.988	767.25
358.215	726.25
358.441	757.25
358.668	715.25
358.895	743.25
359.122	743.25
359.349	753.25
359.576	731.25
359.802	719.25
360.029	728.25
360.256	730.25
360.483	746.25
360.709	736.25
360.936	743.25
361.163	727.25
361.39	740.25
361.616	741.25
361.843	737.25
362.07	725.25
362.296	747.25
362.523	712.25
362.749	749.25
362.976	717.25
363.203	736.25
363.429	732.25
363.656	723.25
363.882	724.25
364.109	733.25
364.335	726.25
364.562	714.25
364.788	745.25
365.015	768.25
365.241	707.25
365.468	719.25
365.694	713.25
365.92	721.25
366.147	712.25
366.373	735.25
366.599	730.25
366.826	723.25
367.052	721.25
367.278	755.25
367.505	729.25
367.731	716.25
367.957	732.25
368.184	723.25
368.41	727.25
368.636	751.25
368.862	759.25
369.089	739.25
369.315	755.25
369.541	747.25
369.767	782.25
369.993	767.25
370.219	779.25
370.445	780.25
370.672	789.25
370.898	787.25
371.124	790.25
371.35	826.25
371.576	800.25
371.802	819.25
372.028	820.25
372.254	788.25
372.48	802.25
372.706	838.25
372.932	824.25
373.158	864.25
373.384	822.25
373.61	800.25
373.835	808.25
374.061	796.25
374.287	799.25
374.513	825.25
374.739	858.25
374.965	885.25
375.191	907.25
375.416	927.25
375.642	877.25
375.868	856.25
376.094	853.25
376.319	826.25
376.545	803.25
376.771	825.25
376.997	789.25
377.222	795.25
377.448	823.25
377.674	794.25
377.899	789.25
378.125	795.25
378.35	804.25
378.576	800.25
378.802	768.25
379.027	786.25
379.253	784.25
379.478	791.25
379.704	762.25
379.929	821.25
380.155	811.25
380.38	798.25
380.606	807.25
380.831	784.25
381.057	779.25
381.282	795.25
381.507	802.25
381.733	785.25
381.958	796.25
382.184	807.25
382.409	843.25
382.634	822.25
382.86	871.25
383.085	836.25
383.31	856.25
383.535	857.25
383.761	889.25
383.986	902.25
384.211	922.25
384.436	946.25
384.662	945.25
384.887	983.25
385.112	999.25
385.337	1001.25
385.562	979.25
385.787	1013.25
386.013	987.25
386.238	979.25
386.463	980.25
386.688	975.25
386.913	966.25
387.138	941.25
387.363	972.25
387.588	962.25
387.813	971.25
388.038	968.25
388.263	975.25
388.488	960.25
388.713	947.25
388.938	897.25
389.163	917.25
389.387	937.25
389.612	906.25
389.837	941.25
390.062	953.25
390.287	947.25
390.512	927.25
390.736	981.25
390.961	987.25
391.186	974.25
391.411	1015.25
391.636	1063.25
391.86	1090.25
392.085	1115.25
392.31	1081.25
392.534	1073.25
392.759	1058.25
392.984	1054.25
393.208	1007.25
393.433	1029.25
393.658	1029.25
393.882	997.25
394.107	1065.25
394.331	1033.25
394.556	1054.25
394.78	1040.25
395.005	1034.25
395.229	1021.25
395.454	1075.25
395.678	1104.25
395.903	1129.25
396.127	1107.25
396.352	1053.25
396.576	1012.25
396.801	1036.25
397.025	1031.25
397.249	1067.25
397.474	1093.25
397.698	1071.25
397.922	1084.25
398.147	1070.25
398.371	1100.25
398.595	1121.25
398.82	1151.25
399.044	1298.25
399.268	1411.25
399.492	1689.25
399.717	1932.25
399.941	1945.25
400.165	1696.25
400.389	1496.25
400.613	1379.25
400.837	1292.25
401.062	1248.25
401.286	1220.25
401.51	1235.25
401.734	1221.25
401.958	1237.25
402.182	1271.25
402.406	1268.25
402.63	1283.25
402.854	1288.25
403.078	1292.25
403.302	1386.25
403.526	1404.25
403.75	1421.25
403.974	1455.25
404.198	1442.25
404.422	1491.25
404.645	1520.25
404.869	1437.25
405.093	1452.25
405.317	1368.25
405.541	1397.25
405.765	1369.25
405.988	1333.25
406.212	1364.25
406.436	1397.25
406.66	1398.25
406.883	1404.25
407.107	1479.25
407.331	1544.25
407.555	1610.25
407.778	1630.25
408.002	1588.25
408.226	1557.25
408.449	1480.25
408.673	1435.25
408.896	1402.25
409.12	1377.25
409.344	1412.25
409.567	1399.25
409.791	1439.25
410.014	1441.25
410.238	1431.25
410.461	1402.25
410.685	1366.25
410.908	1303.25
411.132	1317.25
411.355	1276.25
411.578	1252.25
411.802	1264.25
412.025	1290.25
412.249	1324.25
412.472	1304.25
412.695	1252.25
412.919	1198.25
413.142	1212.25
413.365	1219.25
413.589	1241.25
413.812	1220.25
414.035	1217.25
414.258	1197.25
414.482	1211.25
414.705	1237.25
414.928	1229.25
415.151	1248.25
415.374	1252.25
415.597	1227.25
415.821	1204.25
416.044	1199.25
416.267	1201.25
416.49	1177.25
416.713	1205.25
416.936	1182.25
417.159	1205.25
417.382	1191.25
417.605	1227.25
417.828	1230.25
418.051	1219.25
418.274	1220.25
418.497	1235.25
418.72	1254.25
418.943	1209.25
419.166	1350.25
419.389	1407.25
419.611	1376.25
419.834	1350.25
420.057	1272.25
420.28	1252.25
420.503	1207.25
420.726	1213.25
420.948	1247.25
421.171	1224.25
421.394	1199.25
421.617	1219.25
421.839	1238.25
422.062	1244.25
422.285	1219.25
422.507	1263.25
422.73	1222.25
422.953	1281.25
423.175	1283.25
423.398	1305.25
423.621	1302.25
423.843	1312.25
424.066	1339.25
424.288	1275.25
424.511	1310.25
424.733	1283.25
424.956	1267.25
425.178	1238.25
425.401	1225.25
425.623	1229.25
425.846	1190.25
426.068	1153.25
426.291	1176.25
426.513	1123.25
426.735	1148.25
426.958	1153.25
427.18	1105.25
427.402	1119.25
427.625	1145.25
427.847	1099.25
428.069	1084.25
428.292	1139.25
428.514	1074.25
428.736	1109.25
428.958	1101.25
429.181	1064.25
429.403	1032.25
429.625	1048.25
429.847	1059.25
430.069	1024.25
430.292	1069.25
430.514	1027.25
430.736	1051.25
430.958	1082.25
431.18	1029.25
431.402	1065.25
431.624	1041.25
431.846	1068.25
432.068	1123.25
432.29	1105.25
432.512	1092.25
432.734	1071.25
432.956	1061.25
433.178	1088.25
433.4	1047.25
433.622	1058.25
433.844	1106.25
434.066	1116.25
434.287	1096.25
434.509	1122.25
434.731	1188.25
434.953	1223.25
435.175	1267.25
435.397	1224.25
435.618	1146.25
435.84	1128.25
436.062	1125.25
436.284	1108.25
436.505	1055.25
436.727	1115.25
436.949	1075.25
437.17	1069.25
437.392	1051.25
437.614	1041.25
437.835	1001.25
438.057	1071.25
438.278	1022.25
438.5	1035.25
438.721	1033.25
438.943	1067.25
439.165	1040.25
439.386	1028.25
439.608	1082.25
439.829	1084.25
440.05	1061.25
440.272	1100.25
440.493	1115.25
440.715	1092.25
440.936	1135.25
441.158	1125.25
441.379	1151.25
441.6	1217.25
441.822	1267.25
442.043	1268.25
442.264	1185.25
442.486	1187.25
442.707	1214.25
442.928	1223.25
443.149	1242.25
443.371	1219.25
443.592	1233.25
443.813	1224.25
444.034	1256.25
444.255	1289.25
444.476	1371.25
444.698	1433.25
444.919	1520.25
445.14	1636.25
445.361	1446.25
445.582	1302.25
445.803	1228.25
446.024	1174.25
446.245	1155.25
446.466	1159.25
446.687	1116.25
446.908	1119.25
447.129	1060.25
447.35	1061.25
447.571	1041.25
447.792	1057.25
448.013	1007.25
448.234	1021.25
448.455	1036.25
448.675	1001.25
448.896	1018.25
449.117	963.25
449.338	976.25
449.559	974.25
449.779	988.25
450	1022.25
450.221	987.25
450.442	1009.25
450.662	1032.25
450.883	1026.25
451.104	1038.25
451.324	1038.25
451.545	999.25
451.766	1016.25
451.986	1015.25
452.207	1015.25
452.428	975.25
452.648	995.25
452.869	999.25
453.089	981.25
453.31	1006.25
453.53	969.25
453.751	972.25
453.971	961.25
454.192	955.25
454.412	947.25
454.633	933.25
454.853	930.25
455.073	946.25
455.294	945.25
455.514	927.25
455.734	957.25
455.955	924.25
456.175	912.25
456.395	918.25
456.616	928.25
456.836	935.25
457.056	900.25
457.276	912.25
457.497	975.25
457.717	934.25
457.937	943.25
458.157	969.25
458.377	973.25
458.598	973.25
458.818	1010.25
459.038	1014.25
459.258	1060.25
459.478	1102.25
459.698	1107.25
459.918	1136.25
460.138	1200.25
460.358	1303.25
460.578	1303.25
460.798	1336.25
461.018	1331.25
461.238	1295.25
461.458	1345.25
461.678	1297.25
461.898	1349.25
462.118	1328.25
462.338	1369.25
462.558	1383.25
462.777	1460.25
462.997	1635.25
463.217	1767.25
463.437	1852.25
463.657	1678.25
463.876	1543.25
464.096	1581.25
464.316	1549.25
464.536	1543.25
464.755	1488.25
464.975	1421.25
465.195	1352.25
465.414	1264.25
465.634	1184.25
465.854	1109.25
466.073	1121.25
466.293	1098.25
466.512	1077.25
466.732	1059.25
466.951	1062.25
467.171	1018.25
467.391	1073.25
467.61	1068.25
467.829	1032.25
468.049	1053.25
468.268	1025.25
468.488	959.25
468.707	958.25
468.927	993.25
469.146	997.25
469.365	1021.25
469.585	1001.25
469.804	1029.25
470.023	1075.25
470.243	1064.25
470.462	1098.25
470.681	1101.25
470.901	1079.25
471.12	1062.25
471.339	1067.25
471.558	1006.25
471.777	1044.25
471.997	1011.25
472.216	987.25
472.435	980.25
472.654	969.25
472.873	989.25
473.092	949.25
473.311	995.25
473.53	972.25
473.749	972.25
473.968	971.25
474.187	953.25
474.406	954.25
474.625	969.25
474.844	963.25
475.063	950.25
475.282	985.25
475.501	993.25
475.72	991.25
475.939	1013.25
476.158	995.25
476.377	988.25
476.596	994.25
476.814	1065.25
477.033	1017.25
477.252	1058.25
477.471	1076.25
477.69	1089.25
477.908	1133.25
478.127	1165.25
478.346	1145.25
478.564	1187.25
478.783	1175.25
479.002	1221.25
479.22	1244.25
479.439	1213.25
479.658	1182.25
479.876	1226.25
480.095	1216.25
480.313	1286.25
480.532	1340.25
480.751	1348.25
480.969	1281.25
481.188	1200.25
481.406	1187.25
481.624	1143.25
481.843	1114.25
482.061	1108.25
482.28	1089.25
482.498	1106.25
482.717	1093.25
482.935	1054.25
483.153	1082.25
483.372	1081.25
483.59	1091.25
483.808	1076.25
484.027	1126.25
484.245	1087.25
484.463	1132.25
484.681	1145.25
484.9	1137.25
485.118	1146.25
485.336	1157.25
485.554	1155.25
485.772	1174.25
485.99	1170.25
486.209	1186.25
486.427	1190.25
486.645	1164.25
486.863	1177.25
487.081	1166.25
487.299	1183.25
487.517	1152.25
487.735	1151.25
487.953	1165.25
488.171	1167.25
488.389	1147.25
488.607	1132.25
488.825	1099.25
489.043	1129.25
489.261	1126.25
489.479	1164.25
489.696	1141.25
489.914	1153.25
490.132	1169.25
490.35	1133.25
490.568	1142.25
490.786	1147.25
491.003	1161.25
491.221	1137.25
491.439	1192.25
491.657	1157.25
491.874	1167.25
492.092	1156.25
492.31	1165.25
492.527	1170.25
492.745	1157.25
492.963	1164.25
493.18	1237.25
493.398	1235.25
493.615	1182.25
493.833	1195.25
494.05	1176.25
494.268	1218.25
494.485	1248.25
494.703	1241.25
494.92	1229.25
495.138	1214.25
495.355	1239.25
495.573	1203.25
495.79	1223.25
496.008	1219.25
496.225	1259.25
496.442	1224.25
496.66	1275.25
496.877	1296.25
497.094	1302.25
497.312	1354.25
497.529	1359.25
497.746	1391.25
497.963	1455.25
498.181	1478.25
498.398	1531.25
498.615	1654.25
498.832	1758.25
499.049	1885.25
499.267	2049.25
499.484	2213.25
499.701	2506.25
499.918	2792.25
500.135	3302.25
500.352	3796.25
500.569	4017.25
500.786	4039.25
501.003	3748.25
501.22	3247.25
501.437	2801.25
501.654	2433.25
501.871	2204.25
502.088	1990.25
502.305	1870.25
502.522	1801.25
502.739	1712.25
502.956	1605.25
503.172	1547.25
503.389	1476.25
503.606	1443.25
503.823	1404.25
504.04	1401.25
504.256	1451.25
504.473	1465.25
504.69	1539.25
504.907	1461.25
505.123	1355.25
505.34	1265.25
505.557	1225.25
505.773	1203.25
505.99	1179.25
506.207	1163.25
506.423	1144.25
506.64	1119.25
506.856	1109.25
507.073	1071.25
507.289	1108.25
507.506	1070.25
507.722	1080.25
507.939	1080.25
508.155	1061.25
508.372	1049.25
508.588	1031.25
508.805	1046.25
509.021	1025.25
509.238	984.25
509.454	992.25
509.67	1001.25
509.887	1000.25
510.103	985.25
510.319	993.25
510.536	1009.25
510.752	994.25
510.968	990.25
511.184	985.25
511.401	979.25
511.617	981.25
511.833	993.25
512.049	978.25
512.265	972.25
512.481	994.25
512.698	974.25
512.914	977.25
513.13	978.25
513.346	999.25
513.562	989.25
513.778	979.25
513.994	964.25
514.21	979.25
514.426	981.25
514.642	989.25
514.858	1018.25
515.074	1032.25
515.29	1021.25
515.506	1033.25
515.721	1045.25
515.937	1066.25
516.153	1049.25
516.369	1105.25
516.585	1142.25
516.801	1159.25
517.016	1220.25
517.232	1295.25
517.448	1368.25
517.664	1397.25
517.879	1419.25
518.095	1420.25
518.311	1435.25
518.527	1335.25
518.742	1262.25
518.958	1213.25
519.173	1159.25
519.389	1121.25
519.605	1065.25
519.82	1077.25
520.036	1063.25
520.251	1030.25
520.467	1004.25
520.682	996.25
520.898	1007.25
521.113	963.25
521.329	951.25
521.544	959.25
521.76	972.25
521.975	955.25
522.19	939.25
522.406	947.25
522.621	923.25
522.836	950.25
523.052	918.25
523.267	920.25
523.482	928.25
523.698	906.25
523.913	936.25
524.128	925.25
524.343	902.25
524.559	929.25
524.774	895.25
524.989	913.25
525.204	928.25
525.419	912.25
525.634	887.25
525.849	897.25
526.064	897.25
526.28	915.25
526.495	900.25
526.71	879.25
526.925	902.25
527.14	909.25
527.355	900.25
527.57	869.25
527.785	894.25
527.999	877.25
528.214	900.25
528.429	897.25
528.644	876.25
528.859	925.25
529.074	881.25
529.289	874.25
529.503	879.25
529.718	893.25
529.933	895.25
530.148	915.25
530.363	864.25
530.577	882.25
530.792	872.25
531.007	900.25
531.221	867.25
531.436	907.25
531.651	891.25
531.865	907.25
532.08	902.25
532.295	886.25
532.509	888.25
532.724	893.25
532.938	880.25
533.153	900.25
533.367	909.25
533.582	888.25
533.796	895.25
534.011	901.25
534.225	894.25
534.44	885.25
534.654	874.25
534.868	887.25
535.083	873.25
535.297	871.25
535.511	886.25
535.726	871.25
535.94	864.25
536.154	837.25
536.369	864.25
536.583	839.25
536.797	843.25
537.011	828.25
537.225	815.25
537.44	825.25
537.654	840.25
537.868	819.25
538.082	808.25
538.296	811.25
538.51	818.25
538.724	842.25
538.938	839.25
539.153	812.25
539.367	832.25
539.581	828.25
539.795	802.25
540.009	803.25
540.222	797.25
540.436	815.25
540.65	799.25
540.864	826.25
541.078	793.25
541.292	817.25
541.506	793.25
541.72	810.25
541.934	780.25
542.147	777.25
542.361	792.25
542.575	775.25
542.789	811.25
543.002	791.25
543.216	774.25
543.43	791.25
543.644	771.25
543.857	810.25
544.071	755.25
544.285	787.25
544.498	807.25
544.712	795.25
544.925	829.25
545.139	821.25
545.352	821.25
545.566	820.25
545.779	809.25
545.993	812.25
546.206	835.25
546.42	794.25
546.633	827.25
546.847	837.25
547.06	808.25
547.274	813.25
547.487	807.25
547.7	799.25
547.914	833.25
548.127	803.25
548.34	848.25
548.554	837.25
548.767	819.25
548.98	842.25
549.193	807.25
549.407	821.25
549.62	840.25
549.833	867.25
550.046	835.25
550.259	854.25
550.473	788.25
550.686	799.25
550.899	803.25
551.112	814.25
551.325	771.25
551.538	771.25
551.751	812.25
551.964	832.25
552.177	822.25
552.39	821.25
552.603	844.25
552.816	875.25
553.029	889.25
553.242	903.25
553.455	918.25
553.667	916.25
553.88	915.25
554.093	848.25
554.306	846.25
554.519	803.25
554.732	803.25
554.944	802.25
555.157	778.25
555.37	792.25
555.583	782.25
555.795	781.25
556.008	741.25
556.221	757.25
556.433	714.25
556.646	723.25
556.859	722.25
557.071	696.25
557.284	732.25
557.496	725.25
557.709	707.25
557.921	687.25
558.134	676.25
558.346	706.25
558.559	667.25
558.771	682.25
558.984	699.25
559.196	674.25
559.409	667.25
559.621	658.25
559.833	659.25
560.046	659.25
560.258	665.25
560.47	662.25
560.683	667.25
560.895	645.25
561.107	646.25
561.32	662.25
561.532	676.25
561.744	671.25
561.956	664.25
562.168	671.25
562.381	680.25
562.593	659.25
562.805	654.25
563.017	645.25
563.229	683.25
563.441	663.25
563.653	695.25
563.865	694.25
564.077	700.25
564.289	679.25
564.501	691.25
564.713	710.25
564.925	733.25
565.137	755.25
565.349	738.25
565.561	775.25
565.773	797.25
565.985	841.25
566.197	868.25
566.408	937.25
566.62	1036.25
566.832	1143.25
567.044	1177.25
567.255	1140.25
567.467	1187.25
567.679	1232.25
567.891	1369.25
568.102	1462.25
568.314	1361.25
568.526	1192.25
568.737	1088.25
568.949	980.25
569.161	876.25
569.372	820.25
569.584	781.25
569.795	740.25
570.007	707.25
570.218	729.25
570.43	717.25
570.641	692.25
570.853	714.25
571.064	721.25
571.276	715.25
571.487	689.25
571.698	674.25
571.91	649.25
572.121	649.25
572.333	619.25
572.544	595.25
572.755	596.25
572.966	597.25
573.178	577.25
573.389	586.25
573.6	569.25
573.811	554.25
574.023	567.25
574.234	577.25
574.445	559.25
574.656	549.25
574.867	585.25
575.078	568.25
575.289	564.25
575.501	539.25
575.712	520.25
575.923	545.25
576.134	541.25
576.345	541.25
576.556	534.25
576.767	537.25
576.978	545.25
577.188	523.25
577.399	515.25
577.61	521.25
577.821	519.25
578.032	506.25
578.243	490.25
578.454	522.25
578.665	487.25
578.875	483.25
579.086	488.25
579.297	487.25
579.508	493.25
579.718	484.25
579.929	498.25
580.14	478.25
580.35	476.25
580.561	498.25
580.772	477.25
580.982	473.25
581.193	498.25
581.403	471.25
581.614	479.25
581.825	498.25
582.035	462.25
582.246	471.25
582.456	473.25
582.667	478.25
582.877	462.25
583.087	479.25
583.298	468.25
583.508	470.25
583.719	486.25
583.929	455.25
584.139	465.25
584.35	451.25
584.56	461.25
584.77	447.25
584.981	465.25
585.191	443.25
585.401	453.25
585.611	464.25
585.821	452.25
586.032	454.25
586.242	456.25
586.452	456.25
586.662	449.25
586.872	444.25
587.082	446.25
587.292	455.25
587.502	465.25
587.713	457.25
587.923	456.25
588.133	456.25
588.343	444.25
588.553	444.25
588.762	435.25
588.972	460.25
589.182	456.25
589.392	466.25
589.602	444.25
589.812	463.25
590.022	461.25
590.232	456.25
590.441	452.25
590.651	458.25
590.861	468.25
591.071	468.25
591.281	482.25
591.49	475.25
591.7	490.25
591.91	510.25
592.119	483.25
592.329	480.25
592.539	524.25
592.748	546.25
592.958	577.25
593.167	588.25
593.377	584.25
593.587	618.25
593.796	600.25
594.006	620.25
594.215	599.25
594.424	596.25
594.634	587.25
594.843	539.25
595.053	529.25
595.262	505.25
595.472	491.25
595.681	494.25
595.89	473.25
596.1	459.25
596.309	448.25
596.518	443.25
596.727	430.25
596.937	447.25
597.146	421.25
597.355	415.25
597.564	401.25
597.774	394.25
597.983	389.25
598.192	407.25
598.401	412.25
598.61	398.25
598.819	380.25
599.028	383.25
599.237	378.25
599.446	384.25
599.655	381.25
599.864	362.25
600.073	383.25
600.282	375.25
600.491	340.25
600.7	373.25
600.909	388.25
601.118	370.25
601.327	377.25
601.536	384.25
601.745	389.25
601.953	379.25
602.162	362.25
602.371	360.25
602.58	392.25
602.789	364.25
602.997	356.25
603.206	369.25
603.415	378.25
603.623	348.25
603.832	359.25
604.041	368.25
604.249	371.25
604.458	364.25
604.666	365.25
604.875	357.25
605.084	353.25
605.292	344.25
605.501	348.25
605.709	343.25
605.918	346.25
606.126	353.25
606.334	361.25
606.543	343.25
606.751	349.25
606.96	348.25
607.168	335.25
607.376	338.25
607.585	327.25
607.793	347.25
608.001	357.25
608.21	336.25
608.418	353.25
608.626	349.25
608.834	339.25
609.043	335.25
609.251	330.25
609.459	328.25
609.667	340.25
609.875	331.25
610.083	332.25
610.291	326.25
610.499	338.25
610.707	331.25
610.916	328.25
611.124	339.25
611.332	340.25
611.54	343.25
611.748	319.25
611.955	335.25
612.163	339.25
612.371	332.25
612.579	316.25
612.787	334.25
612.995	320.25
613.203	339.25
613.411	348.25
613.618	328.25
613.826	343.25
614.034	328.25
614.242	336.25
614.449	328.25
614.657	322.25
614.865	298.25
615.072	328.25
615.28	311.25
615.488	339.25
615.695	331.25
615.903	315.25
616.111	310.25
616.318	345.25
616.526	329.25
616.733	338.25
616.941	324.25
617.148	322.25
617.356	323.25
617.563	311.25
617.771	347.25
617.978	338.25
618.185	337.25
618.393	341.25
618.6	317.25
618.807	331.25
619.015	326.25
619.222	315.25
619.429	318.25
619.637	311.25
619.844	306.25
620.051	304.25
620.258	307.25
620.466	309.25
620.673	299.25
620.88	317.25
621.087	288.25
621.294	296.25
621.501	307.25
621.708	311.25
621.915	281.25
622.122	309.25
622.329	293.25
622.536	301.25
622.743	288.25
622.95	296.25
623.157	291.25
623.364	293.25
623.571	295.25
623.778	280.25
623.985	303.25
624.192	323.25
624.399	305.25
624.606	324.25
624.812	298.25
625.019	284.25
625.226	279.25
625.433	278.25
625.639	260.25
625.846	275.25
626.053	295.25
626.259	278.25
626.466	280.25
626.673	287.25
626.879	268.25
627.086	270.25
627.293	284.25
627.499	272.25
627.706	284.25
627.912	270.25
628.119	262.25
628.325	260.25
628.532	262.25
628.738	284.25
628.945	280.25
629.151	272.25
629.357	256.25
629.564	256.25
629.77	248.25
629.976	258.25
630.183	251.25
630.389	243.25
630.595	245.25
630.802	258.25
631.008	252.25
631.214	243.25
631.42	245.25
631.627	255.25
631.833	236.25
632.039	237.25
632.245	246.25
632.451	245.25
632.657	242.25
632.863	239.25
633.069	222.25
633.275	240.25
633.481	244.25
633.688	250.25
633.893	264.25
634.099	236.25
634.305	223.25
634.511	232.25
634.717	243.25
634.923	235.25
635.129	225.25
635.335	231.25
635.541	233.25
635.747	231.25
635.952	228.25
636.158	228.25
636.364	237.25
636.57	226.25
636.775	231.25
636.981	228.25
637.187	229.25
637.392	227.25
637.598	227.25
637.804	236.25
638.009	223.25
638.215	227.25
638.421	213.25
638.626	214.25
638.832	218.25
639.037	214.25
639.243	231.25
639.448	221.25
639.654	224.25
639.859	202.25
640.065	215.25
640.27	211.25
640.475	216.25
640.681	217.25
640.886	224.25
641.091	211.25
641.297	221.25
641.502	201.25
641.707	210.25
641.913	204.25
642.118	211.25
642.323	212.25
642.528	193.25
642.733	216.25
642.939	204.25
643.144	196.25
643.349	207.25
643.554	201.25
643.759	191.25
643.964	195.25
644.169	202.25
644.374	215.25
644.579	213.25
644.784	199.25
644.989	203.25
645.194	222.25
645.399	219.25
645.604	213.25
645.809	201.25
646.014	200.25
646.219	202.25
646.423	208.25
646.628	197.25
646.833	220.25
647.038	219.25
647.243	201.25
647.447	201.25
647.652	218.25
647.857	220.25
648.062	221.25
648.266	225.25
648.471	233.25
648.676	208.25
648.88	218.25
649.085	220.25
649.289	187.25
649.494	204.25
649.698	186.25
649.903	202.25
650.107	195.25
650.312	196.25
650.516	202.25
650.721	182.25
650.925	176.25
651.13	193.25
651.334	206.25
651.539	192.25
651.743	200.25
651.947	182.25
652.152	180.25
652.356	188.25
652.56	160.25
652.764	161.25
652.969	177.25
653.173	170.25
653.377	173.25
653.581	172.25
653.785	155.25
653.99	160.25
654.194	133.25
654.398	159.25
654.602	145.25
654.806	148.25
655.01	148.25
655.214	150.25
655.418	147.25
655.622	137.25
655.826	146.25
656.03	149.25
656.234	128.25
656.438	142.25
656.642	130.25
656.846	111.25
657.049	129.25
657.253	129.25
657.457	128.25
657.661	131.25
657.865	107.25
658.068	109.25
658.272	123.25
658.476	103.25
658.68	116.25
658.883	115.25
659.087	111.25
659.291	108.25
659.494	103.25
659.698	108.25
659.901	103.25
660.105	89.25
660.309	103.25
660.512	100.25
660.716	111.25
660.919	96.25
661.123	92.25
661.326	87.25
661.53	98.25
661.733	103.25
661.936	88.25
662.14	72.25
662.343	82.25
662.546	85.25
662.75	78.25
662.953	78.25
663.156	92.25
663.36	77.25
663.563	80.25
663.766	93.25
663.969	98.25
664.173	83.25
664.376	75.25
664.579	71.25
664.782	87.25
664.985	86.25
665.188	81.25
665.391	85.25
665.594	71.25
665.797	81.25
666	87.25
666.203	85.25
666.406	86.25
666.609	76.25
666.812	88.25
667.015	78.25
667.218	89.25
667.421	66.25
667.624	82.25
667.827	77.25
668.03	75.25
668.232	76.25
668.435	78.25
668.638	87.25
668.841	93.25
669.043	80.25
669.246	81.25
669.449	82.25
669.651	82.25
669.854	77.25
670.057	83.25
670.259	84.25
670.462	73.25
670.665	82.25
670.867	90.25
671.07	96.25
671.272	75.25
671.475	78.25
671.677	83.25
671.88	94.25
672.082	86.25
672.284	69.25
672.487	90.25
672.689	88.25
672.892	85.25
