Data from NiCl2@0.25M.TitratingCurve.Agarose3%dH2O.NegLispCup.LampEnergy10.LIBS07252019_HRD10591_18-25-52-573.txt Node
Date: Thu Jul 25 18:25:52 EDT 2019
User: cochatt
Spectrometer: HR+D1059
Trigger mode: 1
Integration Time (sec): 1.000000E-1
Scans to average: 1
Electric dark correction enabled: true
Nonlinearity correction enabled: false
Boxcar width: 0
XAxis mode: Wavelengths
Number of Pixels in Spectrum: 2048
>>>>>Begin Spectral Data<<<<<
223.165	-13.5
223.4	-13.5
223.635	-13.5
223.869	-21.5
224.104	-18.5
224.338	-26.5
224.573	-18.5
224.808	-2.5
225.042	-5.5
225.277	-0.5
225.511	-1.5
225.746	-5.5
225.98	11.5
226.215	5.5
226.449	7.5
226.683	22.5
226.918	30.5
227.152	36.5
227.387	17.5
227.621	29.5
227.856	34.5
228.09	39.5
228.324	36.5
228.559	61.5
228.793	68.5
229.027	115.5
229.262	138.5
229.496	125.5
229.73	130.5
229.964	162.5
230.199	139.5
230.433	145.5
230.667	146.5
230.901	150.5
231.136	163.5
231.37	154.5
231.604	160.5
231.838	175.5
232.072	186.5
232.306	167.5
232.541	174.5
232.775	174.5
233.009	181.5
233.243	185.5
233.477	177.5
233.711	165.5
233.945	172.5
234.179	182.5
234.413	195.5
234.647	166.5
234.881	184.5
235.115	184.5
235.349	192.5
235.583	198.5
235.817	170.5
236.051	180.5
236.285	184.5
236.519	190.5
236.753	177.5
236.987	191.5
237.221	200.5
237.455	196.5
237.689	188.5
237.922	197.5
238.156	206.5
238.39	205.5
238.624	208.5
238.858	223.5
239.091	211.5
239.325	205.5
239.559	211.5
239.793	211.5
240.027	242.5
240.26	244.5
240.494	219.5
240.728	236.5
240.961	241.5
241.195	240.5
241.429	241.5
241.662	214.5
241.896	238.5
242.13	221.5
242.363	236.5
242.597	274.5
242.83	256.5
243.064	268.5
243.298	246.5
243.531	252.5
243.765	288.5
243.998	266.5
244.232	257.5
244.465	263.5
244.699	262.5
244.932	277.5
245.166	286.5
245.399	281.5
245.633	271.5
245.866	285.5
246.099	274.5
246.333	292.5
246.566	293.5
246.8	275.5
247.033	294.5
247.266	302.5
247.5	305.5
247.733	309.5
247.966	310.5
248.2	324.5
248.433	313.5
248.666	305.5
248.899	325.5
249.133	311.5
249.366	300.5
249.599	333.5
249.832	319.5
250.066	310.5
250.299	310.5
250.532	334.5
250.765	346.5
250.998	341.5
251.231	319.5
251.465	343.5
251.698	345.5
251.931	345.5
252.164	346.5
252.397	366.5
252.63	356.5
252.863	351.5
253.096	358.5
253.329	345.5
253.562	357.5
253.795	380.5
254.028	365.5
254.261	358.5
254.494	378.5
254.727	375.5
254.96	357.5
255.193	364.5
255.426	378.5
255.659	381.5
255.892	400.5
256.124	384.5
256.357	362.5
256.59	369.5
256.823	380.5
257.056	391.5
257.289	398.5
257.521	388.5
257.754	379.5
257.987	403.5
258.22	398.5
258.452	403.5
258.685	406.5
258.918	410.5
259.151	378.5
259.383	412.5
259.616	402.5
259.849	415.5
260.081	422.5
260.314	428.5
260.547	423.5
260.779	437.5
261.012	421.5
261.244	424.5
261.477	422.5
261.71	439.5
261.942	454.5
262.175	447.5
262.407	455.5
262.64	418.5
262.872	438.5
263.105	429.5
263.337	449.5
263.57	445.5
263.802	464.5
264.035	460.5
264.267	454.5
264.499	466.5
264.732	469.5
264.964	471.5
265.197	480.5
265.429	490.5
265.661	478.5
265.894	475.5
266.126	463.5
266.358	466.5
266.591	500.5
266.823	481.5
267.055	455.5
267.287	490.5
267.52	485.5
267.752	485.5
267.984	486.5
268.216	509.5
268.448	506.5
268.681	502.5
268.913	508.5
269.145	504.5
269.377	506.5
269.609	514.5
269.841	525.5
270.073	503.5
270.306	528.5
270.538	516.5
270.77	503.5
271.002	509.5
271.234	523.5
271.466	498.5
271.698	517.5
271.93	519.5
272.162	526.5
272.394	554.5
272.626	539.5
272.858	527.5
273.09	545.5
273.322	532.5
273.553	544.5
273.785	554.5
274.017	533.5
274.249	545.5
274.481	542.5
274.713	547.5
274.945	560.5
275.176	555.5
275.408	579.5
275.64	566.5
275.872	571.5
276.104	580.5
276.335	590.5
276.567	588.5
276.799	586.5
277.031	596.5
277.262	586.5
277.494	581.5
277.726	583.5
277.957	596.5
278.189	584.5
278.421	588.5
278.652	587.5
278.884	593.5
279.115	602.5
279.347	614.5
279.579	607.5
279.81	624.5
280.042	584.5
280.273	617.5
280.505	636.5
280.736	622.5
280.968	634.5
281.199	618.5
281.431	629.5
281.662	602.5
281.894	636.5
282.125	630.5
282.356	644.5
282.588	654.5
282.819	627.5
283.051	655.5
283.282	642.5
283.513	660.5
283.745	669.5
283.976	650.5
284.207	674.5
284.439	659.5
284.67	677.5
284.901	683.5
285.132	679.5
285.364	658.5
285.595	668.5
285.826	690.5
286.057	675.5
286.288	680.5
286.52	680.5
286.751	695.5
286.982	730.5
287.213	694.5
287.444	689.5
287.675	694.5
287.906	689.5
288.138	704.5
288.369	689.5
288.6	710.5
288.831	718.5
289.062	742.5
289.293	696.5
289.524	693.5
289.755	711.5
289.986	712.5
290.217	690.5
290.448	720.5
290.679	724.5
290.91	727.5
291.141	751.5
291.371	715.5
291.602	718.5
291.833	716.5
292.064	744.5
292.295	714.5
292.526	718.5
292.757	754.5
292.987	711.5
293.218	728.5
293.449	749.5
293.68	740.5
293.91	748.5
294.141	746.5
294.372	704.5
294.603	746.5
294.833	735.5
295.064	743.5
295.295	769.5
295.525	753.5
295.756	720.5
295.987	737.5
296.217	742.5
296.448	734.5
296.679	751.5
296.909	776.5
297.14	755.5
297.37	785.5
297.601	788.5
297.831	776.5
298.062	766.5
298.292	805.5
298.523	808.5
298.753	802.5
298.984	763.5
299.214	762.5
299.445	777.5
299.675	801.5
299.905	779.5
300.136	787.5
300.366	788.5
300.597	801.5
300.827	796.5
301.057	838.5
301.288	822.5
301.518	846.5
301.748	836.5
301.979	845.5
302.209	860.5
302.439	828.5
302.669	855.5
302.9	835.5
303.13	804.5
303.36	810.5
303.59	837.5
303.82	824.5
304.051	815.5
304.281	821.5
304.511	827.5
304.741	831.5
304.971	816.5
305.201	822.5
305.431	836.5
305.661	830.5
305.891	818.5
306.121	815.5
306.352	802.5
306.582	822.5
306.812	818.5
307.042	792.5
307.272	816.5
307.502	812.5
307.731	783.5
307.961	782.5
308.191	811.5
308.421	789.5
308.651	805.5
308.881	766.5
309.111	846.5
309.341	817.5
309.571	805.5
309.8	807.5
310.03	773.5
310.26	833.5
310.49	815.5
310.72	817.5
310.949	825.5
311.179	799.5
311.409	801.5
311.639	830.5
311.868	818.5
312.098	820.5
312.328	843.5
312.557	858.5
312.787	862.5
313.017	837.5
313.246	846.5
313.476	861.5
313.706	858.5
313.935	864.5
314.165	875.5
314.394	866.5
314.624	884.5
314.853	874.5
315.083	846.5
315.312	881.5
315.542	878.5
315.771	868.5
316.001	838.5
316.23	860.5
316.46	842.5
316.689	848.5
316.919	876.5
317.148	876.5
317.377	862.5
317.607	874.5
317.836	823.5
318.065	852.5
318.295	853.5
318.524	858.5
318.753	842.5
318.983	851.5
319.212	854.5
319.441	865.5
319.67	865.5
319.9	866.5
320.129	827.5
320.358	862.5
320.587	830.5
320.816	847.5
321.046	843.5
321.275	864.5
321.504	863.5
321.733	836.5
321.962	885.5
322.191	852.5
322.42	868.5
322.649	856.5
322.878	872.5
323.108	861.5
323.337	878.5
323.566	846.5
323.795	905.5
324.024	896.5
324.253	890.5
324.482	870.5
324.71	881.5
324.939	918.5
325.168	916.5
325.397	896.5
325.626	902.5
325.855	912.5
326.084	926.5
326.313	965.5
326.542	910.5
326.77	930.5
326.999	917.5
327.228	930.5
327.457	899.5
327.686	944.5
327.914	921.5
328.143	928.5
328.372	928.5
328.6	914.5
328.829	928.5
329.058	926.5
329.287	959.5
329.515	951.5
329.744	964.5
329.972	920.5
330.201	934.5
330.43	911.5
330.658	957.5
330.887	944.5
331.115	962.5
331.344	980.5
331.572	1003.5
331.801	1039.5
332.03	1027.5
332.258	1032.5
332.486	1032.5
332.715	1110.5
332.943	1135.5
333.172	1194.5
333.4	1189.5
333.629	1208.5
333.857	1267.5
334.085	1243.5
334.314	1231.5
334.542	1209.5
334.771	1238.5
334.999	1182.5
335.227	1215.5
335.455	1207.5
335.684	1187.5
335.912	1157.5
336.14	1172.5
336.369	1138.5
336.597	1134.5
336.825	1158.5
337.053	1126.5
337.281	1113.5
337.51	1098.5
337.738	1097.5
337.966	1053.5
338.194	1047.5
338.422	1038.5
338.65	1007.5
338.878	1023.5
339.106	1022.5
339.334	1043.5
339.562	1047.5
339.79	996.5
340.018	963.5
340.246	972.5
340.474	977.5
340.702	972.5
340.93	971.5
341.158	974.5
341.386	976.5
341.614	1009.5
341.842	1007.5
342.07	991.5
342.298	968.5
342.526	1002.5
342.754	980.5
342.981	977.5
343.209	955.5
343.437	1042.5
343.665	1102.5
343.893	1184.5
344.12	1187.5
344.348	1182.5
344.576	1122.5
344.804	1083.5
345.031	1038.5
345.259	1022.5
345.487	999.5
345.714	966.5
345.942	962.5
346.17	987.5
346.397	960.5
346.625	952.5
346.853	946.5
347.08	925.5
347.308	930.5
347.535	930.5
347.763	943.5
347.99	927.5
348.218	941.5
348.445	912.5
348.673	895.5
348.9	909.5
349.128	946.5
349.355	958.5
349.583	924.5
349.81	902.5
350.037	926.5
350.265	906.5
350.492	896.5
350.72	935.5
350.947	916.5
351.174	915.5
351.402	918.5
351.629	901.5
351.856	902.5
352.083	877.5
352.311	920.5
352.538	910.5
352.765	912.5
352.992	885.5
353.22	876.5
353.447	872.5
353.674	876.5
353.901	862.5
354.128	896.5
354.355	896.5
354.583	903.5
354.81	883.5
355.037	899.5
355.264	888.5
355.491	904.5
355.718	915.5
355.945	916.5
356.172	909.5
356.399	915.5
356.626	883.5
356.853	904.5
357.08	905.5
357.307	889.5
357.534	883.5
357.761	915.5
357.988	905.5
358.215	917.5
358.441	903.5
358.668	932.5
358.895	913.5
359.122	893.5
359.349	925.5
359.576	919.5
359.802	914.5
360.029	926.5
360.256	940.5
360.483	911.5
360.709	887.5
360.936	922.5
361.163	909.5
361.39	889.5
361.616	894.5
361.843	912.5
362.07	901.5
362.296	903.5
362.523	897.5
362.749	906.5
362.976	892.5
363.203	885.5
363.429	874.5
363.656	911.5
363.882	861.5
364.109	908.5
364.335	883.5
364.562	918.5
364.788	878.5
365.015	897.5
365.241	890.5
365.468	889.5
365.694	885.5
365.92	904.5
366.147	890.5
366.373	880.5
366.599	899.5
366.826	882.5
367.052	895.5
367.278	874.5
367.505	892.5
367.731	929.5
367.957	859.5
368.184	908.5
368.41	930.5
368.636	891.5
368.862	907.5
369.089	900.5
369.315	921.5
369.541	913.5
369.767	929.5
369.993	945.5
370.219	960.5
370.445	944.5
370.672	938.5
370.898	945.5
371.124	975.5
371.35	974.5
371.576	977.5
371.802	993.5
372.028	988.5
372.254	970.5
372.48	984.5
372.706	1007.5
372.932	1024.5
373.158	1020.5
373.384	1002.5
373.61	1021.5
373.835	992.5
374.061	988.5
374.287	973.5
374.513	996.5
374.739	1068.5
374.965	1049.5
375.191	1115.5
375.416	1101.5
375.642	1059.5
375.868	1049.5
376.094	1028.5
376.319	991.5
376.545	1004.5
376.771	980.5
376.997	1004.5
377.222	968.5
377.448	964.5
377.674	968.5
377.899	968.5
378.125	957.5
378.35	993.5
378.576	964.5
378.802	946.5
379.027	969.5
379.253	952.5
379.478	967.5
379.704	973.5
379.929	960.5
380.155	952.5
380.38	978.5
380.606	969.5
380.831	960.5
381.057	972.5
381.282	990.5
381.507	994.5
381.733	987.5
381.958	1001.5
382.184	1005.5
382.409	1013.5
382.634	1004.5
382.86	999.5
383.085	1062.5
383.31	1046.5
383.535	1067.5
383.761	1082.5
383.986	1071.5
384.211	1105.5
384.436	1117.5
384.662	1154.5
384.887	1152.5
385.112	1161.5
385.337	1155.5
385.562	1214.5
385.787	1173.5
386.013	1221.5
386.238	1224.5
386.463	1194.5
386.688	1222.5
386.913	1211.5
387.138	1192.5
387.363	1219.5
387.588	1210.5
387.813	1183.5
388.038	1176.5
388.263	1197.5
388.488	1222.5
388.713	1200.5
388.938	1165.5
389.163	1142.5
389.387	1155.5
389.612	1123.5
389.837	1183.5
390.062	1160.5
390.287	1175.5
390.512	1175.5
390.736	1174.5
390.961	1222.5
391.186	1212.5
391.411	1244.5
391.636	1286.5
391.86	1347.5
392.085	1357.5
392.31	1410.5
392.534	1334.5
392.759	1328.5
392.984	1304.5
393.208	1272.5
393.433	1297.5
393.658	1271.5
393.882	1262.5
394.107	1296.5
394.331	1288.5
394.556	1263.5
394.78	1265.5
395.005	1277.5
395.229	1283.5
395.454	1303.5
395.678	1339.5
395.903	1356.5
396.127	1358.5
396.352	1308.5
396.576	1271.5
396.801	1309.5
397.025	1311.5
397.249	1344.5
397.474	1357.5
397.698	1358.5
397.922	1347.5
398.147	1350.5
398.371	1379.5
398.595	1443.5
398.82	1528.5
399.044	1636.5
399.268	1745.5
399.492	1958.5
399.717	2224.5
399.941	2285.5
400.165	2068.5
400.389	1903.5
400.613	1750.5
400.837	1588.5
401.062	1584.5
401.286	1556.5
401.51	1517.5
401.734	1510.5
401.958	1555.5
402.182	1540.5
402.406	1564.5
402.63	1595.5
402.854	1610.5
403.078	1620.5
403.302	1658.5
403.526	1692.5
403.75	1721.5
403.974	1710.5
404.198	1700.5
404.422	1730.5
404.645	1731.5
404.869	1701.5
405.093	1694.5
405.317	1658.5
405.541	1695.5
405.765	1678.5
405.988	1672.5
406.212	1694.5
406.436	1684.5
406.66	1710.5
406.883	1731.5
407.107	1832.5
407.331	1932.5
407.555	1959.5
407.778	1955.5
408.002	1939.5
408.226	1884.5
408.449	1861.5
408.673	1782.5
408.896	1718.5
409.12	1691.5
409.344	1730.5
409.567	1729.5
409.791	1736.5
410.014	1713.5
410.238	1683.5
410.461	1655.5
410.685	1679.5
410.908	1636.5
411.132	1614.5
411.355	1581.5
411.578	1536.5
411.802	1573.5
412.025	1599.5
412.249	1598.5
412.472	1596.5
412.695	1559.5
412.919	1520.5
413.142	1526.5
413.365	1500.5
413.589	1540.5
413.812	1514.5
414.035	1498.5
414.258	1502.5
414.482	1480.5
414.705	1575.5
414.928	1558.5
415.151	1530.5
415.374	1506.5
415.597	1515.5
415.821	1479.5
416.044	1469.5
416.267	1486.5
416.49	1465.5
416.713	1475.5
416.936	1443.5
417.159	1447.5
417.382	1495.5
417.605	1456.5
417.828	1451.5
418.051	1496.5
418.274	1480.5
418.497	1516.5
418.72	1506.5
418.943	1510.5
419.166	1618.5
419.389	1757.5
419.611	1714.5
419.834	1592.5
420.057	1567.5
420.28	1476.5
420.503	1439.5
420.726	1517.5
420.948	1462.5
421.171	1483.5
421.394	1524.5
421.617	1472.5
421.839	1476.5
422.062	1478.5
422.285	1470.5
422.507	1510.5
422.73	1513.5
422.953	1484.5
423.175	1516.5
423.398	1545.5
423.621	1509.5
423.843	1523.5
424.066	1570.5
424.288	1556.5
424.511	1556.5
424.733	1534.5
424.956	1509.5
425.178	1526.5
425.401	1499.5
425.623	1482.5
425.846	1451.5
426.068	1440.5
426.291	1404.5
426.513	1370.5
426.735	1390.5
426.958	1386.5
427.18	1378.5
427.402	1348.5
427.625	1333.5
427.847	1349.5
428.069	1359.5
428.292	1352.5
428.514	1332.5
428.736	1316.5
428.958	1317.5
429.181	1326.5
429.403	1278.5
429.625	1302.5
429.847	1255.5
430.069	1295.5
430.292	1312.5
430.514	1274.5
430.736	1288.5
430.958	1293.5
431.18	1295.5
431.402	1275.5
431.624	1298.5
431.846	1316.5
432.068	1340.5
432.29	1332.5
432.512	1308.5
432.734	1347.5
432.956	1288.5
433.178	1315.5
433.4	1326.5
433.622	1321.5
433.844	1359.5
434.066	1322.5
434.287	1356.5
434.509	1402.5
434.731	1468.5
434.953	1482.5
435.175	1529.5
435.397	1461.5
435.618	1390.5
435.84	1377.5
436.062	1330.5
436.284	1333.5
436.505	1317.5
436.727	1315.5
436.949	1318.5
437.17	1278.5
437.392	1244.5
437.614	1239.5
437.835	1230.5
438.057	1262.5
438.278	1213.5
438.5	1245.5
438.721	1249.5
438.943	1267.5
439.165	1267.5
439.386	1238.5
439.608	1285.5
439.829	1294.5
440.05	1304.5
440.272	1333.5
440.493	1339.5
440.715	1320.5
440.936	1320.5
441.158	1339.5
441.379	1397.5
441.6	1440.5
441.822	1484.5
442.043	1495.5
442.264	1476.5
442.486	1422.5
442.707	1446.5
442.928	1400.5
443.149	1435.5
443.371	1424.5
443.592	1436.5
443.813	1453.5
444.034	1471.5
444.255	1510.5
444.476	1598.5
444.698	1669.5
444.919	1712.5
445.14	1792.5
445.361	1641.5
445.582	1500.5
445.803	1442.5
446.024	1427.5
446.245	1376.5
446.466	1368.5
446.687	1362.5
446.908	1320.5
447.129	1262.5
447.35	1242.5
447.571	1267.5
447.792	1213.5
448.013	1228.5
448.234	1189.5
448.455	1170.5
448.675	1201.5
448.896	1203.5
449.117	1181.5
449.338	1141.5
449.559	1154.5
449.779	1164.5
450	1156.5
450.221	1183.5
450.442	1202.5
450.662	1189.5
450.883	1207.5
451.104	1211.5
451.324	1206.5
451.545	1212.5
451.766	1178.5
451.986	1174.5
452.207	1166.5
452.428	1156.5
452.648	1167.5
452.869	1101.5
453.089	1153.5
453.31	1154.5
453.53	1155.5
453.751	1152.5
453.971	1100.5
454.192	1138.5
454.412	1135.5
454.633	1112.5
454.853	1146.5
455.073	1116.5
455.294	1129.5
455.514	1080.5
455.734	1120.5
455.955	1096.5
456.175	1082.5
456.395	1070.5
456.616	1100.5
456.836	1110.5
457.056	1087.5
457.276	1101.5
457.497	1140.5
457.717	1107.5
457.937	1125.5
458.157	1107.5
458.377	1135.5
458.598	1197.5
458.818	1243.5
459.038	1270.5
459.258	1288.5
459.478	1353.5
459.698	1347.5
459.918	1389.5
460.138	1428.5
460.358	1473.5
460.578	1538.5
460.798	1543.5
461.018	1573.5
461.238	1520.5
461.458	1538.5
461.678	1518.5
461.898	1614.5
462.118	1629.5
462.338	1667.5
462.558	1688.5
462.777	1791.5
462.997	1903.5
463.217	1991.5
463.437	2008.5
463.657	1911.5
463.876	1815.5
464.096	1829.5
464.316	1834.5
464.536	1812.5
464.755	1767.5
464.975	1683.5
465.195	1592.5
465.414	1490.5
465.634	1439.5
465.854	1352.5
466.073	1327.5
466.293	1308.5
466.512	1295.5
466.732	1269.5
466.951	1235.5
467.171	1256.5
467.391	1265.5
467.61	1249.5
467.829	1230.5
468.049	1226.5
468.268	1196.5
468.488	1163.5
468.707	1212.5
468.927	1207.5
469.146	1185.5
469.365	1226.5
469.585	1232.5
469.804	1254.5
470.023	1266.5
470.243	1295.5
470.462	1329.5
470.681	1300.5
470.901	1289.5
471.12	1274.5
471.339	1253.5
471.558	1220.5
471.777	1205.5
471.997	1202.5
472.216	1177.5
472.435	1215.5
472.654	1174.5
472.873	1168.5
473.092	1160.5
473.311	1165.5
473.53	1163.5
473.749	1146.5
473.968	1191.5
474.187	1155.5
474.406	1171.5
474.625	1162.5
474.844	1150.5
475.063	1190.5
475.282	1179.5
475.501	1143.5
475.72	1164.5
475.939	1201.5
476.158	1180.5
476.377	1185.5
476.596	1216.5
476.814	1239.5
477.033	1208.5
477.252	1247.5
477.471	1288.5
477.69	1328.5
477.908	1339.5
478.127	1387.5
478.346	1414.5
478.564	1443.5
478.783	1442.5
479.002	1457.5
479.22	1465.5
479.439	1445.5
479.658	1460.5
479.876	1483.5
480.095	1515.5
480.313	1508.5
480.532	1598.5
480.751	1574.5
480.969	1525.5
481.188	1470.5
481.406	1444.5
481.624	1381.5
481.843	1377.5
482.061	1359.5
482.28	1370.5
482.498	1339.5
482.717	1327.5
482.935	1337.5
483.153	1320.5
483.372	1343.5
483.59	1369.5
483.808	1315.5
484.027	1354.5
484.245	1334.5
484.463	1364.5
484.681	1389.5
484.9	1386.5
485.118	1395.5
485.336	1378.5
485.554	1402.5
485.772	1410.5
485.99	1446.5
486.209	1418.5
486.427	1431.5
486.645	1404.5
486.863	1401.5
487.081	1411.5
487.299	1414.5
487.517	1388.5
487.735	1411.5
487.953	1399.5
488.171	1407.5
488.389	1392.5
488.607	1383.5
488.825	1399.5
489.043	1394.5
489.261	1384.5
489.479	1406.5
489.696	1394.5
489.914	1407.5
490.132	1436.5
490.35	1422.5
490.568	1417.5
490.786	1424.5
491.003	1443.5
491.221	1429.5
491.439	1416.5
491.657	1433.5
491.874	1429.5
492.092	1424.5
492.31	1416.5
492.527	1469.5
492.745	1454.5
492.963	1439.5
493.18	1475.5
493.398	1476.5
493.615	1492.5
493.833	1460.5
494.05	1494.5
494.268	1466.5
494.485	1509.5
494.703	1528.5
494.92	1511.5
495.138	1498.5
495.355	1518.5
495.573	1542.5
495.79	1545.5
496.008	1536.5
496.225	1564.5
496.442	1560.5
496.66	1585.5
496.877	1614.5
497.094	1607.5
497.312	1656.5
497.529	1704.5
497.746	1740.5
497.963	1796.5
498.181	1886.5
498.398	2028.5
498.615	2084.5
498.832	2262.5
499.049	2414.5
499.267	2631.5
499.484	2922.5
499.701	3154.5
499.918	3516.5
500.135	3891.5
500.352	4318.5
500.569	4464.5
500.786	4469.5
501.003	4227.5
501.22	3840.5
501.437	3528.5
501.654	3166.5
501.871	2879.5
502.088	2606.5
502.305	2469.5
502.522	2279.5
502.739	2168.5
502.956	2054.5
503.172	1954.5
503.389	1886.5
503.606	1817.5
503.823	1786.5
504.04	1805.5
504.256	1798.5
504.473	1854.5
504.69	1849.5
504.907	1822.5
505.123	1691.5
505.34	1615.5
505.557	1539.5
505.773	1540.5
505.99	1458.5
506.207	1411.5
506.423	1408.5
506.64	1376.5
506.856	1363.5
507.073	1344.5
507.289	1381.5
507.506	1313.5
507.722	1281.5
507.939	1300.5
508.155	1293.5
508.372	1288.5
508.588	1292.5
508.805	1260.5
509.021	1265.5
509.238	1253.5
509.454	1238.5
509.67	1223.5
509.887	1222.5
510.103	1228.5
510.319	1215.5
510.536	1222.5
510.752	1206.5
510.968	1214.5
511.184	1215.5
511.401	1204.5
511.617	1211.5
511.833	1187.5
512.049	1183.5
512.265	1210.5
512.481	1179.5
512.698	1178.5
512.914	1188.5
513.13	1198.5
513.346	1198.5
513.562	1182.5
513.778	1206.5
513.994	1206.5
514.21	1192.5
514.426	1206.5
514.642	1234.5
514.858	1234.5
515.074	1262.5
515.29	1267.5
515.506	1262.5
515.721	1304.5
515.937	1303.5
516.153	1326.5
516.369	1378.5
516.585	1407.5
516.801	1442.5
517.016	1507.5
517.232	1575.5
517.448	1646.5
517.664	1689.5
517.879	1736.5
518.095	1658.5
518.311	1704.5
518.527	1594.5
518.742	1541.5
518.958	1511.5
519.173	1432.5
519.389	1403.5
519.605	1338.5
519.82	1300.5
520.036	1272.5
520.251	1250.5
520.467	1236.5
520.682	1204.5
520.898	1221.5
521.113	1207.5
521.329	1153.5
521.544	1156.5
521.76	1139.5
521.975	1131.5
522.19	1130.5
522.406	1144.5
522.621	1139.5
522.836	1119.5
523.052	1122.5
523.267	1107.5
523.482	1110.5
523.698	1135.5
523.913	1112.5
524.128	1128.5
524.343	1100.5
524.559	1092.5
524.774	1101.5
524.989	1113.5
525.204	1087.5
525.419	1079.5
525.634	1081.5
525.849	1088.5
526.064	1096.5
526.28	1075.5
526.495	1114.5
526.71	1098.5
526.925	1075.5
527.14	1082.5
527.355	1070.5
527.57	1073.5
527.785	1076.5
527.999	1109.5
528.214	1053.5
528.429	1074.5
528.644	1076.5
528.859	1096.5
529.074	1082.5
529.289	1044.5
529.503	1093.5
529.718	1084.5
529.933	1061.5
530.148	1064.5
530.363	1081.5
530.577	1070.5
530.792	1083.5
531.007	1066.5
531.221	1060.5
531.436	1041.5
531.651	1078.5
531.865	1072.5
532.08	1109.5
532.295	1082.5
532.509	1087.5
532.724	1088.5
532.938	1095.5
533.153	1080.5
533.367	1062.5
533.582	1090.5
533.796	1050.5
534.011	1056.5
534.225	1059.5
534.44	1048.5
534.654	1054.5
534.868	1068.5
535.083	1023.5
535.297	996.5
535.511	1028.5
535.726	1036.5
535.94	1014.5
536.154	1018.5
536.369	1029.5
536.583	973.5
536.797	991.5
537.011	982.5
537.225	964.5
537.44	1020.5
537.654	983.5
537.868	970.5
538.082	975.5
538.296	979.5
538.51	966.5
538.724	960.5
538.938	970.5
539.153	962.5
539.367	973.5
539.581	971.5
539.795	976.5
540.009	959.5
540.222	958.5
540.436	966.5
540.65	958.5
540.864	970.5
541.078	960.5
541.292	940.5
541.506	972.5
541.72	938.5
541.934	948.5
542.147	984.5
542.361	964.5
542.575	942.5
542.789	948.5
543.002	942.5
543.216	967.5
543.43	928.5
543.644	946.5
543.857	952.5
544.071	971.5
544.285	976.5
544.498	942.5
544.712	934.5
544.925	992.5
545.139	958.5
545.352	980.5
545.566	984.5
545.779	983.5
545.993	966.5
546.206	985.5
546.42	987.5
546.633	973.5
546.847	957.5
547.06	989.5
547.274	946.5
547.487	987.5
547.7	983.5
547.914	988.5
548.127	963.5
548.34	976.5
548.554	991.5
548.767	969.5
548.98	973.5
549.193	1005.5
549.407	999.5
549.62	1019.5
549.833	1040.5
550.046	978.5
550.259	1006.5
550.473	978.5
550.686	980.5
550.899	970.5
551.112	965.5
551.325	979.5
551.538	963.5
551.751	962.5
551.964	975.5
552.177	977.5
552.39	1011.5
552.603	1038.5
552.816	1029.5
553.029	1088.5
553.242	1102.5
553.455	1091.5
553.667	1060.5
553.88	1079.5
554.093	1053.5
554.306	985.5
554.519	982.5
554.732	977.5
554.944	967.5
555.157	933.5
555.37	888.5
555.583	918.5
555.795	902.5
556.008	880.5
556.221	863.5
556.433	886.5
556.646	852.5
556.859	863.5
557.071	866.5
557.284	838.5
557.496	856.5
557.709	843.5
557.921	829.5
558.134	834.5
558.346	814.5
558.559	836.5
558.771	826.5
558.984	812.5
559.196	825.5
559.409	806.5
559.621	820.5
559.833	792.5
560.046	797.5
560.258	796.5
560.47	800.5
560.683	792.5
560.895	783.5
561.107	798.5
561.32	810.5
561.532	799.5
561.744	810.5
561.956	790.5
562.168	779.5
562.381	797.5
562.593	823.5
562.805	807.5
563.017	829.5
563.229	807.5
563.441	828.5
563.653	812.5
563.865	828.5
564.077	832.5
564.289	863.5
564.501	878.5
564.713	889.5
564.925	896.5
565.137	885.5
565.349	918.5
565.561	966.5
565.773	990.5
565.985	1057.5
566.197	1087.5
566.408	1143.5
566.62	1250.5
566.832	1338.5
567.044	1302.5
567.255	1366.5
567.467	1414.5
567.679	1487.5
567.891	1539.5
568.102	1556.5
568.314	1488.5
568.526	1352.5
568.737	1254.5
568.949	1167.5
569.161	1076.5
569.372	1006.5
569.584	954.5
569.795	917.5
570.007	888.5
570.218	866.5
570.43	877.5
570.641	847.5
570.853	827.5
571.064	874.5
571.276	849.5
571.487	808.5
571.698	797.5
571.91	762.5
572.121	757.5
572.333	729.5
572.544	718.5
572.755	710.5
572.966	698.5
573.178	714.5
573.389	686.5
573.6	683.5
573.811	668.5
574.023	638.5
574.234	676.5
574.445	654.5
574.656	687.5
574.867	667.5
575.078	651.5
575.289	648.5
575.501	622.5
575.712	630.5
575.923	638.5
576.134	621.5
576.345	616.5
576.556	628.5
576.767	624.5
576.978	620.5
577.188	612.5
577.399	600.5
577.61	609.5
577.821	618.5
578.032	604.5
578.243	595.5
578.454	598.5
578.665	613.5
578.875	589.5
579.086	590.5
579.297	573.5
579.508	587.5
579.718	578.5
579.929	583.5
580.14	558.5
580.35	570.5
580.561	581.5
580.772	574.5
580.982	549.5
581.193	542.5
581.403	580.5
581.614	566.5
581.825	568.5
582.035	566.5
582.246	535.5
582.456	542.5
582.667	543.5
582.877	533.5
583.087	557.5
583.298	538.5
583.508	537.5
583.719	544.5
583.929	558.5
584.139	531.5
584.35	540.5
584.56	549.5
584.77	523.5
584.981	527.5
585.191	521.5
585.401	518.5
585.611	532.5
585.821	521.5
586.032	522.5
586.242	538.5
586.452	516.5
586.662	503.5
586.872	506.5
587.082	507.5
587.292	547.5
587.502	536.5
587.713	512.5
587.923	539.5
588.133	512.5
588.343	517.5
588.553	518.5
588.762	530.5
588.972	499.5
589.182	546.5
589.392	547.5
589.602	537.5
589.812	532.5
590.022	532.5
590.232	510.5
590.441	510.5
590.651	563.5
590.861	534.5
591.071	536.5
591.281	556.5
591.49	558.5
591.7	556.5
591.91	583.5
592.119	588.5
592.329	582.5
592.539	617.5
592.748	622.5
592.958	620.5
593.167	660.5
593.377	674.5
593.587	643.5
593.796	677.5
594.006	673.5
594.215	683.5
594.424	682.5
594.634	661.5
594.843	672.5
595.053	615.5
595.262	603.5
595.472	580.5
595.681	560.5
595.89	545.5
596.1	530.5
596.309	543.5
596.518	505.5
596.727	501.5
596.937	497.5
597.146	478.5
597.355	485.5
597.564	484.5
597.774	485.5
597.983	442.5
598.192	471.5
598.401	452.5
598.61	448.5
598.819	449.5
599.028	434.5
599.237	430.5
599.446	447.5
599.655	440.5
599.864	456.5
600.073	451.5
600.282	441.5
600.491	431.5
600.7	423.5
600.909	411.5
601.118	411.5
601.327	425.5
601.536	414.5
601.745	410.5
601.953	423.5
602.162	404.5
602.371	395.5
602.58	413.5
602.789	424.5
602.997	409.5
603.206	415.5
603.415	412.5
603.623	405.5
603.832	418.5
604.041	395.5
604.249	392.5
604.458	406.5
604.666	388.5
604.875	387.5
605.084	384.5
605.292	407.5
605.501	390.5
605.709	410.5
605.918	395.5
606.126	391.5
606.334	393.5
606.543	382.5
606.751	396.5
606.96	393.5
607.168	382.5
607.376	380.5
607.585	387.5
607.793	385.5
608.001	364.5
608.21	390.5
608.418	368.5
608.626	386.5
608.834	388.5
609.043	356.5
609.251	374.5
609.459	386.5
609.667	390.5
609.875	369.5
610.083	394.5
610.291	378.5
610.499	359.5
610.707	366.5
610.916	366.5
611.124	356.5
611.332	362.5
611.54	373.5
611.748	359.5
611.955	359.5
612.163	364.5
612.371	368.5
612.579	357.5
612.787	366.5
612.995	363.5
613.203	360.5
613.411	367.5
613.618	380.5
613.826	368.5
614.034	365.5
614.242	366.5
614.449	334.5
614.657	350.5
614.865	355.5
615.072	363.5
615.28	350.5
615.488	355.5
615.695	357.5
615.903	356.5
616.111	344.5
616.318	343.5
616.526	375.5
616.733	366.5
616.941	372.5
617.148	354.5
617.356	362.5
617.563	353.5
617.771	378.5
617.978	352.5
618.185	353.5
618.393	343.5
618.6	359.5
618.807	351.5
619.015	375.5
619.222	361.5
619.429	341.5
619.637	366.5
619.844	366.5
620.051	353.5
620.258	346.5
620.466	344.5
620.673	345.5
620.88	326.5
621.087	332.5
621.294	333.5
621.501	342.5
621.708	341.5
621.915	348.5
622.122	324.5
622.329	325.5
622.536	334.5
622.743	344.5
622.95	322.5
623.157	305.5
623.364	325.5
623.571	322.5
623.778	328.5
623.985	309.5
624.192	314.5
624.399	320.5
624.606	330.5
624.812	309.5
625.019	315.5
625.226	323.5
625.433	306.5
625.639	303.5
625.846	296.5
626.053	302.5
626.259	299.5
626.466	320.5
626.673	310.5
626.879	306.5
627.086	312.5
627.293	307.5
627.499	316.5
627.706	300.5
627.912	319.5
628.119	307.5
628.325	302.5
628.532	293.5
628.738	279.5
628.945	324.5
629.151	314.5
629.357	283.5
629.564	295.5
629.77	295.5
629.976	288.5
630.183	281.5
630.389	281.5
630.595	272.5
630.802	278.5
631.008	278.5
631.214	284.5
631.42	284.5
631.627	267.5
631.833	270.5
632.039	268.5
632.245	275.5
632.451	256.5
632.657	278.5
632.863	265.5
633.069	272.5
633.275	271.5
633.481	260.5
633.688	282.5
633.893	283.5
634.099	265.5
634.305	263.5
634.511	256.5
634.717	264.5
634.923	269.5
635.129	279.5
635.335	251.5
635.541	254.5
635.747	269.5
635.952	255.5
636.158	245.5
636.364	241.5
636.57	255.5
636.775	270.5
636.981	261.5
637.187	254.5
637.392	263.5
637.598	269.5
637.804	266.5
638.009	252.5
638.215	246.5
638.421	242.5
638.626	246.5
638.832	248.5
639.037	228.5
639.243	251.5
639.448	267.5
639.654	243.5
639.859	237.5
640.065	237.5
640.27	243.5
640.475	236.5
640.681	264.5
640.886	238.5
641.091	223.5
641.297	224.5
641.502	220.5
641.707	232.5
641.913	211.5
642.118	240.5
642.323	231.5
642.528	226.5
642.733	234.5
642.939	229.5
643.144	230.5
643.349	230.5
643.554	217.5
643.759	221.5
643.964	220.5
644.169	208.5
644.374	236.5
644.579	235.5
644.784	220.5
644.989	226.5
645.194	215.5
645.399	224.5
645.604	222.5
645.809	229.5
646.014	222.5
646.219	230.5
646.423	212.5
646.628	227.5
646.833	223.5
647.038	229.5
647.243	231.5
647.447	221.5
647.652	211.5
647.857	244.5
648.062	250.5
648.266	248.5
648.471	228.5
648.676	236.5
648.88	238.5
649.085	235.5
649.289	221.5
649.494	225.5
649.698	206.5
649.903	207.5
650.107	213.5
650.312	234.5
650.516	207.5
650.721	203.5
650.925	204.5
651.13	195.5
651.334	204.5
651.539	206.5
651.743	195.5
651.947	190.5
652.152	191.5
652.356	179.5
652.56	179.5
652.764	170.5
652.969	187.5
653.173	181.5
653.377	153.5
653.581	183.5
653.785	159.5
653.99	186.5
654.194	160.5
654.398	175.5
654.602	159.5
654.806	166.5
655.01	183.5
655.214	158.5
655.418	150.5
655.622	158.5
655.826	160.5
656.03	143.5
656.234	170.5
656.438	159.5
656.642	154.5
656.846	147.5
657.049	140.5
657.253	134.5
657.457	136.5
657.661	140.5
657.865	120.5
658.068	124.5
658.272	122.5
658.476	112.5
658.68	123.5
658.883	112.5
659.087	99.5
659.291	114.5
659.494	102.5
659.698	76.5
659.901	106.5
660.105	95.5
660.309	96.5
660.512	91.5
660.716	101.5
660.919	75.5
661.123	91.5
661.326	90.5
661.53	90.5
661.733	91.5
661.936	81.5
662.14	83.5
662.343	66.5
662.546	81.5
662.75	90.5
662.953	82.5
663.156	84.5
663.36	78.5
663.563	82.5
663.766	94.5
663.969	74.5
664.173	73.5
664.376	94.5
664.579	73.5
664.782	93.5
664.985	77.5
665.188	82.5
665.391	76.5
665.594	75.5
665.797	79.5
666	64.5
666.203	72.5
666.406	78.5
666.609	78.5
666.812	87.5
667.015	77.5
667.218	86.5
667.421	64.5
667.624	76.5
667.827	74.5
668.03	71.5
668.232	71.5
668.435	77.5
668.638	67.5
668.841	87.5
669.043	75.5
669.246	84.5
669.449	85.5
669.651	80.5
669.854	72.5
670.057	71.5
670.259	62.5
670.462	78.5
670.665	84.5
670.867	67.5
671.07	72.5
671.272	84.5
671.475	74.5
671.677	78.5
671.88	73.5
672.082	71.5
672.284	75.5
672.487	82.5
672.689	85.5
672.892	71.5
