Data from NiCl2@0.125M.TitratingCurve.Agarose3%dH2O.NegLispCup.LampEnergy10.LIBS07252019_HRD10591_18-28-17-574.txt Node
Date: Thu Jul 25 18:28:17 EDT 2019
User: cochatt
Spectrometer: HR+D1059
Trigger mode: 1
Integration Time (sec): 1.000000E-1
Scans to average: 1
Electric dark correction enabled: true
Nonlinearity correction enabled: false
Boxcar width: 0
XAxis mode: Wavelengths
Number of Pixels in Spectrum: 2048
>>>>>Begin Spectral Data<<<<<
223.165	-15.19
223.4	-15.19
223.635	-15.19
223.869	-17.19
224.104	-25.19
224.338	-15.19
224.573	-9.19
224.808	-27.19
225.042	-1.19
225.277	-15.19
225.511	2.81
225.746	1.81
225.98	0.81
226.215	23.81
226.449	12.81
226.683	18.81
226.918	31.81
227.152	32.81
227.387	35.81
227.621	48.81
227.856	40.81
228.09	44.81
228.324	64.81
228.559	46.81
228.793	82.81
229.027	128.81
229.262	131.81
229.496	124.81
229.73	144.81
229.964	130.81
230.199	147.81
230.433	151.81
230.667	149.81
230.901	160.81
231.136	144.81
231.37	153.81
231.604	150.81
231.838	154.81
232.072	160.81
232.306	183.81
232.541	168.81
232.775	169.81
233.009	177.81
233.243	169.81
233.477	175.81
233.711	189.81
233.945	186.81
234.179	174.81
234.413	176.81
234.647	171.81
234.881	165.81
235.115	170.81
235.349	170.81
235.583	161.81
235.817	170.81
236.051	184.81
236.285	186.81
236.519	175.81
236.753	187.81
236.987	193.81
237.221	184.81
237.455	192.81
237.689	184.81
237.922	188.81
238.156	206.81
238.39	201.81
238.624	197.81
238.858	190.81
239.091	194.81
239.325	208.81
239.559	193.81
239.793	206.81
240.027	209.81
240.26	219.81
240.494	214.81
240.728	231.81
240.961	232.81
241.195	210.81
241.429	251.81
241.662	239.81
241.896	223.81
242.13	231.81
242.363	249.81
242.597	241.81
242.83	228.81
243.064	223.81
243.298	241.81
243.531	254.81
243.765	259.81
243.998	252.81
244.232	262.81
244.465	256.81
244.699	251.81
244.932	281.81
245.166	269.81
245.399	278.81
245.633	267.81
245.866	279.81
246.099	274.81
246.333	264.81
246.566	268.81
246.8	280.81
247.033	271.81
247.266	267.81
247.5	274.81
247.733	280.81
247.966	285.81
248.2	293.81
248.433	279.81
248.666	296.81
248.899	272.81
249.133	314.81
249.366	303.81
249.599	312.81
249.832	295.81
250.066	295.81
250.299	296.81
250.532	304.81
250.765	319.81
250.998	312.81
251.231	291.81
251.465	314.81
251.698	330.81
251.931	339.81
252.164	341.81
252.397	328.81
252.63	332.81
252.863	361.81
253.096	368.81
253.329	345.81
253.562	334.81
253.795	336.81
254.028	322.81
254.261	339.81
254.494	338.81
254.727	354.81
254.96	340.81
255.193	356.81
255.426	345.81
255.659	347.81
255.892	359.81
256.124	354.81
256.357	357.81
256.59	358.81
256.823	357.81
257.056	373.81
257.289	365.81
257.521	378.81
257.754	385.81
257.987	381.81
258.22	382.81
258.452	361.81
258.685	396.81
258.918	394.81
259.151	399.81
259.383	373.81
259.616	382.81
259.849	376.81
260.081	389.81
260.314	386.81
260.547	390.81
260.779	388.81
261.012	379.81
261.244	401.81
261.477	400.81
261.71	398.81
261.942	421.81
262.175	397.81
262.407	421.81
262.64	421.81
262.872	405.81
263.105	403.81
263.337	410.81
263.57	437.81
263.802	403.81
264.035	435.81
264.267	421.81
264.499	408.81
264.732	445.81
264.964	422.81
265.197	426.81
265.429	426.81
265.661	429.81
265.894	432.81
266.126	434.81
266.358	459.81
266.591	425.81
266.823	428.81
267.055	430.81
267.287	449.81
267.52	448.81
267.752	449.81
267.984	438.81
268.216	455.81
268.448	463.81
268.681	462.81
268.913	476.81
269.145	475.81
269.377	462.81
269.609	466.81
269.841	471.81
270.073	482.81
270.306	471.81
270.538	476.81
270.77	467.81
271.002	473.81
271.234	481.81
271.466	474.81
271.698	489.81
271.93	490.81
272.162	487.81
272.394	478.81
272.626	501.81
272.858	489.81
273.09	494.81
273.322	493.81
273.553	496.81
273.785	512.81
274.017	491.81
274.249	503.81
274.481	525.81
274.713	500.81
274.945	505.81
275.176	495.81
275.408	518.81
275.64	527.81
275.872	525.81
276.104	514.81
276.335	528.81
276.567	528.81
276.799	528.81
277.031	551.81
277.262	533.81
277.494	556.81
277.726	526.81
277.957	525.81
278.189	520.81
278.421	529.81
278.652	536.81
278.884	555.81
279.115	550.81
279.347	550.81
279.579	530.81
279.81	575.81
280.042	547.81
280.273	559.81
280.505	566.81
280.736	568.81
280.968	584.81
281.199	560.81
281.431	551.81
281.662	599.81
281.894	575.81
282.125	564.81
282.356	572.81
282.588	584.81
282.819	576.81
283.051	605.81
283.282	592.81
283.513	577.81
283.745	608.81
283.976	624.81
284.207	609.81
284.439	574.81
284.67	621.81
284.901	623.81
285.132	607.81
285.364	593.81
285.595	598.81
285.826	636.81
286.057	614.81
286.288	625.81
286.52	631.81
286.751	607.81
286.982	609.81
287.213	629.81
287.444	622.81
287.675	646.81
287.906	651.81
288.138	652.81
288.369	637.81
288.6	652.81
288.831	657.81
289.062	642.81
289.293	622.81
289.524	647.81
289.755	653.81
289.986	644.81
290.217	640.81
290.448	633.81
290.679	650.81
290.91	658.81
291.141	649.81
291.371	631.81
291.602	661.81
291.833	648.81
292.064	644.81
292.295	661.81
292.526	657.81
292.757	666.81
292.987	653.81
293.218	658.81
293.449	681.81
293.68	683.81
293.91	665.81
294.141	650.81
294.372	679.81
294.603	680.81
294.833	686.81
295.064	696.81
295.295	689.81
295.525	673.81
295.756	649.81
295.987	680.81
296.217	672.81
296.448	682.81
296.679	694.81
296.909	687.81
297.14	694.81
297.37	719.81
297.601	715.81
297.831	700.81
298.062	710.81
298.292	711.81
298.523	757.81
298.753	731.81
298.984	719.81
299.214	725.81
299.445	748.81
299.675	724.81
299.905	744.81
300.136	722.81
300.366	734.81
300.597	751.81
300.827	737.81
301.057	740.81
301.288	762.81
301.518	772.81
301.748	772.81
301.979	766.81
302.209	775.81
302.439	774.81
302.669	757.81
302.9	743.81
303.13	732.81
303.36	756.81
303.59	749.81
303.82	761.81
304.051	760.81
304.281	777.81
304.511	722.81
304.741	748.81
304.971	754.81
305.201	744.81
305.431	740.81
305.661	746.81
305.891	743.81
306.121	726.81
306.352	735.81
306.582	718.81
306.812	741.81
307.042	727.81
307.272	707.81
307.502	753.81
307.731	747.81
307.961	717.81
308.191	710.81
308.421	716.81
308.651	729.81
308.881	710.81
309.111	735.81
309.341	732.81
309.571	734.81
309.8	732.81
310.03	735.81
310.26	744.81
310.49	742.81
310.72	726.81
310.949	734.81
311.179	722.81
311.409	757.81
311.639	758.81
311.868	730.81
312.098	753.81
312.328	767.81
312.557	770.81
312.787	766.81
313.017	769.81
313.246	797.81
313.476	793.81
313.706	802.81
313.935	781.81
314.165	792.81
314.394	776.81
314.624	804.81
314.853	789.81
315.083	789.81
315.312	782.81
315.542	784.81
315.771	782.81
316.001	769.81
316.23	778.81
316.46	747.81
316.689	735.81
316.919	757.81
317.148	782.81
317.377	777.81
317.607	759.81
317.836	764.81
318.065	737.81
318.295	756.81
318.524	784.81
318.753	769.81
318.983	782.81
319.212	741.81
319.441	756.81
319.67	743.81
319.9	751.81
320.129	765.81
320.358	764.81
320.587	764.81
320.816	773.81
321.046	762.81
321.275	772.81
321.504	768.81
321.733	785.81
321.962	790.81
322.191	789.81
322.42	790.81
322.649	776.81
322.878	768.81
323.108	792.81
323.337	793.81
323.566	788.81
323.795	776.81
324.024	796.81
324.253	821.81
324.482	805.81
324.71	813.81
324.939	813.81
325.168	799.81
325.397	806.81
325.626	801.81
325.855	832.81
326.084	854.81
326.313	838.81
326.542	855.81
326.77	854.81
326.999	851.81
327.228	816.81
327.457	828.81
327.686	860.81
327.914	854.81
328.143	834.81
328.372	831.81
328.6	832.81
328.829	845.81
329.058	849.81
329.287	824.81
329.515	827.81
329.744	850.81
329.972	846.81
330.201	863.81
330.43	865.81
330.658	853.81
330.887	864.81
331.115	870.81
331.344	894.81
331.572	902.81
331.801	908.81
332.03	930.81
332.258	944.81
332.486	966.81
332.715	1007.81
332.943	1050.81
333.172	1092.81
333.4	1140.81
333.629	1142.81
333.857	1141.81
334.085	1137.81
334.314	1138.81
334.542	1098.81
334.771	1080.81
334.999	1057.81
335.227	1060.81
335.455	1038.81
335.684	1077.81
335.912	1052.81
336.14	996.81
336.369	1022.81
336.597	1025.81
336.825	1033.81
337.053	1002.81
337.281	1010.81
337.51	949.81
337.738	960.81
337.966	940.81
338.194	922.81
338.422	918.81
338.65	909.81
338.878	901.81
339.106	915.81
339.334	926.81
339.562	882.81
339.79	888.81
340.018	873.81
340.246	858.81
340.474	870.81
340.702	862.81
340.93	905.81
341.158	886.81
341.386	886.81
341.614	875.81
341.842	888.81
342.07	856.81
342.298	886.81
342.526	864.81
342.754	880.81
342.981	880.81
343.209	911.81
343.437	943.81
343.665	981.81
343.893	1054.81
344.12	1107.81
344.348	1070.81
344.576	970.81
344.804	938.81
345.031	940.81
345.259	902.81
345.487	903.81
345.714	884.81
345.942	867.81
346.17	886.81
346.397	866.81
346.625	857.81
346.853	838.81
347.08	867.81
347.308	840.81
347.535	860.81
347.763	856.81
347.99	879.81
348.218	852.81
348.445	861.81
348.673	862.81
348.9	847.81
349.128	848.81
349.355	864.81
349.583	847.81
349.81	828.81
350.037	805.81
350.265	798.81
350.492	806.81
350.72	834.81
350.947	829.81
351.174	825.81
351.402	795.81
351.629	821.81
351.856	808.81
352.083	809.81
352.311	792.81
352.538	798.81
352.765	790.81
352.992	826.81
353.22	804.81
353.447	820.81
353.674	822.81
353.901	816.81
354.128	830.81
354.355	804.81
354.583	815.81
354.81	817.81
355.037	821.81
355.264	817.81
355.491	840.81
355.718	823.81
355.945	826.81
356.172	837.81
356.399	834.81
356.626	835.81
356.853	810.81
357.08	795.81
357.307	820.81
357.534	822.81
357.761	836.81
357.988	837.81
358.215	815.81
358.441	830.81
358.668	831.81
358.895	785.81
359.122	842.81
359.349	824.81
359.576	815.81
359.802	809.81
360.029	834.81
360.256	809.81
360.483	810.81
360.709	820.81
360.936	802.81
361.163	797.81
361.39	821.81
361.616	837.81
361.843	823.81
362.07	832.81
362.296	822.81
362.523	808.81
362.749	816.81
362.976	826.81
363.203	817.81
363.429	797.81
363.656	816.81
363.882	802.81
364.109	844.81
364.335	794.81
364.562	829.81
364.788	833.81
365.015	810.81
365.241	812.81
365.468	791.81
365.694	816.81
365.92	808.81
366.147	813.81
366.373	811.81
366.599	808.81
366.826	807.81
367.052	842.81
367.278	798.81
367.505	805.81
367.731	830.81
367.957	802.81
368.184	848.81
368.41	844.81
368.636	822.81
368.862	852.81
369.089	831.81
369.315	857.81
369.541	837.81
369.767	831.81
369.993	838.81
370.219	838.81
370.445	875.81
370.672	848.81
370.898	876.81
371.124	853.81
371.35	885.81
371.576	896.81
371.802	886.81
372.028	882.81
372.254	893.81
372.48	900.81
372.706	911.81
372.932	940.81
373.158	925.81
373.384	895.81
373.61	892.81
373.835	888.81
374.061	906.81
374.287	902.81
374.513	895.81
374.739	933.81
374.965	969.81
375.191	1016.81
375.416	993.81
375.642	959.81
375.868	932.81
376.094	923.81
376.319	938.81
376.545	927.81
376.771	905.81
376.997	936.81
377.222	897.81
377.448	902.81
377.674	926.81
377.899	920.81
378.125	899.81
378.35	884.81
378.576	885.81
378.802	866.81
379.027	900.81
379.253	903.81
379.478	895.81
379.704	872.81
379.929	858.81
380.155	881.81
380.38	877.81
380.606	873.81
380.831	880.81
381.057	901.81
381.282	902.81
381.507	894.81
381.733	917.81
381.958	908.81
382.184	913.81
382.409	918.81
382.634	927.81
382.86	926.81
383.085	950.81
383.31	980.81
383.535	985.81
383.761	952.81
383.986	1018.81
384.211	1051.81
384.436	1032.81
384.662	1077.81
384.887	1042.81
385.112	1044.81
385.337	1085.81
385.562	1092.81
385.787	1082.81
386.013	1060.81
386.238	1092.81
386.463	1116.81
386.688	1104.81
386.913	1094.81
387.138	1084.81
387.363	1055.81
387.588	1081.81
387.813	1113.81
388.038	1054.81
388.263	1053.81
388.488	1057.81
388.713	1097.81
388.938	1088.81
389.163	1071.81
389.387	1033.81
389.612	1032.81
389.837	1041.81
390.062	1036.81
390.287	1059.81
390.512	1049.81
390.736	1069.81
390.961	1089.81
391.186	1087.81
391.411	1104.81
391.636	1143.81
391.86	1175.81
392.085	1221.81
392.31	1220.81
392.534	1201.81
392.759	1172.81
392.984	1150.81
393.208	1151.81
393.433	1133.81
393.658	1135.81
393.882	1145.81
394.107	1168.81
394.331	1184.81
394.556	1129.81
394.78	1146.81
395.005	1158.81
395.229	1180.81
395.454	1205.81
395.678	1218.81
395.903	1234.81
396.127	1185.81
396.352	1172.81
396.576	1130.81
396.801	1127.81
397.025	1141.81
397.249	1158.81
397.474	1219.81
397.698	1199.81
397.922	1232.81
398.147	1184.81
398.371	1232.81
398.595	1277.81
398.82	1322.81
399.044	1407.81
399.268	1553.81
399.492	1827.81
399.717	2137.81
399.941	2080.81
400.165	1860.81
400.389	1612.81
400.613	1522.81
400.837	1448.81
401.062	1357.81
401.286	1376.81
401.51	1357.81
401.734	1341.81
401.958	1364.81
402.182	1372.81
402.406	1390.81
402.63	1406.81
402.854	1450.81
403.078	1452.81
403.302	1505.81
403.526	1553.81
403.75	1590.81
403.974	1597.81
404.198	1582.81
404.422	1583.81
404.645	1558.81
404.869	1522.81
405.093	1546.81
405.317	1510.81
405.541	1517.81
405.765	1519.81
405.988	1463.81
406.212	1454.81
406.436	1502.81
406.66	1519.81
406.883	1528.81
407.107	1627.81
407.331	1712.81
407.555	1775.81
407.778	1744.81
408.002	1738.81
408.226	1704.81
408.449	1598.81
408.673	1561.81
408.896	1540.81
409.12	1522.81
409.344	1544.81
409.567	1554.81
409.791	1565.81
410.014	1541.81
410.238	1497.81
410.461	1539.81
410.685	1488.81
410.908	1491.81
411.132	1427.81
411.355	1442.81
411.578	1389.81
411.802	1391.81
412.025	1448.81
412.249	1480.81
412.472	1420.81
412.695	1376.81
412.919	1346.81
413.142	1364.81
413.365	1359.81
413.589	1346.81
413.812	1337.81
414.035	1322.81
414.258	1341.81
414.482	1344.81
414.705	1363.81
414.928	1407.81
415.151	1353.81
415.374	1361.81
415.597	1323.81
415.821	1329.81
416.044	1289.81
416.267	1308.81
416.49	1316.81
416.713	1331.81
416.936	1334.81
417.159	1339.81
417.382	1307.81
417.605	1353.81
417.828	1334.81
418.051	1316.81
418.274	1318.81
418.497	1337.81
418.72	1385.81
418.943	1361.81
419.166	1441.81
419.389	1556.81
419.611	1540.81
419.834	1462.81
420.057	1401.81
420.28	1328.81
420.503	1348.81
420.726	1327.81
420.948	1329.81
421.171	1302.81
421.394	1334.81
421.617	1339.81
421.839	1332.81
422.062	1329.81
422.285	1352.81
422.507	1376.81
422.73	1364.81
422.953	1360.81
423.175	1421.81
423.398	1414.81
423.621	1418.81
423.843	1465.81
424.066	1448.81
424.288	1446.81
424.511	1424.81
424.733	1380.81
424.956	1376.81
425.178	1339.81
425.401	1365.81
425.623	1359.81
425.846	1320.81
426.068	1276.81
426.291	1314.81
426.513	1253.81
426.735	1273.81
426.958	1254.81
427.18	1208.81
427.402	1232.81
427.625	1228.81
427.847	1213.81
428.069	1196.81
428.292	1240.81
428.514	1197.81
428.736	1180.81
428.958	1209.81
429.181	1156.81
429.403	1137.81
429.625	1164.81
429.847	1177.81
430.069	1138.81
430.292	1172.81
430.514	1164.81
430.736	1148.81
430.958	1169.81
431.18	1149.81
431.402	1190.81
431.624	1164.81
431.846	1188.81
432.068	1176.81
432.29	1222.81
432.512	1187.81
432.734	1200.81
432.956	1172.81
433.178	1197.81
433.4	1165.81
433.622	1202.81
433.844	1209.81
434.066	1194.81
434.287	1194.81
434.509	1273.81
434.731	1322.81
434.953	1355.81
435.175	1334.81
435.397	1316.81
435.618	1282.81
435.84	1248.81
436.062	1215.81
436.284	1195.81
436.505	1196.81
436.727	1175.81
436.949	1194.81
437.17	1197.81
437.392	1206.81
437.614	1178.81
437.835	1124.81
438.057	1135.81
438.278	1107.81
438.5	1119.81
438.721	1160.81
438.943	1158.81
439.165	1156.81
439.386	1177.81
439.608	1212.81
439.829	1201.81
440.05	1168.81
440.272	1207.81
440.493	1201.81
440.715	1209.81
440.936	1217.81
441.158	1257.81
441.379	1285.81
441.6	1328.81
441.822	1374.81
442.043	1376.81
442.264	1336.81
442.486	1305.81
442.707	1305.81
442.928	1296.81
443.149	1345.81
443.371	1319.81
443.592	1317.81
443.813	1338.81
444.034	1382.81
444.255	1449.81
444.476	1488.81
444.698	1583.81
444.919	1649.81
445.14	1690.81
445.361	1510.81
445.582	1394.81
445.803	1324.81
446.024	1289.81
446.245	1222.81
446.466	1228.81
446.687	1212.81
446.908	1218.81
447.129	1155.81
447.35	1182.81
447.571	1157.81
447.792	1126.81
448.013	1147.81
448.234	1121.81
448.455	1087.81
448.675	1107.81
448.896	1093.81
449.117	1083.81
449.338	1092.81
449.559	1072.81
449.779	1080.81
450	1094.81
450.221	1111.81
450.442	1113.81
450.662	1087.81
450.883	1127.81
451.104	1167.81
451.324	1108.81
451.545	1124.81
451.766	1142.81
451.986	1104.81
452.207	1086.81
452.428	1119.81
452.648	1112.81
452.869	1069.81
453.089	1088.81
453.31	1100.81
453.53	1073.81
453.751	1076.81
453.971	1066.81
454.192	1071.81
454.412	1041.81
454.633	1037.81
454.853	1037.81
455.073	1034.81
455.294	1035.81
455.514	1009.81
455.734	1007.81
455.955	1003.81
456.175	1041.81
456.395	997.81
456.616	986.81
456.836	1033.81
457.056	1003.81
457.276	1011.81
457.497	1029.81
457.717	1038.81
457.937	1042.81
458.157	1077.81
458.377	1052.81
458.598	1081.81
458.818	1116.81
459.038	1152.81
459.258	1178.81
459.478	1222.81
459.698	1237.81
459.918	1233.81
460.138	1309.81
460.358	1404.81
460.578	1416.81
460.798	1456.81
461.018	1470.81
461.238	1452.81
461.458	1431.81
461.678	1409.81
461.898	1454.81
462.118	1418.81
462.338	1495.81
462.558	1524.81
462.777	1598.81
462.997	1750.81
463.217	1944.81
463.437	1947.81
463.657	1786.81
463.876	1709.81
464.096	1712.81
464.316	1680.81
464.536	1658.81
464.755	1609.81
464.975	1567.81
465.195	1499.81
465.414	1409.81
465.634	1308.81
465.854	1247.81
466.073	1231.81
466.293	1204.81
466.512	1196.81
466.732	1164.81
466.951	1135.81
467.171	1135.81
467.391	1157.81
467.61	1126.81
467.829	1171.81
468.049	1148.81
468.268	1120.81
468.488	1085.81
468.707	1046.81
468.927	1089.81
469.146	1079.81
469.365	1084.81
469.585	1117.81
469.804	1142.81
470.023	1180.81
470.243	1168.81
470.462	1184.81
470.681	1189.81
470.901	1196.81
471.12	1147.81
471.339	1134.81
471.558	1114.81
471.777	1121.81
471.997	1102.81
472.216	1092.81
472.435	1087.81
472.654	1089.81
472.873	1089.81
473.092	1040.81
473.311	1063.81
473.53	1082.81
473.749	1058.81
473.968	1080.81
474.187	1058.81
474.406	1057.81
474.625	1091.81
474.844	1057.81
475.063	1061.81
475.282	1073.81
475.501	1064.81
475.72	1061.81
475.939	1091.81
476.158	1110.81
476.377	1120.81
476.596	1104.81
476.814	1142.81
477.033	1161.81
477.252	1158.81
477.471	1202.81
477.69	1213.81
477.908	1222.81
478.127	1261.81
478.346	1284.81
478.564	1296.81
478.783	1329.81
479.002	1374.81
479.22	1344.81
479.439	1332.81
479.658	1314.81
479.876	1342.81
480.095	1357.81
480.313	1402.81
480.532	1446.81
480.751	1407.81
480.969	1386.81
481.188	1343.81
481.406	1275.81
481.624	1231.81
481.843	1232.81
482.061	1229.81
482.28	1232.81
482.498	1202.81
482.717	1199.81
482.935	1200.81
483.153	1241.81
483.372	1208.81
483.59	1197.81
483.808	1212.81
484.027	1220.81
484.245	1267.81
484.463	1224.81
484.681	1294.81
484.9	1256.81
485.118	1242.81
485.336	1245.81
485.554	1260.81
485.772	1284.81
485.99	1284.81
486.209	1306.81
486.427	1299.81
486.645	1284.81
486.863	1326.81
487.081	1296.81
487.299	1278.81
487.517	1272.81
487.735	1249.81
487.953	1256.81
488.171	1286.81
488.389	1238.81
488.607	1244.81
488.825	1252.81
489.043	1256.81
489.261	1269.81
489.479	1276.81
489.696	1273.81
489.914	1269.81
490.132	1293.81
490.35	1264.81
490.568	1236.81
490.786	1288.81
491.003	1266.81
491.221	1325.81
491.439	1274.81
491.657	1302.81
491.874	1287.81
492.092	1311.81
492.31	1302.81
492.527	1303.81
492.745	1315.81
492.963	1316.81
493.18	1325.81
493.398	1350.81
493.615	1341.81
493.833	1315.81
494.05	1357.81
494.268	1332.81
494.485	1372.81
494.703	1336.81
494.92	1345.81
495.138	1347.81
495.355	1342.81
495.573	1358.81
495.79	1370.81
496.008	1383.81
496.225	1387.81
496.442	1393.81
496.66	1382.81
496.877	1430.81
497.094	1439.81
497.312	1490.81
497.529	1462.81
497.746	1525.81
497.963	1599.81
498.181	1652.81
498.398	1713.81
498.615	1804.81
498.832	1937.81
499.049	2096.81
499.267	2230.81
499.484	2487.81
499.701	2744.81
499.918	3049.81
500.135	3555.81
500.352	4078.81
500.569	4280.81
500.786	4232.81
501.003	3945.81
501.22	3526.81
501.437	3085.81
501.654	2705.81
501.871	2374.81
502.088	2226.81
502.305	2076.81
502.522	1981.81
502.739	1865.81
502.956	1802.81
503.172	1700.81
503.389	1640.81
503.606	1613.81
503.823	1554.81
504.04	1541.81
504.256	1585.81
504.473	1565.81
504.69	1644.81
504.907	1614.81
505.123	1470.81
505.34	1425.81
505.557	1373.81
505.773	1332.81
505.99	1300.81
506.207	1281.81
506.423	1253.81
506.64	1234.81
506.856	1217.81
507.073	1210.81
507.289	1224.81
507.506	1173.81
507.722	1220.81
507.939	1188.81
508.155	1188.81
508.372	1130.81
508.588	1151.81
508.805	1168.81
509.021	1143.81
509.238	1133.81
509.454	1125.81
509.67	1124.81
509.887	1106.81
510.103	1131.81
510.319	1077.81
510.536	1098.81
510.752	1074.81
510.968	1095.81
511.184	1092.81
511.401	1068.81
511.617	1069.81
511.833	1084.81
512.049	1109.81
512.265	1084.81
512.481	1099.81
512.698	1092.81
512.914	1097.81
513.13	1083.81
513.346	1077.81
513.562	1056.81
513.778	1088.81
513.994	1110.81
514.21	1108.81
514.426	1129.81
514.642	1132.81
514.858	1121.81
515.074	1117.81
515.29	1155.81
515.506	1144.81
515.721	1159.81
515.937	1167.81
516.153	1191.81
516.369	1200.81
516.585	1251.81
516.801	1268.81
517.016	1364.81
517.232	1407.81
517.448	1484.81
517.664	1537.81
517.879	1566.81
518.095	1552.81
518.311	1540.81
518.527	1464.81
518.742	1369.81
518.958	1317.81
519.173	1318.81
519.389	1238.81
519.605	1196.81
519.82	1180.81
520.036	1153.81
520.251	1114.81
520.467	1124.81
520.682	1092.81
520.898	1093.81
521.113	1083.81
521.329	1072.81
521.544	1064.81
521.76	1066.81
521.975	1052.81
522.19	1055.81
522.406	1038.81
522.621	1044.81
522.836	1019.81
523.052	1016.81
523.267	1046.81
523.482	1027.81
523.698	1028.81
523.913	1007.81
524.128	1036.81
524.343	1004.81
524.559	986.81
524.774	996.81
524.989	997.81
525.204	990.81
525.419	976.81
525.634	996.81
525.849	1001.81
526.064	990.81
526.28	969.81
526.495	968.81
526.71	969.81
526.925	1008.81
527.14	1011.81
527.355	970.81
527.57	972.81
527.785	1003.81
527.999	999.81
528.214	983.81
528.429	1004.81
528.644	1022.81
528.859	960.81
529.074	957.81
529.289	974.81
529.503	1017.81
529.718	999.81
529.933	986.81
530.148	993.81
530.363	984.81
530.577	955.81
530.792	961.81
531.007	984.81
531.221	987.81
531.436	976.81
531.651	1006.81
531.865	990.81
532.08	980.81
532.295	991.81
532.509	954.81
532.724	993.81
532.938	988.81
533.153	1015.81
533.367	980.81
533.582	969.81
533.796	955.81
534.011	967.81
534.225	972.81
534.44	985.81
534.654	968.81
534.868	983.81
535.083	957.81
535.297	966.81
535.511	957.81
535.726	943.81
535.94	938.81
536.154	951.81
536.369	939.81
536.583	942.81
536.797	945.81
537.011	908.81
537.225	895.81
537.44	885.81
537.654	897.81
537.868	895.81
538.082	879.81
538.296	892.81
538.51	892.81
538.724	887.81
538.938	886.81
539.153	912.81
539.367	902.81
539.581	912.81
539.795	880.81
540.009	878.81
540.222	862.81
540.436	891.81
540.65	902.81
540.864	886.81
541.078	907.81
541.292	903.81
541.506	885.81
541.72	863.81
541.934	879.81
542.147	858.81
542.361	870.81
542.575	853.81
542.789	869.81
543.002	858.81
543.216	892.81
543.43	856.81
543.644	870.81
543.857	873.81
544.071	876.81
544.285	885.81
544.498	870.81
544.712	869.81
544.925	864.81
545.139	894.81
545.352	915.81
545.566	902.81
545.779	926.81
545.993	895.81
546.206	907.81
546.42	900.81
546.633	910.81
546.847	910.81
547.06	885.81
547.274	898.81
547.487	878.81
547.7	900.81
547.914	898.81
548.127	917.81
548.34	893.81
548.554	902.81
548.767	888.81
548.98	919.81
549.193	905.81
549.407	916.81
549.62	926.81
549.833	967.81
550.046	941.81
550.259	900.81
550.473	886.81
550.686	882.81
550.899	886.81
551.112	878.81
551.325	867.81
551.538	870.81
551.751	863.81
551.964	898.81
552.177	899.81
552.39	900.81
552.603	956.81
552.816	957.81
553.029	967.81
553.242	999.81
553.455	996.81
553.667	1002.81
553.88	985.81
554.093	935.81
554.306	913.81
554.519	926.81
554.732	899.81
554.944	888.81
555.157	873.81
555.37	873.81
555.583	839.81
555.795	847.81
556.008	812.81
556.221	774.81
556.433	778.81
556.646	813.81
556.859	782.81
557.071	791.81
557.284	780.81
557.496	778.81
557.709	775.81
557.921	784.81
558.134	751.81
558.346	767.81
558.559	740.81
558.771	768.81
558.984	729.81
559.196	720.81
559.409	749.81
559.621	737.81
559.833	740.81
560.046	746.81
560.258	747.81
560.47	756.81
560.683	724.81
560.895	741.81
561.107	737.81
561.32	712.81
561.532	754.81
561.744	723.81
561.956	728.81
562.168	741.81
562.381	725.81
562.593	718.81
562.805	754.81
563.017	749.81
563.229	753.81
563.441	768.81
563.653	757.81
563.865	761.81
564.077	752.81
564.289	784.81
564.501	779.81
564.713	789.81
564.925	797.81
565.137	801.81
565.349	831.81
565.561	831.81
565.773	893.81
565.985	920.81
566.197	960.81
566.408	1037.81
566.62	1146.81
566.832	1278.81
567.044	1261.81
567.255	1225.81
567.467	1251.81
567.679	1359.81
567.891	1478.81
568.102	1521.81
568.314	1436.81
568.526	1292.81
568.737	1165.81
568.949	1065.81
569.161	982.81
569.372	870.81
569.584	853.81
569.795	843.81
570.007	780.81
570.218	789.81
570.43	762.81
570.641	771.81
570.853	758.81
571.064	785.81
571.276	773.81
571.487	779.81
571.698	720.81
571.91	667.81
572.121	683.81
572.333	674.81
572.544	658.81
572.755	682.81
572.966	646.81
573.178	633.81
573.389	638.81
573.6	628.81
573.811	617.81
574.023	636.81
574.234	631.81
574.445	620.81
574.656	621.81
574.867	632.81
575.078	605.81
575.289	627.81
575.501	620.81
575.712	570.81
575.923	577.81
576.134	588.81
576.345	581.81
576.556	576.81
576.767	597.81
576.978	580.81
577.188	574.81
577.399	568.81
577.61	581.81
577.821	575.81
578.032	562.81
578.243	557.81
578.454	561.81
578.665	536.81
578.875	543.81
579.086	559.81
579.297	554.81
579.508	544.81
579.718	536.81
579.929	531.81
580.14	538.81
580.35	525.81
580.561	552.81
580.772	520.81
580.982	520.81
581.193	543.81
581.403	510.81
581.614	518.81
581.825	513.81
582.035	524.81
582.246	493.81
582.456	518.81
582.667	503.81
582.877	490.81
583.087	520.81
583.298	515.81
583.508	508.81
583.719	513.81
583.929	505.81
584.139	497.81
584.35	518.81
584.56	489.81
584.77	518.81
584.981	492.81
585.191	482.81
585.401	494.81
585.611	489.81
585.821	507.81
586.032	504.81
586.242	520.81
586.452	492.81
586.662	501.81
586.872	493.81
587.082	504.81
587.292	497.81
587.502	506.81
587.713	489.81
587.923	497.81
588.133	498.81
588.343	501.81
588.553	498.81
588.762	481.81
588.972	501.81
589.182	508.81
589.392	492.81
589.602	512.81
589.812	490.81
590.022	497.81
590.232	502.81
590.441	487.81
590.651	486.81
590.861	496.81
591.071	482.81
591.281	502.81
591.49	495.81
591.7	502.81
591.91	536.81
592.119	499.81
592.329	552.81
592.539	573.81
592.748	572.81
592.958	584.81
593.167	618.81
593.377	634.81
593.587	656.81
593.796	648.81
594.006	668.81
594.215	656.81
594.424	671.81
594.634	638.81
594.843	572.81
595.053	557.81
595.262	560.81
595.472	531.81
595.681	509.81
595.89	530.81
596.1	505.81
596.309	477.81
596.518	501.81
596.727	482.81
596.937	463.81
597.146	439.81
597.355	453.81
597.564	447.81
597.774	429.81
597.983	445.81
598.192	436.81
598.401	438.81
598.61	427.81
598.819	438.81
599.028	433.81
599.237	423.81
599.446	422.81
599.655	423.81
599.864	439.81
600.073	426.81
600.282	436.81
600.491	403.81
600.7	417.81
600.909	406.81
601.118	376.81
601.327	415.81
601.536	412.81
601.745	408.81
601.953	423.81
602.162	421.81
602.371	407.81
602.58	396.81
602.789	417.81
602.997	405.81
603.206	399.81
603.415	399.81
603.623	385.81
603.832	401.81
604.041	403.81
604.249	385.81
604.458	412.81
604.666	400.81
604.875	369.81
605.084	378.81
605.292	392.81
605.501	381.81
605.709	378.81
605.918	369.81
606.126	380.81
606.334	389.81
606.543	367.81
606.751	368.81
606.96	389.81
607.168	367.81
607.376	386.81
607.585	390.81
607.793	381.81
608.001	383.81
608.21	376.81
608.418	373.81
608.626	351.81
608.834	367.81
609.043	395.81
609.251	377.81
609.459	365.81
609.667	359.81
609.875	375.81
610.083	361.81
610.291	373.81
610.499	374.81
610.707	369.81
610.916	380.81
611.124	353.81
611.332	368.81
611.54	369.81
611.748	348.81
611.955	365.81
612.163	379.81
612.371	352.81
612.579	375.81
612.787	367.81
612.995	353.81
613.203	333.81
613.411	355.81
613.618	351.81
613.826	364.81
614.034	350.81
614.242	362.81
614.449	342.81
614.657	333.81
614.865	366.81
615.072	354.81
615.28	342.81
615.488	346.81
615.695	365.81
615.903	372.81
616.111	338.81
616.318	374.81
616.526	356.81
616.733	361.81
616.941	348.81
617.148	361.81
617.356	351.81
617.563	343.81
617.771	346.81
617.978	355.81
618.185	362.81
618.393	378.81
618.6	363.81
618.807	345.81
619.015	376.81
619.222	337.81
619.429	346.81
619.637	348.81
619.844	324.81
620.051	335.81
620.258	347.81
620.466	311.81
620.673	324.81
620.88	319.81
621.087	336.81
621.294	328.81
621.501	343.81
621.708	336.81
621.915	318.81
622.122	315.81
622.329	319.81
622.536	333.81
622.743	328.81
622.95	324.81
623.157	314.81
623.364	304.81
623.571	306.81
623.778	319.81
623.985	308.81
624.192	303.81
624.399	305.81
624.606	326.81
624.812	319.81
625.019	301.81
625.226	314.81
625.433	316.81
625.639	294.81
625.846	311.81
626.053	301.81
626.259	302.81
626.466	299.81
626.673	294.81
626.879	301.81
627.086	287.81
627.293	292.81
627.499	279.81
627.706	290.81
627.912	309.81
628.119	294.81
628.325	300.81
628.532	312.81
628.738	290.81
628.945	287.81
629.151	296.81
629.357	293.81
629.564	302.81
629.77	288.81
629.976	277.81
630.183	282.81
630.389	283.81
630.595	271.81
630.802	272.81
631.008	271.81
631.214	274.81
631.42	277.81
631.627	305.81
631.833	270.81
632.039	264.81
632.245	264.81
632.451	264.81
632.657	259.81
632.863	267.81
633.069	280.81
633.275	288.81
633.481	241.81
633.688	252.81
633.893	265.81
634.099	247.81
634.305	258.81
634.511	245.81
634.717	264.81
634.923	256.81
635.129	250.81
635.335	270.81
635.541	235.81
635.747	253.81
635.952	248.81
636.158	229.81
636.364	241.81
636.57	258.81
636.775	254.81
636.981	262.81
637.187	253.81
637.392	234.81
637.598	249.81
637.804	249.81
638.009	246.81
638.215	244.81
638.421	240.81
638.626	260.81
638.832	258.81
639.037	243.81
639.243	242.81
639.448	250.81
639.654	236.81
639.859	225.81
640.065	250.81
640.27	239.81
640.475	242.81
640.681	231.81
640.886	216.81
641.091	218.81
641.297	223.81
641.502	223.81
641.707	226.81
641.913	242.81
642.118	244.81
642.323	231.81
642.528	218.81
642.733	222.81
642.939	223.81
643.144	233.81
643.349	245.81
643.554	232.81
643.759	223.81
643.964	223.81
644.169	231.81
644.374	228.81
644.579	230.81
644.784	230.81
644.989	226.81
645.194	216.81
645.399	233.81
645.604	234.81
645.809	229.81
646.014	237.81
646.219	232.81
646.423	228.81
646.628	240.81
646.833	237.81
647.038	229.81
647.243	222.81
647.447	228.81
647.652	240.81
647.857	251.81
648.062	244.81
648.266	247.81
648.471	258.81
648.676	264.81
648.88	234.81
649.085	230.81
649.289	229.81
649.494	228.81
649.698	224.81
649.903	219.81
650.107	239.81
650.312	229.81
650.516	222.81
650.721	219.81
650.925	220.81
651.13	206.81
651.334	212.81
651.539	190.81
651.743	186.81
651.947	182.81
652.152	197.81
652.356	187.81
652.56	185.81
652.764	186.81
652.969	196.81
653.173	181.81
653.377	180.81
653.581	175.81
653.785	186.81
653.99	169.81
654.194	170.81
654.398	167.81
654.602	170.81
654.806	165.81
655.01	172.81
655.214	151.81
655.418	173.81
655.622	166.81
655.826	170.81
656.03	165.81
656.234	172.81
656.438	155.81
656.642	153.81
656.846	155.81
657.049	156.81
657.253	160.81
657.457	152.81
657.661	131.81
657.865	138.81
658.068	130.81
658.272	119.81
658.476	108.81
658.68	122.81
658.883	134.81
659.087	116.81
659.291	117.81
659.494	123.81
659.698	96.81
659.901	109.81
660.105	105.81
660.309	109.81
660.512	97.81
660.716	117.81
660.919	112.81
661.123	110.81
661.326	103.81
661.53	93.81
661.733	93.81
661.936	96.81
662.14	94.81
662.343	82.81
662.546	102.81
662.75	85.81
662.953	96.81
663.156	89.81
663.36	92.81
663.563	94.81
663.766	90.81
663.969	99.81
664.173	92.81
664.376	100.81
664.579	77.81
664.782	77.81
664.985	93.81
665.188	92.81
665.391	94.81
665.594	74.81
665.797	96.81
666	85.81
666.203	77.81
666.406	88.81
666.609	98.81
666.812	96.81
667.015	87.81
667.218	88.81
667.421	93.81
667.624	76.81
667.827	92.81
668.03	80.81
668.232	89.81
668.435	86.81
668.638	74.81
668.841	77.81
669.043	88.81
669.246	77.81
669.449	82.81
669.651	93.81
669.854	90.81
670.057	94.81
670.259	94.81
670.462	87.81
670.665	85.81
670.867	100.81
671.07	89.81
671.272	107.81
671.475	91.81
671.677	80.81
671.88	90.81
672.082	85.81
672.284	92.81
672.487	90.81
672.689	90.81
672.892	93.81
