Data from NiCl2@0.25M.TitratingCurve.Agarose3%dH2O.NegLispCup.LampEnergy10.LIBS07252019_HRD10591_18-25-09-572.txt Node
Date: Thu Jul 25 18:25:09 EDT 2019
User: cochatt
Spectrometer: HR+D1059
Trigger mode: 1
Integration Time (sec): 1.000000E-1
Scans to average: 1
Electric dark correction enabled: true
Nonlinearity correction enabled: false
Boxcar width: 0
XAxis mode: Wavelengths
Number of Pixels in Spectrum: 2048
>>>>>Begin Spectral Data<<<<<
223.165	-14.44
223.4	-14.44
223.635	-14.44
223.869	-10.44
224.104	-12.44
224.338	-5.44
224.573	-22.44
224.808	-21.44
225.042	-6.44
225.277	-19.44
225.511	-11.44
225.746	11.56
225.98	11.56
226.215	13.56
226.449	13.56
226.683	17.56
226.918	24.56
227.152	31.56
227.387	39.56
227.621	46.56
227.856	35.56
228.09	52.56
228.324	51.56
228.559	57.56
228.793	64.56
229.027	104.56
229.262	114.56
229.496	128.56
229.73	112.56
229.964	131.56
230.199	133.56
230.433	136.56
230.667	137.56
230.901	114.56
231.136	143.56
231.37	141.56
231.604	148.56
231.838	146.56
232.072	155.56
232.306	157.56
232.541	152.56
232.775	158.56
233.009	153.56
233.243	146.56
233.477	155.56
233.711	151.56
233.945	149.56
234.179	142.56
234.413	165.56
234.647	155.56
234.881	154.56
235.115	168.56
235.349	160.56
235.583	156.56
235.817	158.56
236.051	153.56
236.285	152.56
236.519	171.56
236.753	170.56
236.987	158.56
237.221	168.56
237.455	179.56
237.689	180.56
237.922	163.56
238.156	167.56
238.39	177.56
238.624	165.56
238.858	160.56
239.091	166.56
239.325	185.56
239.559	187.56
239.793	190.56
240.027	173.56
240.26	184.56
240.494	194.56
240.728	196.56
240.961	194.56
241.195	203.56
241.429	203.56
241.662	208.56
241.896	197.56
242.13	195.56
242.363	205.56
242.597	203.56
242.83	202.56
243.064	206.56
243.298	215.56
243.531	216.56
243.765	213.56
243.998	218.56
244.232	231.56
244.465	216.56
244.699	213.56
244.932	208.56
245.166	220.56
245.399	232.56
245.633	216.56
245.866	223.56
246.099	252.56
246.333	259.56
246.566	234.56
246.8	245.56
247.033	230.56
247.266	236.56
247.5	247.56
247.733	246.56
247.966	249.56
248.2	246.56
248.433	246.56
248.666	259.56
248.899	269.56
249.133	273.56
249.366	257.56
249.599	248.56
249.832	234.56
250.066	247.56
250.299	269.56
250.532	255.56
250.765	246.56
250.998	259.56
251.231	252.56
251.465	279.56
251.698	287.56
251.931	276.56
252.164	269.56
252.397	265.56
252.63	284.56
252.863	292.56
253.096	287.56
253.329	278.56
253.562	300.56
253.795	296.56
254.028	292.56
254.261	307.56
254.494	298.56
254.727	298.56
254.96	287.56
255.193	284.56
255.426	298.56
255.659	297.56
255.892	321.56
256.124	295.56
256.357	297.56
256.59	307.56
256.823	305.56
257.056	292.56
257.289	312.56
257.521	312.56
257.754	323.56
257.987	345.56
258.22	320.56
258.452	322.56
258.685	335.56
258.918	317.56
259.151	317.56
259.383	327.56
259.616	324.56
259.849	324.56
260.081	336.56
260.314	339.56
260.547	323.56
260.779	344.56
261.012	331.56
261.244	327.56
261.477	340.56
261.71	355.56
261.942	348.56
262.175	344.56
262.407	346.56
262.64	336.56
262.872	332.56
263.105	355.56
263.337	346.56
263.57	376.56
263.802	377.56
264.035	370.56
264.267	361.56
264.499	375.56
264.732	370.56
264.964	345.56
265.197	362.56
265.429	377.56
265.661	382.56
265.894	363.56
266.126	363.56
266.358	380.56
266.591	365.56
266.823	364.56
267.055	387.56
267.287	367.56
267.52	385.56
267.752	381.56
267.984	373.56
268.216	379.56
268.448	375.56
268.681	386.56
268.913	395.56
269.145	411.56
269.377	387.56
269.609	403.56
269.841	400.56
270.073	391.56
270.306	403.56
270.538	412.56
270.77	403.56
271.002	405.56
271.234	392.56
271.466	413.56
271.698	410.56
271.93	403.56
272.162	422.56
272.394	403.56
272.626	408.56
272.858	437.56
273.09	413.56
273.322	414.56
273.553	418.56
273.785	417.56
274.017	427.56
274.249	435.56
274.481	409.56
274.713	443.56
274.945	442.56
275.176	433.56
275.408	419.56
275.64	435.56
275.872	436.56
276.104	449.56
276.335	444.56
276.567	456.56
276.799	454.56
277.031	442.56
277.262	462.56
277.494	461.56
277.726	440.56
277.957	451.56
278.189	451.56
278.421	456.56
278.652	445.56
278.884	461.56
279.115	460.56
279.347	457.56
279.579	467.56
279.81	476.56
280.042	486.56
280.273	476.56
280.505	476.56
280.736	499.56
280.968	489.56
281.199	501.56
281.431	489.56
281.662	504.56
281.894	484.56
282.125	484.56
282.356	521.56
282.588	504.56
282.819	506.56
283.051	504.56
283.282	500.56
283.513	505.56
283.745	518.56
283.976	499.56
284.207	502.56
284.439	490.56
284.67	487.56
284.901	531.56
285.132	517.56
285.364	553.56
285.595	543.56
285.826	500.56
286.057	536.56
286.288	539.56
286.52	542.56
286.751	546.56
286.982	543.56
287.213	530.56
287.444	514.56
287.675	537.56
287.906	548.56
288.138	537.56
288.369	546.56
288.6	543.56
288.831	543.56
289.062	542.56
289.293	568.56
289.524	569.56
289.755	556.56
289.986	524.56
290.217	535.56
290.448	567.56
290.679	521.56
290.91	541.56
291.141	537.56
291.371	552.56
291.602	560.56
291.833	544.56
292.064	530.56
292.295	559.56
292.526	552.56
292.757	576.56
292.987	562.56
293.218	528.56
293.449	583.56
293.68	568.56
293.91	557.56
294.141	566.56
294.372	571.56
294.603	574.56
294.833	550.56
295.064	571.56
295.295	562.56
295.525	557.56
295.756	568.56
295.987	565.56
296.217	580.56
296.448	591.56
296.679	570.56
296.909	570.56
297.14	547.56
297.37	585.56
297.601	599.56
297.831	601.56
298.062	607.56
298.292	625.56
298.523	639.56
298.753	620.56
298.984	600.56
299.214	620.56
299.445	623.56
299.675	623.56
299.905	616.56
300.136	596.56
300.366	600.56
300.597	626.56
300.827	643.56
301.057	630.56
301.288	629.56
301.518	635.56
301.748	635.56
301.979	633.56
302.209	648.56
302.439	639.56
302.669	649.56
302.9	635.56
303.13	625.56
303.36	629.56
303.59	624.56
303.82	648.56
304.051	644.56
304.281	624.56
304.511	639.56
304.741	634.56
304.971	641.56
305.201	616.56
305.431	651.56
305.661	650.56
305.891	648.56
306.121	635.56
306.352	617.56
306.582	628.56
306.812	629.56
307.042	620.56
307.272	634.56
307.502	612.56
307.731	614.56
307.961	620.56
308.191	604.56
308.421	610.56
308.651	634.56
308.881	607.56
309.111	625.56
309.341	622.56
309.571	603.56
309.8	629.56
310.03	632.56
310.26	624.56
310.49	624.56
310.72	624.56
310.949	621.56
311.179	614.56
311.409	619.56
311.639	627.56
311.868	639.56
312.098	637.56
312.328	632.56
312.557	641.56
312.787	655.56
313.017	639.56
313.246	665.56
313.476	668.56
313.706	657.56
313.935	689.56
314.165	673.56
314.394	656.56
314.624	683.56
314.853	690.56
315.083	662.56
315.312	664.56
315.542	667.56
315.771	643.56
316.001	679.56
316.23	661.56
316.46	649.56
316.689	652.56
316.919	649.56
317.148	655.56
317.377	647.56
317.607	645.56
317.836	650.56
318.065	667.56
318.295	661.56
318.524	631.56
318.753	665.56
318.983	650.56
319.212	651.56
319.441	663.56
319.67	648.56
319.9	635.56
320.129	658.56
320.358	639.56
320.587	676.56
320.816	639.56
321.046	641.56
321.275	653.56
321.504	653.56
321.733	647.56
321.962	648.56
322.191	661.56
322.42	650.56
322.649	639.56
322.878	684.56
323.108	657.56
323.337	674.56
323.566	690.56
323.795	665.56
324.024	661.56
324.253	659.56
324.482	666.56
324.71	681.56
324.939	680.56
325.168	682.56
325.397	697.56
325.626	685.56
325.855	686.56
326.084	707.56
326.313	744.56
326.542	717.56
326.77	717.56
326.999	716.56
327.228	697.56
327.457	705.56
327.686	723.56
327.914	726.56
328.143	705.56
328.372	711.56
328.6	714.56
328.829	716.56
329.058	719.56
329.287	703.56
329.515	722.56
329.744	736.56
329.972	728.56
330.201	738.56
330.43	733.56
330.658	753.56
330.887	743.56
331.115	749.56
331.344	745.56
331.572	769.56
331.801	791.56
332.03	805.56
332.258	789.56
332.486	843.56
332.715	895.56
332.943	892.56
333.172	919.56
333.4	953.56
333.629	979.56
333.857	991.56
334.085	971.56
334.314	953.56
334.542	939.56
334.771	924.56
334.999	899.56
335.227	914.56
335.455	903.56
335.684	863.56
335.912	879.56
336.14	885.56
336.369	863.56
336.597	894.56
336.825	863.56
337.053	854.56
337.281	883.56
337.51	828.56
337.738	835.56
337.966	830.56
338.194	785.56
338.422	803.56
338.65	776.56
338.878	785.56
339.106	786.56
339.334	796.56
339.562	743.56
339.79	746.56
340.018	746.56
340.246	735.56
340.474	754.56
340.702	749.56
340.93	748.56
341.158	743.56
341.386	730.56
341.614	737.56
341.842	742.56
342.07	745.56
342.298	743.56
342.526	735.56
342.754	745.56
342.981	744.56
343.209	787.56
343.437	817.56
343.665	841.56
343.893	900.56
344.12	932.56
344.348	915.56
344.576	861.56
344.804	787.56
345.031	793.56
345.259	765.56
345.487	748.56
345.714	767.56
345.942	733.56
346.17	723.56
346.397	731.56
346.625	712.56
346.853	740.56
347.08	715.56
347.308	728.56
347.535	745.56
347.763	745.56
347.99	744.56
348.218	730.56
348.445	729.56
348.673	694.56
348.9	697.56
349.128	755.56
349.355	711.56
349.583	721.56
349.81	711.56
350.037	699.56
350.265	691.56
350.492	717.56
350.72	728.56
350.947	704.56
351.174	714.56
351.402	690.56
351.629	680.56
351.856	703.56
352.083	693.56
352.311	680.56
352.538	701.56
352.765	679.56
352.992	678.56
353.22	677.56
353.447	698.56
353.674	700.56
353.901	706.56
354.128	673.56
354.355	677.56
354.583	696.56
354.81	688.56
355.037	701.56
355.264	695.56
355.491	721.56
355.718	735.56
355.945	708.56
356.172	690.56
356.399	716.56
356.626	715.56
356.853	695.56
357.08	696.56
357.307	693.56
357.534	699.56
357.761	701.56
357.988	710.56
358.215	713.56
358.441	700.56
358.668	724.56
358.895	704.56
359.122	688.56
359.349	708.56
359.576	702.56
359.802	692.56
360.029	728.56
360.256	708.56
360.483	736.56
360.709	697.56
360.936	724.56
361.163	665.56
361.39	696.56
361.616	721.56
361.843	668.56
362.07	717.56
362.296	692.56
362.523	712.56
362.749	708.56
362.976	707.56
363.203	706.56
363.429	687.56
363.656	697.56
363.882	705.56
364.109	691.56
364.335	673.56
364.562	684.56
364.788	681.56
365.015	698.56
365.241	689.56
365.468	703.56
365.694	685.56
365.92	721.56
366.147	698.56
366.373	707.56
366.599	696.56
366.826	693.56
367.052	683.56
367.278	694.56
367.505	719.56
367.731	693.56
367.957	700.56
368.184	713.56
368.41	728.56
368.636	708.56
368.862	685.56
369.089	734.56
369.315	708.56
369.541	717.56
369.767	730.56
369.993	719.56
370.219	725.56
370.445	713.56
370.672	722.56
370.898	760.56
371.124	725.56
371.35	755.56
371.576	761.56
371.802	770.56
372.028	765.56
372.254	778.56
372.48	767.56
372.706	835.56
372.932	784.56
373.158	796.56
373.384	775.56
373.61	752.56
373.835	770.56
374.061	760.56
374.287	762.56
374.513	789.56
374.739	815.56
374.965	855.56
375.191	864.56
375.416	846.56
375.642	817.56
375.868	796.56
376.094	810.56
376.319	766.56
376.545	788.56
376.771	777.56
376.997	766.56
377.222	776.56
377.448	784.56
377.674	769.56
377.899	758.56
378.125	747.56
378.35	727.56
378.576	754.56
378.802	751.56
379.027	737.56
379.253	759.56
379.478	749.56
379.704	777.56
379.929	760.56
380.155	744.56
380.38	749.56
380.606	763.56
380.831	737.56
381.057	759.56
381.282	743.56
381.507	739.56
381.733	776.56
381.958	756.56
382.184	781.56
382.409	809.56
382.634	789.56
382.86	795.56
383.085	789.56
383.31	824.56
383.535	824.56
383.761	840.56
383.986	867.56
384.211	891.56
384.436	884.56
384.662	898.56
384.887	927.56
385.112	912.56
385.337	936.56
385.562	938.56
385.787	916.56
386.013	929.56
386.238	958.56
386.463	949.56
386.688	908.56
386.913	903.56
387.138	893.56
387.363	905.56
387.588	914.56
387.813	903.56
388.038	906.56
388.263	910.56
388.488	893.56
388.713	903.56
388.938	907.56
389.163	882.56
389.387	856.56
389.612	890.56
389.837	905.56
390.062	894.56
390.287	923.56
390.512	880.56
390.736	902.56
390.961	932.56
391.186	930.56
391.411	944.56
391.636	995.56
391.86	1021.56
392.085	1053.56
392.31	1046.56
392.534	1017.56
392.759	1000.56
392.984	970.56
393.208	958.56
393.433	950.56
393.658	958.56
393.882	956.56
394.107	984.56
394.331	962.56
394.556	987.56
394.78	1000.56
395.005	1002.56
395.229	997.56
395.454	1012.56
395.678	1043.56
395.903	1027.56
396.127	1017.56
396.352	988.56
396.576	952.56
396.801	959.56
397.025	984.56
397.249	988.56
397.474	1054.56
397.698	1046.56
397.922	1027.56
398.147	1050.56
398.371	1057.56
398.595	1052.56
398.82	1100.56
399.044	1204.56
399.268	1318.56
399.492	1581.56
399.717	1796.56
399.941	1780.56
400.165	1555.56
400.389	1385.56
400.613	1298.56
400.837	1196.56
401.062	1161.56
401.286	1139.56
401.51	1141.56
401.734	1143.56
401.958	1161.56
402.182	1160.56
402.406	1203.56
402.63	1213.56
402.854	1236.56
403.078	1261.56
403.302	1276.56
403.526	1307.56
403.75	1310.56
403.974	1351.56
404.198	1377.56
404.422	1329.56
404.645	1338.56
404.869	1329.56
405.093	1337.56
405.317	1303.56
405.541	1303.56
405.765	1303.56
405.988	1272.56
406.212	1304.56
406.436	1258.56
406.66	1291.56
406.883	1336.56
407.107	1421.56
407.331	1463.56
407.555	1523.56
407.778	1482.56
408.002	1472.56
408.226	1403.56
408.449	1374.56
408.673	1309.56
408.896	1322.56
409.12	1333.56
409.344	1321.56
409.567	1289.56
409.791	1290.56
410.014	1301.56
410.238	1286.56
410.461	1247.56
410.685	1252.56
410.908	1237.56
411.132	1210.56
411.355	1180.56
411.578	1160.56
411.802	1207.56
412.025	1209.56
412.249	1210.56
412.472	1216.56
412.695	1173.56
412.919	1151.56
413.142	1146.56
413.365	1159.56
413.589	1169.56
413.812	1156.56
414.035	1124.56
414.258	1128.56
414.482	1151.56
414.705	1205.56
414.928	1165.56
415.151	1194.56
415.374	1159.56
415.597	1142.56
415.821	1115.56
416.044	1115.56
416.267	1107.56
416.49	1112.56
416.713	1101.56
416.936	1137.56
417.159	1139.56
417.382	1108.56
417.605	1142.56
417.828	1113.56
418.051	1128.56
418.274	1132.56
418.497	1118.56
418.72	1183.56
418.943	1128.56
419.166	1222.56
419.389	1324.56
419.611	1261.56
419.834	1245.56
420.057	1187.56
420.28	1131.56
420.503	1124.56
420.726	1132.56
420.948	1136.56
421.171	1092.56
421.394	1116.56
421.617	1086.56
421.839	1136.56
422.062	1155.56
422.285	1120.56
422.507	1157.56
422.73	1174.56
422.953	1178.56
423.175	1151.56
423.398	1183.56
423.621	1199.56
423.843	1210.56
424.066	1205.56
424.288	1192.56
424.511	1221.56
424.733	1205.56
424.956	1172.56
425.178	1159.56
425.401	1155.56
425.623	1148.56
425.846	1087.56
426.068	1093.56
426.291	1083.56
426.513	1079.56
426.735	1068.56
426.958	1071.56
427.18	1045.56
427.402	1031.56
427.625	1012.56
427.847	1035.56
428.069	1011.56
428.292	987.56
428.514	1023.56
428.736	1014.56
428.958	979.56
429.181	964.56
429.403	976.56
429.625	964.56
429.847	973.56
430.069	964.56
430.292	978.56
430.514	971.56
430.736	986.56
430.958	947.56
431.18	981.56
431.402	995.56
431.624	990.56
431.846	994.56
432.068	1009.56
432.29	1026.56
432.512	973.56
432.734	1031.56
432.956	992.56
433.178	1004.56
433.4	992.56
433.622	1011.56
433.844	1030.56
434.066	1024.56
434.287	1008.56
434.509	1064.56
434.731	1127.56
434.953	1134.56
435.175	1107.56
435.397	1106.56
435.618	1101.56
435.84	1022.56
436.062	1023.56
436.284	981.56
436.505	992.56
436.727	973.56
436.949	1008.56
437.17	967.56
437.392	979.56
437.614	960.56
437.835	940.56
438.057	985.56
438.278	968.56
438.5	985.56
438.721	936.56
438.943	943.56
439.165	961.56
439.386	943.56
439.608	981.56
439.829	972.56
440.05	993.56
440.272	981.56
440.493	1024.56
440.715	1044.56
440.936	1044.56
441.158	1049.56
441.379	1107.56
441.6	1155.56
441.822	1138.56
442.043	1175.56
442.264	1104.56
442.486	1057.56
442.707	1113.56
442.928	1099.56
443.149	1113.56
443.371	1124.56
443.592	1126.56
443.813	1122.56
444.034	1153.56
444.255	1148.56
444.476	1245.56
444.698	1284.56
444.919	1340.56
445.14	1431.56
445.361	1301.56
445.582	1169.56
445.803	1095.56
446.024	1064.56
446.245	1057.56
446.466	1020.56
446.687	987.56
446.908	969.56
447.129	947.56
447.35	965.56
447.571	930.56
447.792	928.56
448.013	940.56
448.234	905.56
448.455	900.56
448.675	904.56
448.896	918.56
449.117	887.56
449.338	899.56
449.559	915.56
449.779	882.56
450	898.56
450.221	930.56
450.442	901.56
450.662	883.56
450.883	935.56
451.104	947.56
451.324	938.56
451.545	921.56
451.766	971.56
451.986	902.56
452.207	908.56
452.428	910.56
452.648	913.56
452.869	892.56
453.089	885.56
453.31	904.56
453.53	886.56
453.751	880.56
453.971	871.56
454.192	897.56
454.412	868.56
454.633	858.56
454.853	861.56
455.073	864.56
455.294	850.56
455.514	861.56
455.734	859.56
455.955	828.56
456.175	845.56
456.395	863.56
456.616	819.56
456.836	856.56
457.056	869.56
457.276	836.56
457.497	841.56
457.717	848.56
457.937	837.56
458.157	868.56
458.377	875.56
458.598	899.56
458.818	905.56
459.038	962.56
459.258	979.56
459.478	996.56
459.698	1019.56
459.918	1089.56
460.138	1141.56
460.358	1176.56
460.578	1189.56
460.798	1212.56
461.018	1193.56
461.238	1184.56
461.458	1164.56
461.678	1168.56
461.898	1193.56
462.118	1185.56
462.338	1257.56
462.558	1311.56
462.777	1313.56
462.997	1460.56
463.217	1647.56
463.437	1637.56
463.657	1462.56
463.876	1441.56
464.096	1405.56
464.316	1388.56
464.536	1409.56
464.755	1367.56
464.975	1289.56
465.195	1235.56
465.414	1145.56
465.634	1071.56
465.854	1044.56
466.073	1030.56
466.293	978.56
466.512	983.56
466.732	984.56
466.951	976.56
467.171	944.56
467.391	964.56
467.61	973.56
467.829	957.56
468.049	943.56
468.268	940.56
468.488	910.56
468.707	895.56
468.927	923.56
469.146	928.56
469.365	934.56
469.585	927.56
469.804	958.56
470.023	954.56
470.243	1010.56
470.462	1009.56
470.681	991.56
470.901	997.56
471.12	1009.56
471.339	963.56
471.558	896.56
471.777	961.56
471.997	926.56
472.216	940.56
472.435	913.56
472.654	919.56
472.873	915.56
473.092	877.56
473.311	899.56
473.53	885.56
473.749	894.56
473.968	902.56
474.187	893.56
474.406	896.56
474.625	921.56
474.844	882.56
475.063	890.56
475.282	906.56
475.501	924.56
475.72	893.56
475.939	902.56
476.158	915.56
476.377	931.56
476.596	941.56
476.814	929.56
477.033	945.56
477.252	960.56
477.471	985.56
477.69	1042.56
477.908	1050.56
478.127	1046.56
478.346	1069.56
478.564	1098.56
478.783	1093.56
479.002	1154.56
479.22	1129.56
479.439	1107.56
479.658	1090.56
479.876	1108.56
480.095	1136.56
480.313	1171.56
480.532	1251.56
480.751	1236.56
480.969	1156.56
481.188	1125.56
481.406	1081.56
481.624	1077.56
481.843	1039.56
482.061	1037.56
482.28	1033.56
482.498	967.56
482.717	995.56
482.935	1018.56
483.153	1033.56
483.372	996.56
483.59	1034.56
483.808	1034.56
484.027	1017.56
484.245	1017.56
484.463	1034.56
484.681	1050.56
484.9	1034.56
485.118	1072.56
485.336	1037.56
485.554	1061.56
485.772	1074.56
485.99	1047.56
486.209	1062.56
486.427	1068.56
486.645	1078.56
486.863	1050.56
487.081	1105.56
487.299	1100.56
487.517	1066.56
487.735	1066.56
487.953	1084.56
488.171	1076.56
488.389	1040.56
488.607	1056.56
488.825	1039.56
489.043	1041.56
489.261	1058.56
489.479	1036.56
489.696	1053.56
489.914	1071.56
490.132	1071.56
490.35	1087.56
490.568	1063.56
490.786	1073.56
491.003	1087.56
491.221	1102.56
491.439	1106.56
491.657	1095.56
491.874	1081.56
492.092	1094.56
492.31	1084.56
492.527	1110.56
492.745	1131.56
492.963	1084.56
493.18	1107.56
493.398	1111.56
493.615	1157.56
493.833	1114.56
494.05	1144.56
494.268	1131.56
494.485	1165.56
494.703	1143.56
494.92	1132.56
495.138	1141.56
495.355	1116.56
495.573	1146.56
495.79	1170.56
496.008	1165.56
496.225	1173.56
496.442	1183.56
496.66	1185.56
496.877	1194.56
497.094	1187.56
497.312	1258.56
497.529	1289.56
497.746	1299.56
497.963	1363.56
498.181	1393.56
498.398	1435.56
498.615	1546.56
498.832	1675.56
499.049	1794.56
499.267	1958.56
499.484	2165.56
499.701	2348.56
499.918	2667.56
500.135	3075.56
500.352	3556.56
500.569	3755.56
500.786	3601.56
501.003	3408.56
501.22	2993.56
501.437	2673.56
501.654	2297.56
501.871	2063.56
502.088	1874.56
502.305	1767.56
502.522	1676.56
502.739	1619.56
502.956	1531.56
503.172	1441.56
503.389	1382.56
503.606	1319.56
503.823	1299.56
504.04	1298.56
504.256	1355.56
504.473	1356.56
504.69	1386.56
504.907	1371.56
505.123	1271.56
505.34	1186.56
505.557	1138.56
505.773	1138.56
505.99	1099.56
506.207	1042.56
506.423	1065.56
506.64	1033.56
506.856	1055.56
507.073	1033.56
507.289	1030.56
507.506	1012.56
507.722	989.56
507.939	1005.56
508.155	985.56
508.372	976.56
508.588	965.56
508.805	951.56
509.021	959.56
509.238	944.56
509.454	945.56
509.67	951.56
509.887	926.56
510.103	938.56
510.319	933.56
510.536	931.56
510.752	949.56
510.968	923.56
511.184	920.56
511.401	945.56
511.617	911.56
511.833	905.56
512.049	920.56
512.265	929.56
512.481	913.56
512.698	915.56
512.914	902.56
513.13	927.56
513.346	912.56
513.562	898.56
513.778	937.56
513.994	927.56
514.21	919.56
514.426	938.56
514.642	936.56
514.858	951.56
515.074	966.56
515.29	956.56
515.506	959.56
515.721	957.56
515.937	975.56
516.153	1022.56
516.369	1047.56
516.585	1087.56
516.801	1100.56
517.016	1152.56
517.232	1222.56
517.448	1283.56
517.664	1310.56
517.879	1303.56
518.095	1337.56
518.311	1301.56
518.527	1205.56
518.742	1189.56
518.958	1141.56
519.173	1093.56
519.389	1048.56
519.605	1027.56
519.82	1025.56
520.036	960.56
520.251	935.56
520.467	938.56
520.682	928.56
520.898	934.56
521.113	930.56
521.329	900.56
521.544	879.56
521.76	927.56
521.975	887.56
522.19	890.56
522.406	892.56
522.621	859.56
522.836	854.56
523.052	867.56
523.267	873.56
523.482	852.56
523.698	867.56
523.913	834.56
524.128	852.56
524.343	856.56
524.559	849.56
524.774	851.56
524.989	863.56
525.204	852.56
525.419	827.56
525.634	842.56
525.849	837.56
526.064	825.56
526.28	845.56
526.495	815.56
526.71	843.56
526.925	801.56
527.14	831.56
527.355	827.56
527.57	806.56
527.785	847.56
527.999	808.56
528.214	817.56
528.429	824.56
528.644	849.56
528.859	825.56
529.074	830.56
529.289	811.56
529.503	828.56
529.718	831.56
529.933	802.56
530.148	847.56
530.363	849.56
530.577	831.56
530.792	825.56
531.007	826.56
531.221	823.56
531.436	812.56
531.651	823.56
531.865	826.56
532.08	854.56
532.295	818.56
532.509	812.56
532.724	829.56
532.938	813.56
533.153	828.56
533.367	840.56
533.582	838.56
533.796	824.56
534.011	823.56
534.225	796.56
534.44	839.56
534.654	842.56
534.868	804.56
535.083	799.56
535.297	807.56
535.511	800.56
535.726	801.56
535.94	775.56
536.154	791.56
536.369	775.56
536.583	770.56
536.797	765.56
537.011	769.56
537.225	761.56
537.44	764.56
537.654	763.56
537.868	752.56
538.082	735.56
538.296	765.56
538.51	769.56
538.724	772.56
538.938	752.56
539.153	761.56
539.367	776.56
539.581	757.56
539.795	747.56
540.009	749.56
540.222	741.56
540.436	724.56
540.65	739.56
540.864	749.56
541.078	729.56
541.292	737.56
541.506	690.56
541.72	733.56
541.934	756.56
542.147	758.56
542.361	744.56
542.575	737.56
542.789	723.56
543.002	727.56
543.216	722.56
543.43	742.56
543.644	708.56
543.857	751.56
544.071	729.56
544.285	721.56
544.498	740.56
544.712	755.56
544.925	753.56
545.139	735.56
545.352	759.56
545.566	756.56
545.779	773.56
545.993	800.56
546.206	768.56
546.42	742.56
546.633	755.56
546.847	741.56
547.06	767.56
547.274	773.56
547.487	744.56
547.7	746.56
547.914	746.56
548.127	740.56
548.34	752.56
548.554	746.56
548.767	767.56
548.98	744.56
549.193	780.56
549.407	753.56
549.62	793.56
549.833	782.56
550.046	778.56
550.259	779.56
550.473	768.56
550.686	775.56
550.899	744.56
551.112	739.56
551.325	729.56
551.538	728.56
551.751	745.56
551.964	751.56
552.177	773.56
552.39	739.56
552.603	759.56
552.816	814.56
553.029	826.56
553.242	835.56
553.455	834.56
553.667	866.56
553.88	823.56
554.093	807.56
554.306	792.56
554.519	777.56
554.732	754.56
554.944	706.56
555.157	728.56
555.37	700.56
555.583	700.56
555.795	700.56
556.008	705.56
556.221	689.56
556.433	687.56
556.646	663.56
556.859	675.56
557.071	656.56
557.284	659.56
557.496	662.56
557.709	649.56
557.921	648.56
558.134	647.56
558.346	649.56
558.559	635.56
558.771	641.56
558.984	638.56
559.196	632.56
559.409	612.56
559.621	632.56
559.833	627.56
560.046	629.56
560.258	604.56
560.47	633.56
560.683	604.56
560.895	587.56
561.107	611.56
561.32	610.56
561.532	614.56
561.744	629.56
561.956	629.56
562.168	635.56
562.381	621.56
562.593	612.56
562.805	609.56
563.017	619.56
563.229	620.56
563.441	638.56
563.653	631.56
563.865	653.56
564.077	641.56
564.289	637.56
564.501	632.56
564.713	660.56
564.925	667.56
565.137	705.56
565.349	693.56
565.561	693.56
565.773	729.56
565.985	788.56
566.197	823.56
566.408	868.56
566.62	947.56
566.832	1055.56
567.044	1045.56
567.255	1046.56
567.467	1110.56
567.679	1155.56
567.891	1247.56
568.102	1248.56
568.314	1192.56
568.526	1068.56
568.737	949.56
568.949	869.56
569.161	823.56
569.372	772.56
569.584	680.56
569.795	695.56
570.007	674.56
570.218	659.56
570.43	666.56
570.641	661.56
570.853	646.56
571.064	673.56
571.276	625.56
571.487	617.56
571.698	609.56
571.91	574.56
572.121	573.56
572.333	581.56
572.544	547.56
572.755	540.56
572.966	532.56
573.178	510.56
573.389	523.56
573.6	521.56
573.811	529.56
574.023	504.56
574.234	516.56
574.445	514.56
574.656	526.56
574.867	508.56
575.078	550.56
575.289	498.56
575.501	491.56
575.712	474.56
575.923	456.56
576.134	483.56
576.345	485.56
576.556	496.56
576.767	481.56
576.978	476.56
577.188	475.56
577.399	481.56
577.61	503.56
577.821	467.56
578.032	461.56
578.243	447.56
578.454	461.56
578.665	460.56
578.875	443.56
579.086	453.56
579.297	447.56
579.508	448.56
579.718	445.56
579.929	432.56
580.14	451.56
580.35	454.56
580.561	435.56
580.772	436.56
580.982	421.56
581.193	427.56
581.403	443.56
581.614	462.56
581.825	431.56
582.035	455.56
582.246	439.56
582.456	423.56
582.667	447.56
582.877	408.56
583.087	409.56
583.298	429.56
583.508	437.56
583.719	438.56
583.929	431.56
584.139	413.56
584.35	411.56
584.56	413.56
584.77	405.56
584.981	406.56
585.191	405.56
585.401	435.56
585.611	426.56
585.821	411.56
586.032	410.56
586.242	419.56
586.452	424.56
586.662	420.56
586.872	395.56
587.082	398.56
587.292	392.56
587.502	408.56
587.713	387.56
587.923	408.56
588.133	407.56
588.343	388.56
588.553	429.56
588.762	418.56
588.972	402.56
589.182	432.56
589.392	411.56
589.602	406.56
589.812	407.56
590.022	393.56
590.232	420.56
590.441	417.56
590.651	416.56
590.861	429.56
591.071	417.56
591.281	418.56
591.49	411.56
591.7	439.56
591.91	422.56
592.119	447.56
592.329	444.56
592.539	455.56
592.748	497.56
592.958	488.56
593.167	511.56
593.377	509.56
593.587	535.56
593.796	543.56
594.006	538.56
594.215	535.56
594.424	540.56
594.634	510.56
594.843	499.56
595.053	481.56
595.262	465.56
595.472	438.56
595.681	449.56
595.89	418.56
596.1	396.56
596.309	388.56
596.518	418.56
596.727	367.56
596.937	385.56
597.146	412.56
597.355	385.56
597.564	381.56
597.774	379.56
597.983	376.56
598.192	364.56
598.401	349.56
598.61	386.56
598.819	356.56
599.028	340.56
599.237	353.56
599.446	343.56
599.655	341.56
599.864	347.56
600.073	348.56
600.282	380.56
600.491	349.56
600.7	331.56
600.909	337.56
601.118	340.56
601.327	337.56
601.536	332.56
601.745	352.56
601.953	354.56
602.162	343.56
602.371	336.56
602.58	345.56
602.789	344.56
602.997	329.56
603.206	324.56
603.415	333.56
603.623	324.56
603.832	328.56
604.041	326.56
604.249	328.56
604.458	319.56
604.666	316.56
604.875	328.56
605.084	332.56
605.292	315.56
605.501	320.56
605.709	313.56
605.918	318.56
606.126	331.56
606.334	321.56
606.543	327.56
606.751	307.56
606.96	309.56
607.168	324.56
607.376	301.56
607.585	310.56
607.793	309.56
608.001	317.56
608.21	315.56
608.418	313.56
608.626	312.56
608.834	313.56
609.043	313.56
609.251	313.56
609.459	308.56
609.667	315.56
609.875	311.56
610.083	298.56
610.291	292.56
610.499	292.56
610.707	290.56
610.916	285.56
611.124	309.56
611.332	292.56
611.54	314.56
611.748	300.56
611.955	312.56
612.163	298.56
612.371	305.56
612.579	281.56
612.787	296.56
612.995	295.56
613.203	303.56
613.411	285.56
613.618	292.56
613.826	283.56
614.034	301.56
614.242	297.56
614.449	294.56
614.657	316.56
614.865	296.56
615.072	284.56
615.28	290.56
615.488	295.56
615.695	310.56
615.903	306.56
616.111	298.56
616.318	295.56
616.526	279.56
616.733	284.56
616.941	280.56
617.148	315.56
617.356	292.56
617.563	291.56
617.771	307.56
617.978	286.56
618.185	289.56
618.393	292.56
618.6	304.56
618.807	298.56
619.015	284.56
619.222	304.56
619.429	293.56
619.637	293.56
619.844	281.56
620.051	304.56
620.258	271.56
620.466	283.56
620.673	273.56
620.88	253.56
621.087	264.56
621.294	264.56
621.501	277.56
621.708	303.56
621.915	299.56
622.122	283.56
622.329	268.56
622.536	276.56
622.743	263.56
622.95	268.56
623.157	269.56
623.364	266.56
623.571	277.56
623.778	273.56
623.985	266.56
624.192	247.56
624.399	269.56
624.606	268.56
624.812	243.56
625.019	241.56
625.226	247.56
625.433	247.56
625.639	259.56
625.846	269.56
626.053	255.56
626.259	260.56
626.466	261.56
626.673	255.56
626.879	243.56
627.086	234.56
627.293	239.56
627.499	243.56
627.706	260.56
627.912	260.56
628.119	248.56
628.325	238.56
628.532	245.56
628.738	249.56
628.945	243.56
629.151	242.56
629.357	250.56
629.564	235.56
629.77	231.56
629.976	227.56
630.183	234.56
630.389	241.56
630.595	234.56
630.802	244.56
631.008	223.56
631.214	228.56
631.42	231.56
631.627	240.56
631.833	225.56
632.039	237.56
632.245	225.56
632.451	212.56
632.657	220.56
632.863	217.56
633.069	224.56
633.275	229.56
633.481	232.56
633.688	219.56
633.893	229.56
634.099	218.56
634.305	225.56
634.511	230.56
634.717	195.56
634.923	211.56
635.129	218.56
635.335	200.56
635.541	216.56
635.747	227.56
635.952	205.56
636.158	203.56
636.364	217.56
636.57	239.56
636.775	224.56
636.981	199.56
637.187	208.56
637.392	219.56
637.598	224.56
637.804	209.56
638.009	219.56
638.215	217.56
638.421	201.56
638.626	204.56
638.832	202.56
639.037	194.56
639.243	208.56
639.448	200.56
639.654	214.56
639.859	195.56
640.065	188.56
640.27	202.56
640.475	212.56
640.681	196.56
640.886	200.56
641.091	193.56
641.297	201.56
641.502	209.56
641.707	198.56
641.913	183.56
642.118	188.56
642.323	209.56
642.528	204.56
642.733	213.56
642.939	199.56
643.144	199.56
643.349	192.56
643.554	196.56
643.759	205.56
643.964	203.56
644.169	186.56
644.374	199.56
644.579	199.56
644.784	186.56
644.989	188.56
645.194	188.56
645.399	180.56
645.604	202.56
645.809	198.56
646.014	198.56
646.219	201.56
646.423	215.56
646.628	195.56
646.833	191.56
647.038	181.56
647.243	191.56
647.447	200.56
647.652	199.56
647.857	190.56
648.062	214.56
648.266	200.56
648.471	197.56
648.676	224.56
648.88	211.56
649.085	199.56
649.289	177.56
649.494	195.56
649.698	188.56
649.903	186.56
650.107	194.56
650.312	199.56
650.516	183.56
650.721	170.56
650.925	172.56
651.13	170.56
651.334	178.56
651.539	171.56
651.743	168.56
651.947	161.56
652.152	163.56
652.356	168.56
652.56	156.56
652.764	154.56
652.969	164.56
653.173	145.56
653.377	142.56
653.581	145.56
653.785	161.56
653.99	162.56
654.194	134.56
654.398	137.56
654.602	138.56
654.806	132.56
655.01	141.56
655.214	154.56
655.418	143.56
655.622	143.56
655.826	136.56
656.03	131.56
656.234	137.56
656.438	142.56
656.642	139.56
656.846	145.56
657.049	128.56
657.253	141.56
657.457	103.56
657.661	128.56
657.865	123.56
658.068	121.56
658.272	113.56
658.476	87.56
658.68	113.56
658.883	100.56
659.087	111.56
659.291	113.56
659.494	111.56
659.698	104.56
659.901	112.56
660.105	101.56
660.309	90.56
660.512	111.56
660.716	96.56
660.919	97.56
661.123	104.56
661.326	87.56
661.53	91.56
661.733	93.56
661.936	84.56
662.14	88.56
662.343	76.56
662.546	96.56
662.75	91.56
662.953	81.56
663.156	79.56
663.36	88.56
663.563	87.56
663.766	72.56
663.969	82.56
664.173	88.56
664.376	79.56
664.579	80.56
664.782	76.56
664.985	91.56
665.188	81.56
665.391	75.56
665.594	70.56
665.797	83.56
666	87.56
666.203	89.56
666.406	92.56
666.609	72.56
666.812	95.56
667.015	88.56
667.218	76.56
667.421	93.56
667.624	73.56
667.827	86.56
668.03	73.56
668.232	77.56
668.435	89.56
668.638	98.56
668.841	92.56
669.043	89.56
669.246	93.56
669.449	88.56
669.651	74.56
669.854	87.56
670.057	85.56
670.259	88.56
670.462	71.56
670.665	79.56
670.867	81.56
671.07	78.56
671.272	80.56
671.475	86.56
671.677	86.56
671.88	85.56
672.082	78.56
672.284	83.56
672.487	86.56
672.689	82.56
672.892	85.56
