Data from NiCl2@0.5M.TitratingCurve.Agarose3%dH2O.NegLispCup.LampEnergy10.LIBS07252019_HRD10591_18-20-36-571.txt Node
Date: Thu Jul 25 18:20:36 EDT 2019
User: cochatt
Spectrometer: HR+D1059
Trigger mode: 1
Integration Time (sec): 1.000000E-1
Scans to average: 1
Electric dark correction enabled: true
Nonlinearity correction enabled: false
Boxcar width: 0
XAxis mode: Wavelengths
Number of Pixels in Spectrum: 2048
>>>>>Begin Spectral Data<<<<<
223.165	-16.5
223.4	-16.5
223.635	-16.5
223.869	-18.5
224.104	-14.5
224.338	-6.5
224.573	-17.5
224.808	-14.5
225.042	-2.5
225.277	-2.5
225.511	-13.5
225.746	-0.5
225.98	7.5
226.215	14.5
226.449	8.5
226.683	13.5
226.918	32.5
227.152	30.5
227.387	22.5
227.621	24.5
227.856	46.5
228.09	32.5
228.324	46.5
228.559	45.5
228.793	65.5
229.027	107.5
229.262	114.5
229.496	112.5
229.73	128.5
229.964	121.5
230.199	122.5
230.433	135.5
230.667	135.5
230.901	138.5
231.136	130.5
231.37	133.5
231.604	146.5
231.838	143.5
232.072	129.5
232.306	136.5
232.541	134.5
232.775	136.5
233.009	143.5
233.243	151.5
233.477	146.5
233.711	146.5
233.945	146.5
234.179	142.5
234.413	148.5
234.647	161.5
234.881	150.5
235.115	145.5
235.349	154.5
235.583	136.5
235.817	154.5
236.051	163.5
236.285	160.5
236.519	154.5
236.753	159.5
236.987	139.5
237.221	158.5
237.455	145.5
237.689	152.5
237.922	171.5
238.156	161.5
238.39	166.5
238.624	164.5
238.858	164.5
239.091	157.5
239.325	174.5
239.559	162.5
239.793	185.5
240.027	174.5
240.26	178.5
240.494	169.5
240.728	165.5
240.961	175.5
241.195	193.5
241.429	165.5
241.662	189.5
241.896	179.5
242.13	185.5
242.363	179.5
242.597	193.5
242.83	200.5
243.064	177.5
243.298	186.5
243.531	206.5
243.765	212.5
243.998	208.5
244.232	211.5
244.465	206.5
244.699	204.5
244.932	201.5
245.166	225.5
245.399	217.5
245.633	215.5
245.866	220.5
246.099	233.5
246.333	217.5
246.566	224.5
246.8	209.5
247.033	220.5
247.266	223.5
247.5	219.5
247.733	220.5
247.966	251.5
248.2	221.5
248.433	238.5
248.666	241.5
248.899	238.5
249.133	233.5
249.366	269.5
249.599	250.5
249.832	251.5
250.066	243.5
250.299	254.5
250.532	253.5
250.765	238.5
250.998	271.5
251.231	257.5
251.465	254.5
251.698	240.5
251.931	270.5
252.164	262.5
252.397	286.5
252.63	263.5
252.863	260.5
253.096	284.5
253.329	268.5
253.562	270.5
253.795	275.5
254.028	283.5
254.261	281.5
254.494	275.5
254.727	278.5
254.96	285.5
255.193	294.5
255.426	280.5
255.659	274.5
255.892	277.5
256.124	277.5
256.357	285.5
256.59	298.5
256.823	283.5
257.056	288.5
257.289	278.5
257.521	320.5
257.754	311.5
257.987	287.5
258.22	297.5
258.452	319.5
258.685	302.5
258.918	317.5
259.151	319.5
259.383	309.5
259.616	320.5
259.849	326.5
260.081	314.5
260.314	317.5
260.547	323.5
260.779	324.5
261.012	332.5
261.244	329.5
261.477	324.5
261.71	347.5
261.942	314.5
262.175	327.5
262.407	325.5
262.64	326.5
262.872	333.5
263.105	340.5
263.337	330.5
263.57	352.5
263.802	351.5
264.035	344.5
264.267	333.5
264.499	343.5
264.732	343.5
264.964	344.5
265.197	358.5
265.429	366.5
265.661	358.5
265.894	349.5
266.126	353.5
266.358	361.5
266.591	357.5
266.823	353.5
267.055	353.5
267.287	371.5
267.52	373.5
267.752	355.5
267.984	373.5
268.216	384.5
268.448	381.5
268.681	377.5
268.913	381.5
269.145	384.5
269.377	391.5
269.609	379.5
269.841	355.5
270.073	371.5
270.306	376.5
270.538	361.5
270.77	369.5
271.002	377.5
271.234	386.5
271.466	382.5
271.698	381.5
271.93	397.5
272.162	377.5
272.394	413.5
272.626	401.5
272.858	405.5
273.09	411.5
273.322	402.5
273.553	394.5
273.785	425.5
274.017	420.5
274.249	438.5
274.481	434.5
274.713	402.5
274.945	418.5
275.176	425.5
275.408	413.5
275.64	425.5
275.872	436.5
276.104	410.5
276.335	423.5
276.567	419.5
276.799	429.5
277.031	418.5
277.262	407.5
277.494	466.5
277.726	440.5
277.957	463.5
278.189	447.5
278.421	437.5
278.652	428.5
278.884	445.5
279.115	452.5
279.347	444.5
279.579	447.5
279.81	449.5
280.042	457.5
280.273	459.5
280.505	452.5
280.736	454.5
280.968	458.5
281.199	475.5
281.431	466.5
281.662	452.5
281.894	456.5
282.125	456.5
282.356	484.5
282.588	471.5
282.819	475.5
283.051	476.5
283.282	486.5
283.513	481.5
283.745	503.5
283.976	479.5
284.207	493.5
284.439	509.5
284.67	493.5
284.901	477.5
285.132	501.5
285.364	515.5
285.595	505.5
285.826	483.5
286.057	505.5
286.288	495.5
286.52	523.5
286.751	509.5
286.982	511.5
287.213	485.5
287.444	490.5
287.675	501.5
287.906	517.5
288.138	538.5
288.369	527.5
288.6	515.5
288.831	522.5
289.062	538.5
289.293	530.5
289.524	514.5
289.755	537.5
289.986	529.5
290.217	535.5
290.448	546.5
290.679	563.5
290.91	533.5
291.141	559.5
291.371	527.5
291.602	541.5
291.833	518.5
292.064	524.5
292.295	523.5
292.526	533.5
292.757	541.5
292.987	530.5
293.218	496.5
293.449	534.5
293.68	559.5
293.91	530.5
294.141	557.5
294.372	547.5
294.603	545.5
294.833	529.5
295.064	550.5
295.295	542.5
295.525	542.5
295.756	556.5
295.987	571.5
296.217	557.5
296.448	576.5
296.679	559.5
296.909	559.5
297.14	582.5
297.37	585.5
297.601	571.5
297.831	552.5
298.062	591.5
298.292	581.5
298.523	587.5
298.753	583.5
298.984	584.5
299.214	555.5
299.445	559.5
299.675	587.5
299.905	575.5
300.136	615.5
300.366	588.5
300.597	617.5
300.827	585.5
301.057	607.5
301.288	613.5
301.518	637.5
301.748	628.5
301.979	627.5
302.209	629.5
302.439	622.5
302.669	607.5
302.9	613.5
303.13	614.5
303.36	619.5
303.59	631.5
303.82	629.5
304.051	629.5
304.281	619.5
304.511	618.5
304.741	635.5
304.971	635.5
305.201	634.5
305.431	626.5
305.661	637.5
305.891	607.5
306.121	629.5
306.352	613.5
306.582	607.5
306.812	625.5
307.042	601.5
307.272	627.5
307.502	601.5
307.731	604.5
307.961	602.5
308.191	609.5
308.421	604.5
308.651	615.5
308.881	628.5
309.111	632.5
309.341	625.5
309.571	592.5
309.8	604.5
310.03	617.5
310.26	633.5
310.49	618.5
310.72	643.5
310.949	646.5
311.179	611.5
311.409	627.5
311.639	641.5
311.868	623.5
312.098	633.5
312.328	647.5
312.557	621.5
312.787	649.5
313.017	630.5
313.246	648.5
313.476	647.5
313.706	680.5
313.935	667.5
314.165	672.5
314.394	640.5
314.624	650.5
314.853	655.5
315.083	659.5
315.312	674.5
315.542	653.5
315.771	659.5
316.001	650.5
316.23	647.5
316.46	637.5
316.689	651.5
316.919	647.5
317.148	658.5
317.377	657.5
317.607	659.5
317.836	624.5
318.065	633.5
318.295	661.5
318.524	666.5
318.753	669.5
318.983	651.5
319.212	641.5
319.441	643.5
319.67	657.5
319.9	662.5
320.129	680.5
320.358	659.5
320.587	643.5
320.816	651.5
321.046	654.5
321.275	643.5
321.504	654.5
321.733	649.5
321.962	648.5
322.191	657.5
322.42	669.5
322.649	677.5
322.878	688.5
323.108	697.5
323.337	713.5
323.566	689.5
323.795	664.5
324.024	681.5
324.253	675.5
324.482	659.5
324.71	682.5
324.939	690.5
325.168	690.5
325.397	697.5
325.626	698.5
325.855	671.5
326.084	722.5
326.313	734.5
326.542	733.5
326.77	753.5
326.999	730.5
327.228	736.5
327.457	697.5
327.686	709.5
327.914	716.5
328.143	700.5
328.372	691.5
328.6	713.5
328.829	717.5
329.058	714.5
329.287	737.5
329.515	714.5
329.744	706.5
329.972	725.5
330.201	745.5
330.43	725.5
330.658	733.5
330.887	737.5
331.115	738.5
331.344	746.5
331.572	766.5
331.801	794.5
332.03	783.5
332.258	801.5
332.486	825.5
332.715	807.5
332.943	854.5
333.172	871.5
333.4	922.5
333.629	936.5
333.857	925.5
334.085	907.5
334.314	888.5
334.542	905.5
334.771	927.5
334.999	891.5
335.227	882.5
335.455	917.5
335.684	901.5
335.912	859.5
336.14	889.5
336.369	862.5
336.597	879.5
336.825	875.5
337.053	870.5
337.281	854.5
337.51	843.5
337.738	805.5
337.966	819.5
338.194	837.5
338.422	816.5
338.65	786.5
338.878	769.5
339.106	799.5
339.334	791.5
339.562	777.5
339.79	754.5
340.018	774.5
340.246	756.5
340.474	767.5
340.702	767.5
340.93	745.5
341.158	757.5
341.386	771.5
341.614	801.5
341.842	760.5
342.07	772.5
342.298	747.5
342.526	744.5
342.754	723.5
342.981	769.5
343.209	752.5
343.437	797.5
343.665	863.5
343.893	893.5
344.12	882.5
344.348	846.5
344.576	861.5
344.804	822.5
345.031	778.5
345.259	794.5
345.487	763.5
345.714	794.5
345.942	732.5
346.17	765.5
346.397	738.5
346.625	733.5
346.853	710.5
347.08	737.5
347.308	706.5
347.535	725.5
347.763	706.5
347.99	743.5
348.218	727.5
348.445	708.5
348.673	712.5
348.9	696.5
349.128	713.5
349.355	722.5
349.583	734.5
349.81	722.5
350.037	713.5
350.265	696.5
350.492	709.5
350.72	705.5
350.947	706.5
351.174	718.5
351.402	702.5
351.629	718.5
351.856	711.5
352.083	693.5
352.311	702.5
352.538	685.5
352.765	714.5
352.992	677.5
353.22	699.5
353.447	676.5
353.674	681.5
353.901	675.5
354.128	689.5
354.355	678.5
354.583	653.5
354.81	696.5
355.037	691.5
355.264	673.5
355.491	695.5
355.718	682.5
355.945	695.5
356.172	699.5
356.399	691.5
356.626	696.5
356.853	698.5
357.08	714.5
357.307	717.5
357.534	715.5
357.761	703.5
357.988	702.5
358.215	689.5
358.441	676.5
358.668	679.5
358.895	689.5
359.122	699.5
359.349	702.5
359.576	674.5
359.802	696.5
360.029	687.5
360.256	675.5
360.483	661.5
360.709	687.5
360.936	693.5
361.163	697.5
361.39	681.5
361.616	707.5
361.843	697.5
362.07	733.5
362.296	724.5
362.523	682.5
362.749	697.5
362.976	663.5
363.203	680.5
363.429	687.5
363.656	683.5
363.882	682.5
364.109	679.5
364.335	687.5
364.562	674.5
364.788	671.5
365.015	701.5
365.241	670.5
365.468	667.5
365.694	687.5
365.92	686.5
366.147	689.5
366.373	671.5
366.599	669.5
366.826	652.5
367.052	674.5
367.278	704.5
367.505	706.5
367.731	700.5
367.957	706.5
368.184	673.5
368.41	687.5
368.636	672.5
368.862	694.5
369.089	691.5
369.315	681.5
369.541	693.5
369.767	710.5
369.993	684.5
370.219	720.5
370.445	699.5
370.672	734.5
370.898	714.5
371.124	706.5
371.35	704.5
371.576	737.5
371.802	746.5
372.028	723.5
372.254	726.5
372.48	725.5
372.706	769.5
372.932	762.5
373.158	747.5
373.384	729.5
373.61	727.5
373.835	744.5
374.061	725.5
374.287	751.5
374.513	741.5
374.739	765.5
374.965	800.5
375.191	802.5
375.416	813.5
375.642	776.5
375.868	785.5
376.094	769.5
376.319	727.5
376.545	750.5
376.771	716.5
376.997	721.5
377.222	736.5
377.448	750.5
377.674	719.5
377.899	726.5
378.125	722.5
378.35	728.5
378.576	714.5
378.802	714.5
379.027	723.5
379.253	710.5
379.478	735.5
379.704	728.5
379.929	718.5
380.155	735.5
380.38	714.5
380.606	743.5
380.831	730.5
381.057	732.5
381.282	724.5
381.507	689.5
381.733	763.5
381.958	724.5
382.184	746.5
382.409	750.5
382.634	741.5
382.86	759.5
383.085	748.5
383.31	783.5
383.535	798.5
383.761	766.5
383.986	796.5
384.211	826.5
384.436	818.5
384.662	807.5
384.887	834.5
385.112	835.5
385.337	883.5
385.562	861.5
385.787	861.5
386.013	888.5
386.238	854.5
386.463	859.5
386.688	870.5
386.913	854.5
387.138	863.5
387.363	867.5
387.588	851.5
387.813	848.5
388.038	864.5
388.263	886.5
388.488	858.5
388.713	857.5
388.938	861.5
389.163	841.5
389.387	859.5
389.612	856.5
389.837	885.5
390.062	848.5
390.287	873.5
390.512	887.5
390.736	880.5
390.961	903.5
391.186	893.5
391.411	939.5
391.636	947.5
391.86	953.5
392.085	970.5
392.31	973.5
392.534	954.5
392.759	934.5
392.984	922.5
393.208	900.5
393.433	930.5
393.658	930.5
393.882	906.5
394.107	932.5
394.331	934.5
394.556	916.5
394.78	972.5
395.005	945.5
395.229	950.5
395.454	934.5
395.678	949.5
395.903	991.5
396.127	961.5
396.352	944.5
396.576	925.5
396.801	909.5
397.025	929.5
397.249	972.5
397.474	995.5
397.698	991.5
397.922	982.5
398.147	965.5
398.371	1019.5
398.595	1053.5
398.82	1103.5
399.044	1163.5
399.268	1231.5
399.492	1391.5
399.717	1533.5
399.941	1493.5
400.165	1397.5
400.389	1315.5
400.613	1229.5
400.837	1141.5
401.062	1146.5
401.286	1136.5
401.51	1104.5
401.734	1108.5
401.958	1080.5
402.182	1111.5
402.406	1153.5
402.63	1125.5
402.854	1131.5
403.078	1135.5
403.302	1162.5
403.526	1193.5
403.75	1197.5
403.974	1211.5
404.198	1203.5
404.422	1210.5
404.645	1219.5
404.869	1215.5
405.093	1187.5
405.317	1149.5
405.541	1201.5
405.765	1178.5
405.988	1193.5
406.212	1213.5
406.436	1183.5
406.66	1217.5
406.883	1263.5
407.107	1287.5
407.331	1317.5
407.555	1357.5
407.778	1367.5
408.002	1367.5
408.226	1319.5
408.449	1316.5
408.673	1270.5
408.896	1248.5
409.12	1257.5
409.344	1241.5
409.567	1216.5
409.791	1228.5
410.014	1234.5
410.238	1213.5
410.461	1212.5
410.685	1205.5
410.908	1183.5
411.132	1163.5
411.355	1144.5
411.578	1142.5
411.802	1127.5
412.025	1166.5
412.249	1167.5
412.472	1149.5
412.695	1126.5
412.919	1109.5
413.142	1113.5
413.365	1092.5
413.589	1110.5
413.812	1084.5
414.035	1063.5
414.258	1097.5
414.482	1104.5
414.705	1121.5
414.928	1121.5
415.151	1112.5
415.374	1104.5
415.597	1091.5
415.821	1097.5
416.044	1127.5
416.267	1057.5
416.49	1052.5
416.713	1074.5
416.936	1057.5
417.159	1063.5
417.382	1060.5
417.605	1067.5
417.828	1063.5
418.051	1066.5
418.274	1093.5
418.497	1053.5
418.72	1091.5
418.943	1097.5
419.166	1185.5
419.389	1243.5
419.611	1207.5
419.834	1174.5
420.057	1137.5
420.28	1105.5
420.503	1049.5
420.726	1061.5
420.948	1099.5
421.171	1070.5
421.394	1102.5
421.617	1075.5
421.839	1084.5
422.062	1099.5
422.285	1066.5
422.507	1118.5
422.73	1074.5
422.953	1097.5
423.175	1096.5
423.398	1132.5
423.621	1120.5
423.843	1157.5
424.066	1137.5
424.288	1111.5
424.511	1096.5
424.733	1077.5
424.956	1074.5
425.178	1086.5
425.401	1102.5
425.623	1095.5
425.846	1072.5
426.068	1039.5
426.291	1058.5
426.513	1020.5
426.735	1014.5
426.958	1001.5
427.18	1006.5
427.402	1009.5
427.625	991.5
427.847	982.5
428.069	1001.5
428.292	992.5
428.514	977.5
428.736	998.5
428.958	1017.5
429.181	972.5
429.403	971.5
429.625	965.5
429.847	959.5
430.069	960.5
430.292	975.5
430.514	973.5
430.736	973.5
430.958	982.5
431.18	979.5
431.402	992.5
431.624	995.5
431.846	985.5
432.068	1000.5
432.29	1009.5
432.512	1002.5
432.734	989.5
432.956	962.5
433.178	1030.5
433.4	1007.5
433.622	999.5
433.844	1025.5
434.066	1014.5
434.287	1029.5
434.509	1047.5
434.731	1086.5
434.953	1074.5
435.175	1088.5
435.397	1072.5
435.618	1051.5
435.84	1029.5
436.062	1023.5
436.284	1002.5
436.505	993.5
436.727	1029.5
436.949	1026.5
437.17	989.5
437.392	963.5
437.614	978.5
437.835	947.5
438.057	954.5
438.278	951.5
438.5	963.5
438.721	931.5
438.943	994.5
439.165	959.5
439.386	965.5
439.608	982.5
439.829	989.5
440.05	996.5
440.272	993.5
440.493	1008.5
440.715	1031.5
440.936	1009.5
441.158	1058.5
441.379	1080.5
441.6	1098.5
441.822	1121.5
442.043	1101.5
442.264	1094.5
442.486	1094.5
442.707	1095.5
442.928	1076.5
443.149	1105.5
443.371	1057.5
443.592	1084.5
443.813	1095.5
444.034	1137.5
444.255	1150.5
444.476	1207.5
444.698	1255.5
444.919	1303.5
445.14	1334.5
445.361	1224.5
445.582	1131.5
445.803	1103.5
446.024	1095.5
446.245	1058.5
446.466	1045.5
446.687	1001.5
446.908	987.5
447.129	984.5
447.35	960.5
447.571	962.5
447.792	967.5
448.013	955.5
448.234	945.5
448.455	947.5
448.675	930.5
448.896	954.5
449.117	924.5
449.338	895.5
449.559	929.5
449.779	914.5
450	903.5
450.221	924.5
450.442	911.5
450.662	952.5
450.883	925.5
451.104	949.5
451.324	930.5
451.545	918.5
451.766	915.5
451.986	907.5
452.207	899.5
452.428	884.5
452.648	911.5
452.869	899.5
453.089	869.5
453.31	923.5
453.53	901.5
453.751	880.5
453.971	866.5
454.192	888.5
454.412	869.5
454.633	862.5
454.853	877.5
455.073	862.5
455.294	863.5
455.514	854.5
455.734	879.5
455.955	872.5
456.175	883.5
456.395	879.5
456.616	838.5
456.836	855.5
457.056	856.5
457.276	861.5
457.497	861.5
457.717	863.5
457.937	913.5
458.157	905.5
458.377	895.5
458.598	920.5
458.818	948.5
459.038	951.5
459.258	979.5
459.478	1013.5
459.698	1035.5
459.918	1043.5
460.138	1122.5
460.358	1127.5
460.578	1157.5
460.798	1144.5
461.018	1187.5
461.238	1167.5
461.458	1160.5
461.678	1135.5
461.898	1185.5
462.118	1163.5
462.338	1251.5
462.558	1264.5
462.777	1331.5
462.997	1404.5
463.217	1501.5
463.437	1495.5
463.657	1397.5
463.876	1355.5
464.096	1339.5
464.316	1350.5
464.536	1334.5
464.755	1303.5
464.975	1266.5
465.195	1225.5
465.414	1149.5
465.634	1084.5
465.854	1063.5
466.073	1049.5
466.293	1023.5
466.512	1014.5
466.732	971.5
466.951	971.5
467.171	981.5
467.391	1010.5
467.61	968.5
467.829	934.5
468.049	982.5
468.268	921.5
468.488	929.5
468.707	950.5
468.927	961.5
469.146	937.5
469.365	943.5
469.585	927.5
469.804	978.5
470.023	974.5
470.243	975.5
470.462	1003.5
470.681	1003.5
470.901	1012.5
471.12	985.5
471.339	989.5
471.558	964.5
471.777	955.5
471.997	955.5
472.216	971.5
472.435	929.5
472.654	935.5
472.873	915.5
473.092	915.5
473.311	900.5
473.53	917.5
473.749	919.5
473.968	891.5
474.187	906.5
474.406	896.5
474.625	914.5
474.844	930.5
475.063	921.5
475.282	920.5
475.501	932.5
475.72	941.5
475.939	936.5
476.158	944.5
476.377	954.5
476.596	948.5
476.814	962.5
477.033	968.5
477.252	989.5
477.471	1018.5
477.69	1035.5
477.908	1050.5
478.127	1073.5
478.346	1105.5
478.564	1077.5
478.783	1094.5
479.002	1138.5
479.22	1146.5
479.439	1140.5
479.658	1131.5
479.876	1145.5
480.095	1154.5
480.313	1192.5
480.532	1237.5
480.751	1173.5
480.969	1178.5
481.188	1118.5
481.406	1129.5
481.624	1107.5
481.843	1070.5
482.061	1043.5
482.28	1063.5
482.498	1041.5
482.717	1047.5
482.935	1081.5
483.153	1057.5
483.372	1079.5
483.59	1121.5
483.808	1056.5
484.027	1047.5
484.245	1093.5
484.463	1066.5
484.681	1093.5
484.9	1103.5
485.118	1118.5
485.336	1116.5
485.554	1109.5
485.772	1121.5
485.99	1087.5
486.209	1112.5
486.427	1101.5
486.645	1095.5
486.863	1120.5
487.081	1113.5
487.299	1093.5
487.517	1104.5
487.735	1119.5
487.953	1153.5
488.171	1131.5
488.389	1099.5
488.607	1085.5
488.825	1108.5
489.043	1091.5
489.261	1126.5
489.479	1085.5
489.696	1070.5
489.914	1096.5
490.132	1095.5
490.35	1128.5
490.568	1069.5
490.786	1097.5
491.003	1107.5
491.221	1111.5
491.439	1158.5
491.657	1153.5
491.874	1156.5
492.092	1115.5
492.31	1153.5
492.527	1127.5
492.745	1170.5
492.963	1159.5
493.18	1122.5
493.398	1175.5
493.615	1188.5
493.833	1173.5
494.05	1173.5
494.268	1172.5
494.485	1210.5
494.703	1174.5
494.92	1152.5
495.138	1168.5
495.355	1217.5
495.573	1202.5
495.79	1211.5
496.008	1235.5
496.225	1212.5
496.442	1232.5
496.66	1234.5
496.877	1260.5
497.094	1253.5
497.312	1302.5
497.529	1309.5
497.746	1365.5
497.963	1368.5
498.181	1444.5
498.398	1500.5
498.615	1586.5
498.832	1694.5
499.049	1801.5
499.267	1940.5
499.484	2089.5
499.701	2248.5
499.918	2503.5
500.135	2740.5
500.352	3032.5
500.569	3183.5
500.786	3084.5
501.003	2949.5
501.22	2720.5
501.437	2453.5
501.654	2216.5
501.871	2048.5
502.088	1893.5
502.305	1819.5
502.522	1687.5
502.739	1582.5
502.956	1531.5
503.172	1471.5
503.389	1389.5
503.606	1372.5
503.823	1354.5
504.04	1358.5
504.256	1349.5
504.473	1365.5
504.69	1363.5
504.907	1369.5
505.123	1285.5
505.34	1218.5
505.557	1184.5
505.773	1132.5
505.99	1147.5
506.207	1130.5
506.423	1099.5
506.64	1060.5
506.856	1088.5
507.073	1028.5
507.289	1030.5
507.506	1033.5
507.722	1030.5
507.939	1027.5
508.155	1016.5
508.372	1014.5
508.588	997.5
508.805	995.5
509.021	983.5
509.238	979.5
509.454	974.5
509.67	967.5
509.887	955.5
510.103	952.5
510.319	925.5
510.536	926.5
510.752	923.5
510.968	934.5
511.184	937.5
511.401	933.5
511.617	917.5
511.833	921.5
512.049	911.5
512.265	921.5
512.481	934.5
512.698	936.5
512.914	943.5
513.13	945.5
513.346	923.5
513.562	933.5
513.778	951.5
513.994	941.5
514.21	947.5
514.426	940.5
514.642	947.5
514.858	965.5
515.074	953.5
515.29	971.5
515.506	978.5
515.721	987.5
515.937	994.5
516.153	994.5
516.369	1028.5
516.585	1066.5
516.801	1096.5
517.016	1130.5
517.232	1213.5
517.448	1215.5
517.664	1242.5
517.879	1272.5
518.095	1261.5
518.311	1230.5
518.527	1167.5
518.742	1144.5
518.958	1080.5
519.173	1078.5
519.389	1058.5
519.605	1033.5
519.82	986.5
520.036	993.5
520.251	965.5
520.467	986.5
520.682	941.5
520.898	951.5
521.113	908.5
521.329	931.5
521.544	897.5
521.76	890.5
521.975	889.5
522.19	873.5
522.406	887.5
522.621	879.5
522.836	878.5
523.052	863.5
523.267	871.5
523.482	865.5
523.698	866.5
523.913	849.5
524.128	857.5
524.343	849.5
524.559	830.5
524.774	857.5
524.989	854.5
525.204	849.5
525.419	841.5
525.634	840.5
525.849	837.5
526.064	841.5
526.28	840.5
526.495	825.5
526.71	835.5
526.925	810.5
527.14	801.5
527.355	847.5
527.57	833.5
527.785	839.5
527.999	828.5
528.214	848.5
528.429	864.5
528.644	821.5
528.859	836.5
529.074	837.5
529.289	842.5
529.503	826.5
529.718	851.5
529.933	821.5
530.148	831.5
530.363	840.5
530.577	833.5
530.792	805.5
531.007	791.5
531.221	831.5
531.436	821.5
531.651	826.5
531.865	842.5
532.08	825.5
532.295	828.5
532.509	827.5
532.724	837.5
532.938	821.5
533.153	824.5
533.367	849.5
533.582	833.5
533.796	804.5
534.011	805.5
534.225	807.5
534.44	801.5
534.654	807.5
534.868	789.5
535.083	797.5
535.297	789.5
535.511	807.5
535.726	788.5
535.94	808.5
536.154	785.5
536.369	779.5
536.583	779.5
536.797	757.5
537.011	787.5
537.225	761.5
537.44	787.5
537.654	778.5
537.868	764.5
538.082	754.5
538.296	754.5
538.51	734.5
538.724	742.5
538.938	745.5
539.153	735.5
539.367	747.5
539.581	749.5
539.795	757.5
540.009	724.5
540.222	745.5
540.436	734.5
540.65	746.5
540.864	754.5
541.078	734.5
541.292	719.5
541.506	760.5
541.72	773.5
541.934	765.5
542.147	760.5
542.361	771.5
542.575	721.5
542.789	737.5
543.002	730.5
543.216	731.5
543.43	706.5
543.644	725.5
543.857	732.5
544.071	753.5
544.285	736.5
544.498	730.5
544.712	721.5
544.925	751.5
545.139	767.5
545.352	745.5
545.566	769.5
545.779	779.5
545.993	769.5
546.206	784.5
546.42	760.5
546.633	754.5
546.847	763.5
547.06	794.5
547.274	751.5
547.487	738.5
547.7	768.5
547.914	784.5
548.127	762.5
548.34	767.5
548.554	772.5
548.767	766.5
548.98	761.5
549.193	744.5
549.407	769.5
549.62	785.5
549.833	808.5
550.046	783.5
550.259	744.5
550.473	750.5
550.686	761.5
550.899	745.5
551.112	738.5
551.325	746.5
551.538	773.5
551.751	731.5
551.964	749.5
552.177	762.5
552.39	753.5
552.603	789.5
552.816	795.5
553.029	805.5
553.242	829.5
553.455	802.5
553.667	827.5
553.88	821.5
554.093	799.5
554.306	757.5
554.519	763.5
554.732	790.5
554.944	746.5
555.157	730.5
555.37	718.5
555.583	699.5
555.795	682.5
556.008	680.5
556.221	663.5
556.433	649.5
556.646	671.5
556.859	642.5
557.071	651.5
557.284	651.5
557.496	661.5
557.709	656.5
557.921	631.5
558.134	633.5
558.346	655.5
558.559	645.5
558.771	651.5
558.984	610.5
559.196	631.5
559.409	629.5
559.621	618.5
559.833	619.5
560.046	643.5
560.258	634.5
560.47	616.5
560.683	630.5
560.895	636.5
561.107	591.5
561.32	635.5
561.532	633.5
561.744	635.5
561.956	648.5
562.168	627.5
562.381	643.5
562.593	626.5
562.805	652.5
563.017	626.5
563.229	617.5
563.441	629.5
563.653	622.5
563.865	631.5
564.077	634.5
564.289	629.5
564.501	660.5
564.713	680.5
564.925	678.5
565.137	682.5
565.349	710.5
565.561	735.5
565.773	746.5
565.985	769.5
566.197	835.5
566.408	836.5
566.62	902.5
566.832	955.5
567.044	960.5
567.255	964.5
567.467	999.5
567.679	1056.5
567.891	1077.5
568.102	1098.5
568.314	1035.5
568.526	978.5
568.737	887.5
568.949	817.5
569.161	753.5
569.372	733.5
569.584	719.5
569.795	693.5
570.007	693.5
570.218	651.5
570.43	628.5
570.641	655.5
570.853	633.5
571.064	614.5
571.276	625.5
571.487	626.5
571.698	606.5
571.91	596.5
572.121	584.5
572.333	562.5
572.544	549.5
572.755	535.5
572.966	549.5
573.178	533.5
573.389	535.5
573.6	522.5
573.811	543.5
574.023	529.5
574.234	507.5
574.445	514.5
574.656	501.5
574.867	509.5
575.078	501.5
575.289	513.5
575.501	482.5
575.712	485.5
575.923	490.5
576.134	467.5
576.345	479.5
576.556	466.5
576.767	485.5
576.978	507.5
577.188	477.5
577.399	466.5
577.61	480.5
577.821	465.5
578.032	459.5
578.243	475.5
578.454	461.5
578.665	449.5
578.875	446.5
579.086	442.5
579.297	443.5
579.508	453.5
579.718	430.5
579.929	450.5
580.14	452.5
580.35	424.5
580.561	435.5
580.772	434.5
580.982	446.5
581.193	433.5
581.403	438.5
581.614	447.5
581.825	429.5
582.035	430.5
582.246	439.5
582.456	417.5
582.667	455.5
582.877	445.5
583.087	408.5
583.298	419.5
583.508	410.5
583.719	424.5
583.929	400.5
584.139	421.5
584.35	426.5
584.56	431.5
584.77	411.5
584.981	402.5
585.191	421.5
585.401	409.5
585.611	405.5
585.821	394.5
586.032	406.5
586.242	402.5
586.452	418.5
586.662	420.5
586.872	414.5
587.082	401.5
587.292	391.5
587.502	412.5
587.713	405.5
587.923	391.5
588.133	413.5
588.343	407.5
588.553	401.5
588.762	409.5
588.972	406.5
589.182	449.5
589.392	440.5
589.602	413.5
589.812	448.5
590.022	419.5
590.232	416.5
590.441	413.5
590.651	409.5
590.861	416.5
591.071	416.5
591.281	429.5
591.49	417.5
591.7	431.5
591.91	449.5
592.119	445.5
592.329	432.5
592.539	457.5
592.748	443.5
592.958	470.5
593.167	499.5
593.377	488.5
593.587	490.5
593.796	498.5
594.006	497.5
594.215	498.5
594.424	507.5
594.634	493.5
594.843	480.5
595.053	460.5
595.262	429.5
595.472	420.5
595.681	432.5
595.89	393.5
596.1	387.5
596.309	400.5
596.518	378.5
596.727	389.5
596.937	375.5
597.146	398.5
597.355	358.5
597.564	367.5
597.774	347.5
597.983	373.5
598.192	358.5
598.401	355.5
598.61	350.5
598.819	353.5
599.028	345.5
599.237	361.5
599.446	355.5
599.655	344.5
599.864	335.5
600.073	359.5
600.282	345.5
600.491	322.5
600.7	341.5
600.909	340.5
601.118	339.5
601.327	345.5
601.536	341.5
601.745	342.5
601.953	331.5
602.162	332.5
602.371	326.5
602.58	317.5
602.789	327.5
602.997	329.5
603.206	333.5
603.415	337.5
603.623	332.5
603.832	324.5
604.041	309.5
604.249	310.5
604.458	323.5
604.666	310.5
604.875	303.5
605.084	320.5
605.292	328.5
605.501	314.5
605.709	310.5
605.918	305.5
606.126	313.5
606.334	306.5
606.543	306.5
606.751	314.5
606.96	308.5
607.168	313.5
607.376	307.5
607.585	301.5
607.793	314.5
608.001	309.5
608.21	307.5
608.418	319.5
608.626	312.5
608.834	324.5
609.043	305.5
609.251	310.5
609.459	301.5
609.667	301.5
609.875	287.5
610.083	294.5
610.291	300.5
610.499	301.5
610.707	294.5
610.916	290.5
611.124	285.5
611.332	291.5
611.54	294.5
611.748	296.5
611.955	276.5
612.163	289.5
612.371	288.5
612.579	286.5
612.787	294.5
612.995	297.5
613.203	305.5
613.411	297.5
613.618	312.5
613.826	293.5
614.034	282.5
614.242	281.5
614.449	275.5
614.657	287.5
614.865	271.5
615.072	301.5
615.28	282.5
615.488	292.5
615.695	282.5
615.903	297.5
616.111	275.5
616.318	314.5
616.526	283.5
616.733	295.5
616.941	286.5
617.148	285.5
617.356	289.5
617.563	296.5
617.771	277.5
617.978	294.5
618.185	285.5
618.393	275.5
618.6	291.5
618.807	286.5
619.015	279.5
619.222	267.5
619.429	270.5
619.637	264.5
619.844	268.5
620.051	279.5
620.258	266.5
620.466	262.5
620.673	266.5
620.88	246.5
621.087	262.5
621.294	268.5
621.501	257.5
621.708	271.5
621.915	273.5
622.122	261.5
622.329	276.5
622.536	275.5
622.743	251.5
622.95	264.5
623.157	257.5
623.364	253.5
623.571	262.5
623.778	251.5
623.985	269.5
624.192	237.5
624.399	249.5
624.606	247.5
624.812	248.5
625.019	263.5
625.226	227.5
625.433	242.5
625.639	241.5
625.846	239.5
626.053	247.5
626.259	252.5
626.466	237.5
626.673	250.5
626.879	248.5
627.086	245.5
627.293	237.5
627.499	248.5
627.706	239.5
627.912	227.5
628.119	220.5
628.325	251.5
628.532	250.5
628.738	240.5
628.945	219.5
629.151	224.5
629.357	220.5
629.564	230.5
629.77	221.5
629.976	241.5
630.183	227.5
630.389	236.5
630.595	237.5
630.802	230.5
631.008	228.5
631.214	241.5
631.42	211.5
631.627	216.5
631.833	217.5
632.039	221.5
632.245	237.5
632.451	226.5
632.657	194.5
632.863	214.5
633.069	204.5
633.275	216.5
633.481	205.5
633.688	207.5
633.893	212.5
634.099	220.5
634.305	217.5
634.511	213.5
634.717	204.5
634.923	198.5
635.129	224.5
635.335	216.5
635.541	209.5
635.747	201.5
635.952	220.5
636.158	203.5
636.364	208.5
636.57	195.5
636.775	196.5
636.981	195.5
637.187	207.5
637.392	218.5
637.598	203.5
637.804	190.5
638.009	207.5
638.215	202.5
638.421	187.5
638.626	194.5
638.832	202.5
639.037	192.5
639.243	195.5
639.448	189.5
639.654	203.5
639.859	201.5
640.065	210.5
640.27	186.5
640.475	195.5
640.681	180.5
640.886	198.5
641.091	197.5
641.297	195.5
641.502	177.5
641.707	189.5
641.913	177.5
642.118	177.5
642.323	179.5
642.528	187.5
642.733	198.5
642.939	201.5
643.144	187.5
643.349	191.5
643.554	190.5
643.759	190.5
643.964	185.5
644.169	202.5
644.374	175.5
644.579	181.5
644.784	178.5
644.989	197.5
645.194	177.5
645.399	176.5
645.604	196.5
645.809	194.5
646.014	181.5
646.219	174.5
646.423	198.5
646.628	183.5
646.833	194.5
647.038	187.5
647.243	201.5
647.447	194.5
647.652	190.5
647.857	186.5
648.062	180.5
648.266	177.5
648.471	209.5
648.676	197.5
648.88	171.5
649.085	177.5
649.289	179.5
649.494	184.5
649.698	186.5
649.903	170.5
650.107	169.5
650.312	187.5
650.516	183.5
650.721	188.5
650.925	170.5
651.13	184.5
651.334	173.5
651.539	156.5
651.743	163.5
651.947	191.5
652.152	162.5
652.356	160.5
652.56	168.5
652.764	158.5
652.969	162.5
653.173	159.5
653.377	171.5
653.581	146.5
653.785	151.5
653.99	168.5
654.194	155.5
654.398	161.5
654.602	159.5
654.806	163.5
655.01	161.5
655.214	158.5
655.418	148.5
655.622	154.5
655.826	150.5
656.03	154.5
656.234	145.5
656.438	127.5
656.642	147.5
656.846	143.5
657.049	142.5
657.253	160.5
657.457	131.5
657.661	130.5
657.865	129.5
658.068	117.5
658.272	120.5
658.476	116.5
658.68	117.5
658.883	111.5
659.087	108.5
659.291	105.5
659.494	95.5
659.698	113.5
659.901	94.5
660.105	102.5
660.309	100.5
660.512	93.5
660.716	123.5
660.919	92.5
661.123	97.5
661.326	100.5
661.53	97.5
661.733	92.5
661.936	103.5
662.14	88.5
662.343	83.5
662.546	84.5
662.75	87.5
662.953	77.5
663.156	75.5
663.36	75.5
663.563	95.5
663.766	85.5
663.969	84.5
664.173	83.5
664.376	82.5
664.579	83.5
664.782	85.5
664.985	58.5
665.188	54.5
665.391	79.5
665.594	92.5
665.797	82.5
666	96.5
666.203	85.5
666.406	85.5
666.609	88.5
666.812	81.5
667.015	79.5
667.218	85.5
667.421	76.5
667.624	88.5
667.827	70.5
668.03	75.5
668.232	81.5
668.435	81.5
668.638	89.5
668.841	81.5
669.043	77.5
669.246	73.5
669.449	79.5
669.651	70.5
669.854	91.5
670.057	73.5
670.259	63.5
670.462	75.5
670.665	89.5
670.867	94.5
671.07	83.5
671.272	90.5
671.475	94.5
671.677	83.5
671.88	71.5
672.082	77.5
672.284	62.5
672.487	69.5
672.689	78.5
672.892	71.5
