Data from NiCl2@0.125M.TitratingCurve.Agarose3%dH2O.NegLispCup.LampEnergy10.LIBS07252019_HRD10591_18-27-21-576.txt Node
Date: Thu Jul 25 18:27:21 EDT 2019
User: cochatt
Spectrometer: HR+D1059
Trigger mode: 1
Integration Time (sec): 1.000000E-1
Scans to average: 1
Electric dark correction enabled: true
Nonlinearity correction enabled: false
Boxcar width: 0
XAxis mode: Wavelengths
Number of Pixels in Spectrum: 2048
>>>>>Begin Spectral Data<<<<<
223.165	-27.5
223.4	-27.5
223.635	-27.5
223.869	-8.5
224.104	-32.5
224.338	-15.5
224.573	-10.5
224.808	2.5
225.042	-8.5
225.277	5.5
225.511	2.5
225.746	-9.5
225.98	7.5
226.215	20.5
226.449	18.5
226.683	10.5
226.918	16.5
227.152	28.5
227.387	34.5
227.621	37.5
227.856	44.5
228.09	49.5
228.324	49.5
228.559	78.5
228.793	74.5
229.027	127.5
229.262	120.5
229.496	124.5
229.73	126.5
229.964	139.5
230.199	131.5
230.433	147.5
230.667	152.5
230.901	155.5
231.136	153.5
231.37	156.5
231.604	144.5
231.838	156.5
232.072	158.5
232.306	164.5
232.541	153.5
232.775	161.5
233.009	154.5
233.243	164.5
233.477	163.5
233.711	179.5
233.945	180.5
234.179	186.5
234.413	162.5
234.647	172.5
234.881	169.5
235.115	171.5
235.349	168.5
235.583	158.5
235.817	165.5
236.051	154.5
236.285	168.5
236.519	184.5
236.753	189.5
236.987	193.5
237.221	194.5
237.455	180.5
237.689	173.5
237.922	184.5
238.156	180.5
238.39	178.5
238.624	194.5
238.858	194.5
239.091	196.5
239.325	186.5
239.559	205.5
239.793	192.5
240.027	192.5
240.26	198.5
240.494	193.5
240.728	201.5
240.961	204.5
241.195	235.5
241.429	220.5
241.662	196.5
241.896	227.5
242.13	209.5
242.363	209.5
242.597	214.5
242.83	230.5
243.064	223.5
243.298	216.5
243.531	221.5
243.765	227.5
243.998	251.5
244.232	235.5
244.465	211.5
244.699	228.5
244.932	257.5
245.166	253.5
245.399	260.5
245.633	236.5
245.866	250.5
246.099	254.5
246.333	242.5
246.566	250.5
246.8	255.5
247.033	266.5
247.266	277.5
247.5	268.5
247.733	273.5
247.966	269.5
248.2	262.5
248.433	276.5
248.666	284.5
248.899	285.5
249.133	272.5
249.366	276.5
249.599	294.5
249.832	283.5
250.066	287.5
250.299	296.5
250.532	290.5
250.765	302.5
250.998	308.5
251.231	296.5
251.465	310.5
251.698	301.5
251.931	314.5
252.164	314.5
252.397	327.5
252.63	313.5
252.863	315.5
253.096	326.5
253.329	320.5
253.562	326.5
253.795	325.5
254.028	345.5
254.261	333.5
254.494	342.5
254.727	332.5
254.96	333.5
255.193	316.5
255.426	349.5
255.659	330.5
255.892	352.5
256.124	337.5
256.357	355.5
256.59	330.5
256.823	346.5
257.056	331.5
257.289	346.5
257.521	363.5
257.754	347.5
257.987	358.5
258.22	346.5
258.452	350.5
258.685	384.5
258.918	359.5
259.151	346.5
259.383	361.5
259.616	333.5
259.849	374.5
260.081	376.5
260.314	364.5
260.547	368.5
260.779	370.5
261.012	365.5
261.244	378.5
261.477	364.5
261.71	381.5
261.942	378.5
262.175	388.5
262.407	376.5
262.64	384.5
262.872	392.5
263.105	386.5
263.337	378.5
263.57	402.5
263.802	416.5
264.035	403.5
264.267	395.5
264.499	381.5
264.732	406.5
264.964	405.5
265.197	410.5
265.429	408.5
265.661	406.5
265.894	419.5
266.126	420.5
266.358	435.5
266.591	440.5
266.823	414.5
267.055	419.5
267.287	430.5
267.52	432.5
267.752	441.5
267.984	449.5
268.216	451.5
268.448	417.5
268.681	446.5
268.913	432.5
269.145	445.5
269.377	454.5
269.609	466.5
269.841	454.5
270.073	416.5
270.306	464.5
270.538	443.5
270.77	449.5
271.002	442.5
271.234	444.5
271.466	453.5
271.698	430.5
271.93	448.5
272.162	453.5
272.394	492.5
272.626	438.5
272.858	461.5
273.09	473.5
273.322	475.5
273.553	475.5
273.785	484.5
274.017	479.5
274.249	474.5
274.481	467.5
274.713	485.5
274.945	470.5
275.176	485.5
275.408	461.5
275.64	487.5
275.872	496.5
276.104	509.5
276.335	504.5
276.567	502.5
276.799	499.5
277.031	509.5
277.262	491.5
277.494	521.5
277.726	506.5
277.957	501.5
278.189	498.5
278.421	496.5
278.652	501.5
278.884	532.5
279.115	535.5
279.347	538.5
279.579	516.5
279.81	518.5
280.042	504.5
280.273	531.5
280.505	540.5
280.736	526.5
280.968	542.5
281.199	540.5
281.431	548.5
281.662	553.5
281.894	548.5
282.125	552.5
282.356	574.5
282.588	550.5
282.819	557.5
283.051	549.5
283.282	564.5
283.513	565.5
283.745	563.5
283.976	573.5
284.207	545.5
284.439	558.5
284.67	584.5
284.901	589.5
285.132	563.5
285.364	579.5
285.595	571.5
285.826	594.5
286.057	562.5
286.288	560.5
286.52	587.5
286.751	580.5
286.982	591.5
287.213	593.5
287.444	591.5
287.675	605.5
287.906	623.5
288.138	612.5
288.369	626.5
288.6	606.5
288.831	630.5
289.062	603.5
289.293	624.5
289.524	607.5
289.755	600.5
289.986	610.5
290.217	602.5
290.448	634.5
290.679	608.5
290.91	627.5
291.141	587.5
291.371	630.5
291.602	615.5
291.833	628.5
292.064	628.5
292.295	641.5
292.526	614.5
292.757	638.5
292.987	613.5
293.218	623.5
293.449	643.5
293.68	628.5
293.91	630.5
294.141	611.5
294.372	621.5
294.603	647.5
294.833	626.5
295.064	622.5
295.295	638.5
295.525	639.5
295.756	621.5
295.987	626.5
296.217	678.5
296.448	660.5
296.679	662.5
296.909	662.5
297.14	644.5
297.37	672.5
297.601	673.5
297.831	667.5
298.062	706.5
298.292	680.5
298.523	700.5
298.753	724.5
298.984	666.5
299.214	681.5
299.445	698.5
299.675	674.5
299.905	674.5
300.136	693.5
300.366	692.5
300.597	654.5
300.827	693.5
301.057	702.5
301.288	722.5
301.518	711.5
301.748	730.5
301.979	739.5
302.209	722.5
302.439	716.5
302.669	733.5
302.9	681.5
303.13	742.5
303.36	718.5
303.59	712.5
303.82	703.5
304.051	691.5
304.281	699.5
304.511	682.5
304.741	694.5
304.971	708.5
305.201	690.5
305.431	689.5
305.661	693.5
305.891	709.5
306.121	686.5
306.352	711.5
306.582	701.5
306.812	709.5
307.042	702.5
307.272	704.5
307.502	679.5
307.731	682.5
307.961	717.5
308.191	678.5
308.421	668.5
308.651	710.5
308.881	673.5
309.111	684.5
309.341	682.5
309.571	693.5
309.8	709.5
310.03	686.5
310.26	701.5
310.49	702.5
310.72	693.5
310.949	677.5
311.179	699.5
311.409	696.5
311.639	712.5
311.868	714.5
312.098	713.5
312.328	727.5
312.557	702.5
312.787	736.5
313.017	745.5
313.246	717.5
313.476	734.5
313.706	737.5
313.935	747.5
314.165	739.5
314.394	740.5
314.624	759.5
314.853	745.5
315.083	734.5
315.312	724.5
315.542	743.5
315.771	722.5
316.001	749.5
316.23	742.5
316.46	730.5
316.689	762.5
316.919	745.5
317.148	730.5
317.377	738.5
317.607	722.5
317.836	725.5
318.065	732.5
318.295	743.5
318.524	741.5
318.753	713.5
318.983	731.5
319.212	725.5
319.441	747.5
319.67	710.5
319.9	738.5
320.129	750.5
320.358	747.5
320.587	758.5
320.816	769.5
321.046	783.5
321.275	749.5
321.504	748.5
321.733	739.5
321.962	757.5
322.191	782.5
322.42	769.5
322.649	776.5
322.878	724.5
323.108	744.5
323.337	776.5
323.566	753.5
323.795	764.5
324.024	737.5
324.253	770.5
324.482	774.5
324.71	744.5
324.939	762.5
325.168	762.5
325.397	754.5
325.626	763.5
325.855	793.5
326.084	800.5
326.313	800.5
326.542	800.5
326.77	826.5
326.999	805.5
327.228	802.5
327.457	786.5
327.686	810.5
327.914	803.5
328.143	824.5
328.372	830.5
328.6	831.5
328.829	800.5
329.058	804.5
329.287	817.5
329.515	802.5
329.744	816.5
329.972	843.5
330.201	847.5
330.43	853.5
330.658	829.5
330.887	831.5
331.115	819.5
331.344	869.5
331.572	862.5
331.801	890.5
332.03	884.5
332.258	913.5
332.486	924.5
332.715	931.5
332.943	1002.5
333.172	1028.5
333.4	1066.5
333.629	1097.5
333.857	1089.5
334.085	1093.5
334.314	1034.5
334.542	1080.5
334.771	1030.5
334.999	1048.5
335.227	1028.5
335.455	1040.5
335.684	1026.5
335.912	1003.5
336.14	1004.5
336.369	981.5
336.597	995.5
336.825	981.5
337.053	985.5
337.281	965.5
337.51	929.5
337.738	917.5
337.966	903.5
338.194	917.5
338.422	881.5
338.65	871.5
338.878	870.5
339.106	860.5
339.334	904.5
339.562	862.5
339.79	844.5
340.018	848.5
340.246	868.5
340.474	854.5
340.702	857.5
340.93	845.5
341.158	862.5
341.386	860.5
341.614	875.5
341.842	836.5
342.07	821.5
342.298	846.5
342.526	824.5
342.754	856.5
342.981	828.5
343.209	854.5
343.437	902.5
343.665	938.5
343.893	1007.5
344.12	1052.5
344.348	1034.5
344.576	964.5
344.804	937.5
345.031	884.5
345.259	869.5
345.487	857.5
345.714	853.5
345.942	846.5
346.17	832.5
346.397	851.5
346.625	825.5
346.853	829.5
347.08	824.5
347.308	816.5
347.535	822.5
347.763	812.5
347.99	809.5
348.218	809.5
348.445	828.5
348.673	825.5
348.9	821.5
349.128	811.5
349.355	776.5
349.583	785.5
349.81	788.5
350.037	804.5
350.265	796.5
350.492	810.5
350.72	797.5
350.947	814.5
351.174	805.5
351.402	840.5
351.629	807.5
351.856	792.5
352.083	797.5
352.311	778.5
352.538	796.5
352.765	802.5
352.992	778.5
353.22	794.5
353.447	774.5
353.674	782.5
353.901	782.5
354.128	773.5
354.355	776.5
354.583	781.5
354.81	784.5
355.037	806.5
355.264	785.5
355.491	789.5
355.718	795.5
355.945	825.5
356.172	780.5
356.399	797.5
356.626	801.5
356.853	803.5
357.08	793.5
357.307	788.5
357.534	789.5
357.761	786.5
357.988	789.5
358.215	789.5
358.441	769.5
358.668	795.5
358.895	784.5
359.122	774.5
359.349	802.5
359.576	782.5
359.802	781.5
360.029	792.5
360.256	782.5
360.483	807.5
360.709	794.5
360.936	787.5
361.163	794.5
361.39	806.5
361.616	794.5
361.843	777.5
362.07	800.5
362.296	771.5
362.523	777.5
362.749	780.5
362.976	775.5
363.203	762.5
363.429	782.5
363.656	778.5
363.882	773.5
364.109	774.5
364.335	757.5
364.562	808.5
364.788	778.5
365.015	800.5
365.241	773.5
365.468	786.5
365.694	766.5
365.92	788.5
366.147	811.5
366.373	791.5
366.599	787.5
366.826	787.5
367.052	787.5
367.278	795.5
367.505	805.5
367.731	792.5
367.957	812.5
368.184	802.5
368.41	788.5
368.636	798.5
368.862	774.5
369.089	810.5
369.315	805.5
369.541	803.5
369.767	819.5
369.993	824.5
370.219	840.5
370.445	827.5
370.672	821.5
370.898	819.5
371.124	851.5
371.35	845.5
371.576	856.5
371.802	886.5
372.028	833.5
372.254	848.5
372.48	853.5
372.706	879.5
372.932	856.5
373.158	908.5
373.384	880.5
373.61	838.5
373.835	861.5
374.061	857.5
374.287	845.5
374.513	836.5
374.739	926.5
374.965	958.5
375.191	940.5
375.416	938.5
375.642	886.5
375.868	903.5
376.094	910.5
376.319	884.5
376.545	867.5
376.771	834.5
376.997	880.5
377.222	859.5
377.448	856.5
377.674	863.5
377.899	848.5
378.125	845.5
378.35	840.5
378.576	820.5
378.802	832.5
379.027	857.5
379.253	841.5
379.478	860.5
379.704	865.5
379.929	875.5
380.155	826.5
380.38	826.5
380.606	850.5
380.831	855.5
381.057	844.5
381.282	848.5
381.507	847.5
381.733	872.5
381.958	863.5
382.184	843.5
382.409	892.5
382.634	869.5
382.86	880.5
383.085	908.5
383.31	904.5
383.535	925.5
383.761	926.5
383.986	966.5
384.211	977.5
384.436	982.5
384.662	1001.5
384.887	1028.5
385.112	1030.5
385.337	1026.5
385.562	1034.5
385.787	1042.5
386.013	1064.5
386.238	1058.5
386.463	1052.5
386.688	1064.5
386.913	1002.5
387.138	1027.5
387.363	1030.5
387.588	999.5
387.813	1030.5
388.038	1011.5
388.263	1042.5
388.488	1041.5
388.713	1031.5
388.938	1027.5
389.163	996.5
389.387	1018.5
389.612	1016.5
389.837	1022.5
390.062	1014.5
390.287	1001.5
390.512	1028.5
390.736	1032.5
390.961	1028.5
391.186	1042.5
391.411	1101.5
391.636	1086.5
391.86	1152.5
392.085	1158.5
392.31	1155.5
392.534	1126.5
392.759	1114.5
392.984	1093.5
393.208	1095.5
393.433	1109.5
393.658	1099.5
393.882	1089.5
394.107	1094.5
394.331	1128.5
394.556	1091.5
394.78	1096.5
395.005	1116.5
395.229	1108.5
395.454	1148.5
395.678	1174.5
395.903	1140.5
396.127	1150.5
396.352	1132.5
396.576	1102.5
396.801	1093.5
397.025	1122.5
397.249	1136.5
397.474	1156.5
397.698	1172.5
397.922	1165.5
398.147	1155.5
398.371	1214.5
398.595	1217.5
398.82	1267.5
399.044	1392.5
399.268	1524.5
399.492	1700.5
399.717	1901.5
399.941	1896.5
400.165	1745.5
400.389	1569.5
400.613	1482.5
400.837	1369.5
401.062	1315.5
401.286	1349.5
401.51	1333.5
401.734	1275.5
401.958	1333.5
402.182	1336.5
402.406	1344.5
402.63	1336.5
402.854	1366.5
403.078	1411.5
403.302	1414.5
403.526	1434.5
403.75	1465.5
403.974	1427.5
404.198	1485.5
404.422	1524.5
404.645	1504.5
404.869	1425.5
405.093	1462.5
405.317	1425.5
405.541	1452.5
405.765	1406.5
405.988	1394.5
406.212	1431.5
406.436	1410.5
406.66	1450.5
406.883	1457.5
407.107	1559.5
407.331	1610.5
407.555	1652.5
407.778	1664.5
408.002	1662.5
408.226	1595.5
408.449	1564.5
408.673	1496.5
408.896	1462.5
409.12	1439.5
409.344	1492.5
409.567	1427.5
409.791	1464.5
410.014	1426.5
410.238	1407.5
410.461	1415.5
410.685	1404.5
410.908	1379.5
411.132	1362.5
411.355	1312.5
411.578	1320.5
411.802	1332.5
412.025	1349.5
412.249	1403.5
412.472	1376.5
412.695	1316.5
412.919	1304.5
413.142	1340.5
413.365	1284.5
413.589	1288.5
413.812	1292.5
414.035	1268.5
414.258	1300.5
414.482	1270.5
414.705	1305.5
414.928	1301.5
415.151	1268.5
415.374	1293.5
415.597	1293.5
415.821	1302.5
416.044	1245.5
416.267	1238.5
416.49	1256.5
416.713	1240.5
416.936	1256.5
417.159	1254.5
417.382	1262.5
417.605	1258.5
417.828	1250.5
418.051	1260.5
418.274	1281.5
418.497	1258.5
418.72	1295.5
418.943	1313.5
419.166	1403.5
419.389	1492.5
419.611	1438.5
419.834	1414.5
420.057	1326.5
420.28	1314.5
420.503	1298.5
420.726	1233.5
420.948	1261.5
421.171	1271.5
421.394	1298.5
421.617	1257.5
421.839	1314.5
422.062	1265.5
422.285	1267.5
422.507	1309.5
422.73	1284.5
422.953	1294.5
423.175	1318.5
423.398	1317.5
423.621	1341.5
423.843	1335.5
424.066	1373.5
424.288	1316.5
424.511	1327.5
424.733	1329.5
424.956	1301.5
425.178	1300.5
425.401	1316.5
425.623	1266.5
425.846	1243.5
426.068	1239.5
426.291	1227.5
426.513	1202.5
426.735	1203.5
426.958	1219.5
427.18	1172.5
427.402	1173.5
427.625	1210.5
427.847	1168.5
428.069	1170.5
428.292	1165.5
428.514	1137.5
428.736	1138.5
428.958	1132.5
429.181	1083.5
429.403	1109.5
429.625	1100.5
429.847	1133.5
430.069	1108.5
430.292	1104.5
430.514	1074.5
430.736	1097.5
430.958	1120.5
431.18	1110.5
431.402	1121.5
431.624	1136.5
431.846	1144.5
432.068	1155.5
432.29	1141.5
432.512	1115.5
432.734	1144.5
432.956	1158.5
433.178	1185.5
433.4	1174.5
433.622	1132.5
433.844	1158.5
434.066	1136.5
434.287	1177.5
434.509	1197.5
434.731	1233.5
434.953	1289.5
435.175	1284.5
435.397	1289.5
435.618	1188.5
435.84	1164.5
436.062	1141.5
436.284	1146.5
436.505	1144.5
436.727	1119.5
436.949	1147.5
437.17	1135.5
437.392	1107.5
437.614	1112.5
437.835	1091.5
438.057	1097.5
438.278	1081.5
438.5	1114.5
438.721	1103.5
438.943	1110.5
439.165	1090.5
439.386	1122.5
439.608	1136.5
439.829	1134.5
440.05	1156.5
440.272	1187.5
440.493	1148.5
440.715	1172.5
440.936	1185.5
441.158	1204.5
441.379	1238.5
441.6	1286.5
441.822	1273.5
442.043	1251.5
442.264	1261.5
442.486	1234.5
442.707	1257.5
442.928	1266.5
443.149	1256.5
443.371	1262.5
443.592	1265.5
443.813	1246.5
444.034	1300.5
444.255	1316.5
444.476	1407.5
444.698	1467.5
444.919	1512.5
445.14	1600.5
445.361	1427.5
445.582	1336.5
445.803	1257.5
446.024	1256.5
446.245	1231.5
446.466	1178.5
446.687	1177.5
446.908	1151.5
447.129	1136.5
447.35	1082.5
447.571	1126.5
447.792	1078.5
448.013	1107.5
448.234	1051.5
448.455	1046.5
448.675	1078.5
448.896	1076.5
449.117	1046.5
449.338	1045.5
449.559	1032.5
449.779	1035.5
450	1050.5
450.221	1067.5
450.442	1067.5
450.662	1049.5
450.883	1083.5
451.104	1083.5
451.324	1035.5
451.545	1076.5
451.766	1058.5
451.986	1053.5
452.207	1037.5
452.428	1024.5
452.648	1039.5
452.869	1051.5
453.089	1005.5
453.31	1026.5
453.53	1021.5
453.751	1010.5
453.971	1011.5
454.192	1001.5
454.412	975.5
454.633	969.5
454.853	997.5
455.073	979.5
455.294	968.5
455.514	957.5
455.734	995.5
455.955	972.5
456.175	970.5
456.395	970.5
456.616	968.5
456.836	975.5
457.056	980.5
457.276	961.5
457.497	997.5
457.717	956.5
457.937	993.5
458.157	996.5
458.377	966.5
458.598	1019.5
458.818	1045.5
459.038	1102.5
459.258	1110.5
459.478	1127.5
459.698	1156.5
459.918	1191.5
460.138	1244.5
460.358	1301.5
460.578	1311.5
460.798	1358.5
461.018	1377.5
461.238	1345.5
461.458	1317.5
461.678	1332.5
461.898	1346.5
462.118	1360.5
462.338	1442.5
462.558	1468.5
462.777	1524.5
462.997	1632.5
463.217	1764.5
463.437	1784.5
463.657	1664.5
463.876	1590.5
464.096	1591.5
464.316	1522.5
464.536	1534.5
464.755	1478.5
464.975	1442.5
465.195	1384.5
465.414	1279.5
465.634	1220.5
465.854	1188.5
466.073	1160.5
466.293	1193.5
466.512	1123.5
466.732	1085.5
466.951	1096.5
467.171	1098.5
467.391	1118.5
467.61	1074.5
467.829	1084.5
468.049	1065.5
468.268	1074.5
468.488	1034.5
468.707	1037.5
468.927	1034.5
469.146	1036.5
469.365	1067.5
469.585	1076.5
469.804	1104.5
470.023	1109.5
470.243	1129.5
470.462	1130.5
470.681	1150.5
470.901	1120.5
471.12	1094.5
471.339	1097.5
471.558	1067.5
471.777	1070.5
471.997	1062.5
472.216	1054.5
472.435	1023.5
472.654	1054.5
472.873	1024.5
473.092	1030.5
473.311	1027.5
473.53	1063.5
473.749	994.5
473.968	1038.5
474.187	996.5
474.406	1030.5
474.625	1020.5
474.844	1036.5
475.063	995.5
475.282	1033.5
475.501	1024.5
475.72	1056.5
475.939	1027.5
476.158	1057.5
476.377	1062.5
476.596	1069.5
476.814	1072.5
477.033	1065.5
477.252	1117.5
477.471	1156.5
477.69	1126.5
477.908	1184.5
478.127	1195.5
478.346	1225.5
478.564	1235.5
478.783	1245.5
479.002	1301.5
479.22	1283.5
479.439	1284.5
479.658	1240.5
479.876	1254.5
480.095	1308.5
480.313	1329.5
480.532	1383.5
480.751	1376.5
480.969	1266.5
481.188	1269.5
481.406	1218.5
481.624	1195.5
481.843	1210.5
482.061	1199.5
482.28	1193.5
482.498	1188.5
482.717	1157.5
482.935	1156.5
483.153	1159.5
483.372	1200.5
483.59	1204.5
483.808	1165.5
484.027	1181.5
484.245	1177.5
484.463	1241.5
484.681	1204.5
484.9	1204.5
485.118	1214.5
485.336	1228.5
485.554	1252.5
485.772	1235.5
485.99	1202.5
486.209	1210.5
486.427	1227.5
486.645	1241.5
486.863	1237.5
487.081	1278.5
487.299	1239.5
487.517	1251.5
487.735	1246.5
487.953	1237.5
488.171	1269.5
488.389	1238.5
488.607	1223.5
488.825	1225.5
489.043	1197.5
489.261	1202.5
489.479	1218.5
489.696	1212.5
489.914	1218.5
490.132	1216.5
490.35	1232.5
490.568	1238.5
490.786	1260.5
491.003	1266.5
491.221	1236.5
491.439	1237.5
491.657	1268.5
491.874	1235.5
492.092	1262.5
492.31	1266.5
492.527	1248.5
492.745	1280.5
492.963	1280.5
493.18	1266.5
493.398	1245.5
493.615	1276.5
493.833	1260.5
494.05	1300.5
494.268	1332.5
494.485	1305.5
494.703	1310.5
494.92	1313.5
495.138	1296.5
495.355	1334.5
495.573	1334.5
495.79	1304.5
496.008	1302.5
496.225	1354.5
496.442	1342.5
496.66	1397.5
496.877	1364.5
497.094	1428.5
497.312	1408.5
497.529	1452.5
497.746	1480.5
497.963	1537.5
498.181	1590.5
498.398	1656.5
498.615	1750.5
498.832	1866.5
499.049	1995.5
499.267	2161.5
499.484	2345.5
499.701	2621.5
499.918	2774.5
500.135	3166.5
500.352	3578.5
500.569	3712.5
500.786	3675.5
501.003	3476.5
501.22	3135.5
501.437	2814.5
501.654	2517.5
501.871	2258.5
502.088	2112.5
502.305	1981.5
502.522	1890.5
502.739	1796.5
502.956	1724.5
503.172	1648.5
503.389	1606.5
503.606	1515.5
503.823	1507.5
504.04	1466.5
504.256	1500.5
504.473	1519.5
504.69	1577.5
504.907	1510.5
505.123	1422.5
505.34	1348.5
505.557	1294.5
505.773	1308.5
505.99	1249.5
506.207	1201.5
506.423	1204.5
506.64	1178.5
506.856	1176.5
507.073	1134.5
507.289	1131.5
507.506	1155.5
507.722	1131.5
507.939	1157.5
508.155	1091.5
508.372	1088.5
508.588	1125.5
508.805	1100.5
509.021	1111.5
509.238	1052.5
509.454	1096.5
509.67	1074.5
509.887	1070.5
510.103	1031.5
510.319	1062.5
510.536	1054.5
510.752	1064.5
510.968	1054.5
511.184	1019.5
511.401	994.5
511.617	1036.5
511.833	1011.5
512.049	1033.5
512.265	1049.5
512.481	1029.5
512.698	1028.5
512.914	1036.5
513.13	1034.5
513.346	1023.5
513.562	1004.5
513.778	1036.5
513.994	1038.5
514.21	1027.5
514.426	1014.5
514.642	1034.5
514.858	1046.5
515.074	1043.5
515.29	1075.5
515.506	1083.5
515.721	1101.5
515.937	1098.5
516.153	1143.5
516.369	1150.5
516.585	1188.5
516.801	1226.5
517.016	1251.5
517.232	1302.5
517.448	1380.5
517.664	1385.5
517.879	1447.5
518.095	1428.5
518.311	1401.5
518.527	1356.5
518.742	1304.5
518.958	1260.5
519.173	1202.5
519.389	1171.5
519.605	1113.5
519.82	1145.5
520.036	1085.5
520.251	1106.5
520.467	1064.5
520.682	1036.5
520.898	1052.5
521.113	1040.5
521.329	1027.5
521.544	1031.5
521.76	1000.5
521.975	986.5
522.19	978.5
522.406	1006.5
522.621	992.5
522.836	965.5
523.052	971.5
523.267	964.5
523.482	978.5
523.698	958.5
523.913	934.5
524.128	948.5
524.343	945.5
524.559	951.5
524.774	929.5
524.989	955.5
525.204	970.5
525.419	950.5
525.634	932.5
525.849	947.5
526.064	933.5
526.28	909.5
526.495	929.5
526.71	929.5
526.925	912.5
527.14	920.5
527.355	917.5
527.57	921.5
527.785	933.5
527.999	920.5
528.214	921.5
528.429	961.5
528.644	918.5
528.859	934.5
529.074	933.5
529.289	932.5
529.503	924.5
529.718	930.5
529.933	940.5
530.148	915.5
530.363	924.5
530.577	918.5
530.792	907.5
531.007	903.5
531.221	928.5
531.436	922.5
531.651	944.5
531.865	949.5
532.08	930.5
532.295	937.5
532.509	908.5
532.724	928.5
532.938	922.5
533.153	932.5
533.367	907.5
533.582	946.5
533.796	907.5
534.011	920.5
534.225	914.5
534.44	889.5
534.654	906.5
534.868	923.5
535.083	896.5
535.297	884.5
535.511	873.5
535.726	898.5
535.94	872.5
536.154	850.5
536.369	878.5
536.583	852.5
536.797	862.5
537.011	881.5
537.225	874.5
537.44	860.5
537.654	865.5
537.868	862.5
538.082	829.5
538.296	847.5
538.51	833.5
538.724	829.5
538.938	838.5
539.153	834.5
539.367	836.5
539.581	847.5
539.795	817.5
540.009	814.5
540.222	803.5
540.436	825.5
540.65	850.5
540.864	824.5
541.078	831.5
541.292	835.5
541.506	845.5
541.72	867.5
541.934	826.5
542.147	848.5
542.361	850.5
542.575	827.5
542.789	816.5
543.002	835.5
543.216	823.5
543.43	818.5
543.644	804.5
543.857	810.5
544.071	786.5
544.285	814.5
544.498	818.5
544.712	823.5
544.925	830.5
545.139	848.5
545.352	841.5
545.566	847.5
545.779	855.5
545.993	851.5
546.206	861.5
546.42	873.5
546.633	865.5
546.847	860.5
547.06	832.5
547.274	867.5
547.487	851.5
547.7	841.5
547.914	857.5
548.127	862.5
548.34	851.5
548.554	828.5
548.767	866.5
548.98	838.5
549.193	847.5
549.407	868.5
549.62	851.5
549.833	877.5
550.046	883.5
550.259	856.5
550.473	861.5
550.686	849.5
550.899	827.5
551.112	857.5
551.325	822.5
551.538	830.5
551.751	832.5
551.964	820.5
552.177	859.5
552.39	861.5
552.603	863.5
552.816	891.5
553.029	894.5
553.242	902.5
553.455	929.5
553.667	962.5
553.88	904.5
554.093	860.5
554.306	876.5
554.519	832.5
554.732	851.5
554.944	810.5
555.157	809.5
555.37	829.5
555.583	797.5
555.795	798.5
556.008	766.5
556.221	781.5
556.433	756.5
556.646	765.5
556.859	747.5
557.071	738.5
557.284	731.5
557.496	745.5
557.709	744.5
557.921	731.5
558.134	708.5
558.346	708.5
558.559	700.5
558.771	729.5
558.984	710.5
559.196	712.5
559.409	672.5
559.621	690.5
559.833	717.5
560.046	683.5
560.258	690.5
560.47	712.5
560.683	681.5
560.895	681.5
561.107	671.5
561.32	710.5
561.532	677.5
561.744	668.5
561.956	688.5
562.168	687.5
562.381	710.5
562.593	706.5
562.805	709.5
563.017	709.5
563.229	720.5
563.441	710.5
563.653	712.5
563.865	718.5
564.077	714.5
564.289	718.5
564.501	717.5
564.713	752.5
564.925	756.5
565.137	746.5
565.349	794.5
565.561	805.5
565.773	843.5
565.985	859.5
566.197	921.5
566.408	968.5
566.62	1057.5
566.832	1112.5
567.044	1150.5
567.255	1120.5
567.467	1192.5
567.679	1244.5
567.891	1306.5
568.102	1333.5
568.314	1248.5
568.526	1162.5
568.737	1082.5
568.949	966.5
569.161	921.5
569.372	864.5
569.584	812.5
569.795	791.5
570.007	741.5
570.218	726.5
570.43	725.5
570.641	723.5
570.853	725.5
571.064	732.5
571.276	737.5
571.487	701.5
571.698	674.5
571.91	652.5
572.121	670.5
572.333	619.5
572.544	612.5
572.755	614.5
572.966	610.5
573.178	567.5
573.389	596.5
573.6	586.5
573.811	592.5
574.023	557.5
574.234	581.5
574.445	579.5
574.656	561.5
574.867	574.5
575.078	561.5
575.289	554.5
575.501	554.5
575.712	544.5
575.923	540.5
576.134	552.5
576.345	546.5
576.556	556.5
576.767	542.5
576.978	540.5
577.188	535.5
577.399	548.5
577.61	540.5
577.821	518.5
578.032	525.5
578.243	531.5
578.454	500.5
578.665	534.5
578.875	509.5
579.086	519.5
579.297	500.5
579.508	535.5
579.718	498.5
579.929	501.5
580.14	512.5
580.35	512.5
580.561	500.5
580.772	496.5
580.982	496.5
581.193	483.5
581.403	486.5
581.614	490.5
581.825	505.5
582.035	496.5
582.246	492.5
582.456	481.5
582.667	474.5
582.877	481.5
583.087	471.5
583.298	457.5
583.508	460.5
583.719	481.5
583.929	503.5
584.139	473.5
584.35	469.5
584.56	462.5
584.77	468.5
584.981	474.5
585.191	468.5
585.401	436.5
585.611	479.5
585.821	467.5
586.032	440.5
586.242	466.5
586.452	474.5
586.662	454.5
586.872	466.5
587.082	451.5
587.292	459.5
587.502	461.5
587.713	457.5
587.923	465.5
588.133	457.5
588.343	464.5
588.553	464.5
588.762	465.5
588.972	466.5
589.182	470.5
589.392	469.5
589.602	445.5
589.812	467.5
590.022	459.5
590.232	455.5
590.441	461.5
590.651	465.5
590.861	474.5
591.071	482.5
591.281	461.5
591.49	486.5
591.7	470.5
591.91	493.5
592.119	511.5
592.329	493.5
592.539	536.5
592.748	544.5
592.958	532.5
593.167	558.5
593.377	560.5
593.587	576.5
593.796	597.5
594.006	596.5
594.215	573.5
594.424	572.5
594.634	565.5
594.843	539.5
595.053	508.5
595.262	554.5
595.472	491.5
595.681	472.5
595.89	466.5
596.1	461.5
596.309	472.5
596.518	436.5
596.727	452.5
596.937	440.5
597.146	434.5
597.355	439.5
597.564	428.5
597.774	410.5
597.983	404.5
598.192	399.5
598.401	424.5
598.61	400.5
598.819	407.5
599.028	371.5
599.237	382.5
599.446	393.5
599.655	387.5
599.864	394.5
600.073	400.5
600.282	412.5
600.491	374.5
600.7	390.5
600.909	378.5
601.118	393.5
601.327	374.5
601.536	384.5
601.745	372.5
601.953	378.5
602.162	377.5
602.371	389.5
602.58	383.5
602.789	369.5
602.997	376.5
603.206	370.5
603.415	388.5
603.623	379.5
603.832	368.5
604.041	351.5
604.249	365.5
604.458	363.5
604.666	357.5
604.875	369.5
605.084	377.5
605.292	362.5
605.501	340.5
605.709	342.5
605.918	362.5
606.126	357.5
606.334	356.5
606.543	358.5
606.751	360.5
606.96	346.5
607.168	348.5
607.376	336.5
607.585	363.5
607.793	360.5
608.001	345.5
608.21	350.5
608.418	347.5
608.626	352.5
608.834	334.5
609.043	363.5
609.251	357.5
609.459	324.5
609.667	360.5
609.875	352.5
610.083	336.5
610.291	343.5
610.499	334.5
610.707	330.5
610.916	339.5
611.124	349.5
611.332	333.5
611.54	347.5
611.748	326.5
611.955	333.5
612.163	331.5
612.371	339.5
612.579	338.5
612.787	342.5
612.995	341.5
613.203	343.5
613.411	324.5
613.618	326.5
613.826	328.5
614.034	335.5
614.242	324.5
614.449	312.5
614.657	327.5
614.865	328.5
615.072	335.5
615.28	338.5
615.488	322.5
615.695	332.5
615.903	326.5
616.111	331.5
616.318	319.5
616.526	331.5
616.733	326.5
616.941	326.5
617.148	308.5
617.356	334.5
617.563	342.5
617.771	344.5
617.978	322.5
618.185	337.5
618.393	311.5
618.6	313.5
618.807	333.5
619.015	329.5
619.222	336.5
619.429	328.5
619.637	322.5
619.844	317.5
620.051	319.5
620.258	317.5
620.466	300.5
620.673	305.5
620.88	296.5
621.087	288.5
621.294	318.5
621.501	301.5
621.708	302.5
621.915	285.5
622.122	284.5
622.329	324.5
622.536	314.5
622.743	314.5
622.95	297.5
623.157	308.5
623.364	301.5
623.571	294.5
623.778	283.5
623.985	304.5
624.192	302.5
624.399	282.5
624.606	302.5
624.812	300.5
625.019	291.5
625.226	302.5
625.433	292.5
625.639	275.5
625.846	271.5
626.053	265.5
626.259	282.5
626.466	293.5
626.673	275.5
626.879	262.5
627.086	270.5
627.293	283.5
627.499	281.5
627.706	274.5
627.912	280.5
628.119	272.5
628.325	270.5
628.532	272.5
628.738	272.5
628.945	251.5
629.151	260.5
629.357	268.5
629.564	254.5
629.77	269.5
629.976	282.5
630.183	258.5
630.389	274.5
630.595	242.5
630.802	236.5
631.008	258.5
631.214	272.5
631.42	270.5
631.627	271.5
631.833	281.5
632.039	236.5
632.245	256.5
632.451	237.5
632.657	268.5
632.863	232.5
633.069	261.5
633.275	248.5
633.481	232.5
633.688	220.5
633.893	258.5
634.099	250.5
634.305	252.5
634.511	247.5
634.717	250.5
634.923	251.5
635.129	230.5
635.335	238.5
635.541	244.5
635.747	246.5
635.952	227.5
636.158	249.5
636.364	226.5
636.57	236.5
636.775	243.5
636.981	223.5
637.187	238.5
637.392	240.5
637.598	226.5
637.804	246.5
638.009	231.5
638.215	242.5
638.421	233.5
638.626	231.5
638.832	233.5
639.037	228.5
639.243	225.5
639.448	222.5
639.654	226.5
639.859	235.5
640.065	240.5
640.27	224.5
640.475	210.5
640.681	223.5
640.886	211.5
641.091	227.5
641.297	219.5
641.502	231.5
641.707	205.5
641.913	211.5
642.118	221.5
642.323	213.5
642.528	225.5
642.733	223.5
642.939	210.5
643.144	216.5
643.349	213.5
643.554	224.5
643.759	220.5
643.964	201.5
644.169	215.5
644.374	210.5
644.579	210.5
644.784	212.5
644.989	219.5
645.194	217.5
645.399	222.5
645.604	210.5
645.809	203.5
646.014	237.5
646.219	213.5
646.423	229.5
646.628	222.5
646.833	219.5
647.038	209.5
647.243	207.5
647.447	205.5
647.652	203.5
647.857	211.5
648.062	222.5
648.266	212.5
648.471	226.5
648.676	232.5
648.88	217.5
649.085	217.5
649.289	214.5
649.494	208.5
649.698	207.5
649.903	212.5
650.107	194.5
650.312	210.5
650.516	200.5
650.721	195.5
650.925	202.5
651.13	197.5
651.334	206.5
651.539	184.5
651.743	192.5
651.947	183.5
652.152	191.5
652.356	178.5
652.56	191.5
652.764	178.5
652.969	174.5
653.173	172.5
653.377	183.5
653.581	171.5
653.785	166.5
653.99	162.5
654.194	164.5
654.398	164.5
654.602	176.5
654.806	164.5
655.01	169.5
655.214	169.5
655.418	155.5
655.622	157.5
655.826	164.5
656.03	158.5
656.234	162.5
656.438	174.5
656.642	165.5
656.846	168.5
657.049	154.5
657.253	144.5
657.457	168.5
657.661	147.5
657.865	140.5
658.068	133.5
658.272	126.5
658.476	142.5
658.68	126.5
658.883	123.5
659.087	133.5
659.291	101.5
659.494	95.5
659.698	104.5
659.901	116.5
660.105	120.5
660.309	97.5
660.512	92.5
660.716	79.5
660.919	100.5
661.123	86.5
661.326	98.5
661.53	99.5
661.733	99.5
661.936	77.5
662.14	88.5
662.343	72.5
662.546	89.5
662.75	95.5
662.953	95.5
663.156	84.5
663.36	84.5
663.563	71.5
663.766	97.5
663.969	80.5
664.173	70.5
664.376	84.5
664.579	80.5
664.782	78.5
664.985	96.5
665.188	76.5
665.391	71.5
665.594	81.5
665.797	87.5
666	91.5
666.203	78.5
666.406	86.5
666.609	92.5
666.812	84.5
667.015	79.5
667.218	86.5
667.421	81.5
667.624	77.5
667.827	82.5
668.03	78.5
668.232	73.5
668.435	91.5
668.638	86.5
668.841	90.5
669.043	81.5
669.246	68.5
669.449	78.5
669.651	76.5
669.854	84.5
670.057	83.5
670.259	91.5
670.462	84.5
670.665	92.5
670.867	76.5
671.07	86.5
671.272	76.5
671.475	93.5
671.677	82.5
671.88	83.5
672.082	86.5
672.284	91.5
672.487	78.5
672.689	82.5
672.892	81.5
