Data from NiCl2@0.25M.TitratingCurve.Agarose3%dH2O.NegLispCup.LampEnergy10.LIBS07252019_HRD10591_18-24-04-572.txt Node
Date: Thu Jul 25 18:24:04 EDT 2019
User: cochatt
Spectrometer: HR+D1059
Trigger mode: 1
Integration Time (sec): 1.000000E-1
Scans to average: 1
Electric dark correction enabled: true
Nonlinearity correction enabled: false
Boxcar width: 0
XAxis mode: Wavelengths
Number of Pixels in Spectrum: 2048
>>>>>Begin Spectral Data<<<<<
223.165	-22.44
223.4	-22.44
223.635	-22.44
223.869	-20.44
224.104	-20.44
224.338	-13.44
224.573	-6.44
224.808	-25.44
225.042	-13.44
225.277	-7.44
225.511	-7.44
225.746	7.56
225.98	-3.44
226.215	12.56
226.449	20.56
226.683	31.56
226.918	22.56
227.152	45.56
227.387	21.56
227.621	27.56
227.856	46.56
228.09	38.56
228.324	34.56
228.559	51.56
228.793	78.56
229.027	88.56
229.262	111.56
229.496	104.56
229.73	98.56
229.964	112.56
230.199	117.56
230.433	118.56
230.667	108.56
230.901	122.56
231.136	131.56
231.37	124.56
231.604	121.56
231.838	121.56
232.072	136.56
232.306	145.56
232.541	132.56
232.775	132.56
233.009	121.56
233.243	134.56
233.477	143.56
233.711	128.56
233.945	139.56
234.179	137.56
234.413	124.56
234.647	134.56
234.881	142.56
235.115	130.56
235.349	137.56
235.583	154.56
235.817	132.56
236.051	142.56
236.285	133.56
236.519	122.56
236.753	137.56
236.987	161.56
237.221	146.56
237.455	134.56
237.689	160.56
237.922	150.56
238.156	148.56
238.39	145.56
238.624	148.56
238.858	150.56
239.091	142.56
239.325	151.56
239.559	147.56
239.793	154.56
240.027	160.56
240.26	151.56
240.494	166.56
240.728	169.56
240.961	167.56
241.195	176.56
241.429	166.56
241.662	164.56
241.896	158.56
242.13	159.56
242.363	177.56
242.597	176.56
242.83	158.56
243.064	179.56
243.298	156.56
243.531	168.56
243.765	175.56
243.998	162.56
244.232	191.56
244.465	171.56
244.699	190.56
244.932	186.56
245.166	186.56
245.399	180.56
245.633	183.56
245.866	186.56
246.099	192.56
246.333	203.56
246.566	193.56
246.8	179.56
247.033	206.56
247.266	205.56
247.5	198.56
247.733	193.56
247.966	212.56
248.2	204.56
248.433	193.56
248.666	206.56
248.899	212.56
249.133	212.56
249.366	225.56
249.599	229.56
249.832	204.56
250.066	203.56
250.299	202.56
250.532	227.56
250.765	216.56
250.998	209.56
251.231	227.56
251.465	227.56
251.698	235.56
251.931	234.56
252.164	236.56
252.397	217.56
252.63	233.56
252.863	228.56
253.096	223.56
253.329	224.56
253.562	241.56
253.795	248.56
254.028	241.56
254.261	235.56
254.494	252.56
254.727	236.56
254.96	232.56
255.193	230.56
255.426	244.56
255.659	230.56
255.892	256.56
256.124	250.56
256.357	251.56
256.59	240.56
256.823	242.56
257.056	255.56
257.289	248.56
257.521	268.56
257.754	259.56
257.987	255.56
258.22	263.56
258.452	279.56
258.685	267.56
258.918	259.56
259.151	262.56
259.383	275.56
259.616	274.56
259.849	271.56
260.081	270.56
260.314	261.56
260.547	263.56
260.779	271.56
261.012	266.56
261.244	283.56
261.477	270.56
261.71	272.56
261.942	278.56
262.175	278.56
262.407	293.56
262.64	266.56
262.872	288.56
263.105	293.56
263.337	281.56
263.57	279.56
263.802	264.56
264.035	279.56
264.267	297.56
264.499	282.56
264.732	277.56
264.964	294.56
265.197	287.56
265.429	305.56
265.661	298.56
265.894	311.56
266.126	311.56
266.358	298.56
266.591	290.56
266.823	304.56
267.055	302.56
267.287	311.56
267.52	298.56
267.752	330.56
267.984	325.56
268.216	320.56
268.448	311.56
268.681	347.56
268.913	314.56
269.145	326.56
269.377	327.56
269.609	327.56
269.841	322.56
270.073	308.56
270.306	326.56
270.538	320.56
270.77	306.56
271.002	331.56
271.234	328.56
271.466	331.56
271.698	313.56
271.93	336.56
272.162	364.56
272.394	337.56
272.626	349.56
272.858	321.56
273.09	345.56
273.322	341.56
273.553	330.56
273.785	343.56
274.017	325.56
274.249	346.56
274.481	337.56
274.713	351.56
274.945	356.56
275.176	332.56
275.408	354.56
275.64	351.56
275.872	374.56
276.104	378.56
276.335	353.56
276.567	342.56
276.799	352.56
277.031	348.56
277.262	369.56
277.494	368.56
277.726	360.56
277.957	386.56
278.189	376.56
278.421	346.56
278.652	359.56
278.884	363.56
279.115	356.56
279.347	383.56
279.579	364.56
279.81	374.56
280.042	394.56
280.273	392.56
280.505	394.56
280.736	377.56
280.968	400.56
281.199	400.56
281.431	401.56
281.662	394.56
281.894	406.56
282.125	399.56
282.356	404.56
282.588	420.56
282.819	385.56
283.051	395.56
283.282	400.56
283.513	393.56
283.745	414.56
283.976	392.56
284.207	396.56
284.439	402.56
284.67	404.56
284.901	412.56
285.132	407.56
285.364	411.56
285.595	432.56
285.826	425.56
286.057	428.56
286.288	432.56
286.52	420.56
286.751	434.56
286.982	434.56
287.213	418.56
287.444	419.56
287.675	440.56
287.906	440.56
288.138	442.56
288.369	442.56
288.6	440.56
288.831	452.56
289.062	439.56
289.293	458.56
289.524	437.56
289.755	459.56
289.986	450.56
290.217	425.56
290.448	458.56
290.679	452.56
290.91	450.56
291.141	440.56
291.371	460.56
291.602	460.56
291.833	422.56
292.064	439.56
292.295	456.56
292.526	458.56
292.757	460.56
292.987	458.56
293.218	426.56
293.449	437.56
293.68	444.56
293.91	450.56
294.141	450.56
294.372	455.56
294.603	442.56
294.833	445.56
295.064	472.56
295.295	460.56
295.525	465.56
295.756	461.56
295.987	455.56
296.217	457.56
296.448	483.56
296.679	463.56
296.909	455.56
297.14	450.56
297.37	460.56
297.601	474.56
297.831	484.56
298.062	472.56
298.292	512.56
298.523	498.56
298.753	508.56
298.984	502.56
299.214	477.56
299.445	500.56
299.675	477.56
299.905	489.56
300.136	476.56
300.366	499.56
300.597	515.56
300.827	512.56
301.057	498.56
301.288	515.56
301.518	518.56
301.748	530.56
301.979	526.56
302.209	510.56
302.439	504.56
302.669	510.56
302.9	499.56
303.13	492.56
303.36	514.56
303.59	502.56
303.82	512.56
304.051	521.56
304.281	505.56
304.511	524.56
304.741	526.56
304.971	506.56
305.201	513.56
305.431	510.56
305.661	509.56
305.891	490.56
306.121	501.56
306.352	494.56
306.582	507.56
306.812	499.56
307.042	480.56
307.272	502.56
307.502	497.56
307.731	498.56
307.961	502.56
308.191	510.56
308.421	483.56
308.651	485.56
308.881	491.56
309.111	488.56
309.341	501.56
309.571	513.56
309.8	495.56
310.03	502.56
310.26	505.56
310.49	498.56
310.72	490.56
310.949	482.56
311.179	508.56
311.409	491.56
311.639	491.56
311.868	499.56
312.098	531.56
312.328	530.56
312.557	538.56
312.787	521.56
313.017	540.56
313.246	528.56
313.476	521.56
313.706	555.56
313.935	538.56
314.165	521.56
314.394	547.56
314.624	552.56
314.853	539.56
315.083	540.56
315.312	533.56
315.542	524.56
315.771	535.56
316.001	536.56
316.23	539.56
316.46	538.56
316.689	528.56
316.919	530.56
317.148	535.56
317.377	535.56
317.607	515.56
317.836	521.56
318.065	530.56
318.295	542.56
318.524	525.56
318.753	539.56
318.983	541.56
319.212	514.56
319.441	523.56
319.67	533.56
319.9	539.56
320.129	522.56
320.358	548.56
320.587	524.56
320.816	535.56
321.046	538.56
321.275	532.56
321.504	542.56
321.733	533.56
321.962	525.56
322.191	524.56
322.42	524.56
322.649	544.56
322.878	562.56
323.108	551.56
323.337	540.56
323.566	528.56
323.795	539.56
324.024	537.56
324.253	548.56
324.482	560.56
324.71	548.56
324.939	529.56
325.168	581.56
325.397	570.56
325.626	554.56
325.855	536.56
326.084	588.56
326.313	594.56
326.542	600.56
326.77	602.56
326.999	586.56
327.228	567.56
327.457	563.56
327.686	566.56
327.914	584.56
328.143	550.56
328.372	583.56
328.6	576.56
328.829	592.56
329.058	592.56
329.287	565.56
329.515	592.56
329.744	578.56
329.972	580.56
330.201	578.56
330.43	596.56
330.658	608.56
330.887	598.56
331.115	612.56
331.344	615.56
331.572	615.56
331.801	629.56
332.03	626.56
332.258	664.56
332.486	662.56
332.715	681.56
332.943	715.56
333.172	754.56
333.4	772.56
333.629	780.56
333.857	779.56
334.085	772.56
334.314	786.56
334.542	730.56
334.771	745.56
334.999	717.56
335.227	747.56
335.455	757.56
335.684	708.56
335.912	711.56
336.14	712.56
336.369	680.56
336.597	675.56
336.825	690.56
337.053	711.56
337.281	675.56
337.51	653.56
337.738	688.56
337.966	643.56
338.194	658.56
338.422	657.56
338.65	653.56
338.878	646.56
339.106	648.56
339.334	655.56
339.562	630.56
339.79	613.56
340.018	608.56
340.246	611.56
340.474	612.56
340.702	625.56
340.93	626.56
341.158	589.56
341.386	615.56
341.614	608.56
341.842	622.56
342.07	606.56
342.298	627.56
342.526	595.56
342.754	608.56
342.981	598.56
343.209	620.56
343.437	665.56
343.665	680.56
343.893	752.56
344.12	740.56
344.348	766.56
344.576	690.56
344.804	647.56
345.031	632.56
345.259	622.56
345.487	612.56
345.714	624.56
345.942	609.56
346.17	619.56
346.397	587.56
346.625	585.56
346.853	584.56
347.08	600.56
347.308	604.56
347.535	612.56
347.763	595.56
347.99	605.56
348.218	599.56
348.445	611.56
348.673	586.56
348.9	594.56
349.128	584.56
349.355	578.56
349.583	587.56
349.81	582.56
350.037	570.56
350.265	575.56
350.492	606.56
350.72	568.56
350.947	597.56
351.174	570.56
351.402	565.56
351.629	573.56
351.856	575.56
352.083	560.56
352.311	570.56
352.538	565.56
352.765	565.56
352.992	566.56
353.22	543.56
353.447	551.56
353.674	571.56
353.901	574.56
354.128	542.56
354.355	556.56
354.583	566.56
354.81	562.56
355.037	593.56
355.264	539.56
355.491	566.56
355.718	554.56
355.945	568.56
356.172	576.56
356.399	590.56
356.626	577.56
356.853	572.56
357.08	594.56
357.307	562.56
357.534	578.56
357.761	573.56
357.988	564.56
358.215	573.56
358.441	558.56
358.668	537.56
358.895	577.56
359.122	566.56
359.349	575.56
359.576	566.56
359.802	566.56
360.029	584.56
360.256	570.56
360.483	566.56
360.709	569.56
360.936	571.56
361.163	568.56
361.39	569.56
361.616	572.56
361.843	574.56
362.07	598.56
362.296	578.56
362.523	562.56
362.749	565.56
362.976	580.56
363.203	568.56
363.429	569.56
363.656	592.56
363.882	567.56
364.109	578.56
364.335	556.56
364.562	550.56
364.788	559.56
365.015	552.56
365.241	548.56
365.468	560.56
365.694	555.56
365.92	560.56
366.147	551.56
366.373	586.56
366.599	566.56
366.826	568.56
367.052	573.56
367.278	586.56
367.505	556.56
367.731	574.56
367.957	587.56
368.184	580.56
368.41	585.56
368.636	590.56
368.862	570.56
369.089	586.56
369.315	583.56
369.541	581.56
369.767	563.56
369.993	578.56
370.219	583.56
370.445	581.56
370.672	614.56
370.898	622.56
371.124	600.56
371.35	628.56
371.576	600.56
371.802	603.56
372.028	631.56
372.254	612.56
372.48	610.56
372.706	630.56
372.932	636.56
373.158	652.56
373.384	619.56
373.61	638.56
373.835	616.56
374.061	602.56
374.287	633.56
374.513	611.56
374.739	633.56
374.965	669.56
375.191	654.56
375.416	687.56
375.642	658.56
375.868	634.56
376.094	638.56
376.319	610.56
376.545	611.56
376.771	624.56
376.997	618.56
377.222	621.56
377.448	595.56
377.674	596.56
377.899	606.56
378.125	619.56
378.35	607.56
378.576	595.56
378.802	610.56
379.027	629.56
379.253	624.56
379.478	632.56
379.704	598.56
379.929	616.56
380.155	604.56
380.38	604.56
380.606	630.56
380.831	598.56
381.057	617.56
381.282	627.56
381.507	606.56
381.733	619.56
381.958	623.56
382.184	651.56
382.409	636.56
382.634	645.56
382.86	645.56
383.085	657.56
383.31	656.56
383.535	679.56
383.761	676.56
383.986	691.56
384.211	720.56
384.436	714.56
384.662	727.56
384.887	727.56
385.112	730.56
385.337	741.56
385.562	738.56
385.787	742.56
386.013	746.56
386.238	758.56
386.463	751.56
386.688	754.56
386.913	740.56
387.138	732.56
387.363	728.56
387.588	736.56
387.813	722.56
388.038	708.56
388.263	726.56
388.488	743.56
388.713	730.56
388.938	746.56
389.163	719.56
389.387	729.56
389.612	704.56
389.837	706.56
390.062	708.56
390.287	707.56
390.512	727.56
390.736	739.56
390.961	746.56
391.186	774.56
391.411	764.56
391.636	816.56
391.86	835.56
392.085	814.56
392.31	839.56
392.534	837.56
392.759	807.56
392.984	781.56
393.208	794.56
393.433	795.56
393.658	759.56
393.882	774.56
394.107	779.56
394.331	803.56
394.556	796.56
394.78	806.56
395.005	774.56
395.229	810.56
395.454	832.56
395.678	836.56
395.903	845.56
396.127	814.56
396.352	789.56
396.576	791.56
396.801	786.56
397.025	801.56
397.249	837.56
397.474	835.56
397.698	818.56
397.922	838.56
398.147	842.56
398.371	868.56
398.595	888.56
398.82	926.56
399.044	956.56
399.268	1054.56
399.492	1227.56
399.717	1387.56
399.941	1387.56
400.165	1253.56
400.389	1087.56
400.613	998.56
400.837	958.56
401.062	949.56
401.286	935.56
401.51	910.56
401.734	905.56
401.958	946.56
402.182	950.56
402.406	929.56
402.63	979.56
402.854	986.56
403.078	1006.56
403.302	1055.56
403.526	1061.56
403.75	1069.56
403.974	1060.56
404.198	1099.56
404.422	1081.56
404.645	1060.56
404.869	1058.56
405.093	1058.56
405.317	1050.56
405.541	1033.56
405.765	1003.56
405.988	1012.56
406.212	1012.56
406.436	1026.56
406.66	1039.56
406.883	1062.56
407.107	1130.56
407.331	1179.56
407.555	1211.56
407.778	1155.56
408.002	1199.56
408.226	1142.56
408.449	1123.56
408.673	1082.56
408.896	1074.56
409.12	1067.56
409.344	1071.56
409.567	1043.56
409.791	1050.56
410.014	1031.56
410.238	1016.56
410.461	1042.56
410.685	1032.56
410.908	986.56
411.132	974.56
411.355	922.56
411.578	960.56
411.802	922.56
412.025	944.56
412.249	997.56
412.472	986.56
412.695	955.56
412.919	927.56
413.142	931.56
413.365	933.56
413.589	946.56
413.812	917.56
414.035	915.56
414.258	916.56
414.482	925.56
414.705	924.56
414.928	937.56
415.151	928.56
415.374	914.56
415.597	931.56
415.821	884.56
416.044	916.56
416.267	898.56
416.49	921.56
416.713	872.56
416.936	898.56
417.159	914.56
417.382	916.56
417.605	903.56
417.828	885.56
418.051	908.56
418.274	943.56
418.497	933.56
418.72	948.56
418.943	932.56
419.166	1011.56
419.389	1055.56
419.611	1010.56
419.834	1015.56
420.057	965.56
420.28	926.56
420.503	902.56
420.726	902.56
420.948	906.56
421.171	894.56
421.394	896.56
421.617	915.56
421.839	914.56
422.062	890.56
422.285	913.56
422.507	934.56
422.73	921.56
422.953	937.56
423.175	954.56
423.398	981.56
423.621	967.56
423.843	977.56
424.066	981.56
424.288	978.56
424.511	960.56
424.733	977.56
424.956	931.56
425.178	940.56
425.401	906.56
425.623	920.56
425.846	876.56
426.068	874.56
426.291	881.56
426.513	863.56
426.735	871.56
426.958	866.56
427.18	833.56
427.402	856.56
427.625	817.56
427.847	843.56
428.069	819.56
428.292	840.56
428.514	814.56
428.736	816.56
428.958	806.56
429.181	803.56
429.403	791.56
429.625	807.56
429.847	808.56
430.069	820.56
430.292	790.56
430.514	789.56
430.736	788.56
430.958	801.56
431.18	817.56
431.402	800.56
431.624	816.56
431.846	826.56
432.068	827.56
432.29	847.56
432.512	819.56
432.734	821.56
432.956	799.56
433.178	837.56
433.4	839.56
433.622	815.56
433.844	830.56
434.066	851.56
434.287	847.56
434.509	865.56
434.731	885.56
434.953	912.56
435.175	931.56
435.397	915.56
435.618	848.56
435.84	856.56
436.062	835.56
436.284	818.56
436.505	792.56
436.727	807.56
436.949	818.56
437.17	809.56
437.392	821.56
437.614	802.56
437.835	779.56
438.057	800.56
438.278	774.56
438.5	784.56
438.721	755.56
438.943	803.56
439.165	783.56
439.386	784.56
439.608	808.56
439.829	793.56
440.05	795.56
440.272	815.56
440.493	816.56
440.715	815.56
440.936	843.56
441.158	841.56
441.379	885.56
441.6	935.56
441.822	918.56
442.043	907.56
442.264	894.56
442.486	880.56
442.707	904.56
442.928	870.56
443.149	888.56
443.371	870.56
443.592	889.56
443.813	914.56
444.034	899.56
444.255	960.56
444.476	1002.56
444.698	1028.56
444.919	1067.56
445.14	1174.56
445.361	1049.56
445.582	942.56
445.803	890.56
446.024	871.56
446.245	851.56
446.466	835.56
446.687	821.56
446.908	812.56
447.129	802.56
447.35	780.56
447.571	771.56
447.792	768.56
448.013	772.56
448.234	737.56
448.455	770.56
448.675	764.56
448.896	779.56
449.117	728.56
449.338	743.56
449.559	730.56
449.779	739.56
450	750.56
450.221	755.56
450.442	753.56
450.662	758.56
450.883	762.56
451.104	783.56
451.324	774.56
451.545	776.56
451.766	752.56
451.986	737.56
452.207	742.56
452.428	745.56
452.648	761.56
452.869	744.56
453.089	726.56
453.31	713.56
453.53	707.56
453.751	728.56
453.971	758.56
454.192	710.56
454.412	715.56
454.633	696.56
454.853	712.56
455.073	670.56
455.294	681.56
455.514	691.56
455.734	710.56
455.955	712.56
456.175	693.56
456.395	687.56
456.616	688.56
456.836	700.56
457.056	695.56
457.276	707.56
457.497	707.56
457.717	713.56
457.937	723.56
458.157	723.56
458.377	713.56
458.598	729.56
458.818	751.56
459.038	778.56
459.258	807.56
459.478	826.56
459.698	836.56
459.918	881.56
460.138	891.56
460.358	940.56
460.578	945.56
460.798	979.56
461.018	970.56
461.238	945.56
461.458	951.56
461.678	946.56
461.898	972.56
462.118	986.56
462.338	1045.56
462.558	1058.56
462.777	1094.56
462.997	1183.56
463.217	1264.56
463.437	1282.56
463.657	1185.56
463.876	1125.56
464.096	1145.56
464.316	1114.56
464.536	1124.56
464.755	1097.56
464.975	1023.56
465.195	974.56
465.414	942.56
465.634	881.56
465.854	848.56
466.073	849.56
466.293	791.56
466.512	800.56
466.732	787.56
466.951	784.56
467.171	791.56
467.391	802.56
467.61	767.56
467.829	805.56
468.049	770.56
468.268	759.56
468.488	759.56
468.707	752.56
468.927	759.56
469.146	750.56
469.365	762.56
469.585	755.56
469.804	817.56
470.023	781.56
470.243	797.56
470.462	811.56
470.681	802.56
470.901	817.56
471.12	818.56
471.339	774.56
471.558	790.56
471.777	790.56
471.997	769.56
472.216	736.56
472.435	733.56
472.654	731.56
472.873	711.56
473.092	748.56
473.311	744.56
473.53	736.56
473.749	751.56
473.968	743.56
474.187	726.56
474.406	726.56
474.625	746.56
474.844	728.56
475.063	748.56
475.282	738.56
475.501	762.56
475.72	772.56
475.939	760.56
476.158	757.56
476.377	766.56
476.596	774.56
476.814	773.56
477.033	757.56
477.252	803.56
477.471	833.56
477.69	837.56
477.908	841.56
478.127	878.56
478.346	870.56
478.564	906.56
478.783	890.56
479.002	919.56
479.22	942.56
479.439	920.56
479.658	896.56
479.876	929.56
480.095	948.56
480.313	960.56
480.532	987.56
480.751	991.56
480.969	939.56
481.188	889.56
481.406	879.56
481.624	855.56
481.843	862.56
482.061	850.56
482.28	823.56
482.498	830.56
482.717	830.56
482.935	843.56
483.153	866.56
483.372	816.56
483.59	836.56
483.808	882.56
484.027	834.56
484.245	869.56
484.463	864.56
484.681	860.56
484.9	885.56
485.118	865.56
485.336	883.56
485.554	884.56
485.772	889.56
485.99	868.56
486.209	910.56
486.427	878.56
486.645	889.56
486.863	915.56
487.081	888.56
487.299	892.56
487.517	888.56
487.735	893.56
487.953	894.56
488.171	856.56
488.389	874.56
488.607	870.56
488.825	878.56
489.043	849.56
489.261	844.56
489.479	885.56
489.696	859.56
489.914	862.56
490.132	894.56
490.35	890.56
490.568	893.56
490.786	906.56
491.003	881.56
491.221	889.56
491.439	894.56
491.657	904.56
491.874	891.56
492.092	917.56
492.31	889.56
492.527	912.56
492.745	906.56
492.963	937.56
493.18	907.56
493.398	908.56
493.615	943.56
493.833	908.56
494.05	938.56
494.268	946.56
494.485	954.56
494.703	960.56
494.92	999.56
495.138	945.56
495.355	966.56
495.573	960.56
495.79	945.56
496.008	964.56
496.225	963.56
496.442	970.56
496.66	972.56
496.877	985.56
497.094	985.56
497.312	1019.56
497.529	1044.56
497.746	1101.56
497.963	1119.56
498.181	1145.56
498.398	1164.56
498.615	1255.56
498.832	1362.56
499.049	1481.56
499.267	1566.56
499.484	1704.56
499.701	1893.56
499.918	2110.56
500.135	2431.56
500.352	2716.56
500.569	2856.56
500.786	2852.56
501.003	2586.56
501.22	2331.56
501.437	2075.56
501.654	1835.56
501.871	1642.56
502.088	1515.56
502.305	1400.56
502.522	1330.56
502.739	1317.56
502.956	1218.56
503.172	1178.56
503.389	1146.56
503.606	1090.56
503.823	1084.56
504.04	1039.56
504.256	1087.56
504.473	1084.56
504.69	1088.56
504.907	1102.56
505.123	1035.56
505.34	990.56
505.557	944.56
505.773	908.56
505.99	896.56
506.207	900.56
506.423	894.56
506.64	863.56
506.856	854.56
507.073	833.56
507.289	829.56
507.506	858.56
507.722	834.56
507.939	805.56
508.155	806.56
508.372	799.56
508.588	811.56
508.805	795.56
509.021	795.56
509.238	775.56
509.454	778.56
509.67	761.56
509.887	786.56
510.103	775.56
510.319	775.56
510.536	781.56
510.752	741.56
510.968	756.56
511.184	770.56
511.401	766.56
511.617	768.56
511.833	756.56
512.049	732.56
512.265	755.56
512.481	750.56
512.698	740.56
512.914	772.56
513.13	746.56
513.346	728.56
513.562	779.56
513.778	768.56
513.994	755.56
514.21	746.56
514.426	770.56
514.642	771.56
514.858	793.56
515.074	790.56
515.29	781.56
515.506	780.56
515.721	806.56
515.937	806.56
516.153	825.56
516.369	854.56
516.585	853.56
516.801	886.56
517.016	928.56
517.232	977.56
517.448	1026.56
517.664	1055.56
517.879	1051.56
518.095	1062.56
518.311	1062.56
518.527	1004.56
518.742	950.56
518.958	903.56
519.173	883.56
519.389	866.56
519.605	843.56
519.82	834.56
520.036	835.56
520.251	776.56
520.467	774.56
520.682	763.56
520.898	758.56
521.113	761.56
521.329	746.56
521.544	724.56
521.76	761.56
521.975	750.56
522.19	742.56
522.406	727.56
522.621	723.56
522.836	718.56
523.052	716.56
523.267	715.56
523.482	704.56
523.698	697.56
523.913	704.56
524.128	705.56
524.343	689.56
524.559	699.56
524.774	692.56
524.989	691.56
525.204	737.56
525.419	691.56
525.634	678.56
525.849	688.56
526.064	715.56
526.28	694.56
526.495	699.56
526.71	694.56
526.925	673.56
527.14	675.56
527.355	681.56
527.57	693.56
527.785	696.56
527.999	658.56
528.214	665.56
528.429	658.56
528.644	695.56
528.859	703.56
529.074	687.56
529.289	689.56
529.503	691.56
529.718	686.56
529.933	668.56
530.148	663.56
530.363	675.56
530.577	695.56
530.792	656.56
531.007	667.56
531.221	696.56
531.436	686.56
531.651	662.56
531.865	683.56
532.08	656.56
532.295	695.56
532.509	686.56
532.724	699.56
532.938	670.56
533.153	682.56
533.367	673.56
533.582	677.56
533.796	680.56
534.011	691.56
534.225	665.56
534.44	656.56
534.654	678.56
534.868	678.56
535.083	659.56
535.297	674.56
535.511	663.56
535.726	669.56
535.94	630.56
536.154	642.56
536.369	636.56
536.583	638.56
536.797	636.56
537.011	615.56
537.225	646.56
537.44	638.56
537.654	614.56
537.868	618.56
538.082	625.56
538.296	651.56
538.51	609.56
538.724	619.56
538.938	613.56
539.153	623.56
539.367	615.56
539.581	632.56
539.795	607.56
540.009	604.56
540.222	622.56
540.436	600.56
540.65	590.56
540.864	610.56
541.078	624.56
541.292	634.56
541.506	631.56
541.72	602.56
541.934	631.56
542.147	632.56
542.361	633.56
542.575	608.56
542.789	605.56
543.002	583.56
543.216	599.56
543.43	596.56
543.644	607.56
543.857	600.56
544.071	592.56
544.285	604.56
544.498	636.56
544.712	630.56
544.925	634.56
545.139	612.56
545.352	630.56
545.566	618.56
545.779	642.56
545.993	634.56
546.206	619.56
546.42	620.56
546.633	623.56
546.847	628.56
547.06	619.56
547.274	614.56
547.487	628.56
547.7	613.56
547.914	660.56
548.127	632.56
548.34	639.56
548.554	631.56
548.767	637.56
548.98	602.56
549.193	645.56
549.407	637.56
549.62	648.56
549.833	658.56
550.046	649.56
550.259	630.56
550.473	609.56
550.686	618.56
550.899	600.56
551.112	611.56
551.325	627.56
551.538	629.56
551.751	633.56
551.964	623.56
552.177	640.56
552.39	613.56
552.603	644.56
552.816	634.56
553.029	670.56
553.242	672.56
553.455	676.56
553.667	702.56
553.88	696.56
554.093	660.56
554.306	641.56
554.519	601.56
554.732	638.56
554.944	606.56
555.157	598.56
555.37	581.56
555.583	606.56
555.795	563.56
556.008	569.56
556.221	553.56
556.433	555.56
556.646	564.56
556.859	547.56
557.071	534.56
557.284	522.56
557.496	543.56
557.709	547.56
557.921	566.56
558.134	546.56
558.346	517.56
558.559	545.56
558.771	532.56
558.984	519.56
559.196	522.56
559.409	519.56
559.621	522.56
559.833	546.56
560.046	503.56
560.258	517.56
560.47	528.56
560.683	521.56
560.895	512.56
561.107	498.56
561.32	499.56
561.532	507.56
561.744	499.56
561.956	509.56
562.168	500.56
562.381	513.56
562.593	485.56
562.805	540.56
563.017	485.56
563.229	514.56
563.441	517.56
563.653	522.56
563.865	511.56
564.077	538.56
564.289	550.56
564.501	549.56
564.713	530.56
564.925	548.56
565.137	567.56
565.349	572.56
565.561	592.56
565.773	617.56
565.985	644.56
566.197	671.56
566.408	724.56
566.62	758.56
566.832	811.56
567.044	826.56
567.255	836.56
567.467	860.56
567.679	918.56
567.891	971.56
568.102	982.56
568.314	918.56
568.526	824.56
568.737	771.56
568.949	730.56
569.161	662.56
569.372	615.56
569.584	586.56
569.795	563.56
570.007	550.56
570.218	530.56
570.43	514.56
570.641	512.56
570.853	526.56
571.064	521.56
571.276	541.56
571.487	540.56
571.698	510.56
571.91	484.56
572.121	470.56
572.333	468.56
572.544	479.56
572.755	455.56
572.966	443.56
573.178	456.56
573.389	443.56
573.6	432.56
573.811	423.56
574.023	422.56
574.234	440.56
574.445	415.56
574.656	426.56
574.867	445.56
575.078	426.56
575.289	428.56
575.501	426.56
575.712	399.56
575.923	400.56
576.134	413.56
576.345	439.56
576.556	385.56
576.767	378.56
576.978	393.56
577.188	375.56
577.399	390.56
577.61	379.56
577.821	382.56
578.032	378.56
578.243	393.56
578.454	402.56
578.665	398.56
578.875	389.56
579.086	391.56
579.297	372.56
579.508	381.56
579.718	380.56
579.929	389.56
580.14	386.56
580.35	349.56
580.561	378.56
580.772	369.56
580.982	361.56
581.193	363.56
581.403	362.56
581.614	371.56
581.825	362.56
582.035	363.56
582.246	361.56
582.456	360.56
582.667	355.56
582.877	360.56
583.087	359.56
583.298	346.56
583.508	345.56
583.719	347.56
583.929	351.56
584.139	354.56
584.35	337.56
584.56	338.56
584.77	358.56
584.981	346.56
585.191	367.56
585.401	355.56
585.611	352.56
585.821	345.56
586.032	356.56
586.242	339.56
586.452	327.56
586.662	346.56
586.872	325.56
587.082	342.56
587.292	356.56
587.502	334.56
587.713	349.56
587.923	351.56
588.133	347.56
588.343	335.56
588.553	324.56
588.762	337.56
588.972	356.56
589.182	347.56
589.392	345.56
589.602	347.56
589.812	351.56
590.022	358.56
590.232	362.56
590.441	344.56
590.651	350.56
590.861	363.56
591.071	361.56
591.281	339.56
591.49	356.56
591.7	368.56
591.91	347.56
592.119	355.56
592.329	364.56
592.539	372.56
592.748	400.56
592.958	424.56
593.167	413.56
593.377	434.56
593.587	426.56
593.796	412.56
594.006	426.56
594.215	440.56
594.424	439.56
594.634	441.56
594.843	414.56
595.053	409.56
595.262	378.56
595.472	385.56
595.681	350.56
595.89	373.56
596.1	346.56
596.309	328.56
596.518	322.56
596.727	342.56
596.937	333.56
597.146	326.56
597.355	325.56
597.564	306.56
597.774	320.56
597.983	296.56
598.192	296.56
598.401	307.56
598.61	307.56
598.819	278.56
599.028	294.56
599.237	302.56
599.446	302.56
599.655	297.56
599.864	308.56
600.073	292.56
600.282	268.56
600.491	288.56
600.7	264.56
600.909	295.56
601.118	304.56
601.327	286.56
601.536	286.56
601.745	298.56
601.953	314.56
602.162	307.56
602.371	280.56
602.58	292.56
602.789	285.56
602.997	268.56
603.206	285.56
603.415	288.56
603.623	285.56
603.832	301.56
604.041	284.56
604.249	273.56
604.458	280.56
604.666	262.56
604.875	262.56
605.084	255.56
605.292	259.56
605.501	259.56
605.709	277.56
605.918	269.56
606.126	263.56
606.334	266.56
606.543	257.56
606.751	274.56
606.96	256.56
607.168	267.56
607.376	250.56
607.585	266.56
607.793	278.56
608.001	258.56
608.21	254.56
608.418	276.56
608.626	280.56
608.834	266.56
609.043	262.56
609.251	278.56
609.459	257.56
609.667	262.56
609.875	262.56
610.083	250.56
610.291	251.56
610.499	267.56
610.707	273.56
610.916	252.56
611.124	262.56
611.332	249.56
611.54	230.56
611.748	262.56
611.955	248.56
612.163	254.56
612.371	256.56
612.579	243.56
612.787	238.56
612.995	250.56
613.203	254.56
613.411	266.56
613.618	249.56
613.826	259.56
614.034	254.56
614.242	256.56
614.449	257.56
614.657	249.56
614.865	245.56
615.072	258.56
615.28	263.56
615.488	268.56
615.695	251.56
615.903	265.56
616.111	254.56
616.318	232.56
616.526	238.56
616.733	244.56
616.941	265.56
617.148	241.56
617.356	250.56
617.563	238.56
617.771	246.56
617.978	250.56
618.185	245.56
618.393	251.56
618.6	265.56
618.807	266.56
619.015	248.56
619.222	259.56
619.429	260.56
619.637	236.56
619.844	234.56
620.051	240.56
620.258	227.56
620.466	225.56
620.673	236.56
620.88	217.56
621.087	221.56
621.294	234.56
621.501	233.56
621.708	240.56
621.915	238.56
622.122	232.56
622.329	225.56
622.536	243.56
622.743	240.56
622.95	233.56
623.157	238.56
623.364	208.56
623.571	238.56
623.778	211.56
623.985	222.56
624.192	234.56
624.399	231.56
624.606	213.56
624.812	214.56
625.019	226.56
625.226	213.56
625.433	217.56
625.639	228.56
625.846	211.56
626.053	223.56
626.259	217.56
626.466	221.56
626.673	221.56
626.879	207.56
627.086	226.56
627.293	229.56
627.499	210.56
627.706	220.56
627.912	219.56
628.119	209.56
628.325	216.56
628.532	208.56
628.738	217.56
628.945	183.56
629.151	214.56
629.357	203.56
629.564	205.56
629.77	227.56
629.976	204.56
630.183	193.56
630.389	209.56
630.595	195.56
630.802	186.56
631.008	198.56
631.214	204.56
631.42	213.56
631.627	192.56
631.833	210.56
632.039	195.56
632.245	206.56
632.451	183.56
632.657	192.56
632.863	187.56
633.069	212.56
633.275	191.56
633.481	190.56
633.688	185.56
633.893	185.56
634.099	189.56
634.305	196.56
634.511	205.56
634.717	194.56
634.923	187.56
635.129	186.56
635.335	180.56
635.541	183.56
635.747	220.56
635.952	187.56
636.158	190.56
636.364	188.56
636.57	189.56
636.775	205.56
636.981	192.56
637.187	173.56
637.392	196.56
637.598	183.56
637.804	181.56
638.009	196.56
638.215	176.56
638.421	200.56
638.626	183.56
638.832	180.56
639.037	191.56
639.243	182.56
639.448	184.56
639.654	188.56
639.859	178.56
640.065	174.56
640.27	183.56
640.475	188.56
640.681	166.56
640.886	174.56
641.091	178.56
641.297	183.56
641.502	168.56
641.707	178.56
641.913	167.56
642.118	169.56
642.323	184.56
642.528	174.56
642.733	166.56
642.939	176.56
643.144	177.56
643.349	184.56
643.554	158.56
643.759	169.56
643.964	162.56
644.169	159.56
644.374	158.56
644.579	170.56
644.784	157.56
644.989	162.56
645.194	166.56
645.399	169.56
645.604	167.56
645.809	168.56
646.014	184.56
646.219	177.56
646.423	168.56
646.628	170.56
646.833	184.56
647.038	174.56
647.243	178.56
647.447	161.56
647.652	168.56
647.857	165.56
648.062	176.56
648.266	176.56
648.471	180.56
648.676	191.56
648.88	167.56
649.085	174.56
649.289	165.56
649.494	171.56
649.698	163.56
649.903	160.56
650.107	175.56
650.312	168.56
650.516	164.56
650.721	167.56
650.925	157.56
651.13	151.56
651.334	158.56
651.539	163.56
651.743	160.56
651.947	154.56
652.152	156.56
652.356	154.56
652.56	116.56
652.764	156.56
652.969	135.56
653.173	150.56
653.377	144.56
653.581	144.56
653.785	147.56
653.99	135.56
654.194	126.56
654.398	131.56
654.602	129.56
654.806	129.56
655.01	131.56
655.214	112.56
655.418	133.56
655.622	138.56
655.826	131.56
656.03	139.56
656.234	110.56
656.438	122.56
656.642	123.56
656.846	133.56
657.049	122.56
657.253	120.56
657.457	122.56
657.661	107.56
657.865	102.56
658.068	127.56
658.272	101.56
658.476	96.56
658.68	108.56
658.883	125.56
659.087	107.56
659.291	110.56
659.494	88.56
659.698	99.56
659.901	94.56
660.105	106.56
660.309	96.56
660.512	96.56
660.716	90.56
660.919	94.56
661.123	82.56
661.326	85.56
661.53	79.56
661.733	96.56
661.936	84.56
662.14	93.56
662.343	84.56
662.546	75.56
662.75	88.56
662.953	85.56
663.156	94.56
663.36	87.56
663.563	79.56
663.766	77.56
663.969	87.56
664.173	74.56
664.376	71.56
664.579	78.56
664.782	82.56
664.985	72.56
665.188	86.56
665.391	81.56
665.594	91.56
665.797	85.56
666	83.56
666.203	78.56
666.406	83.56
666.609	69.56
666.812	80.56
667.015	86.56
667.218	74.56
667.421	76.56
667.624	86.56
667.827	80.56
668.03	84.56
668.232	82.56
668.435	76.56
668.638	74.56
668.841	82.56
669.043	77.56
669.246	90.56
669.449	72.56
669.651	73.56
669.854	86.56
670.057	82.56
670.259	78.56
670.462	95.56
670.665	84.56
670.867	102.56
671.07	89.56
671.272	80.56
671.475	93.56
671.677	82.56
671.88	92.56
672.082	86.56
672.284	76.56
672.487	80.56
672.689	72.56
672.892	85.56
