Data from NiCl2@0.0625M.TitratingCurve.Agarose3%dH2O.NegLispCup.LampEnergy10.LIBS07252019_HRD10591_18-32-48-578.txt Node
Date: Thu Jul 25 18:32:48 EDT 2019
User: cochatt
Spectrometer: HR+D1059
Trigger mode: 1
Integration Time (sec): 1.000000E-1
Scans to average: 1
Electric dark correction enabled: true
Nonlinearity correction enabled: false
Boxcar width: 0
XAxis mode: Wavelengths
Number of Pixels in Spectrum: 2048
>>>>>Begin Spectral Data<<<<<
223.165	-7.44
223.4	-7.44
223.635	-7.44
223.869	-17.44
224.104	-18.44
224.338	-21.44
224.573	-4.44
224.808	-17.44
225.042	-12.44
225.277	-5.44
225.511	-13.44
225.746	7.56
225.98	4.56
226.215	14.56
226.449	14.56
226.683	23.56
226.918	29.56
227.152	23.56
227.387	34.56
227.621	51.56
227.856	38.56
228.09	52.56
228.324	65.56
228.559	58.56
228.793	79.56
229.027	153.56
229.262	151.56
229.496	183.56
229.73	180.56
229.964	183.56
230.199	186.56
230.433	197.56
230.667	198.56
230.901	203.56
231.136	173.56
231.37	199.56
231.604	194.56
231.838	214.56
232.072	205.56
232.306	215.56
232.541	208.56
232.775	217.56
233.009	214.56
233.243	208.56
233.477	221.56
233.711	225.56
233.945	207.56
234.179	232.56
234.413	198.56
234.647	236.56
234.881	225.56
235.115	233.56
235.349	225.56
235.583	225.56
235.817	225.56
236.051	240.56
236.285	235.56
236.519	232.56
236.753	242.56
236.987	260.56
237.221	244.56
237.455	252.56
237.689	258.56
237.922	272.56
238.156	268.56
238.39	263.56
238.624	275.56
238.858	265.56
239.091	256.56
239.325	266.56
239.559	278.56
239.793	264.56
240.027	302.56
240.26	289.56
240.494	282.56
240.728	283.56
240.961	297.56
241.195	281.56
241.429	321.56
241.662	315.56
241.896	320.56
242.13	312.56
242.363	312.56
242.597	321.56
242.83	314.56
243.064	322.56
243.298	300.56
243.531	330.56
243.765	332.56
243.998	358.56
244.232	345.56
244.465	338.56
244.699	360.56
244.932	371.56
245.166	346.56
245.399	366.56
245.633	355.56
245.866	355.56
246.099	348.56
246.333	370.56
246.566	378.56
246.8	382.56
247.033	357.56
247.266	377.56
247.5	386.56
247.733	368.56
247.966	395.56
248.2	395.56
248.433	417.56
248.666	397.56
248.899	404.56
249.133	420.56
249.366	408.56
249.599	446.56
249.832	422.56
250.066	424.56
250.299	420.56
250.532	428.56
250.765	449.56
250.998	420.56
251.231	456.56
251.465	453.56
251.698	473.56
251.931	453.56
252.164	461.56
252.397	466.56
252.63	450.56
252.863	466.56
253.096	450.56
253.329	471.56
253.562	457.56
253.795	498.56
254.028	461.56
254.261	484.56
254.494	514.56
254.727	496.56
254.96	475.56
255.193	499.56
255.426	499.56
255.659	496.56
255.892	487.56
256.124	495.56
256.357	501.56
256.59	530.56
256.823	514.56
257.056	511.56
257.289	514.56
257.521	525.56
257.754	536.56
257.987	507.56
258.22	518.56
258.452	501.56
258.685	529.56
258.918	554.56
259.151	533.56
259.383	541.56
259.616	535.56
259.849	561.56
260.081	572.56
260.314	587.56
260.547	568.56
260.779	551.56
261.012	561.56
261.244	571.56
261.477	595.56
261.71	566.56
261.942	578.56
262.175	581.56
262.407	575.56
262.64	577.56
262.872	574.56
263.105	581.56
263.337	574.56
263.57	620.56
263.802	586.56
264.035	575.56
264.267	610.56
264.499	605.56
264.732	583.56
264.964	597.56
265.197	627.56
265.429	607.56
265.661	618.56
265.894	619.56
266.126	607.56
266.358	644.56
266.591	627.56
266.823	634.56
267.055	653.56
267.287	653.56
267.52	634.56
267.752	636.56
267.984	638.56
268.216	629.56
268.448	658.56
268.681	683.56
268.913	668.56
269.145	643.56
269.377	655.56
269.609	650.56
269.841	662.56
270.073	674.56
270.306	667.56
270.538	670.56
270.77	702.56
271.002	675.56
271.234	683.56
271.466	668.56
271.698	683.56
271.93	692.56
272.162	692.56
272.394	695.56
272.626	691.56
272.858	719.56
273.09	733.56
273.322	702.56
273.553	711.56
273.785	727.56
274.017	732.56
274.249	747.56
274.481	758.56
274.713	757.56
274.945	781.56
275.176	773.56
275.408	795.56
275.64	766.56
275.872	777.56
276.104	766.56
276.335	739.56
276.567	742.56
276.799	774.56
277.031	786.56
277.262	758.56
277.494	764.56
277.726	773.56
277.957	779.56
278.189	773.56
278.421	785.56
278.652	800.56
278.884	765.56
279.115	812.56
279.347	826.56
279.579	838.56
279.81	860.56
280.042	841.56
280.273	840.56
280.505	839.56
280.736	828.56
280.968	849.56
281.199	810.56
281.431	850.56
281.662	821.56
281.894	843.56
282.125	826.56
282.356	871.56
282.588	850.56
282.819	843.56
283.051	844.56
283.282	850.56
283.513	853.56
283.745	846.56
283.976	849.56
284.207	881.56
284.439	847.56
284.67	868.56
284.901	870.56
285.132	896.56
285.364	875.56
285.595	893.56
285.826	868.56
286.057	896.56
286.288	887.56
286.52	902.56
286.751	918.56
286.982	913.56
287.213	923.56
287.444	928.56
287.675	932.56
287.906	888.56
288.138	922.56
288.369	903.56
288.6	916.56
288.831	938.56
289.062	917.56
289.293	958.56
289.524	946.56
289.755	942.56
289.986	940.56
290.217	963.56
290.448	949.56
290.679	939.56
290.91	936.56
291.141	954.56
291.371	957.56
291.602	950.56
291.833	957.56
292.064	931.56
292.295	918.56
292.526	960.56
292.757	940.56
292.987	938.56
293.218	928.56
293.449	969.56
293.68	958.56
293.91	952.56
294.141	965.56
294.372	953.56
294.603	963.56
294.833	957.56
295.064	947.56
295.295	981.56
295.525	957.56
295.756	962.56
295.987	956.56
296.217	976.56
296.448	978.56
296.679	975.56
296.909	978.56
297.14	1008.56
297.37	986.56
297.601	1029.56
297.831	999.56
298.062	1012.56
298.292	1036.56
298.523	1068.56
298.753	1042.56
298.984	1034.56
299.214	1030.56
299.445	1016.56
299.675	1017.56
299.905	1013.56
300.136	1036.56
300.366	1028.56
300.597	1043.56
300.827	1082.56
301.057	1075.56
301.288	1091.56
301.518	1089.56
301.748	1092.56
301.979	1078.56
302.209	1094.56
302.439	1107.56
302.669	1084.56
302.9	1080.56
303.13	1064.56
303.36	1081.56
303.59	1094.56
303.82	1078.56
304.051	1104.56
304.281	1102.56
304.511	1081.56
304.741	1058.56
304.971	1117.56
305.201	1084.56
305.431	1124.56
305.661	1080.56
305.891	1065.56
306.121	1084.56
306.352	1097.56
306.582	1056.56
306.812	1048.56
307.042	1072.56
307.272	1063.56
307.502	1058.56
307.731	1059.56
307.961	1058.56
308.191	1074.56
308.421	1066.56
308.651	1054.56
308.881	1057.56
309.111	1069.56
309.341	1055.56
309.571	1090.56
309.8	1105.56
310.03	1079.56
310.26	1070.56
310.49	1097.56
310.72	1099.56
310.949	1083.56
311.179	1101.56
311.409	1084.56
311.639	1114.56
311.868	1110.56
312.098	1106.56
312.328	1144.56
312.557	1124.56
312.787	1112.56
313.017	1145.56
313.246	1147.56
313.476	1126.56
313.706	1151.56
313.935	1158.56
314.165	1169.56
314.394	1168.56
314.624	1143.56
314.853	1143.56
315.083	1133.56
315.312	1149.56
315.542	1183.56
315.771	1181.56
316.001	1125.56
316.23	1170.56
316.46	1141.56
316.689	1142.56
316.919	1163.56
317.148	1160.56
317.377	1159.56
317.607	1166.56
317.836	1140.56
318.065	1139.56
318.295	1157.56
318.524	1167.56
318.753	1162.56
318.983	1138.56
319.212	1136.56
319.441	1118.56
319.67	1174.56
319.9	1167.56
320.129	1150.56
320.358	1144.56
320.587	1165.56
320.816	1171.56
321.046	1188.56
321.275	1159.56
321.504	1127.56
321.733	1163.56
321.962	1154.56
322.191	1170.56
322.42	1156.56
322.649	1162.56
322.878	1194.56
323.108	1154.56
323.337	1206.56
323.566	1188.56
323.795	1163.56
324.024	1195.56
324.253	1226.56
324.482	1199.56
324.71	1176.56
324.939	1202.56
325.168	1206.56
325.397	1192.56
325.626	1204.56
325.855	1230.56
326.084	1229.56
326.313	1261.56
326.542	1264.56
326.77	1278.56
326.999	1250.56
327.228	1232.56
327.457	1265.56
327.686	1251.56
327.914	1248.56
328.143	1227.56
328.372	1226.56
328.6	1250.56
328.829	1246.56
329.058	1248.56
329.287	1273.56
329.515	1282.56
329.744	1272.56
329.972	1290.56
330.201	1315.56
330.43	1290.56
330.658	1301.56
330.887	1285.56
331.115	1300.56
331.344	1338.56
331.572	1306.56
331.801	1370.56
332.03	1371.56
332.258	1381.56
332.486	1413.56
332.715	1417.56
332.943	1489.56
333.172	1506.56
333.4	1560.56
333.629	1582.56
333.857	1620.56
334.085	1627.56
334.314	1580.56
334.542	1582.56
334.771	1615.56
334.999	1556.56
335.227	1569.56
335.455	1564.56
335.684	1536.56
335.912	1539.56
336.14	1523.56
336.369	1528.56
336.597	1499.56
336.825	1516.56
337.053	1528.56
337.281	1478.56
337.51	1476.56
337.738	1444.56
337.966	1408.56
338.194	1406.56
338.422	1372.56
338.65	1382.56
338.878	1379.56
339.106	1371.56
339.334	1361.56
339.562	1369.56
339.79	1330.56
340.018	1335.56
340.246	1310.56
340.474	1310.56
340.702	1319.56
340.93	1338.56
341.158	1340.56
341.386	1335.56
341.614	1326.56
341.842	1319.56
342.07	1309.56
342.298	1302.56
342.526	1304.56
342.754	1339.56
342.981	1319.56
343.209	1324.56
343.437	1399.56
343.665	1449.56
343.893	1509.56
344.12	1573.56
344.348	1533.56
344.576	1462.56
344.804	1411.56
345.031	1387.56
345.259	1322.56
345.487	1304.56
345.714	1305.56
345.942	1278.56
346.17	1305.56
346.397	1272.56
346.625	1245.56
346.853	1234.56
347.08	1280.56
347.308	1287.56
347.535	1288.56
347.763	1267.56
347.99	1242.56
348.218	1291.56
348.445	1265.56
348.673	1269.56
348.9	1267.56
349.128	1259.56
349.355	1246.56
349.583	1245.56
349.81	1244.56
350.037	1212.56
350.265	1206.56
350.492	1234.56
350.72	1217.56
350.947	1227.56
351.174	1244.56
351.402	1202.56
351.629	1220.56
351.856	1201.56
352.083	1248.56
352.311	1204.56
352.538	1233.56
352.765	1218.56
352.992	1218.56
353.22	1188.56
353.447	1198.56
353.674	1216.56
353.901	1189.56
354.128	1216.56
354.355	1202.56
354.583	1196.56
354.81	1178.56
355.037	1220.56
355.264	1204.56
355.491	1242.56
355.718	1235.56
355.945	1196.56
356.172	1226.56
356.399	1232.56
356.626	1237.56
356.853	1260.56
357.08	1241.56
357.307	1222.56
357.534	1216.56
357.761	1225.56
357.988	1205.56
358.215	1218.56
358.441	1252.56
358.668	1219.56
358.895	1216.56
359.122	1225.56
359.349	1224.56
359.576	1220.56
359.802	1216.56
360.029	1249.56
360.256	1221.56
360.483	1232.56
360.709	1216.56
360.936	1238.56
361.163	1237.56
361.39	1215.56
361.616	1192.56
361.843	1206.56
362.07	1248.56
362.296	1217.56
362.523	1230.56
362.749	1222.56
362.976	1240.56
363.203	1224.56
363.429	1227.56
363.656	1225.56
363.882	1240.56
364.109	1212.56
364.335	1198.56
364.562	1219.56
364.788	1226.56
365.015	1243.56
365.241	1214.56
365.468	1211.56
365.694	1229.56
365.92	1235.56
366.147	1219.56
366.373	1233.56
366.599	1234.56
366.826	1226.56
367.052	1245.56
367.278	1224.56
367.505	1232.56
367.731	1244.56
367.957	1235.56
368.184	1253.56
368.41	1233.56
368.636	1290.56
368.862	1282.56
369.089	1244.56
369.315	1233.56
369.541	1253.56
369.767	1252.56
369.993	1267.56
370.219	1262.56
370.445	1288.56
370.672	1287.56
370.898	1295.56
371.124	1313.56
371.35	1318.56
371.576	1360.56
371.802	1347.56
372.028	1350.56
372.254	1358.56
372.48	1324.56
372.706	1361.56
372.932	1371.56
373.158	1389.56
373.384	1348.56
373.61	1356.56
373.835	1322.56
374.061	1337.56
374.287	1344.56
374.513	1399.56
374.739	1412.56
374.965	1447.56
375.191	1475.56
375.416	1443.56
375.642	1397.56
375.868	1393.56
376.094	1381.56
376.319	1379.56
376.545	1370.56
376.771	1343.56
376.997	1342.56
377.222	1340.56
377.448	1356.56
377.674	1313.56
377.899	1323.56
378.125	1300.56
378.35	1311.56
378.576	1296.56
378.802	1323.56
379.027	1321.56
379.253	1310.56
379.478	1284.56
379.704	1320.56
379.929	1315.56
380.155	1312.56
380.38	1320.56
380.606	1332.56
380.831	1284.56
381.057	1329.56
381.282	1328.56
381.507	1336.56
381.733	1328.56
381.958	1332.56
382.184	1320.56
382.409	1393.56
382.634	1396.56
382.86	1389.56
383.085	1401.56
383.31	1412.56
383.535	1441.56
383.761	1398.56
383.986	1463.56
384.211	1489.56
384.436	1500.56
384.662	1502.56
384.887	1517.56
385.112	1556.56
385.337	1571.56
385.562	1568.56
385.787	1560.56
386.013	1626.56
386.238	1581.56
386.463	1603.56
386.688	1602.56
386.913	1592.56
387.138	1581.56
387.363	1554.56
387.588	1545.56
387.813	1573.56
388.038	1533.56
388.263	1580.56
388.488	1622.56
388.713	1566.56
388.938	1545.56
389.163	1577.56
389.387	1571.56
389.612	1509.56
389.837	1564.56
390.062	1584.56
390.287	1551.56
390.512	1604.56
390.736	1592.56
390.961	1587.56
391.186	1626.56
391.411	1665.56
391.636	1667.56
391.86	1750.56
392.085	1735.56
392.31	1784.56
392.534	1756.56
392.759	1690.56
392.984	1704.56
393.208	1690.56
393.433	1752.56
393.658	1793.56
393.882	1672.56
394.107	1691.56
394.331	1683.56
394.556	1657.56
394.78	1704.56
395.005	1658.56
395.229	1718.56
395.454	1736.56
395.678	1769.56
395.903	1749.56
396.127	1772.56
396.352	1703.56
396.576	1719.56
396.801	1701.56
397.025	1774.56
397.249	1754.56
397.474	1793.56
397.698	1765.56
397.922	1809.56
398.147	1770.56
398.371	1830.56
398.595	1873.56
398.82	1927.56
399.044	2086.56
399.268	2226.56
399.492	2498.56
399.717	2706.56
399.941	2713.56
400.165	2523.56
400.389	2344.56
400.613	2221.56
400.837	2073.56
401.062	1994.56
401.286	1994.56
401.51	1943.56
401.734	1962.56
401.958	2005.56
402.182	1978.56
402.406	1956.56
402.63	2023.56
402.854	2066.56
403.078	2029.56
403.302	2077.56
403.526	2130.56
403.75	2112.56
403.974	2122.56
404.198	2148.56
404.422	2170.56
404.645	2154.56
404.869	2120.56
405.093	2167.56
405.317	2113.56
405.541	2124.56
405.765	2113.56
405.988	2088.56
406.212	2165.56
406.436	2124.56
406.66	2174.56
406.883	2184.56
407.107	2334.56
407.331	2372.56
407.555	2483.56
407.778	2450.56
408.002	2416.56
408.226	2377.56
408.449	2365.56
408.673	2263.56
408.896	2214.56
409.12	2190.56
409.344	2209.56
409.567	2192.56
409.791	2173.56
410.014	2137.56
410.238	2136.56
410.461	2150.56
410.685	2104.56
410.908	2097.56
411.132	2099.56
411.355	2055.56
411.578	2013.56
411.802	2029.56
412.025	2025.56
412.249	2097.56
412.472	2050.56
412.695	2023.56
412.919	1989.56
413.142	2015.56
413.365	1995.56
413.589	1981.56
413.812	1972.56
414.035	1914.56
414.258	1945.56
414.482	1944.56
414.705	1991.56
414.928	1950.56
415.151	2000.56
415.374	1923.56
415.597	1969.56
415.821	1901.56
416.044	1872.56
416.267	1861.56
416.49	1854.56
416.713	1924.56
416.936	1909.56
417.159	1840.56
417.382	1876.56
417.605	1896.56
417.828	1856.56
418.051	1872.56
418.274	1900.56
418.497	1922.56
418.72	1908.56
418.943	1884.56
419.166	2043.56
419.389	2183.56
419.611	2160.56
419.834	2059.56
420.057	1965.56
420.28	1929.56
420.503	1842.56
420.726	1863.56
420.948	1853.56
421.171	1893.56
421.394	1894.56
421.617	1867.56
421.839	1862.56
422.062	1893.56
422.285	1852.56
422.507	1925.56
422.73	1901.56
422.953	1928.56
423.175	1957.56
423.398	1953.56
423.621	1900.56
423.843	1968.56
424.066	1968.56
424.288	1901.56
424.511	1928.56
424.733	1910.56
424.956	1905.56
425.178	1874.56
425.401	1886.56
425.623	1865.56
425.846	1864.56
426.068	1861.56
426.291	1833.56
426.513	1815.56
426.735	1776.56
426.958	1814.56
427.18	1800.56
427.402	1799.56
427.625	1769.56
427.847	1729.56
428.069	1719.56
428.292	1733.56
428.514	1716.56
428.736	1701.56
428.958	1724.56
429.181	1663.56
429.403	1710.56
429.625	1698.56
429.847	1709.56
430.069	1684.56
430.292	1694.56
430.514	1676.56
430.736	1701.56
430.958	1724.56
431.18	1706.56
431.402	1698.56
431.624	1704.56
431.846	1698.56
432.068	1736.56
432.29	1738.56
432.512	1688.56
432.734	1752.56
432.956	1721.56
433.178	1713.56
433.4	1747.56
433.622	1742.56
433.844	1737.56
434.066	1765.56
434.287	1764.56
434.509	1843.56
434.731	1857.56
434.953	1897.56
435.175	1918.56
435.397	1926.56
435.618	1802.56
435.84	1772.56
436.062	1798.56
436.284	1760.56
436.505	1686.56
436.727	1730.56
436.949	1712.56
437.17	1692.56
437.392	1689.56
437.614	1680.56
437.835	1607.56
438.057	1639.56
438.278	1652.56
438.5	1680.56
438.721	1649.56
438.943	1656.56
439.165	1609.56
439.386	1648.56
439.608	1672.56
439.829	1659.56
440.05	1689.56
440.272	1668.56
440.493	1677.56
440.715	1739.56
440.936	1756.56
441.158	1730.56
441.379	1765.56
441.6	1856.56
441.822	1877.56
442.043	1863.56
442.264	1872.56
442.486	1793.56
442.707	1831.56
442.928	1808.56
443.149	1832.56
443.371	1796.56
443.592	1862.56
443.813	1897.56
444.034	1912.56
444.255	1920.56
444.476	2024.56
444.698	2040.56
444.919	2107.56
445.14	2179.56
445.361	2032.56
445.582	1908.56
445.803	1842.56
446.024	1805.56
446.245	1802.56
446.466	1741.56
446.687	1680.56
446.908	1688.56
447.129	1648.56
447.35	1613.56
447.571	1674.56
447.792	1573.56
448.013	1578.56
448.234	1580.56
448.455	1566.56
448.675	1567.56
448.896	1554.56
449.117	1534.56
449.338	1525.56
449.559	1528.56
449.779	1540.56
450	1520.56
450.221	1544.56
450.442	1545.56
450.662	1531.56
450.883	1531.56
451.104	1549.56
451.324	1554.56
451.545	1562.56
451.766	1506.56
451.986	1512.56
452.207	1497.56
452.428	1507.56
452.648	1473.56
452.869	1486.56
453.089	1472.56
453.31	1502.56
453.53	1492.56
453.751	1531.56
453.971	1452.56
454.192	1463.56
454.412	1476.56
454.633	1450.56
454.853	1449.56
455.073	1433.56
455.294	1445.56
455.514	1461.56
455.734	1445.56
455.955	1401.56
456.175	1453.56
456.395	1422.56
456.616	1418.56
456.836	1478.56
457.056	1462.56
457.276	1420.56
457.497	1444.56
457.717	1466.56
457.937	1468.56
458.157	1492.56
458.377	1516.56
458.598	1511.56
458.818	1569.56
459.038	1601.56
459.258	1657.56
459.478	1699.56
459.698	1717.56
459.918	1760.56
460.138	1821.56
460.358	1909.56
460.578	1890.56
460.798	1925.56
461.018	1939.56
461.238	1935.56
461.458	1913.56
461.678	1935.56
461.898	1996.56
462.118	1951.56
462.338	2032.56
462.558	2063.56
462.777	2133.56
462.997	2312.56
463.217	2418.56
463.437	2417.56
463.657	2315.56
463.876	2282.56
464.096	2265.56
464.316	2223.56
464.536	2212.56
464.755	2100.56
464.975	2096.56
465.195	1996.56
465.414	1887.56
465.634	1784.56
465.854	1785.56
466.073	1734.56
466.293	1686.56
466.512	1646.56
466.732	1617.56
466.951	1652.56
467.171	1617.56
467.391	1654.56
467.61	1616.56
467.829	1602.56
468.049	1584.56
468.268	1560.56
468.488	1566.56
468.707	1566.56
468.927	1547.56
469.146	1574.56
469.365	1614.56
469.585	1555.56
469.804	1574.56
470.023	1630.56
470.243	1641.56
470.462	1657.56
470.681	1656.56
470.901	1667.56
471.12	1654.56
471.339	1630.56
471.558	1600.56
471.777	1568.56
471.997	1570.56
472.216	1600.56
472.435	1575.56
472.654	1546.56
472.873	1488.56
473.092	1526.56
473.311	1573.56
473.53	1528.56
473.749	1528.56
473.968	1552.56
474.187	1563.56
474.406	1539.56
474.625	1538.56
474.844	1528.56
475.063	1541.56
475.282	1569.56
475.501	1579.56
475.72	1610.56
475.939	1567.56
476.158	1607.56
476.377	1618.56
476.596	1617.56
476.814	1657.56
477.033	1688.56
477.252	1697.56
477.471	1701.56
477.69	1737.56
477.908	1749.56
478.127	1779.56
478.346	1821.56
478.564	1873.56
478.783	1898.56
479.002	1924.56
479.22	1952.56
479.439	1938.56
479.658	1959.56
479.876	1939.56
480.095	1993.56
480.313	2052.56
480.532	2083.56
480.751	2017.56
480.969	2019.56
481.188	1973.56
481.406	1915.56
481.624	1906.56
481.843	1867.56
482.061	1837.56
482.28	1885.56
482.498	1846.56
482.717	1842.56
482.935	1864.56
483.153	1885.56
483.372	1852.56
483.59	1915.56
483.808	1865.56
484.027	1894.56
484.245	1905.56
484.463	1880.56
484.681	1951.56
484.9	1968.56
485.118	1964.56
485.336	1967.56
485.554	1984.56
485.772	2018.56
485.99	1991.56
486.209	1946.56
486.427	1934.56
486.645	1971.56
486.863	1940.56
487.081	2001.56
487.299	1976.56
487.517	1951.56
487.735	1940.56
487.953	1936.56
488.171	1948.56
488.389	1954.56
488.607	1960.56
488.825	1918.56
489.043	1878.56
489.261	1948.56
489.479	1935.56
489.696	1928.56
489.914	1917.56
490.132	1949.56
490.35	1967.56
490.568	1901.56
490.786	1944.56
491.003	1918.56
491.221	1957.56
491.439	1917.56
491.657	1937.56
491.874	1931.56
492.092	1913.56
492.31	1925.56
492.527	1913.56
492.745	1919.56
492.963	1946.56
493.18	1963.56
493.398	1954.56
493.615	1994.56
493.833	1941.56
494.05	1952.56
494.268	2040.56
494.485	1985.56
494.703	1984.56
494.92	1985.56
495.138	2017.56
495.355	1983.56
495.573	1987.56
495.79	2023.56
496.008	2051.56
496.225	2014.56
496.442	2040.56
496.66	2052.56
496.877	2121.56
497.094	2104.56
497.312	2204.56
497.529	2208.56
497.746	2280.56
497.963	2326.56
498.181	2364.56
498.398	2531.56
498.615	2615.56
498.832	2760.56
499.049	2928.56
499.267	3122.56
499.484	3393.56
499.701	3654.56
499.918	3947.56
500.135	4369.56
500.352	4760.56
500.569	4959.56
500.786	4906.56
501.003	4712.56
501.22	4363.56
501.437	3993.56
501.654	3576.56
501.871	3322.56
502.088	3073.56
502.305	2824.56
502.522	2796.56
502.739	2690.56
502.956	2521.56
503.172	2470.56
503.389	2340.56
503.606	2285.56
503.823	2236.56
504.04	2242.56
504.256	2250.56
504.473	2200.56
504.69	2237.56
504.907	2204.56
505.123	2096.56
505.34	2000.56
505.557	1937.56
505.773	1888.56
505.99	1840.56
506.207	1828.56
506.423	1767.56
506.64	1767.56
506.856	1786.56
507.073	1720.56
507.289	1721.56
507.506	1716.56
507.722	1745.56
507.939	1718.56
508.155	1671.56
508.372	1645.56
508.588	1613.56
508.805	1609.56
509.021	1611.56
509.238	1627.56
509.454	1564.56
509.67	1592.56
509.887	1584.56
510.103	1581.56
510.319	1544.56
510.536	1540.56
510.752	1571.56
510.968	1554.56
511.184	1522.56
511.401	1585.56
511.617	1567.56
511.833	1545.56
512.049	1532.56
512.265	1500.56
512.481	1549.56
512.698	1531.56
512.914	1573.56
513.13	1528.56
513.346	1552.56
513.562	1511.56
513.778	1556.56
513.994	1566.56
514.21	1571.56
514.426	1572.56
514.642	1568.56
514.858	1575.56
515.074	1588.56
515.29	1592.56
515.506	1608.56
515.721	1610.56
515.937	1684.56
516.153	1712.56
516.369	1724.56
516.585	1719.56
516.801	1802.56
517.016	1825.56
517.232	1918.56
517.448	1980.56
517.664	2014.56
517.879	2006.56
518.095	1959.56
518.311	1999.56
518.527	1882.56
518.742	1882.56
518.958	1806.56
519.173	1749.56
519.389	1703.56
519.605	1689.56
519.82	1645.56
520.036	1663.56
520.251	1547.56
520.467	1564.56
520.682	1536.56
520.898	1555.56
521.113	1513.56
521.329	1500.56
521.544	1487.56
521.76	1449.56
521.975	1432.56
522.19	1488.56
522.406	1455.56
522.621	1438.56
522.836	1415.56
523.052	1428.56
523.267	1448.56
523.482	1414.56
523.698	1387.56
523.913	1426.56
524.128	1444.56
524.343	1400.56
524.559	1406.56
524.774	1379.56
524.989	1382.56
525.204	1393.56
525.419	1373.56
525.634	1373.56
525.849	1413.56
526.064	1384.56
526.28	1389.56
526.495	1380.56
526.71	1347.56
526.925	1352.56
527.14	1340.56
527.355	1356.56
527.57	1372.56
527.785	1344.56
527.999	1390.56
528.214	1338.56
528.429	1329.56
528.644	1369.56
528.859	1348.56
529.074	1392.56
529.289	1369.56
529.503	1341.56
529.718	1334.56
529.933	1350.56
530.148	1337.56
530.363	1337.56
530.577	1361.56
530.792	1330.56
531.007	1335.56
531.221	1307.56
531.436	1344.56
531.651	1326.56
531.865	1354.56
532.08	1358.56
532.295	1356.56
532.509	1339.56
532.724	1356.56
532.938	1351.56
533.153	1345.56
533.367	1319.56
533.582	1340.56
533.796	1335.56
534.011	1277.56
534.225	1367.56
534.44	1322.56
534.654	1307.56
534.868	1323.56
535.083	1293.56
535.297	1317.56
535.511	1269.56
535.726	1286.56
535.94	1306.56
536.154	1257.56
536.369	1259.56
536.583	1245.56
536.797	1237.56
537.011	1268.56
537.225	1216.56
537.44	1240.56
537.654	1230.56
537.868	1239.56
538.082	1252.56
538.296	1197.56
538.51	1207.56
538.724	1215.56
538.938	1205.56
539.153	1212.56
539.367	1212.56
539.581	1240.56
539.795	1200.56
540.009	1183.56
540.222	1186.56
540.436	1196.56
540.65	1203.56
540.864	1188.56
541.078	1176.56
541.292	1186.56
541.506	1207.56
541.72	1197.56
541.934	1172.56
542.147	1168.56
542.361	1197.56
542.575	1192.56
542.789	1198.56
543.002	1150.56
543.216	1172.56
543.43	1193.56
543.644	1170.56
543.857	1208.56
544.071	1173.56
544.285	1193.56
544.498	1190.56
544.712	1179.56
544.925	1204.56
545.139	1192.56
545.352	1212.56
545.566	1181.56
545.779	1212.56
545.993	1227.56
546.206	1196.56
546.42	1195.56
546.633	1186.56
546.847	1181.56
547.06	1180.56
547.274	1203.56
547.487	1211.56
547.7	1208.56
547.914	1226.56
548.127	1220.56
548.34	1206.56
548.554	1209.56
548.767	1205.56
548.98	1200.56
549.193	1222.56
549.407	1243.56
549.62	1215.56
549.833	1242.56
550.046	1234.56
550.259	1233.56
550.473	1216.56
550.686	1195.56
550.899	1192.56
551.112	1185.56
551.325	1193.56
551.538	1163.56
551.751	1154.56
551.964	1193.56
552.177	1216.56
552.39	1214.56
552.603	1250.56
552.816	1265.56
553.029	1273.56
553.242	1255.56
553.455	1280.56
553.667	1283.56
553.88	1283.56
554.093	1264.56
554.306	1224.56
554.519	1209.56
554.732	1157.56
554.944	1168.56
555.157	1152.56
555.37	1134.56
555.583	1105.56
555.795	1096.56
556.008	1085.56
556.221	1044.56
556.433	1061.56
556.646	1078.56
556.859	1054.56
557.071	1053.56
557.284	1028.56
557.496	1064.56
557.709	1030.56
557.921	1018.56
558.134	1034.56
558.346	1048.56
558.559	1033.56
558.771	1048.56
558.984	994.56
559.196	1022.56
559.409	1022.56
559.621	990.56
559.833	997.56
560.046	1014.56
560.258	976.56
560.47	1025.56
560.683	999.56
560.895	996.56
561.107	1019.56
561.32	989.56
561.532	1006.56
561.744	1012.56
561.956	980.56
562.168	1002.56
562.381	982.56
562.593	1017.56
562.805	997.56
563.017	1008.56
563.229	1002.56
563.441	991.56
563.653	1012.56
563.865	1060.56
564.077	1022.56
564.289	1024.56
564.501	1052.56
564.713	1039.56
564.925	1078.56
565.137	1067.56
565.349	1120.56
565.561	1138.56
565.773	1202.56
565.985	1227.56
566.197	1257.56
566.408	1356.56
566.62	1448.56
566.832	1524.56
567.044	1519.56
567.255	1554.56
567.467	1588.56
567.679	1626.56
567.891	1702.56
568.102	1695.56
568.314	1688.56
568.526	1536.56
568.737	1418.56
568.949	1324.56
569.161	1231.56
569.372	1159.56
569.584	1120.56
569.795	1094.56
570.007	1063.56
570.218	1054.56
570.43	1001.56
570.641	1010.56
570.853	1029.56
571.064	1055.56
571.276	1001.56
571.487	949.56
571.698	980.56
571.91	922.56
572.121	906.56
572.333	863.56
572.544	846.56
572.755	852.56
572.966	832.56
573.178	858.56
573.389	843.56
573.6	839.56
573.811	821.56
574.023	792.56
574.234	827.56
574.445	811.56
574.656	806.56
574.867	816.56
575.078	807.56
575.289	793.56
575.501	775.56
575.712	766.56
575.923	787.56
576.134	773.56
576.345	753.56
576.556	786.56
576.767	757.56
576.978	776.56
577.188	744.56
577.399	724.56
577.61	726.56
577.821	745.56
578.032	724.56
578.243	732.56
578.454	718.56
578.665	736.56
578.875	704.56
579.086	684.56
579.297	723.56
579.508	706.56
579.718	704.56
579.929	706.56
580.14	706.56
580.35	698.56
580.561	664.56
580.772	688.56
580.982	700.56
581.193	701.56
581.403	685.56
581.614	686.56
581.825	697.56
582.035	693.56
582.246	699.56
582.456	693.56
582.667	674.56
582.877	662.56
583.087	692.56
583.298	660.56
583.508	677.56
583.719	671.56
583.929	651.56
584.139	675.56
584.35	678.56
584.56	661.56
584.77	662.56
584.981	645.56
585.191	658.56
585.401	651.56
585.611	640.56
585.821	620.56
586.032	662.56
586.242	637.56
586.452	648.56
586.662	626.56
586.872	644.56
587.082	654.56
587.292	648.56
587.502	630.56
587.713	617.56
587.923	646.56
588.133	639.56
588.343	643.56
588.553	636.56
588.762	619.56
588.972	656.56
589.182	662.56
589.392	651.56
589.602	644.56
589.812	689.56
590.022	653.56
590.232	634.56
590.441	620.56
590.651	637.56
590.861	628.56
591.071	642.56
591.281	672.56
591.49	670.56
591.7	710.56
591.91	691.56
592.119	670.56
592.329	689.56
592.539	704.56
592.748	755.56
592.958	796.56
593.167	736.56
593.377	759.56
593.587	776.56
593.796	759.56
594.006	778.56
594.215	749.56
594.424	758.56
594.634	752.56
594.843	768.56
595.053	736.56
595.262	716.56
595.472	667.56
595.681	683.56
595.89	638.56
596.1	634.56
596.309	627.56
596.518	640.56
596.727	605.56
596.937	597.56
597.146	594.56
597.355	582.56
597.564	620.56
597.774	585.56
597.983	585.56
598.192	545.56
598.401	561.56
598.61	566.56
598.819	574.56
599.028	554.56
599.237	515.56
599.446	549.56
599.655	540.56
599.864	520.56
600.073	535.56
600.282	555.56
600.491	535.56
600.7	533.56
600.909	508.56
601.118	526.56
601.327	507.56
601.536	516.56
601.745	516.56
601.953	519.56
602.162	520.56
602.371	513.56
602.58	525.56
602.789	520.56
602.997	499.56
603.206	507.56
603.415	495.56
603.623	487.56
603.832	498.56
604.041	484.56
604.249	504.56
604.458	491.56
604.666	484.56
604.875	501.56
605.084	487.56
605.292	487.56
605.501	488.56
605.709	480.56
605.918	475.56
606.126	481.56
606.334	473.56
606.543	480.56
606.751	473.56
606.96	460.56
607.168	453.56
607.376	457.56
607.585	449.56
607.793	468.56
608.001	477.56
608.21	456.56
608.418	450.56
608.626	475.56
608.834	459.56
609.043	477.56
609.251	457.56
609.459	433.56
609.667	461.56
609.875	466.56
610.083	462.56
610.291	472.56
610.499	464.56
610.707	462.56
610.916	445.56
611.124	462.56
611.332	449.56
611.54	466.56
611.748	469.56
611.955	462.56
612.163	433.56
612.371	454.56
612.579	456.56
612.787	441.56
612.995	465.56
613.203	440.56
613.411	440.56
613.618	452.56
613.826	444.56
614.034	449.56
614.242	445.56
614.449	433.56
614.657	444.56
614.865	424.56
615.072	439.56
615.28	428.56
615.488	438.56
615.695	478.56
615.903	463.56
616.111	421.56
616.318	444.56
616.526	443.56
616.733	438.56
616.941	434.56
617.148	426.56
617.356	454.56
617.563	432.56
617.771	451.56
617.978	426.56
618.185	418.56
618.393	427.56
618.6	434.56
618.807	453.56
619.015	447.56
619.222	417.56
619.429	430.56
619.637	432.56
619.844	435.56
620.051	416.56
620.258	423.56
620.466	394.56
620.673	403.56
620.88	404.56
621.087	392.56
621.294	389.56
621.501	409.56
621.708	414.56
621.915	418.56
622.122	418.56
622.329	409.56
622.536	410.56
622.743	393.56
622.95	398.56
623.157	391.56
623.364	403.56
623.571	406.56
623.778	382.56
623.985	392.56
624.192	380.56
624.399	378.56
624.606	386.56
624.812	388.56
625.019	392.56
625.226	369.56
625.433	392.56
625.639	391.56
625.846	387.56
626.053	368.56
626.259	384.56
626.466	390.56
626.673	366.56
626.879	352.56
627.086	364.56
627.293	357.56
627.499	371.56
627.706	368.56
627.912	371.56
628.119	366.56
628.325	372.56
628.532	358.56
628.738	381.56
628.945	352.56
629.151	350.56
629.357	349.56
629.564	359.56
629.77	352.56
629.976	338.56
630.183	340.56
630.389	336.56
630.595	340.56
630.802	333.56
631.008	346.56
631.214	336.56
631.42	334.56
631.627	353.56
631.833	336.56
632.039	329.56
632.245	320.56
632.451	323.56
632.657	346.56
632.863	328.56
633.069	353.56
633.275	327.56
633.481	315.56
633.688	338.56
633.893	330.56
634.099	334.56
634.305	337.56
634.511	312.56
634.717	321.56
634.923	316.56
635.129	313.56
635.335	332.56
635.541	305.56
635.747	330.56
635.952	320.56
636.158	324.56
636.364	306.56
636.57	322.56
636.775	315.56
636.981	326.56
637.187	329.56
637.392	315.56
637.598	318.56
637.804	284.56
638.009	315.56
638.215	316.56
638.421	299.56
638.626	309.56
638.832	292.56
639.037	289.56
639.243	284.56
639.448	293.56
639.654	288.56
639.859	297.56
640.065	312.56
640.27	295.56
640.475	308.56
640.681	316.56
640.886	305.56
641.091	306.56
641.297	309.56
641.502	281.56
641.707	302.56
641.913	295.56
642.118	280.56
642.323	292.56
642.528	289.56
642.733	291.56
642.939	304.56
643.144	278.56
643.349	292.56
643.554	285.56
643.759	293.56
643.964	290.56
644.169	292.56
644.374	282.56
644.579	307.56
644.784	284.56
644.989	283.56
645.194	294.56
645.399	289.56
645.604	300.56
645.809	292.56
646.014	287.56
646.219	290.56
646.423	302.56
646.628	283.56
646.833	306.56
647.038	297.56
647.243	279.56
647.447	317.56
647.652	316.56
647.857	314.56
648.062	308.56
648.266	340.56
648.471	310.56
648.676	292.56
648.88	313.56
649.085	310.56
649.289	316.56
649.494	318.56
649.698	302.56
649.903	321.56
650.107	320.56
650.312	304.56
650.516	294.56
650.721	295.56
650.925	292.56
651.13	292.56
651.334	307.56
651.539	299.56
651.743	297.56
651.947	306.56
652.152	280.56
652.356	264.56
652.56	261.56
652.764	269.56
652.969	283.56
653.173	271.56
653.377	286.56
653.581	281.56
653.785	305.56
653.99	280.56
654.194	287.56
654.398	290.56
654.602	281.56
654.806	292.56
655.01	284.56
655.214	298.56
655.418	300.56
655.622	298.56
655.826	309.56
656.03	324.56
656.234	338.56
656.438	352.56
656.642	350.56
656.846	317.56
657.049	317.56
657.253	267.56
657.457	248.56
657.661	238.56
657.865	226.56
658.068	215.56
658.272	212.56
658.476	177.56
658.68	195.56
658.883	155.56
659.087	154.56
659.291	148.56
659.494	148.56
659.698	132.56
659.901	119.56
660.105	126.56
660.309	122.56
660.512	126.56
660.716	127.56
660.919	116.56
661.123	114.56
661.326	104.56
661.53	107.56
661.733	100.56
661.936	99.56
662.14	90.56
662.343	95.56
662.546	88.56
662.75	100.56
662.953	96.56
663.156	89.56
663.36	98.56
663.563	88.56
663.766	92.56
663.969	95.56
664.173	96.56
664.376	72.56
664.579	82.56
664.782	80.56
664.985	89.56
665.188	83.56
665.391	94.56
665.594	89.56
665.797	94.56
666	71.56
666.203	91.56
666.406	90.56
666.609	76.56
666.812	71.56
667.015	73.56
667.218	87.56
667.421	83.56
667.624	83.56
667.827	86.56
668.03	85.56
668.232	85.56
668.435	77.56
668.638	80.56
668.841	90.56
669.043	77.56
669.246	94.56
669.449	87.56
669.651	75.56
669.854	90.56
670.057	90.56
670.259	73.56
670.462	69.56
670.665	92.56
670.867	88.56
671.07	74.56
671.272	84.56
671.475	72.56
671.677	68.56
671.88	78.56
672.082	85.56
672.284	76.56
672.487	73.56
672.689	85.56
672.892	88.56
