Data from NiCl2@0.125M.TitratingCurve.Agarose3%dH2O.NegLispCup.LampEnergy10.LIBS07252019_HRD10591_18-29-58-574.txt Node
Date: Thu Jul 25 18:29:58 EDT 2019
User: cochatt
Spectrometer: HR+D1059
Trigger mode: 1
Integration Time (sec): 1.000000E-1
Scans to average: 1
Electric dark correction enabled: true
Nonlinearity correction enabled: false
Boxcar width: 0
XAxis mode: Wavelengths
Number of Pixels in Spectrum: 2048
>>>>>Begin Spectral Data<<<<<
223.165	-16.19
223.4	-16.19
223.635	-16.19
223.869	-9.19
224.104	-20.19
224.338	-21.19
224.573	-13.19
224.808	-6.19
225.042	-7.19
225.277	-23.19
225.511	-10.19
225.746	9.81
225.98	2.81
226.215	16.81
226.449	18.81
226.683	25.81
226.918	16.81
227.152	35.81
227.387	19.81
227.621	27.81
227.856	41.81
228.09	44.81
228.324	44.81
228.559	55.81
228.793	77.81
229.027	109.81
229.262	114.81
229.496	116.81
229.73	119.81
229.964	122.81
230.199	130.81
230.433	142.81
230.667	135.81
230.901	143.81
231.136	131.81
231.37	138.81
231.604	141.81
231.838	147.81
232.072	152.81
232.306	140.81
232.541	152.81
232.775	163.81
233.009	154.81
233.243	160.81
233.477	160.81
233.711	147.81
233.945	163.81
234.179	149.81
234.413	164.81
234.647	168.81
234.881	134.81
235.115	146.81
235.349	159.81
235.583	141.81
235.817	161.81
236.051	167.81
236.285	166.81
236.519	156.81
236.753	139.81
236.987	165.81
237.221	169.81
237.455	171.81
237.689	167.81
237.922	162.81
238.156	152.81
238.39	180.81
238.624	168.81
238.858	177.81
239.091	166.81
239.325	171.81
239.559	177.81
239.793	207.81
240.027	171.81
240.26	180.81
240.494	180.81
240.728	165.81
240.961	180.81
241.195	197.81
241.429	182.81
241.662	175.81
241.896	178.81
242.13	180.81
242.363	211.81
242.597	193.81
242.83	210.81
243.064	209.81
243.298	210.81
243.531	198.81
243.765	208.81
243.998	208.81
244.232	216.81
244.465	216.81
244.699	222.81
244.932	217.81
245.166	226.81
245.399	233.81
245.633	220.81
245.866	234.81
246.099	224.81
246.333	215.81
246.566	222.81
246.8	222.81
247.033	239.81
247.266	231.81
247.5	244.81
247.733	244.81
247.966	234.81
248.2	238.81
248.433	239.81
248.666	247.81
248.899	238.81
249.133	254.81
249.366	233.81
249.599	260.81
249.832	253.81
250.066	250.81
250.299	259.81
250.532	260.81
250.765	256.81
250.998	245.81
251.231	264.81
251.465	261.81
251.698	273.81
251.931	272.81
252.164	255.81
252.397	280.81
252.63	287.81
252.863	269.81
253.096	287.81
253.329	300.81
253.562	265.81
253.795	290.81
254.028	297.81
254.261	293.81
254.494	298.81
254.727	292.81
254.96	299.81
255.193	288.81
255.426	287.81
255.659	320.81
255.892	300.81
256.124	300.81
256.357	296.81
256.59	296.81
256.823	290.81
257.056	295.81
257.289	295.81
257.521	295.81
257.754	309.81
257.987	308.81
258.22	312.81
258.452	307.81
258.685	307.81
258.918	298.81
259.151	333.81
259.383	324.81
259.616	307.81
259.849	329.81
260.081	331.81
260.314	329.81
260.547	333.81
260.779	316.81
261.012	308.81
261.244	329.81
261.477	348.81
261.71	332.81
261.942	341.81
262.175	331.81
262.407	335.81
262.64	345.81
262.872	342.81
263.105	341.81
263.337	340.81
263.57	361.81
263.802	335.81
264.035	338.81
264.267	375.81
264.499	355.81
264.732	366.81
264.964	358.81
265.197	337.81
265.429	362.81
265.661	357.81
265.894	340.81
266.126	381.81
266.358	361.81
266.591	365.81
266.823	368.81
267.055	363.81
267.287	363.81
267.52	381.81
267.752	367.81
267.984	364.81
268.216	369.81
268.448	361.81
268.681	373.81
268.913	359.81
269.145	379.81
269.377	362.81
269.609	365.81
269.841	395.81
270.073	373.81
270.306	386.81
270.538	371.81
270.77	373.81
271.002	385.81
271.234	397.81
271.466	401.81
271.698	387.81
271.93	387.81
272.162	395.81
272.394	420.81
272.626	398.81
272.858	381.81
273.09	421.81
273.322	403.81
273.553	395.81
273.785	397.81
274.017	408.81
274.249	414.81
274.481	396.81
274.713	417.81
274.945	425.81
275.176	415.81
275.408	424.81
275.64	441.81
275.872	440.81
276.104	412.81
276.335	443.81
276.567	438.81
276.799	429.81
277.031	414.81
277.262	413.81
277.494	447.81
277.726	440.81
277.957	455.81
278.189	441.81
278.421	444.81
278.652	453.81
278.884	447.81
279.115	422.81
279.347	445.81
279.579	450.81
279.81	458.81
280.042	455.81
280.273	445.81
280.505	457.81
280.736	473.81
280.968	465.81
281.199	465.81
281.431	469.81
281.662	467.81
281.894	478.81
282.125	467.81
282.356	491.81
282.588	488.81
282.819	481.81
283.051	485.81
283.282	469.81
283.513	477.81
283.745	484.81
283.976	480.81
284.207	494.81
284.439	485.81
284.67	507.81
284.901	485.81
285.132	521.81
285.364	505.81
285.595	498.81
285.826	502.81
286.057	508.81
286.288	510.81
286.52	499.81
286.751	513.81
286.982	534.81
287.213	514.81
287.444	503.81
287.675	505.81
287.906	531.81
288.138	521.81
288.369	523.81
288.6	544.81
288.831	543.81
289.062	543.81
289.293	502.81
289.524	527.81
289.755	554.81
289.986	525.81
290.217	531.81
290.448	544.81
290.679	531.81
290.91	549.81
291.141	544.81
291.371	548.81
291.602	564.81
291.833	543.81
292.064	505.81
292.295	546.81
292.526	546.81
292.757	553.81
292.987	537.81
293.218	534.81
293.449	570.81
293.68	539.81
293.91	533.81
294.141	539.81
294.372	563.81
294.603	565.81
294.833	545.81
295.064	577.81
295.295	551.81
295.525	547.81
295.756	575.81
295.987	537.81
296.217	571.81
296.448	571.81
296.679	568.81
296.909	586.81
297.14	592.81
297.37	571.81
297.601	577.81
297.831	583.81
298.062	582.81
298.292	595.81
298.523	627.81
298.753	631.81
298.984	607.81
299.214	607.81
299.445	599.81
299.675	601.81
299.905	596.81
300.136	597.81
300.366	589.81
300.597	609.81
300.827	632.81
301.057	609.81
301.288	627.81
301.518	625.81
301.748	633.81
301.979	633.81
302.209	598.81
302.439	614.81
302.669	616.81
302.9	631.81
303.13	614.81
303.36	607.81
303.59	597.81
303.82	569.81
304.051	594.81
304.281	603.81
304.511	608.81
304.741	611.81
304.971	610.81
305.201	627.81
305.431	597.81
305.661	602.81
305.891	612.81
306.121	615.81
306.352	577.81
306.582	602.81
306.812	593.81
307.042	586.81
307.272	575.81
307.502	577.81
307.731	602.81
307.961	593.81
308.191	579.81
308.421	588.81
308.651	589.81
308.881	587.81
309.111	593.81
309.341	576.81
309.571	597.81
309.8	612.81
310.03	589.81
310.26	572.81
310.49	578.81
310.72	581.81
310.949	608.81
311.179	605.81
311.409	633.81
311.639	614.81
311.868	609.81
312.098	626.81
312.328	608.81
312.557	631.81
312.787	610.81
313.017	597.81
313.246	637.81
313.476	646.81
313.706	641.81
313.935	637.81
314.165	636.81
314.394	623.81
314.624	601.81
314.853	623.81
315.083	639.81
315.312	619.81
315.542	645.81
315.771	619.81
316.001	607.81
316.23	621.81
316.46	620.81
316.689	635.81
316.919	601.81
317.148	610.81
317.377	628.81
317.607	623.81
317.836	627.81
318.065	627.81
318.295	623.81
318.524	602.81
318.753	615.81
318.983	585.81
319.212	618.81
319.441	633.81
319.67	639.81
319.9	616.81
320.129	620.81
320.358	612.81
320.587	621.81
320.816	628.81
321.046	635.81
321.275	645.81
321.504	616.81
321.733	625.81
321.962	631.81
322.191	639.81
322.42	644.81
322.649	629.81
322.878	635.81
323.108	603.81
323.337	624.81
323.566	644.81
323.795	643.81
324.024	649.81
324.253	623.81
324.482	643.81
324.71	654.81
324.939	613.81
325.168	647.81
325.397	645.81
325.626	656.81
325.855	657.81
326.084	676.81
326.313	696.81
326.542	681.81
326.77	701.81
326.999	678.81
327.228	649.81
327.457	676.81
327.686	693.81
327.914	676.81
328.143	663.81
328.372	681.81
328.6	690.81
328.829	691.81
329.058	677.81
329.287	651.81
329.515	687.81
329.744	691.81
329.972	684.81
330.201	674.81
330.43	696.81
330.658	704.81
330.887	691.81
331.115	699.81
331.344	722.81
331.572	723.81
331.801	738.81
332.03	770.81
332.258	757.81
332.486	805.81
332.715	815.81
332.943	853.81
333.172	886.81
333.4	902.81
333.629	931.81
333.857	927.81
334.085	927.81
334.314	860.81
334.542	901.81
334.771	877.81
334.999	858.81
335.227	845.81
335.455	850.81
335.684	857.81
335.912	848.81
336.14	836.81
336.369	798.81
336.597	795.81
336.825	845.81
337.053	815.81
337.281	788.81
337.51	797.81
337.738	753.81
337.966	750.81
338.194	783.81
338.422	714.81
338.65	721.81
338.878	737.81
339.106	727.81
339.334	746.81
339.562	741.81
339.79	709.81
340.018	701.81
340.246	714.81
340.474	692.81
340.702	718.81
340.93	716.81
341.158	747.81
341.386	721.81
341.614	719.81
341.842	723.81
342.07	704.81
342.298	695.81
342.526	706.81
342.754	692.81
342.981	696.81
343.209	721.81
343.437	753.81
343.665	801.81
343.893	874.81
344.12	908.81
344.348	856.81
344.576	808.81
344.804	763.81
345.031	749.81
345.259	733.81
345.487	706.81
345.714	711.81
345.942	694.81
346.17	704.81
346.397	692.81
346.625	700.81
346.853	691.81
347.08	697.81
347.308	699.81
347.535	722.81
347.763	703.81
347.99	728.81
348.218	684.81
348.445	674.81
348.673	694.81
348.9	684.81
349.128	687.81
349.355	683.81
349.583	683.81
349.81	695.81
350.037	689.81
350.265	658.81
350.492	688.81
350.72	660.81
350.947	632.81
351.174	667.81
351.402	669.81
351.629	679.81
351.856	644.81
352.083	627.81
352.311	659.81
352.538	669.81
352.765	665.81
352.992	649.81
353.22	662.81
353.447	636.81
353.674	637.81
353.901	670.81
354.128	654.81
354.355	664.81
354.583	663.81
354.81	668.81
355.037	667.81
355.264	679.81
355.491	669.81
355.718	660.81
355.945	663.81
356.172	679.81
356.399	682.81
356.626	688.81
356.853	667.81
357.08	664.81
357.307	669.81
357.534	666.81
357.761	648.81
357.988	669.81
358.215	653.81
358.441	667.81
358.668	680.81
358.895	668.81
359.122	679.81
359.349	645.81
359.576	670.81
359.802	682.81
360.029	660.81
360.256	643.81
360.483	691.81
360.709	674.81
360.936	659.81
361.163	655.81
361.39	652.81
361.616	673.81
361.843	666.81
362.07	661.81
362.296	663.81
362.523	651.81
362.749	634.81
362.976	659.81
363.203	657.81
363.429	674.81
363.656	666.81
363.882	664.81
364.109	677.81
364.335	643.81
364.562	631.81
364.788	657.81
365.015	644.81
365.241	662.81
365.468	667.81
365.694	679.81
365.92	683.81
366.147	646.81
366.373	661.81
366.599	664.81
366.826	674.81
367.052	667.81
367.278	651.81
367.505	667.81
367.731	659.81
367.957	679.81
368.184	669.81
368.41	664.81
368.636	641.81
368.862	661.81
369.089	680.81
369.315	669.81
369.541	701.81
369.767	705.81
369.993	669.81
370.219	716.81
370.445	691.81
370.672	699.81
370.898	716.81
371.124	699.81
371.35	725.81
371.576	734.81
371.802	707.81
372.028	721.81
372.254	712.81
372.48	731.81
372.706	737.81
372.932	745.81
373.158	752.81
373.384	752.81
373.61	717.81
373.835	738.81
374.061	699.81
374.287	730.81
374.513	755.81
374.739	751.81
374.965	781.81
375.191	823.81
375.416	821.81
375.642	771.81
375.868	805.81
376.094	767.81
376.319	757.81
376.545	748.81
376.771	731.81
376.997	727.81
377.222	721.81
377.448	721.81
377.674	739.81
377.899	737.81
378.125	711.81
378.35	708.81
378.576	723.81
378.802	703.81
379.027	714.81
379.253	710.81
379.478	736.81
379.704	709.81
379.929	726.81
380.155	711.81
380.38	696.81
380.606	703.81
380.831	703.81
381.057	734.81
381.282	738.81
381.507	728.81
381.733	730.81
381.958	708.81
382.184	716.81
382.409	768.81
382.634	748.81
382.86	754.81
383.085	772.81
383.31	795.81
383.535	797.81
383.761	816.81
383.986	820.81
384.211	844.81
384.436	848.81
384.662	834.81
384.887	867.81
385.112	898.81
385.337	891.81
385.562	891.81
385.787	902.81
386.013	897.81
386.238	886.81
386.463	886.81
386.688	887.81
386.913	851.81
387.138	844.81
387.363	873.81
387.588	859.81
387.813	857.81
388.038	865.81
388.263	870.81
388.488	869.81
388.713	877.81
388.938	882.81
389.163	845.81
389.387	816.81
389.612	827.81
389.837	849.81
390.062	859.81
390.287	870.81
390.512	852.81
390.736	866.81
390.961	861.81
391.186	879.81
391.411	905.81
391.636	928.81
391.86	978.81
392.085	983.81
392.31	998.81
392.534	961.81
392.759	940.81
392.984	956.81
393.208	930.81
393.433	910.81
393.658	916.81
393.882	919.81
394.107	936.81
394.331	939.81
394.556	920.81
394.78	934.81
395.005	930.81
395.229	921.81
395.454	971.81
395.678	1017.81
395.903	992.81
396.127	1000.81
396.352	938.81
396.576	909.81
396.801	895.81
397.025	913.81
397.249	957.81
397.474	965.81
397.698	950.81
397.922	941.81
398.147	965.81
398.371	1017.81
398.595	1035.81
398.82	1073.81
399.044	1140.81
399.268	1285.81
399.492	1484.81
399.717	1673.81
399.941	1727.81
400.165	1495.81
400.389	1339.81
400.613	1209.81
400.837	1172.81
401.062	1097.81
401.286	1127.81
401.51	1107.81
401.734	1085.81
401.958	1104.81
402.182	1111.81
402.406	1099.81
402.63	1140.81
402.854	1153.81
403.078	1195.81
403.302	1279.81
403.526	1256.81
403.75	1263.81
403.974	1257.81
404.198	1302.81
404.422	1312.81
404.645	1252.81
404.869	1279.81
405.093	1245.81
405.317	1223.81
405.541	1222.81
405.765	1238.81
405.988	1206.81
406.212	1223.81
406.436	1205.81
406.66	1256.81
406.883	1279.81
407.107	1311.81
407.331	1403.81
407.555	1459.81
407.778	1447.81
408.002	1401.81
408.226	1383.81
408.449	1335.81
408.673	1285.81
408.896	1242.81
409.12	1233.81
409.344	1242.81
409.567	1299.81
409.791	1282.81
410.014	1268.81
410.238	1285.81
410.461	1212.81
410.685	1241.81
410.908	1157.81
411.132	1164.81
411.355	1171.81
411.578	1157.81
411.802	1156.81
412.025	1158.81
412.249	1188.81
412.472	1149.81
412.695	1095.81
412.919	1113.81
413.142	1096.81
413.365	1082.81
413.589	1131.81
413.812	1114.81
414.035	1104.81
414.258	1091.81
414.482	1117.81
414.705	1131.81
414.928	1113.81
415.151	1085.81
415.374	1106.81
415.597	1075.81
415.821	1060.81
416.044	1075.81
416.267	1074.81
416.49	1046.81
416.713	1049.81
416.936	1066.81
417.159	1114.81
417.382	1096.81
417.605	1091.81
417.828	1069.81
418.051	1106.81
418.274	1080.81
418.497	1105.81
418.72	1118.81
418.943	1120.81
419.166	1190.81
419.389	1299.81
419.611	1265.81
419.834	1179.81
420.057	1138.81
420.28	1113.81
420.503	1103.81
420.726	1065.81
420.948	1085.81
421.171	1066.81
421.394	1106.81
421.617	1104.81
421.839	1103.81
422.062	1094.81
422.285	1097.81
422.507	1110.81
422.73	1141.81
422.953	1126.81
423.175	1155.81
423.398	1161.81
423.621	1174.81
423.843	1177.81
424.066	1172.81
424.288	1193.81
424.511	1171.81
424.733	1173.81
424.956	1135.81
425.178	1148.81
425.401	1139.81
425.623	1101.81
425.846	1047.81
426.068	1080.81
426.291	1020.81
426.513	1064.81
426.735	1027.81
426.958	1031.81
427.18	999.81
427.402	1010.81
427.625	994.81
427.847	996.81
428.069	959.81
428.292	997.81
428.514	976.81
428.736	988.81
428.958	982.81
429.181	981.81
429.403	954.81
429.625	951.81
429.847	952.81
430.069	947.81
430.292	986.81
430.514	948.81
430.736	963.81
430.958	949.81
431.18	943.81
431.402	943.81
431.624	956.81
431.846	963.81
432.068	971.81
432.29	997.81
432.512	957.81
432.734	985.81
432.956	983.81
433.178	1033.81
433.4	979.81
433.622	985.81
433.844	1013.81
434.066	996.81
434.287	1027.81
434.509	1043.81
434.731	1090.81
434.953	1086.81
435.175	1142.81
435.397	1119.81
435.618	1080.81
435.84	1060.81
436.062	1005.81
436.284	979.81
436.505	1013.81
436.727	990.81
436.949	986.81
437.17	963.81
437.392	960.81
437.614	984.81
437.835	937.81
438.057	952.81
438.278	911.81
438.5	959.81
438.721	964.81
438.943	969.81
439.165	966.81
439.386	950.81
439.608	960.81
439.829	994.81
440.05	1006.81
440.272	972.81
440.493	1022.81
440.715	1025.81
440.936	1021.81
441.158	1052.81
441.379	1085.81
441.6	1118.81
441.822	1135.81
442.043	1130.81
442.264	1105.81
442.486	1076.81
442.707	1066.81
442.928	1117.81
443.149	1097.81
443.371	1100.81
443.592	1101.81
443.813	1136.81
444.034	1131.81
444.255	1156.81
444.476	1233.81
444.698	1299.81
444.919	1358.81
445.14	1426.81
445.361	1299.81
445.582	1114.81
445.803	1094.81
446.024	1040.81
446.245	1040.81
446.466	1014.81
446.687	1002.81
446.908	1002.81
447.129	988.81
447.35	975.81
447.571	927.81
447.792	889.81
448.013	921.81
448.234	913.81
448.455	932.81
448.675	898.81
448.896	926.81
449.117	864.81
449.338	920.81
449.559	897.81
449.779	879.81
450	883.81
450.221	901.81
450.442	897.81
450.662	933.81
450.883	939.81
451.104	969.81
451.324	946.81
451.545	953.81
451.766	912.81
451.986	935.81
452.207	912.81
452.428	902.81
452.648	926.81
452.869	920.81
453.089	907.81
453.31	904.81
453.53	887.81
453.751	879.81
453.971	880.81
454.192	851.81
454.412	876.81
454.633	856.81
454.853	901.81
455.073	851.81
455.294	852.81
455.514	876.81
455.734	861.81
455.955	834.81
456.175	828.81
456.395	856.81
456.616	848.81
456.836	869.81
457.056	845.81
457.276	832.81
457.497	839.81
457.717	838.81
457.937	883.81
458.157	859.81
458.377	887.81
458.598	898.81
458.818	901.81
459.038	918.81
459.258	994.81
459.478	1003.81
459.698	1052.81
459.918	1064.81
460.138	1092.81
460.358	1153.81
460.578	1181.81
460.798	1183.81
461.018	1227.81
461.238	1176.81
461.458	1163.81
461.678	1159.81
461.898	1172.81
462.118	1199.81
462.338	1256.81
462.558	1299.81
462.777	1330.81
462.997	1443.81
463.217	1613.81
463.437	1620.81
463.657	1479.81
463.876	1369.81
464.096	1415.81
464.316	1393.81
464.536	1429.81
464.755	1353.81
464.975	1312.81
465.195	1221.81
465.414	1148.81
465.634	1109.81
465.854	1052.81
466.073	1034.81
466.293	1015.81
466.512	973.81
466.732	952.81
466.951	945.81
467.171	940.81
467.391	980.81
467.61	934.81
467.829	957.81
468.049	943.81
468.268	906.81
468.488	924.81
468.707	917.81
468.927	930.81
469.146	907.81
469.365	920.81
469.585	945.81
469.804	962.81
470.023	991.81
470.243	979.81
470.462	1007.81
470.681	970.81
470.901	985.81
471.12	986.81
471.339	984.81
471.558	955.81
471.777	943.81
471.997	951.81
472.216	918.81
472.435	899.81
472.654	904.81
472.873	891.81
473.092	889.81
473.311	899.81
473.53	883.81
473.749	879.81
473.968	891.81
474.187	881.81
474.406	907.81
474.625	912.81
474.844	887.81
475.063	888.81
475.282	907.81
475.501	937.81
475.72	899.81
475.939	909.81
476.158	909.81
476.377	922.81
476.596	933.81
476.814	948.81
477.033	932.81
477.252	976.81
477.471	970.81
477.69	985.81
477.908	1037.81
478.127	1071.81
478.346	1052.81
478.564	1087.81
478.783	1091.81
479.002	1153.81
479.22	1126.81
479.439	1103.81
479.658	1124.81
479.876	1120.81
480.095	1160.81
480.313	1171.81
480.532	1208.81
480.751	1232.81
480.969	1166.81
481.188	1116.81
481.406	1113.81
481.624	1056.81
481.843	1032.81
482.061	1011.81
482.28	1043.81
482.498	1026.81
482.717	1001.81
482.935	1052.81
483.153	1009.81
483.372	1027.81
483.59	1027.81
483.808	1006.81
484.027	1015.81
484.245	1044.81
484.463	1040.81
484.681	1052.81
484.9	1055.81
485.118	1082.81
485.336	1065.81
485.554	1086.81
485.772	1077.81
485.99	1071.81
486.209	1106.81
486.427	1124.81
486.645	1085.81
486.863	1098.81
487.081	1050.81
487.299	1087.81
487.517	1088.81
487.735	1058.81
487.953	1082.81
488.171	1066.81
488.389	1080.81
488.607	1071.81
488.825	1039.81
489.043	1018.81
489.261	1055.81
489.479	1056.81
489.696	1068.81
489.914	1063.81
490.132	1083.81
490.35	1105.81
490.568	1075.81
490.786	1060.81
491.003	1082.81
491.221	1088.81
491.439	1101.81
491.657	1085.81
491.874	1096.81
492.092	1078.81
492.31	1112.81
492.527	1113.81
492.745	1082.81
492.963	1085.81
493.18	1104.81
493.398	1103.81
493.615	1121.81
493.833	1085.81
494.05	1129.81
494.268	1152.81
494.485	1121.81
494.703	1119.81
494.92	1131.81
495.138	1137.81
495.355	1127.81
495.573	1119.81
495.79	1166.81
496.008	1149.81
496.225	1141.81
496.442	1147.81
496.66	1197.81
496.877	1173.81
497.094	1230.81
497.312	1229.81
497.529	1231.81
497.746	1261.81
497.963	1294.81
498.181	1346.81
498.398	1415.81
498.615	1510.81
498.832	1601.81
499.049	1734.81
499.267	1854.81
499.484	2059.81
499.701	2287.81
499.918	2532.81
500.135	2879.81
500.352	3331.81
500.569	3545.81
500.786	3538.81
501.003	3286.81
501.22	2917.81
501.437	2542.81
501.654	2230.81
501.871	2033.81
502.088	1835.81
502.305	1721.81
502.522	1622.81
502.739	1548.81
502.956	1468.81
503.172	1396.81
503.389	1381.81
503.606	1305.81
503.823	1291.81
504.04	1287.81
504.256	1331.81
504.473	1355.81
504.69	1361.81
504.907	1337.81
505.123	1229.81
505.34	1165.81
505.557	1125.81
505.773	1113.81
505.99	1108.81
506.207	1029.81
506.423	1043.81
506.64	1034.81
506.856	1011.81
507.073	986.81
507.289	1003.81
507.506	996.81
507.722	996.81
507.939	968.81
508.155	971.81
508.372	971.81
508.588	943.81
508.805	939.81
509.021	967.81
509.238	944.81
509.454	955.81
509.67	930.81
509.887	895.81
510.103	909.81
510.319	943.81
510.536	933.81
510.752	872.81
510.968	923.81
511.184	895.81
511.401	919.81
511.617	879.81
511.833	900.81
512.049	886.81
512.265	880.81
512.481	925.81
512.698	913.81
512.914	938.81
513.13	916.81
513.346	910.81
513.562	913.81
513.778	878.81
513.994	890.81
514.21	927.81
514.426	896.81
514.642	947.81
514.858	931.81
515.074	967.81
515.29	959.81
515.506	945.81
515.721	951.81
515.937	981.81
516.153	990.81
516.369	1040.81
516.585	1039.81
516.801	1094.81
517.016	1131.81
517.232	1167.81
517.448	1220.81
517.664	1257.81
517.879	1279.81
518.095	1278.81
518.311	1254.81
518.527	1190.81
518.742	1161.81
518.958	1089.81
519.173	1029.81
519.389	1024.81
519.605	983.81
519.82	988.81
520.036	977.81
520.251	944.81
520.467	932.81
520.682	908.81
520.898	901.81
521.113	918.81
521.329	902.81
521.544	899.81
521.76	872.81
521.975	871.81
522.19	875.81
522.406	875.81
522.621	849.81
522.836	889.81
523.052	865.81
523.267	829.81
523.482	868.81
523.698	841.81
523.913	821.81
524.128	851.81
524.343	847.81
524.559	815.81
524.774	823.81
524.989	863.81
525.204	854.81
525.419	833.81
525.634	829.81
525.849	807.81
526.064	849.81
526.28	834.81
526.495	837.81
526.71	819.81
526.925	842.81
527.14	827.81
527.355	827.81
527.57	790.81
527.785	817.81
527.999	812.81
528.214	834.81
528.429	836.81
528.644	836.81
528.859	833.81
529.074	810.81
529.289	834.81
529.503	846.81
529.718	826.81
529.933	811.81
530.148	795.81
530.363	823.81
530.577	831.81
530.792	795.81
531.007	808.81
531.221	799.81
531.436	817.81
531.651	817.81
531.865	816.81
532.08	833.81
532.295	826.81
532.509	803.81
532.724	803.81
532.938	832.81
533.153	828.81
533.367	833.81
533.582	800.81
533.796	803.81
534.011	804.81
534.225	821.81
534.44	815.81
534.654	822.81
534.868	831.81
535.083	833.81
535.297	805.81
535.511	797.81
535.726	795.81
535.94	806.81
536.154	794.81
536.369	782.81
536.583	760.81
536.797	794.81
537.011	765.81
537.225	771.81
537.44	751.81
537.654	771.81
537.868	761.81
538.082	747.81
538.296	734.81
538.51	741.81
538.724	747.81
538.938	720.81
539.153	727.81
539.367	749.81
539.581	721.81
539.795	719.81
540.009	750.81
540.222	752.81
540.436	735.81
540.65	747.81
540.864	735.81
541.078	773.81
541.292	733.81
541.506	735.81
541.72	740.81
541.934	742.81
542.147	699.81
542.361	724.81
542.575	731.81
542.789	730.81
543.002	724.81
543.216	733.81
543.43	732.81
543.644	732.81
543.857	724.81
544.071	716.81
544.285	727.81
544.498	718.81
544.712	737.81
544.925	740.81
545.139	711.81
545.352	742.81
545.566	745.81
545.779	770.81
545.993	773.81
546.206	793.81
546.42	768.81
546.633	742.81
546.847	764.81
547.06	740.81
547.274	740.81
547.487	745.81
547.7	763.81
547.914	769.81
548.127	751.81
548.34	768.81
548.554	760.81
548.767	745.81
548.98	751.81
549.193	744.81
549.407	761.81
549.62	767.81
549.833	765.81
550.046	791.81
550.259	764.81
550.473	754.81
550.686	743.81
550.899	747.81
551.112	748.81
551.325	737.81
551.538	748.81
551.751	751.81
551.964	727.81
552.177	739.81
552.39	762.81
552.603	785.81
552.816	815.81
553.029	803.81
553.242	816.81
553.455	829.81
553.667	831.81
553.88	803.81
554.093	801.81
554.306	796.81
554.519	739.81
554.732	769.81
554.944	757.81
555.157	744.81
555.37	708.81
555.583	721.81
555.795	724.81
556.008	695.81
556.221	669.81
556.433	674.81
556.646	677.81
556.859	631.81
557.071	661.81
557.284	623.81
557.496	626.81
557.709	654.81
557.921	640.81
558.134	608.81
558.346	634.81
558.559	661.81
558.771	648.81
558.984	625.81
559.196	632.81
559.409	623.81
559.621	616.81
559.833	643.81
560.046	603.81
560.258	595.81
560.47	617.81
560.683	618.81
560.895	635.81
561.107	614.81
561.32	608.81
561.532	643.81
561.744	614.81
561.956	643.81
562.168	635.81
562.381	620.81
562.593	626.81
562.805	627.81
563.017	632.81
563.229	631.81
563.441	661.81
563.653	641.81
563.865	634.81
564.077	640.81
564.289	637.81
564.501	649.81
564.713	649.81
564.925	676.81
565.137	673.81
565.349	683.81
565.561	696.81
565.773	739.81
565.985	745.81
566.197	820.81
566.408	895.81
566.62	959.81
566.832	1028.81
567.044	1061.81
567.255	1064.81
567.467	1088.81
567.679	1124.81
567.891	1249.81
568.102	1256.81
568.314	1196.81
568.526	1087.81
568.737	971.81
568.949	886.81
569.161	819.81
569.372	753.81
569.584	723.81
569.795	691.81
570.007	663.81
570.218	678.81
570.43	660.81
570.641	615.81
570.853	653.81
571.064	663.81
571.276	651.81
571.487	638.81
571.698	647.81
571.91	599.81
572.121	591.81
572.333	572.81
572.544	563.81
572.755	549.81
572.966	541.81
573.178	538.81
573.389	564.81
573.6	533.81
573.811	515.81
574.023	542.81
574.234	531.81
574.445	538.81
574.656	542.81
574.867	532.81
575.078	546.81
575.289	518.81
575.501	523.81
575.712	501.81
575.923	512.81
576.134	481.81
576.345	509.81
576.556	484.81
576.767	492.81
576.978	494.81
577.188	496.81
577.399	519.81
577.61	481.81
577.821	485.81
578.032	489.81
578.243	481.81
578.454	468.81
578.665	484.81
578.875	452.81
579.086	448.81
579.297	473.81
579.508	477.81
579.718	457.81
579.929	460.81
580.14	443.81
580.35	451.81
580.561	471.81
580.772	451.81
580.982	443.81
581.193	445.81
581.403	444.81
581.614	459.81
581.825	451.81
582.035	439.81
582.246	456.81
582.456	439.81
582.667	447.81
582.877	439.81
583.087	439.81
583.298	452.81
583.508	434.81
583.719	441.81
583.929	449.81
584.139	429.81
584.35	422.81
584.56	449.81
584.77	434.81
584.981	429.81
585.191	440.81
585.401	433.81
585.611	433.81
585.821	434.81
586.032	431.81
586.242	432.81
586.452	436.81
586.662	410.81
586.872	415.81
587.082	438.81
587.292	423.81
587.502	406.81
587.713	434.81
587.923	435.81
588.133	415.81
588.343	423.81
588.553	417.81
588.762	426.81
588.972	433.81
589.182	421.81
589.392	419.81
589.602	418.81
589.812	427.81
590.022	415.81
590.232	411.81
590.441	457.81
590.651	443.81
590.861	440.81
591.071	449.81
591.281	440.81
591.49	437.81
591.7	453.81
591.91	465.81
592.119	456.81
592.329	465.81
592.539	503.81
592.748	500.81
592.958	529.81
593.167	521.81
593.377	526.81
593.587	561.81
593.796	554.81
594.006	571.81
594.215	555.81
594.424	562.81
594.634	529.81
594.843	521.81
595.053	496.81
595.262	482.81
595.472	474.81
595.681	443.81
595.89	450.81
596.1	418.81
596.309	431.81
596.518	411.81
596.727	395.81
596.937	417.81
597.146	388.81
597.355	391.81
597.564	404.81
597.774	389.81
597.983	376.81
598.192	367.81
598.401	376.81
598.61	368.81
598.819	375.81
599.028	379.81
599.237	373.81
599.446	362.81
599.655	365.81
599.864	375.81
600.073	353.81
600.282	360.81
600.491	363.81
600.7	370.81
600.909	354.81
601.118	342.81
601.327	344.81
601.536	345.81
601.745	358.81
601.953	351.81
602.162	353.81
602.371	329.81
602.58	358.81
602.789	360.81
602.997	343.81
603.206	349.81
603.415	330.81
603.623	332.81
603.832	353.81
604.041	340.81
604.249	331.81
604.458	352.81
604.666	336.81
604.875	344.81
605.084	336.81
605.292	335.81
605.501	337.81
605.709	359.81
605.918	343.81
606.126	332.81
606.334	354.81
606.543	319.81
606.751	340.81
606.96	327.81
607.168	321.81
607.376	332.81
607.585	325.81
607.793	338.81
608.001	329.81
608.21	314.81
608.418	334.81
608.626	321.81
608.834	333.81
609.043	323.81
609.251	317.81
609.459	303.81
609.667	307.81
609.875	326.81
610.083	309.81
610.291	321.81
610.499	309.81
610.707	315.81
610.916	309.81
611.124	309.81
611.332	309.81
611.54	333.81
611.748	310.81
611.955	310.81
612.163	305.81
612.371	303.81
612.579	318.81
612.787	323.81
612.995	310.81
613.203	307.81
613.411	300.81
613.618	307.81
613.826	307.81
614.034	297.81
614.242	310.81
614.449	319.81
614.657	295.81
614.865	307.81
615.072	313.81
615.28	309.81
615.488	321.81
615.695	296.81
615.903	297.81
616.111	311.81
616.318	315.81
616.526	335.81
616.733	327.81
616.941	333.81
617.148	311.81
617.356	309.81
617.563	289.81
617.771	319.81
617.978	312.81
618.185	305.81
618.393	312.81
618.6	291.81
618.807	311.81
619.015	305.81
619.222	296.81
619.429	315.81
619.637	321.81
619.844	302.81
620.051	290.81
620.258	291.81
620.466	283.81
620.673	281.81
620.88	265.81
621.087	287.81
621.294	286.81
621.501	275.81
621.708	289.81
621.915	275.81
622.122	290.81
622.329	295.81
622.536	285.81
622.743	280.81
622.95	280.81
623.157	264.81
623.364	285.81
623.571	287.81
623.778	281.81
623.985	283.81
624.192	267.81
624.399	274.81
624.606	276.81
624.812	262.81
625.019	271.81
625.226	267.81
625.433	271.81
625.639	276.81
625.846	277.81
626.053	271.81
626.259	280.81
626.466	268.81
626.673	267.81
626.879	256.81
627.086	247.81
627.293	267.81
627.499	265.81
627.706	246.81
627.912	255.81
628.119	248.81
628.325	263.81
628.532	267.81
628.738	271.81
628.945	262.81
629.151	251.81
629.357	239.81
629.564	256.81
629.77	256.81
629.976	251.81
630.183	239.81
630.389	239.81
630.595	245.81
630.802	241.81
631.008	240.81
631.214	239.81
631.42	229.81
631.627	243.81
631.833	256.81
632.039	247.81
632.245	243.81
632.451	239.81
632.657	241.81
632.863	243.81
633.069	255.81
633.275	232.81
633.481	242.81
633.688	243.81
633.893	255.81
634.099	219.81
634.305	222.81
634.511	217.81
634.717	228.81
634.923	244.81
635.129	225.81
635.335	236.81
635.541	230.81
635.747	251.81
635.952	233.81
636.158	221.81
636.364	217.81
636.57	211.81
636.775	231.81
636.981	223.81
637.187	220.81
637.392	231.81
637.598	211.81
637.804	211.81
638.009	213.81
638.215	212.81
638.421	225.81
638.626	225.81
638.832	212.81
639.037	221.81
639.243	214.81
639.448	231.81
639.654	229.81
639.859	225.81
640.065	217.81
640.27	221.81
640.475	211.81
640.681	208.81
640.886	218.81
641.091	214.81
641.297	211.81
641.502	211.81
641.707	212.81
641.913	213.81
642.118	223.81
642.323	212.81
642.528	208.81
642.733	208.81
642.939	211.81
643.144	212.81
643.349	202.81
643.554	209.81
643.759	200.81
643.964	200.81
644.169	193.81
644.374	199.81
644.579	191.81
644.784	200.81
644.989	199.81
645.194	197.81
645.399	196.81
645.604	212.81
645.809	212.81
646.014	191.81
646.219	212.81
646.423	189.81
646.628	203.81
646.833	216.81
647.038	203.81
647.243	212.81
647.447	216.81
647.652	223.81
647.857	214.81
648.062	222.81
648.266	223.81
648.471	242.81
648.676	211.81
648.88	217.81
649.085	207.81
649.289	212.81
649.494	211.81
649.698	192.81
649.903	197.81
650.107	201.81
650.312	191.81
650.516	198.81
650.721	199.81
650.925	198.81
651.13	193.81
651.334	197.81
651.539	197.81
651.743	168.81
651.947	187.81
652.152	186.81
652.356	183.81
652.56	179.81
652.764	188.81
652.969	159.81
653.173	179.81
653.377	168.81
653.581	171.81
653.785	169.81
653.99	171.81
654.194	171.81
654.398	160.81
654.602	156.81
654.806	166.81
655.01	171.81
655.214	164.81
655.418	145.81
655.622	152.81
655.826	162.81
656.03	170.81
656.234	147.81
656.438	161.81
656.642	155.81
656.846	149.81
657.049	154.81
657.253	161.81
657.457	145.81
657.661	143.81
657.865	146.81
658.068	123.81
658.272	122.81
658.476	133.81
658.68	125.81
658.883	114.81
659.087	116.81
659.291	107.81
659.494	97.81
659.698	118.81
659.901	100.81
660.105	102.81
660.309	98.81
660.512	86.81
660.716	104.81
660.919	102.81
661.123	108.81
661.326	92.81
661.53	92.81
661.733	102.81
661.936	100.81
662.14	77.81
662.343	91.81
662.546	75.81
662.75	89.81
662.953	100.81
663.156	74.81
663.36	87.81
663.563	82.81
663.766	90.81
663.969	73.81
664.173	87.81
664.376	92.81
664.579	81.81
664.782	80.81
664.985	77.81
665.188	74.81
665.391	69.81
665.594	81.81
665.797	90.81
666	74.81
666.203	84.81
666.406	69.81
666.609	73.81
666.812	93.81
667.015	84.81
667.218	92.81
667.421	98.81
667.624	91.81
667.827	91.81
668.03	98.81
668.232	77.81
668.435	83.81
668.638	77.81
668.841	74.81
669.043	86.81
669.246	88.81
669.449	103.81
669.651	91.81
669.854	84.81
670.057	79.81
670.259	89.81
670.462	88.81
670.665	85.81
670.867	67.81
671.07	83.81
671.272	92.81
671.475	98.81
671.677	76.81
671.88	82.81
672.082	85.81
672.284	86.81
672.487	97.81
672.689	77.81
672.892	82.81
