Data from NiCl2@0.5M.TitratingCurve.Agarose3%dH2O.NegLispCup.LampEnergy10.LIBS07252019_HRD10591_18-20-17-571.txt Node
Date: Thu Jul 25 18:20:17 EDT 2019
User: cochatt
Spectrometer: HR+D1059
Trigger mode: 1
Integration Time (sec): 1.000000E-1
Scans to average: 1
Electric dark correction enabled: true
Nonlinearity correction enabled: false
Boxcar width: 0
XAxis mode: Wavelengths
Number of Pixels in Spectrum: 2048
>>>>>Begin Spectral Data<<<<<
223.165	-23.94
223.4	-23.94
223.635	-23.94
223.869	0.06
224.104	-9.94
224.338	-18.94
224.573	-21.94
224.808	-22.94
225.042	-1.94
225.277	-12.94
225.511	-2.94
225.746	-2.94
225.98	12.06
226.215	12.06
226.449	27.06
226.683	19.06
226.918	25.06
227.152	23.06
227.387	33.06
227.621	33.06
227.856	42.06
228.09	49.06
228.324	58.06
228.559	35.06
228.793	57.06
229.027	108.06
229.262	121.06
229.496	111.06
229.73	116.06
229.964	126.06
230.199	137.06
230.433	138.06
230.667	135.06
230.901	140.06
231.136	135.06
231.37	145.06
231.604	156.06
231.838	165.06
232.072	162.06
232.306	146.06
232.541	149.06
232.775	148.06
233.009	146.06
233.243	158.06
233.477	153.06
233.711	164.06
233.945	137.06
234.179	153.06
234.413	173.06
234.647	146.06
234.881	167.06
235.115	159.06
235.349	169.06
235.583	149.06
235.817	165.06
236.051	159.06
236.285	165.06
236.519	161.06
236.753	163.06
236.987	147.06
237.221	157.06
237.455	180.06
237.689	183.06
237.922	167.06
238.156	171.06
238.39	151.06
238.624	171.06
238.858	187.06
239.091	176.06
239.325	183.06
239.559	185.06
239.793	200.06
240.027	183.06
240.26	199.06
240.494	193.06
240.728	181.06
240.961	196.06
241.195	193.06
241.429	206.06
241.662	200.06
241.896	213.06
242.13	209.06
242.363	194.06
242.597	215.06
242.83	221.06
243.064	188.06
243.298	193.06
243.531	195.06
243.765	218.06
243.998	213.06
244.232	209.06
244.465	209.06
244.699	230.06
244.932	242.06
245.166	222.06
245.399	231.06
245.633	225.06
245.866	246.06
246.099	233.06
246.333	235.06
246.566	250.06
246.8	232.06
247.033	224.06
247.266	239.06
247.5	244.06
247.733	244.06
247.966	264.06
248.2	260.06
248.433	267.06
248.666	259.06
248.899	258.06
249.133	260.06
249.366	257.06
249.599	276.06
249.832	246.06
250.066	255.06
250.299	268.06
250.532	263.06
250.765	267.06
250.998	286.06
251.231	261.06
251.465	275.06
251.698	288.06
251.931	281.06
252.164	273.06
252.397	282.06
252.63	291.06
252.863	277.06
253.096	300.06
253.329	303.06
253.562	278.06
253.795	288.06
254.028	298.06
254.261	291.06
254.494	300.06
254.727	289.06
254.96	296.06
255.193	314.06
255.426	286.06
255.659	314.06
255.892	293.06
256.124	316.06
256.357	316.06
256.59	324.06
256.823	299.06
257.056	312.06
257.289	333.06
257.521	316.06
257.754	317.06
257.987	312.06
258.22	316.06
258.452	314.06
258.685	339.06
258.918	332.06
259.151	341.06
259.383	323.06
259.616	322.06
259.849	322.06
260.081	327.06
260.314	332.06
260.547	331.06
260.779	330.06
261.012	339.06
261.244	337.06
261.477	354.06
261.71	351.06
261.942	352.06
262.175	348.06
262.407	339.06
262.64	357.06
262.872	333.06
263.105	361.06
263.337	372.06
263.57	365.06
263.802	357.06
264.035	361.06
264.267	379.06
264.499	360.06
264.732	367.06
264.964	371.06
265.197	371.06
265.429	386.06
265.661	373.06
265.894	378.06
266.126	395.06
266.358	391.06
266.591	385.06
266.823	383.06
267.055	393.06
267.287	388.06
267.52	402.06
267.752	405.06
267.984	378.06
268.216	425.06
268.448	384.06
268.681	404.06
268.913	397.06
269.145	388.06
269.377	384.06
269.609	398.06
269.841	422.06
270.073	390.06
270.306	402.06
270.538	415.06
270.77	391.06
271.002	394.06
271.234	406.06
271.466	411.06
271.698	420.06
271.93	418.06
272.162	418.06
272.394	419.06
272.626	410.06
272.858	410.06
273.09	439.06
273.322	443.06
273.553	446.06
273.785	431.06
274.017	422.06
274.249	438.06
274.481	419.06
274.713	447.06
274.945	447.06
275.176	438.06
275.408	454.06
275.64	484.06
275.872	472.06
276.104	457.06
276.335	446.06
276.567	467.06
276.799	475.06
277.031	470.06
277.262	467.06
277.494	468.06
277.726	463.06
277.957	465.06
278.189	477.06
278.421	465.06
278.652	476.06
278.884	491.06
279.115	473.06
279.347	479.06
279.579	473.06
279.81	499.06
280.042	482.06
280.273	493.06
280.505	478.06
280.736	491.06
280.968	491.06
281.199	503.06
281.431	501.06
281.662	489.06
281.894	513.06
282.125	488.06
282.356	517.06
282.588	515.06
282.819	500.06
283.051	485.06
283.282	515.06
283.513	508.06
283.745	529.06
283.976	526.06
284.207	535.06
284.439	539.06
284.67	540.06
284.901	533.06
285.132	525.06
285.364	550.06
285.595	560.06
285.826	531.06
286.057	550.06
286.288	542.06
286.52	536.06
286.751	529.06
286.982	561.06
287.213	537.06
287.444	564.06
287.675	551.06
287.906	545.06
288.138	546.06
288.369	535.06
288.6	572.06
288.831	554.06
289.062	577.06
289.293	561.06
289.524	560.06
289.755	577.06
289.986	560.06
290.217	546.06
290.448	563.06
290.679	549.06
290.91	561.06
291.141	565.06
291.371	589.06
291.602	584.06
291.833	564.06
292.064	577.06
292.295	559.06
292.526	577.06
292.757	571.06
292.987	537.06
293.218	553.06
293.449	593.06
293.68	569.06
293.91	569.06
294.141	586.06
294.372	577.06
294.603	567.06
294.833	579.06
295.064	575.06
295.295	581.06
295.525	605.06
295.756	609.06
295.987	587.06
296.217	583.06
296.448	643.06
296.679	587.06
296.909	602.06
297.14	604.06
297.37	599.06
297.601	620.06
297.831	622.06
298.062	612.06
298.292	645.06
298.523	623.06
298.753	608.06
298.984	622.06
299.214	656.06
299.445	608.06
299.675	625.06
299.905	627.06
300.136	597.06
300.366	646.06
300.597	643.06
300.827	646.06
301.057	663.06
301.288	667.06
301.518	683.06
301.748	664.06
301.979	649.06
302.209	663.06
302.439	655.06
302.669	651.06
302.9	645.06
303.13	649.06
303.36	662.06
303.59	684.06
303.82	683.06
304.051	687.06
304.281	681.06
304.511	675.06
304.741	657.06
304.971	658.06
305.201	701.06
305.431	684.06
305.661	700.06
305.891	675.06
306.121	668.06
306.352	664.06
306.582	671.06
306.812	663.06
307.042	658.06
307.272	679.06
307.502	655.06
307.731	681.06
307.961	668.06
308.191	660.06
308.421	665.06
308.651	673.06
308.881	657.06
309.111	661.06
309.341	640.06
309.571	668.06
309.8	667.06
310.03	653.06
310.26	683.06
310.49	692.06
310.72	688.06
310.949	654.06
311.179	664.06
311.409	685.06
311.639	655.06
311.868	691.06
312.098	683.06
312.328	703.06
312.557	682.06
312.787	686.06
313.017	723.06
313.246	709.06
313.476	708.06
313.706	719.06
313.935	722.06
314.165	712.06
314.394	703.06
314.624	682.06
314.853	703.06
315.083	711.06
315.312	721.06
315.542	717.06
315.771	693.06
316.001	711.06
316.23	706.06
316.46	696.06
316.689	724.06
316.919	718.06
317.148	677.06
317.377	715.06
317.607	690.06
317.836	696.06
318.065	697.06
318.295	716.06
318.524	720.06
318.753	734.06
318.983	704.06
319.212	688.06
319.441	727.06
319.67	730.06
319.9	718.06
320.129	719.06
320.358	707.06
320.587	725.06
320.816	692.06
321.046	723.06
321.275	738.06
321.504	721.06
321.733	714.06
321.962	717.06
322.191	724.06
322.42	701.06
322.649	711.06
322.878	733.06
323.108	720.06
323.337	743.06
323.566	719.06
323.795	755.06
324.024	746.06
324.253	740.06
324.482	757.06
324.71	754.06
324.939	757.06
325.168	741.06
325.397	738.06
325.626	739.06
325.855	771.06
326.084	777.06
326.313	794.06
326.542	748.06
326.77	784.06
326.999	782.06
327.228	753.06
327.457	751.06
327.686	744.06
327.914	759.06
328.143	784.06
328.372	799.06
328.6	751.06
328.829	800.06
329.058	794.06
329.287	746.06
329.515	782.06
329.744	760.06
329.972	774.06
330.201	779.06
330.43	811.06
330.658	777.06
330.887	798.06
331.115	778.06
331.344	791.06
331.572	815.06
331.801	827.06
332.03	828.06
332.258	854.06
332.486	850.06
332.715	844.06
332.943	901.06
333.172	901.06
333.4	929.06
333.629	957.06
333.857	957.06
334.085	966.06
334.314	951.06
334.542	952.06
334.771	936.06
334.999	957.06
335.227	947.06
335.455	937.06
335.684	910.06
335.912	935.06
336.14	913.06
336.369	931.06
336.597	943.06
336.825	945.06
337.053	912.06
337.281	903.06
337.51	914.06
337.738	906.06
337.966	851.06
338.194	879.06
338.422	863.06
338.65	825.06
338.878	847.06
339.106	832.06
339.334	863.06
339.562	843.06
339.79	827.06
340.018	827.06
340.246	790.06
340.474	803.06
340.702	827.06
340.93	789.06
341.158	828.06
341.386	807.06
341.614	860.06
341.842	866.06
342.07	822.06
342.298	813.06
342.526	817.06
342.754	812.06
342.981	798.06
343.209	815.06
343.437	850.06
343.665	895.06
343.893	921.06
344.12	911.06
344.348	905.06
344.576	866.06
344.804	916.06
345.031	871.06
345.259	861.06
345.487	841.06
345.714	821.06
345.942	829.06
346.17	860.06
346.397	857.06
346.625	792.06
346.853	785.06
347.08	788.06
347.308	768.06
347.535	797.06
347.763	779.06
347.99	794.06
348.218	768.06
348.445	786.06
348.673	767.06
348.9	777.06
349.128	797.06
349.355	757.06
349.583	792.06
349.81	741.06
350.037	744.06
350.265	747.06
350.492	768.06
350.72	769.06
350.947	756.06
351.174	737.06
351.402	791.06
351.629	779.06
351.856	787.06
352.083	744.06
352.311	746.06
352.538	771.06
352.765	810.06
352.992	763.06
353.22	735.06
353.447	744.06
353.674	746.06
353.901	714.06
354.128	751.06
354.355	735.06
354.583	746.06
354.81	765.06
355.037	747.06
355.264	719.06
355.491	756.06
355.718	736.06
355.945	757.06
356.172	752.06
356.399	731.06
356.626	749.06
356.853	756.06
357.08	759.06
357.307	767.06
357.534	757.06
357.761	741.06
357.988	753.06
358.215	731.06
358.441	744.06
358.668	745.06
358.895	722.06
359.122	738.06
359.349	716.06
359.576	735.06
359.802	755.06
360.029	735.06
360.256	743.06
360.483	750.06
360.709	718.06
360.936	744.06
361.163	761.06
361.39	746.06
361.616	741.06
361.843	751.06
362.07	777.06
362.296	769.06
362.523	752.06
362.749	727.06
362.976	711.06
363.203	714.06
363.429	730.06
363.656	722.06
363.882	740.06
364.109	727.06
364.335	732.06
364.562	752.06
364.788	735.06
365.015	731.06
365.241	741.06
365.468	713.06
365.694	731.06
365.92	725.06
366.147	724.06
366.373	736.06
366.599	721.06
366.826	715.06
367.052	709.06
367.278	740.06
367.505	725.06
367.731	740.06
367.957	701.06
368.184	760.06
368.41	740.06
368.636	727.06
368.862	744.06
369.089	739.06
369.315	769.06
369.541	768.06
369.767	762.06
369.993	747.06
370.219	759.06
370.445	756.06
370.672	788.06
370.898	776.06
371.124	776.06
371.35	775.06
371.576	763.06
371.802	795.06
372.028	801.06
372.254	770.06
372.48	772.06
372.706	795.06
372.932	813.06
373.158	774.06
373.384	769.06
373.61	781.06
373.835	785.06
374.061	787.06
374.287	817.06
374.513	778.06
374.739	826.06
374.965	823.06
375.191	823.06
375.416	828.06
375.642	823.06
375.868	804.06
376.094	787.06
376.319	782.06
376.545	772.06
376.771	791.06
376.997	780.06
377.222	765.06
377.448	763.06
377.674	771.06
377.899	745.06
378.125	756.06
378.35	779.06
378.576	751.06
378.802	773.06
379.027	772.06
379.253	779.06
379.478	731.06
379.704	739.06
379.929	738.06
380.155	748.06
380.38	752.06
380.606	765.06
380.831	778.06
381.057	752.06
381.282	788.06
381.507	745.06
381.733	775.06
381.958	765.06
382.184	788.06
382.409	771.06
382.634	804.06
382.86	812.06
383.085	819.06
383.31	831.06
383.535	850.06
383.761	796.06
383.986	835.06
384.211	816.06
384.436	831.06
384.662	831.06
384.887	872.06
385.112	844.06
385.337	854.06
385.562	877.06
385.787	869.06
386.013	882.06
386.238	881.06
386.463	892.06
386.688	887.06
386.913	867.06
387.138	872.06
387.363	886.06
387.588	881.06
387.813	895.06
388.038	905.06
388.263	900.06
388.488	929.06
388.713	905.06
388.938	912.06
389.163	897.06
389.387	885.06
389.612	896.06
389.837	913.06
390.062	889.06
390.287	880.06
390.512	881.06
390.736	899.06
390.961	915.06
391.186	928.06
391.411	916.06
391.636	927.06
391.86	968.06
392.085	972.06
392.31	973.06
392.534	970.06
392.759	955.06
392.984	944.06
393.208	947.06
393.433	956.06
393.658	931.06
393.882	903.06
394.107	905.06
394.331	944.06
394.556	960.06
394.78	975.06
395.005	977.06
395.229	973.06
395.454	957.06
395.678	960.06
395.903	967.06
396.127	996.06
396.352	993.06
396.576	960.06
396.801	984.06
397.025	987.06
397.249	975.06
397.474	1013.06
397.698	1009.06
397.922	1035.06
398.147	1004.06
398.371	1070.06
398.595	1063.06
398.82	1081.06
399.044	1152.06
399.268	1250.06
399.492	1345.06
399.717	1403.06
399.941	1456.06
400.165	1347.06
400.389	1301.06
400.613	1248.06
400.837	1202.06
401.062	1147.06
401.286	1120.06
401.51	1084.06
401.734	1083.06
401.958	1115.06
402.182	1130.06
402.406	1135.06
402.63	1124.06
402.854	1188.06
403.078	1140.06
403.302	1176.06
403.526	1145.06
403.75	1202.06
403.974	1203.06
404.198	1189.06
404.422	1203.06
404.645	1222.06
404.869	1177.06
405.093	1205.06
405.317	1189.06
405.541	1164.06
405.765	1172.06
405.988	1173.06
406.212	1189.06
406.436	1219.06
406.66	1227.06
406.883	1201.06
407.107	1289.06
407.331	1316.06
407.555	1382.06
407.778	1347.06
408.002	1330.06
408.226	1303.06
408.449	1288.06
408.673	1265.06
408.896	1228.06
409.12	1233.06
409.344	1257.06
409.567	1248.06
409.791	1246.06
410.014	1217.06
410.238	1204.06
410.461	1205.06
410.685	1196.06
410.908	1180.06
411.132	1216.06
411.355	1183.06
411.578	1177.06
411.802	1152.06
412.025	1196.06
412.249	1158.06
412.472	1151.06
412.695	1152.06
412.919	1145.06
413.142	1143.06
413.365	1121.06
413.589	1143.06
413.812	1131.06
414.035	1112.06
414.258	1095.06
414.482	1130.06
414.705	1149.06
414.928	1140.06
415.151	1133.06
415.374	1141.06
415.597	1121.06
415.821	1104.06
416.044	1075.06
416.267	1089.06
416.49	1093.06
416.713	1086.06
416.936	1107.06
417.159	1097.06
417.382	1085.06
417.605	1076.06
417.828	1080.06
418.051	1101.06
418.274	1109.06
418.497	1105.06
418.72	1143.06
418.943	1116.06
419.166	1173.06
419.389	1259.06
419.611	1225.06
419.834	1181.06
420.057	1163.06
420.28	1145.06
420.503	1100.06
420.726	1085.06
420.948	1073.06
421.171	1091.06
421.394	1104.06
421.617	1084.06
421.839	1123.06
422.062	1125.06
422.285	1090.06
422.507	1152.06
422.73	1122.06
422.953	1126.06
423.175	1104.06
423.398	1113.06
423.621	1104.06
423.843	1141.06
424.066	1110.06
424.288	1155.06
424.511	1164.06
424.733	1122.06
424.956	1110.06
425.178	1128.06
425.401	1123.06
425.623	1127.06
425.846	1077.06
426.068	1091.06
426.291	1067.06
426.513	1087.06
426.735	1047.06
426.958	1079.06
427.18	1056.06
427.402	1052.06
427.625	1041.06
427.847	1027.06
428.069	1023.06
428.292	1054.06
428.514	1031.06
428.736	1049.06
428.958	1025.06
429.181	1008.06
429.403	1010.06
429.625	1031.06
429.847	1009.06
430.069	1045.06
430.292	1024.06
430.514	1005.06
430.736	1015.06
430.958	995.06
431.18	1022.06
431.402	1017.06
431.624	1027.06
431.846	1038.06
432.068	1051.06
432.29	1055.06
432.512	1077.06
432.734	1031.06
432.956	1048.06
433.178	1053.06
433.4	1087.06
433.622	1077.06
433.844	1067.06
434.066	1073.06
434.287	1063.06
434.509	1121.06
434.731	1127.06
434.953	1108.06
435.175	1119.06
435.397	1140.06
435.618	1079.06
435.84	1077.06
436.062	1056.06
436.284	1084.06
436.505	1035.06
436.727	1082.06
436.949	1067.06
437.17	1055.06
437.392	1066.06
437.614	1015.06
437.835	1031.06
438.057	1020.06
438.278	969.06
438.5	1009.06
438.721	1040.06
438.943	1011.06
439.165	1023.06
439.386	1005.06
439.608	1012.06
439.829	1031.06
440.05	1015.06
440.272	1044.06
440.493	1050.06
440.715	1060.06
440.936	1080.06
441.158	1100.06
441.379	1098.06
441.6	1161.06
441.822	1132.06
442.043	1131.06
442.264	1130.06
442.486	1096.06
442.707	1156.06
442.928	1141.06
443.149	1095.06
443.371	1136.06
443.592	1144.06
443.813	1164.06
444.034	1151.06
444.255	1189.06
444.476	1216.06
444.698	1257.06
444.919	1299.06
445.14	1323.06
445.361	1246.06
445.582	1191.06
445.803	1145.06
446.024	1117.06
446.245	1101.06
446.466	1098.06
446.687	1067.06
446.908	1061.06
447.129	1089.06
447.35	1039.06
447.571	1057.06
447.792	998.06
448.013	1018.06
448.234	998.06
448.455	1001.06
448.675	995.06
448.896	991.06
449.117	977.06
449.338	972.06
449.559	977.06
449.779	985.06
450	973.06
450.221	967.06
450.442	994.06
450.662	995.06
450.883	970.06
451.104	1000.06
451.324	992.06
451.545	990.06
451.766	990.06
451.986	940.06
452.207	954.06
452.428	961.06
452.648	955.06
452.869	923.06
453.089	920.06
453.31	961.06
453.53	924.06
453.751	958.06
453.971	930.06
454.192	961.06
454.412	948.06
454.633	930.06
454.853	907.06
455.073	922.06
455.294	938.06
455.514	911.06
455.734	939.06
455.955	925.06
456.175	908.06
456.395	932.06
456.616	921.06
456.836	890.06
457.056	907.06
457.276	897.06
457.497	937.06
457.717	903.06
457.937	965.06
458.157	954.06
458.377	953.06
458.598	969.06
458.818	984.06
459.038	1007.06
459.258	1032.06
459.478	1078.06
459.698	1082.06
459.918	1112.06
460.138	1132.06
460.358	1177.06
460.578	1203.06
460.798	1182.06
461.018	1212.06
461.238	1235.06
461.458	1187.06
461.678	1186.06
461.898	1225.06
462.118	1235.06
462.338	1290.06
462.558	1323.06
462.777	1364.06
462.997	1411.06
463.217	1467.06
463.437	1472.06
463.657	1423.06
463.876	1432.06
464.096	1394.06
464.316	1340.06
464.536	1363.06
464.755	1313.06
464.975	1293.06
465.195	1215.06
465.414	1212.06
465.634	1159.06
465.854	1094.06
466.073	1112.06
466.293	1077.06
466.512	1077.06
466.732	1042.06
466.951	1027.06
467.171	1053.06
467.391	1034.06
467.61	1031.06
467.829	1028.06
468.049	1019.06
468.268	998.06
468.488	989.06
468.707	1012.06
468.927	1012.06
469.146	988.06
469.365	1032.06
469.585	1034.06
469.804	1029.06
470.023	1038.06
470.243	1043.06
470.462	1053.06
470.681	1044.06
470.901	1053.06
471.12	1022.06
471.339	1024.06
471.558	1052.06
471.777	1023.06
471.997	991.06
472.216	1009.06
472.435	1009.06
472.654	982.06
472.873	1003.06
473.092	988.06
473.311	991.06
473.53	987.06
473.749	996.06
473.968	956.06
474.187	985.06
474.406	977.06
474.625	995.06
474.844	991.06
475.063	1001.06
475.282	1021.06
475.501	992.06
475.72	1020.06
475.939	1009.06
476.158	1029.06
476.377	1034.06
476.596	1041.06
476.814	1057.06
477.033	1060.06
477.252	1077.06
477.471	1099.06
477.69	1123.06
477.908	1120.06
478.127	1114.06
478.346	1150.06
478.564	1171.06
478.783	1188.06
479.002	1232.06
479.22	1244.06
479.439	1242.06
479.658	1209.06
479.876	1232.06
480.095	1231.06
480.313	1243.06
480.532	1263.06
480.751	1258.06
480.969	1232.06
481.188	1229.06
481.406	1177.06
481.624	1161.06
481.843	1163.06
482.061	1133.06
482.28	1157.06
482.498	1153.06
482.717	1142.06
482.935	1130.06
483.153	1139.06
483.372	1161.06
483.59	1170.06
483.808	1139.06
484.027	1162.06
484.245	1170.06
484.463	1165.06
484.681	1193.06
484.9	1178.06
485.118	1179.06
485.336	1193.06
485.554	1156.06
485.772	1210.06
485.99	1179.06
486.209	1207.06
486.427	1202.06
486.645	1177.06
486.863	1211.06
487.081	1217.06
487.299	1213.06
487.517	1207.06
487.735	1217.06
487.953	1206.06
488.171	1188.06
488.389	1193.06
488.607	1217.06
488.825	1177.06
489.043	1196.06
489.261	1168.06
489.479	1190.06
489.696	1201.06
489.914	1182.06
490.132	1201.06
490.35	1228.06
490.568	1200.06
490.786	1217.06
491.003	1242.06
491.221	1231.06
491.439	1225.06
491.657	1202.06
491.874	1239.06
492.092	1229.06
492.31	1237.06
492.527	1282.06
492.745	1247.06
492.963	1247.06
493.18	1257.06
493.398	1271.06
493.615	1271.06
493.833	1289.06
494.05	1258.06
494.268	1297.06
494.485	1293.06
494.703	1283.06
494.92	1294.06
495.138	1297.06
495.355	1275.06
495.573	1336.06
495.79	1322.06
496.008	1282.06
496.225	1336.06
496.442	1318.06
496.66	1373.06
496.877	1362.06
497.094	1371.06
497.312	1398.06
497.529	1429.06
497.746	1473.06
497.963	1516.06
498.181	1542.06
498.398	1577.06
498.615	1692.06
498.832	1789.06
499.049	1846.06
499.267	1975.06
499.484	2156.06
499.701	2289.06
499.918	2401.06
500.135	2639.06
500.352	2843.06
500.569	2943.06
500.786	2855.06
501.003	2872.06
501.22	2619.06
501.437	2411.06
501.654	2211.06
501.871	2099.06
502.088	1978.06
502.305	1884.06
502.522	1763.06
502.739	1710.06
502.956	1607.06
503.172	1591.06
503.389	1527.06
503.606	1496.06
503.823	1460.06
504.04	1431.06
504.256	1455.06
504.473	1443.06
504.69	1475.06
504.907	1439.06
505.123	1367.06
505.34	1307.06
505.557	1265.06
505.773	1257.06
505.99	1233.06
506.207	1180.06
506.423	1164.06
506.64	1162.06
506.856	1163.06
507.073	1195.06
507.289	1131.06
507.506	1130.06
507.722	1106.06
507.939	1145.06
508.155	1119.06
508.372	1109.06
508.588	1091.06
508.805	1079.06
509.021	1045.06
509.238	1042.06
509.454	1052.06
509.67	1060.06
509.887	1043.06
510.103	1052.06
510.319	1048.06
510.536	1025.06
510.752	1020.06
510.968	1035.06
511.184	1029.06
511.401	1001.06
511.617	1019.06
511.833	1027.06
512.049	1025.06
512.265	1001.06
512.481	1063.06
512.698	1010.06
512.914	1020.06
513.13	999.06
513.346	1012.06
513.562	1031.06
513.778	1029.06
513.994	1020.06
514.21	1025.06
514.426	1053.06
514.642	1004.06
514.858	1035.06
515.074	1057.06
515.29	1061.06
515.506	1038.06
515.721	1100.06
515.937	1079.06
516.153	1097.06
516.369	1123.06
516.585	1136.06
516.801	1179.06
517.016	1227.06
517.232	1238.06
517.448	1248.06
517.664	1268.06
517.879	1264.06
518.095	1308.06
518.311	1236.06
518.527	1213.06
518.742	1217.06
518.958	1142.06
519.173	1101.06
519.389	1109.06
519.605	1112.06
519.82	1092.06
520.036	1074.06
520.251	1056.06
520.467	1040.06
520.682	1041.06
520.898	1010.06
521.113	971.06
521.329	973.06
521.544	983.06
521.76	998.06
521.975	965.06
522.19	977.06
522.406	965.06
522.621	958.06
522.836	939.06
523.052	947.06
523.267	945.06
523.482	919.06
523.698	951.06
523.913	935.06
524.128	948.06
524.343	917.06
524.559	909.06
524.774	947.06
524.989	916.06
525.204	924.06
525.419	914.06
525.634	915.06
525.849	916.06
526.064	919.06
526.28	904.06
526.495	917.06
526.71	913.06
526.925	909.06
527.14	898.06
527.355	895.06
527.57	900.06
527.785	931.06
527.999	892.06
528.214	919.06
528.429	928.06
528.644	943.06
528.859	923.06
529.074	929.06
529.289	917.06
529.503	933.06
529.718	894.06
529.933	897.06
530.148	880.06
530.363	890.06
530.577	879.06
530.792	891.06
531.007	868.06
531.221	875.06
531.436	913.06
531.651	897.06
531.865	896.06
532.08	891.06
532.295	892.06
532.509	900.06
532.724	899.06
532.938	901.06
533.153	912.06
533.367	871.06
533.582	885.06
533.796	885.06
534.011	884.06
534.225	856.06
534.44	883.06
534.654	873.06
534.868	857.06
535.083	860.06
535.297	850.06
535.511	845.06
535.726	856.06
535.94	849.06
536.154	848.06
536.369	835.06
536.583	819.06
536.797	844.06
537.011	830.06
537.225	833.06
537.44	842.06
537.654	805.06
537.868	810.06
538.082	824.06
538.296	832.06
538.51	808.06
538.724	831.06
538.938	825.06
539.153	823.06
539.367	840.06
539.581	798.06
539.795	815.06
540.009	819.06
540.222	804.06
540.436	822.06
540.65	842.06
540.864	802.06
541.078	802.06
541.292	808.06
541.506	790.06
541.72	811.06
541.934	834.06
542.147	832.06
542.361	821.06
542.575	789.06
542.789	788.06
543.002	788.06
543.216	811.06
543.43	798.06
543.644	802.06
543.857	788.06
544.071	803.06
544.285	802.06
544.498	823.06
544.712	789.06
544.925	831.06
545.139	825.06
545.352	803.06
545.566	835.06
545.779	816.06
545.993	821.06
546.206	827.06
546.42	812.06
546.633	821.06
546.847	827.06
547.06	832.06
547.274	807.06
547.487	804.06
547.7	820.06
547.914	834.06
548.127	843.06
548.34	803.06
548.554	804.06
548.767	832.06
548.98	831.06
549.193	835.06
549.407	820.06
549.62	863.06
549.833	805.06
550.046	839.06
550.259	841.06
550.473	815.06
550.686	821.06
550.899	775.06
551.112	804.06
551.325	796.06
551.538	781.06
551.751	775.06
551.964	801.06
552.177	805.06
552.39	800.06
552.603	836.06
552.816	856.06
553.029	849.06
553.242	855.06
553.455	848.06
553.667	857.06
553.88	859.06
554.093	859.06
554.306	828.06
554.519	800.06
554.732	771.06
554.944	761.06
555.157	779.06
555.37	761.06
555.583	748.06
555.795	756.06
556.008	761.06
556.221	739.06
556.433	721.06
556.646	711.06
556.859	704.06
557.071	728.06
557.284	688.06
557.496	689.06
557.709	716.06
557.921	695.06
558.134	697.06
558.346	677.06
558.559	649.06
558.771	700.06
558.984	681.06
559.196	694.06
559.409	700.06
559.621	705.06
559.833	681.06
560.046	673.06
560.258	677.06
560.47	703.06
560.683	676.06
560.895	693.06
561.107	692.06
561.32	715.06
561.532	712.06
561.744	693.06
561.956	673.06
562.168	694.06
562.381	671.06
562.593	662.06
562.805	666.06
563.017	684.06
563.229	679.06
563.441	708.06
563.653	695.06
563.865	685.06
564.077	700.06
564.289	687.06
564.501	687.06
564.713	716.06
564.925	711.06
565.137	747.06
565.349	773.06
565.561	771.06
565.773	806.06
565.985	795.06
566.197	843.06
566.408	861.06
566.62	900.06
566.832	967.06
567.044	993.06
567.255	1005.06
567.467	997.06
567.679	1036.06
567.891	1043.06
568.102	1063.06
568.314	1014.06
568.526	949.06
568.737	894.06
568.949	854.06
569.161	787.06
569.372	755.06
569.584	757.06
569.795	709.06
570.007	696.06
570.218	679.06
570.43	663.06
570.641	666.06
570.853	659.06
571.064	680.06
571.276	668.06
571.487	657.06
571.698	646.06
571.91	627.06
572.121	595.06
572.333	601.06
572.544	603.06
572.755	567.06
572.966	585.06
573.178	581.06
573.389	581.06
573.6	565.06
573.811	561.06
574.023	540.06
574.234	561.06
574.445	554.06
574.656	560.06
574.867	547.06
575.078	551.06
575.289	549.06
575.501	536.06
575.712	513.06
575.923	523.06
576.134	526.06
576.345	511.06
576.556	519.06
576.767	513.06
576.978	526.06
577.188	514.06
577.399	506.06
577.61	520.06
577.821	513.06
578.032	517.06
578.243	491.06
578.454	515.06
578.665	495.06
578.875	489.06
579.086	507.06
579.297	476.06
579.508	478.06
579.718	500.06
579.929	511.06
580.14	492.06
580.35	491.06
580.561	502.06
580.772	472.06
580.982	465.06
581.193	461.06
581.403	467.06
581.614	480.06
581.825	481.06
582.035	474.06
582.246	442.06
582.456	459.06
582.667	476.06
582.877	450.06
583.087	463.06
583.298	462.06
583.508	446.06
583.719	457.06
583.929	448.06
584.139	455.06
584.35	458.06
584.56	438.06
584.77	449.06
584.981	445.06
585.191	441.06
585.401	444.06
585.611	447.06
585.821	436.06
586.032	437.06
586.242	440.06
586.452	435.06
586.662	443.06
586.872	460.06
587.082	440.06
587.292	425.06
587.502	415.06
587.713	428.06
587.923	441.06
588.133	427.06
588.343	476.06
588.553	415.06
588.762	449.06
588.972	442.06
589.182	495.06
589.392	495.06
589.602	441.06
589.812	479.06
590.022	461.06
590.232	456.06
590.441	447.06
590.651	445.06
590.861	445.06
591.071	434.06
591.281	459.06
591.49	447.06
591.7	461.06
591.91	486.06
592.119	469.06
592.329	463.06
592.539	461.06
592.748	472.06
592.958	503.06
593.167	519.06
593.377	517.06
593.587	514.06
593.796	518.06
594.006	506.06
594.215	487.06
594.424	499.06
594.634	499.06
594.843	492.06
595.053	475.06
595.262	480.06
595.472	449.06
595.681	454.06
595.89	442.06
596.1	423.06
596.309	412.06
596.518	402.06
596.727	418.06
596.937	417.06
597.146	399.06
597.355	416.06
597.564	404.06
597.774	390.06
597.983	375.06
598.192	392.06
598.401	375.06
598.61	371.06
598.819	373.06
599.028	379.06
599.237	397.06
599.446	362.06
599.655	382.06
599.864	362.06
600.073	369.06
600.282	383.06
600.491	369.06
600.7	363.06
600.909	353.06
601.118	375.06
601.327	352.06
601.536	359.06
601.745	345.06
601.953	371.06
602.162	347.06
602.371	338.06
602.58	365.06
602.789	357.06
602.997	351.06
603.206	354.06
603.415	344.06
603.623	339.06
603.832	357.06
604.041	360.06
604.249	326.06
604.458	341.06
604.666	340.06
604.875	332.06
605.084	369.06
605.292	345.06
605.501	328.06
605.709	338.06
605.918	343.06
606.126	347.06
606.334	339.06
606.543	339.06
606.751	325.06
606.96	339.06
607.168	338.06
607.376	314.06
607.585	319.06
607.793	328.06
608.001	329.06
608.21	321.06
608.418	338.06
608.626	337.06
608.834	331.06
609.043	325.06
609.251	302.06
609.459	337.06
609.667	325.06
609.875	321.06
610.083	319.06
610.291	334.06
610.499	323.06
610.707	325.06
610.916	297.06
611.124	321.06
611.332	317.06
611.54	317.06
611.748	340.06
611.955	305.06
612.163	295.06
612.371	317.06
612.579	326.06
612.787	320.06
612.995	298.06
613.203	325.06
613.411	298.06
613.618	299.06
613.826	298.06
614.034	316.06
614.242	301.06
614.449	293.06
614.657	296.06
614.865	329.06
615.072	311.06
615.28	305.06
615.488	325.06
615.695	299.06
615.903	314.06
616.111	308.06
616.318	313.06
616.526	315.06
616.733	311.06
616.941	295.06
617.148	286.06
617.356	298.06
617.563	298.06
617.771	298.06
617.978	284.06
618.185	298.06
618.393	291.06
618.6	304.06
618.807	277.06
619.015	311.06
619.222	285.06
619.429	299.06
619.637	293.06
619.844	304.06
620.051	292.06
620.258	296.06
620.466	301.06
620.673	260.06
620.88	296.06
621.087	279.06
621.294	293.06
621.501	292.06
621.708	295.06
621.915	285.06
622.122	281.06
622.329	294.06
622.536	299.06
622.743	293.06
622.95	295.06
623.157	280.06
623.364	266.06
623.571	273.06
623.778	276.06
623.985	280.06
624.192	280.06
624.399	286.06
624.606	271.06
624.812	269.06
625.019	264.06
625.226	265.06
625.433	275.06
625.639	274.06
625.846	256.06
626.053	253.06
626.259	267.06
626.466	269.06
626.673	265.06
626.879	255.06
627.086	261.06
627.293	263.06
627.499	264.06
627.706	261.06
627.912	259.06
628.119	225.06
628.325	242.06
628.532	263.06
628.738	236.06
628.945	247.06
629.151	249.06
629.357	242.06
629.564	236.06
629.77	263.06
629.976	256.06
630.183	252.06
630.389	231.06
630.595	236.06
630.802	235.06
631.008	225.06
631.214	241.06
631.42	236.06
631.627	259.06
631.833	231.06
632.039	229.06
632.245	236.06
632.451	245.06
632.657	224.06
632.863	240.06
633.069	230.06
633.275	243.06
633.481	230.06
633.688	218.06
633.893	237.06
634.099	229.06
634.305	232.06
634.511	215.06
634.717	222.06
634.923	226.06
635.129	227.06
635.335	223.06
635.541	211.06
635.747	228.06
635.952	225.06
636.158	225.06
636.364	218.06
636.57	214.06
636.775	230.06
636.981	227.06
637.187	216.06
637.392	223.06
637.598	228.06
637.804	216.06
638.009	233.06
638.215	215.06
638.421	204.06
638.626	212.06
638.832	207.06
639.037	231.06
639.243	219.06
639.448	226.06
639.654	199.06
639.859	225.06
640.065	201.06
640.27	210.06
640.475	212.06
640.681	209.06
640.886	214.06
641.091	223.06
641.297	221.06
641.502	197.06
641.707	218.06
641.913	207.06
642.118	208.06
642.323	201.06
642.528	212.06
642.733	223.06
642.939	192.06
643.144	211.06
643.349	201.06
643.554	201.06
643.759	210.06
643.964	201.06
644.169	201.06
644.374	194.06
644.579	202.06
644.784	200.06
644.989	210.06
645.194	200.06
645.399	198.06
645.604	187.06
645.809	207.06
646.014	193.06
646.219	213.06
646.423	203.06
646.628	199.06
646.833	208.06
647.038	219.06
647.243	214.06
647.447	195.06
647.652	195.06
647.857	193.06
648.062	209.06
648.266	223.06
648.471	208.06
648.676	215.06
648.88	203.06
649.085	211.06
649.289	215.06
649.494	199.06
649.698	198.06
649.903	202.06
650.107	195.06
650.312	208.06
650.516	200.06
650.721	184.06
650.925	187.06
651.13	186.06
651.334	169.06
651.539	177.06
651.743	189.06
651.947	170.06
652.152	181.06
652.356	181.06
652.56	181.06
652.764	173.06
652.969	160.06
653.173	168.06
653.377	175.06
653.581	163.06
653.785	164.06
653.99	153.06
654.194	173.06
654.398	183.06
654.602	157.06
654.806	179.06
655.01	158.06
655.214	142.06
655.418	150.06
655.622	150.06
655.826	164.06
656.03	169.06
656.234	167.06
656.438	167.06
656.642	165.06
656.846	149.06
657.049	146.06
657.253	139.06
657.457	155.06
657.661	135.06
657.865	124.06
658.068	132.06
658.272	123.06
658.476	133.06
658.68	107.06
658.883	113.06
659.087	115.06
659.291	107.06
659.494	115.06
659.698	109.06
659.901	110.06
660.105	92.06
660.309	105.06
660.512	95.06
660.716	96.06
660.919	112.06
661.123	95.06
661.326	102.06
661.53	85.06
661.733	91.06
661.936	91.06
662.14	82.06
662.343	83.06
662.546	85.06
662.75	92.06
662.953	91.06
663.156	88.06
663.36	85.06
663.563	79.06
663.766	85.06
663.969	87.06
664.173	77.06
664.376	84.06
664.579	67.06
664.782	95.06
664.985	80.06
665.188	91.06
665.391	80.06
665.594	74.06
665.797	85.06
666	74.06
666.203	80.06
666.406	93.06
666.609	72.06
666.812	80.06
667.015	70.06
667.218	82.06
667.421	82.06
667.624	75.06
667.827	80.06
668.03	73.06
668.232	79.06
668.435	76.06
668.638	81.06
668.841	87.06
669.043	75.06
669.246	91.06
669.449	90.06
669.651	85.06
669.854	86.06
670.057	73.06
670.259	100.06
670.462	74.06
670.665	92.06
670.867	87.06
671.07	83.06
671.272	82.06
671.475	82.06
671.677	73.06
671.88	91.06
672.082	77.06
672.284	81.06
672.487	81.06
672.689	78.06
672.892	89.06
