Data from NiCl2@0.5M.TitratingCurve.Agarose3%dH2O.NegLispCup.LampEnergy10.LIBS07252019_HRD10591_18-20-31-574.txt Node
Date: Thu Jul 25 18:20:31 EDT 2019
User: cochatt
Spectrometer: HR+D1059
Trigger mode: 1
Integration Time (sec): 1.000000E-1
Scans to average: 1
Electric dark correction enabled: true
Nonlinearity correction enabled: false
Boxcar width: 0
XAxis mode: Wavelengths
Number of Pixels in Spectrum: 2048
>>>>>Begin Spectral Data<<<<<
223.165	-8.62
223.4	-8.62
223.635	-8.62
223.869	-13.62
224.104	-9.62
224.338	-13.62
224.573	-3.62
224.808	-16.62
225.042	-0.62
225.277	-9.62
225.511	-7.62
225.746	5.38
225.98	7.38
226.215	13.38
226.449	10.38
226.683	11.38
226.918	12.38
227.152	23.38
227.387	29.38
227.621	40.38
227.856	44.38
228.09	57.38
228.324	58.38
228.559	53.38
228.793	74.38
229.027	111.38
229.262	116.38
229.496	105.38
229.73	127.38
229.964	117.38
230.199	123.38
230.433	127.38
230.667	123.38
230.901	144.38
231.136	132.38
231.37	134.38
231.604	152.38
231.838	148.38
232.072	144.38
232.306	147.38
232.541	156.38
232.775	127.38
233.009	147.38
233.243	155.38
233.477	150.38
233.711	151.38
233.945	131.38
234.179	137.38
234.413	138.38
234.647	156.38
234.881	159.38
235.115	165.38
235.349	152.38
235.583	146.38
235.817	152.38
236.051	153.38
236.285	161.38
236.519	164.38
236.753	163.38
236.987	142.38
237.221	167.38
237.455	130.38
237.689	164.38
237.922	172.38
238.156	162.38
238.39	165.38
238.624	157.38
238.858	159.38
239.091	160.38
239.325	166.38
239.559	176.38
239.793	191.38
240.027	179.38
240.26	174.38
240.494	188.38
240.728	167.38
240.961	196.38
241.195	168.38
241.429	180.38
241.662	169.38
241.896	189.38
242.13	193.38
242.363	211.38
242.597	185.38
242.83	194.38
243.064	181.38
243.298	189.38
243.531	185.38
243.765	200.38
243.998	215.38
244.232	205.38
244.465	212.38
244.699	217.38
244.932	211.38
245.166	203.38
245.399	200.38
245.633	198.38
245.866	220.38
246.099	214.38
246.333	207.38
246.566	214.38
246.8	214.38
247.033	216.38
247.266	226.38
247.5	226.38
247.733	214.38
247.966	214.38
248.2	220.38
248.433	230.38
248.666	245.38
248.899	223.38
249.133	227.38
249.366	247.38
249.599	232.38
249.832	248.38
250.066	249.38
250.299	233.38
250.532	243.38
250.765	236.38
250.998	253.38
251.231	261.38
251.465	275.38
251.698	274.38
251.931	249.38
252.164	253.38
252.397	277.38
252.63	264.38
252.863	269.38
253.096	256.38
253.329	263.38
253.562	263.38
253.795	248.38
254.028	250.38
254.261	269.38
254.494	266.38
254.727	286.38
254.96	269.38
255.193	274.38
255.426	263.38
255.659	283.38
255.892	276.38
256.124	292.38
256.357	292.38
256.59	278.38
256.823	292.38
257.056	291.38
257.289	301.38
257.521	312.38
257.754	300.38
257.987	280.38
258.22	296.38
258.452	289.38
258.685	305.38
258.918	290.38
259.151	295.38
259.383	303.38
259.616	292.38
259.849	313.38
260.081	283.38
260.314	293.38
260.547	288.38
260.779	309.38
261.012	308.38
261.244	327.38
261.477	344.38
261.71	325.38
261.942	340.38
262.175	328.38
262.407	309.38
262.64	332.38
262.872	325.38
263.105	330.38
263.337	341.38
263.57	319.38
263.802	313.38
264.035	323.38
264.267	349.38
264.499	340.38
264.732	358.38
264.964	356.38
265.197	358.38
265.429	327.38
265.661	341.38
265.894	341.38
266.126	356.38
266.358	358.38
266.591	340.38
266.823	355.38
267.055	369.38
267.287	356.38
267.52	353.38
267.752	367.38
267.984	365.38
268.216	381.38
268.448	356.38
268.681	358.38
268.913	361.38
269.145	357.38
269.377	381.38
269.609	352.38
269.841	359.38
270.073	368.38
270.306	383.38
270.538	373.38
270.77	353.38
271.002	359.38
271.234	390.38
271.466	387.38
271.698	377.38
271.93	389.38
272.162	370.38
272.394	409.38
272.626	380.38
272.858	377.38
273.09	402.38
273.322	397.38
273.553	397.38
273.785	386.38
274.017	416.38
274.249	411.38
274.481	417.38
274.713	416.38
274.945	416.38
275.176	405.38
275.408	420.38
275.64	416.38
275.872	426.38
276.104	419.38
276.335	417.38
276.567	432.38
276.799	413.38
277.031	420.38
277.262	427.38
277.494	416.38
277.726	424.38
277.957	449.38
278.189	435.38
278.421	431.38
278.652	422.38
278.884	437.38
279.115	439.38
279.347	455.38
279.579	456.38
279.81	433.38
280.042	456.38
280.273	452.38
280.505	474.38
280.736	448.38
280.968	463.38
281.199	459.38
281.431	461.38
281.662	464.38
281.894	476.38
282.125	456.38
282.356	465.38
282.588	456.38
282.819	467.38
283.051	457.38
283.282	470.38
283.513	491.38
283.745	485.38
283.976	480.38
284.207	458.38
284.439	477.38
284.67	462.38
284.901	475.38
285.132	482.38
285.364	481.38
285.595	485.38
285.826	490.38
286.057	488.38
286.288	474.38
286.52	484.38
286.751	497.38
286.982	523.38
287.213	508.38
287.444	504.38
287.675	499.38
287.906	515.38
288.138	498.38
288.369	502.38
288.6	496.38
288.831	508.38
289.062	510.38
289.293	518.38
289.524	515.38
289.755	523.38
289.986	519.38
290.217	508.38
290.448	543.38
290.679	535.38
290.91	512.38
291.141	507.38
291.371	509.38
291.602	532.38
291.833	514.38
292.064	537.38
292.295	516.38
292.526	519.38
292.757	524.38
292.987	527.38
293.218	525.38
293.449	531.38
293.68	521.38
293.91	527.38
294.141	531.38
294.372	520.38
294.603	543.38
294.833	556.38
295.064	544.38
295.295	524.38
295.525	528.38
295.756	543.38
295.987	549.38
296.217	554.38
296.448	534.38
296.679	552.38
296.909	551.38
297.14	557.38
297.37	546.38
297.601	576.38
297.831	571.38
298.062	551.38
298.292	579.38
298.523	582.38
298.753	570.38
298.984	568.38
299.214	586.38
299.445	575.38
299.675	579.38
299.905	587.38
300.136	549.38
300.366	611.38
300.597	604.38
300.827	593.38
301.057	611.38
301.288	618.38
301.518	599.38
301.748	616.38
301.979	605.38
302.209	620.38
302.439	604.38
302.669	595.38
302.9	587.38
303.13	611.38
303.36	599.38
303.59	606.38
303.82	584.38
304.051	606.38
304.281	613.38
304.511	592.38
304.741	600.38
304.971	612.38
305.201	617.38
305.431	629.38
305.661	637.38
305.891	604.38
306.121	647.38
306.352	607.38
306.582	593.38
306.812	591.38
307.042	588.38
307.272	597.38
307.502	577.38
307.731	600.38
307.961	585.38
308.191	614.38
308.421	604.38
308.651	578.38
308.881	607.38
309.111	591.38
309.341	612.38
309.571	597.38
309.8	596.38
310.03	610.38
310.26	617.38
310.49	609.38
310.72	648.38
310.949	606.38
311.179	615.38
311.409	628.38
311.639	596.38
311.868	608.38
312.098	613.38
312.328	634.38
312.557	636.38
312.787	627.38
313.017	628.38
313.246	614.38
313.476	653.38
313.706	665.38
313.935	654.38
314.165	621.38
314.394	636.38
314.624	627.38
314.853	637.38
315.083	653.38
315.312	645.38
315.542	637.38
315.771	659.38
316.001	662.38
316.23	633.38
316.46	645.38
316.689	617.38
316.919	635.38
317.148	643.38
317.377	627.38
317.607	646.38
317.836	633.38
318.065	631.38
318.295	628.38
318.524	654.38
318.753	654.38
318.983	641.38
319.212	627.38
319.441	625.38
319.67	645.38
319.9	647.38
320.129	643.38
320.358	643.38
320.587	659.38
320.816	650.38
321.046	638.38
321.275	654.38
321.504	661.38
321.733	635.38
321.962	653.38
322.191	642.38
322.42	637.38
322.649	673.38
322.878	646.38
323.108	651.38
323.337	665.38
323.566	662.38
323.795	657.38
324.024	684.38
324.253	666.38
324.482	661.38
324.71	643.38
324.939	665.38
325.168	651.38
325.397	670.38
325.626	688.38
325.855	678.38
326.084	707.38
326.313	709.38
326.542	704.38
326.77	711.38
326.999	706.38
327.228	681.38
327.457	675.38
327.686	684.38
327.914	716.38
328.143	694.38
328.372	697.38
328.6	693.38
328.829	689.38
329.058	687.38
329.287	685.38
329.515	705.38
329.744	693.38
329.972	713.38
330.201	721.38
330.43	705.38
330.658	717.38
330.887	719.38
331.115	735.38
331.344	728.38
331.572	756.38
331.801	764.38
332.03	782.38
332.258	795.38
332.486	781.38
332.715	808.38
332.943	797.38
333.172	832.38
333.4	839.38
333.629	855.38
333.857	887.38
334.085	891.38
334.314	854.38
334.542	860.38
334.771	853.38
334.999	880.38
335.227	866.38
335.455	855.38
335.684	865.38
335.912	871.38
336.14	855.38
336.369	873.38
336.597	851.38
336.825	846.38
337.053	876.38
337.281	835.38
337.51	817.38
337.738	812.38
337.966	796.38
338.194	791.38
338.422	819.38
338.65	783.38
338.878	758.38
339.106	784.38
339.334	782.38
339.562	774.38
339.79	766.38
340.018	772.38
340.246	739.38
340.474	738.38
340.702	767.38
340.93	736.38
341.158	741.38
341.386	742.38
341.614	796.38
341.842	764.38
342.07	727.38
342.298	732.38
342.526	739.38
342.754	715.38
342.981	739.38
343.209	732.38
343.437	784.38
343.665	834.38
343.893	853.38
344.12	868.38
344.348	855.38
344.576	834.38
344.804	811.38
345.031	765.38
345.259	755.38
345.487	744.38
345.714	751.38
345.942	767.38
346.17	753.38
346.397	756.38
346.625	735.38
346.853	716.38
347.08	708.38
347.308	722.38
347.535	713.38
347.763	714.38
347.99	721.38
348.218	701.38
348.445	725.38
348.673	711.38
348.9	724.38
349.128	714.38
349.355	696.38
349.583	727.38
349.81	704.38
350.037	663.38
350.265	672.38
350.492	669.38
350.72	675.38
350.947	675.38
351.174	706.38
351.402	693.38
351.629	728.38
351.856	696.38
352.083	693.38
352.311	721.38
352.538	719.38
352.765	732.38
352.992	693.38
353.22	691.38
353.447	671.38
353.674	687.38
353.901	663.38
354.128	641.38
354.355	679.38
354.583	693.38
354.81	677.38
355.037	663.38
355.264	665.38
355.491	672.38
355.718	681.38
355.945	672.38
356.172	661.38
356.399	684.38
356.626	677.38
356.853	693.38
357.08	687.38
357.307	674.38
357.534	683.38
357.761	676.38
357.988	681.38
358.215	668.38
358.441	674.38
358.668	659.38
358.895	691.38
359.122	659.38
359.349	649.38
359.576	661.38
359.802	675.38
360.029	657.38
360.256	687.38
360.483	677.38
360.709	670.38
360.936	679.38
361.163	678.38
361.39	677.38
361.616	691.38
361.843	703.38
362.07	733.38
362.296	686.38
362.523	703.38
362.749	671.38
362.976	663.38
363.203	678.38
363.429	668.38
363.656	641.38
363.882	681.38
364.109	638.38
364.335	675.38
364.562	679.38
364.788	656.38
365.015	676.38
365.241	675.38
365.468	653.38
365.694	686.38
365.92	659.38
366.147	670.38
366.373	688.38
366.599	690.38
366.826	659.38
367.052	663.38
367.278	667.38
367.505	675.38
367.731	672.38
367.957	680.38
368.184	697.38
368.41	699.38
368.636	673.38
368.862	680.38
369.089	696.38
369.315	699.38
369.541	700.38
369.767	687.38
369.993	689.38
370.219	668.38
370.445	695.38
370.672	707.38
370.898	727.38
371.124	723.38
371.35	727.38
371.576	722.38
371.802	716.38
372.028	725.38
372.254	722.38
372.48	719.38
372.706	704.38
372.932	730.38
373.158	732.38
373.384	731.38
373.61	725.38
373.835	728.38
374.061	731.38
374.287	761.38
374.513	730.38
374.739	760.38
374.965	744.38
375.191	748.38
375.416	750.38
375.642	769.38
375.868	729.38
376.094	725.38
376.319	732.38
376.545	714.38
376.771	738.38
376.997	713.38
377.222	700.38
377.448	716.38
377.674	728.38
377.899	699.38
378.125	713.38
378.35	714.38
378.576	718.38
378.802	699.38
379.027	715.38
379.253	717.38
379.478	691.38
379.704	701.38
379.929	704.38
380.155	680.38
380.38	672.38
380.606	696.38
380.831	706.38
381.057	750.38
381.282	720.38
381.507	704.38
381.733	690.38
381.958	713.38
382.184	718.38
382.409	719.38
382.634	729.38
382.86	732.38
383.085	735.38
383.31	727.38
383.535	754.38
383.761	781.38
383.986	726.38
384.211	754.38
384.436	785.38
384.662	791.38
384.887	792.38
385.112	808.38
385.337	827.38
385.562	835.38
385.787	815.38
386.013	828.38
386.238	811.38
386.463	852.38
386.688	844.38
386.913	837.38
387.138	836.38
387.363	808.38
387.588	836.38
387.813	816.38
388.038	849.38
388.263	810.38
388.488	841.38
388.713	826.38
388.938	836.38
389.163	834.38
389.387	794.38
389.612	809.38
389.837	840.38
390.062	803.38
390.287	826.38
390.512	817.38
390.736	821.38
390.961	834.38
391.186	865.38
391.411	859.38
391.636	859.38
391.86	894.38
392.085	931.38
392.31	937.38
392.534	884.38
392.759	889.38
392.984	861.38
393.208	841.38
393.433	890.38
393.658	874.38
393.882	876.38
394.107	896.38
394.331	892.38
394.556	851.38
394.78	862.38
395.005	903.38
395.229	913.38
395.454	929.38
395.678	912.38
395.903	921.38
396.127	894.38
396.352	898.38
396.576	913.38
396.801	853.38
397.025	899.38
397.249	909.38
397.474	946.38
397.698	923.38
397.922	931.38
398.147	919.38
398.371	945.38
398.595	972.38
398.82	1009.38
399.044	1054.38
399.268	1152.38
399.492	1283.38
399.717	1368.38
399.941	1362.38
400.165	1285.38
400.389	1203.38
400.613	1138.38
400.837	1102.38
401.062	1072.38
401.286	1033.38
401.51	1021.38
401.734	1011.38
401.958	1022.38
402.182	1032.38
402.406	1056.38
402.63	1042.38
402.854	1034.38
403.078	1095.38
403.302	1074.38
403.526	1064.38
403.75	1118.38
403.974	1091.38
404.198	1097.38
404.422	1107.38
404.645	1116.38
404.869	1082.38
405.093	1109.38
405.317	1103.38
405.541	1117.38
405.765	1077.38
405.988	1098.38
406.212	1126.38
406.436	1113.38
406.66	1142.38
406.883	1139.38
407.107	1206.38
407.331	1248.38
407.555	1266.38
407.778	1250.38
408.002	1247.38
408.226	1228.38
408.449	1230.38
408.673	1179.38
408.896	1189.38
409.12	1177.38
409.344	1155.38
409.567	1163.38
409.791	1153.38
410.014	1150.38
410.238	1123.38
410.461	1150.38
410.685	1132.38
410.908	1150.38
411.132	1101.38
411.355	1056.38
411.578	1077.38
411.802	1075.38
412.025	1052.38
412.249	1067.38
412.472	1080.38
412.695	1042.38
412.919	1036.38
413.142	1043.38
413.365	1034.38
413.589	1062.38
413.812	1038.38
414.035	1019.38
414.258	1062.38
414.482	1034.38
414.705	1037.38
414.928	1033.38
415.151	1047.38
415.374	1065.38
415.597	1040.38
415.821	1033.38
416.044	1019.38
416.267	990.38
416.49	1013.38
416.713	1022.38
416.936	1043.38
417.159	1007.38
417.382	1010.38
417.605	1043.38
417.828	1015.38
418.051	1054.38
418.274	1015.38
418.497	1007.38
418.72	1058.38
418.943	1007.38
419.166	1083.38
419.389	1171.38
419.611	1122.38
419.834	1103.38
420.057	1081.38
420.28	1043.38
420.503	1025.38
420.726	1008.38
420.948	1016.38
421.171	1032.38
421.394	1030.38
421.617	1011.38
421.839	1027.38
422.062	1018.38
422.285	997.38
422.507	1049.38
422.73	1013.38
422.953	1036.38
423.175	1048.38
423.398	1039.38
423.621	1055.38
423.843	1040.38
424.066	1047.38
424.288	1043.38
424.511	1068.38
424.733	1048.38
424.956	999.38
425.178	1004.38
425.401	1036.38
425.623	1033.38
425.846	1027.38
426.068	1010.38
426.291	987.38
426.513	988.38
426.735	983.38
426.958	994.38
427.18	958.38
427.402	954.38
427.625	958.38
427.847	957.38
428.069	938.38
428.292	967.38
428.514	903.38
428.736	939.38
428.958	980.38
429.181	951.38
429.403	934.38
429.625	930.38
429.847	935.38
430.069	901.38
430.292	910.38
430.514	935.38
430.736	918.38
430.958	956.38
431.18	916.38
431.402	941.38
431.624	935.38
431.846	943.38
432.068	940.38
432.29	965.38
432.512	961.38
432.734	946.38
432.956	954.38
433.178	939.38
433.4	967.38
433.622	969.38
433.844	969.38
434.066	974.38
434.287	972.38
434.509	1009.38
434.731	991.38
434.953	1024.38
435.175	1018.38
435.397	1044.38
435.618	999.38
435.84	997.38
436.062	972.38
436.284	969.38
436.505	949.38
436.727	963.38
436.949	946.38
437.17	933.38
437.392	940.38
437.614	932.38
437.835	903.38
438.057	928.38
438.278	924.38
438.5	934.38
438.721	925.38
438.943	931.38
439.165	908.38
439.386	909.38
439.608	942.38
439.829	945.38
440.05	930.38
440.272	1003.38
440.493	933.38
440.715	963.38
440.936	988.38
441.158	993.38
441.379	1013.38
441.6	1067.38
441.822	1065.38
442.043	1080.38
442.264	1057.38
442.486	1007.38
442.707	1040.38
442.928	1021.38
443.149	1017.38
443.371	993.38
443.592	1033.38
443.813	1056.38
444.034	1031.38
444.255	1091.38
444.476	1113.38
444.698	1151.38
444.919	1194.38
445.14	1257.38
445.361	1149.38
445.582	1067.38
445.803	1029.38
446.024	992.38
446.245	996.38
446.466	1015.38
446.687	987.38
446.908	961.38
447.129	947.38
447.35	945.38
447.571	930.38
447.792	922.38
448.013	902.38
448.234	893.38
448.455	918.38
448.675	874.38
448.896	869.38
449.117	881.38
449.338	861.38
449.559	888.38
449.779	889.38
450	877.38
450.221	868.38
450.442	891.38
450.662	904.38
450.883	883.38
451.104	909.38
451.324	913.38
451.545	912.38
451.766	890.38
451.986	888.38
452.207	884.38
452.428	892.38
452.648	869.38
452.869	844.38
453.089	848.38
453.31	874.38
453.53	868.38
453.751	854.38
453.971	863.38
454.192	879.38
454.412	860.38
454.633	864.38
454.853	853.38
455.073	839.38
455.294	862.38
455.514	819.38
455.734	854.38
455.955	812.38
456.175	856.38
456.395	832.38
456.616	831.38
456.836	841.38
457.056	843.38
457.276	844.38
457.497	832.38
457.717	839.38
457.937	871.38
458.157	865.38
458.377	869.38
458.598	893.38
458.818	915.38
459.038	935.38
459.258	930.38
459.478	969.38
459.698	983.38
459.918	1031.38
460.138	1023.38
460.358	1041.38
460.578	1099.38
460.798	1143.38
461.018	1103.38
461.238	1121.38
461.458	1105.38
461.678	1101.38
461.898	1157.38
462.118	1124.38
462.338	1167.38
462.558	1228.38
462.777	1239.38
462.997	1323.38
463.217	1398.38
463.437	1359.38
463.657	1285.38
463.876	1272.38
464.096	1269.38
464.316	1279.38
464.536	1252.38
464.755	1226.38
464.975	1169.38
465.195	1159.38
465.414	1089.38
465.634	1035.38
465.854	1039.38
466.073	976.38
466.293	967.38
466.512	941.38
466.732	947.38
466.951	950.38
467.171	929.38
467.391	953.38
467.61	931.38
467.829	932.38
468.049	895.38
468.268	915.38
468.488	927.38
468.707	905.38
468.927	888.38
469.146	913.38
469.365	958.38
469.585	909.38
469.804	949.38
470.023	928.38
470.243	959.38
470.462	968.38
470.681	973.38
470.901	968.38
471.12	965.38
471.339	945.38
471.558	919.38
471.777	931.38
471.997	941.38
472.216	918.38
472.435	915.38
472.654	896.38
472.873	897.38
473.092	920.38
473.311	892.38
473.53	909.38
473.749	888.38
473.968	876.38
474.187	866.38
474.406	883.38
474.625	902.38
474.844	898.38
475.063	899.38
475.282	903.38
475.501	891.38
475.72	926.38
475.939	904.38
476.158	932.38
476.377	936.38
476.596	944.38
476.814	945.38
477.033	956.38
477.252	971.38
477.471	1000.38
477.69	1004.38
477.908	1058.38
478.127	1037.38
478.346	1047.38
478.564	1053.38
478.783	1069.38
479.002	1101.38
479.22	1093.38
479.439	1104.38
479.658	1103.38
479.876	1080.38
480.095	1106.38
480.313	1175.38
480.532	1137.38
480.751	1129.38
480.969	1117.38
481.188	1066.38
481.406	1077.38
481.624	1089.38
481.843	1029.38
482.061	1034.38
482.28	995.38
482.498	1036.38
482.717	1035.38
482.935	1020.38
483.153	1043.38
483.372	1041.38
483.59	1060.38
483.808	1052.38
484.027	1023.38
484.245	1061.38
484.463	1094.38
484.681	1085.38
484.9	1059.38
485.118	1068.38
485.336	1094.38
485.554	1071.38
485.772	1077.38
485.99	1079.38
486.209	1088.38
486.427	1065.38
486.645	1089.38
486.863	1107.38
487.081	1082.38
487.299	1098.38
487.517	1082.38
487.735	1065.38
487.953	1077.38
488.171	1078.38
488.389	1059.38
488.607	1106.38
488.825	1058.38
489.043	1043.38
489.261	1090.38
489.479	1034.38
489.696	1051.38
489.914	1127.38
490.132	1104.38
490.35	1113.38
490.568	1108.38
490.786	1090.38
491.003	1084.38
491.221	1112.38
491.439	1116.38
491.657	1127.38
491.874	1115.38
492.092	1141.38
492.31	1138.38
492.527	1123.38
492.745	1126.38
492.963	1127.38
493.18	1144.38
493.398	1111.38
493.615	1143.38
493.833	1147.38
494.05	1109.38
494.268	1155.38
494.485	1173.38
494.703	1175.38
494.92	1175.38
495.138	1172.38
495.355	1200.38
495.573	1169.38
495.79	1144.38
496.008	1189.38
496.225	1212.38
496.442	1212.38
496.66	1171.38
496.877	1224.38
497.094	1257.38
497.312	1295.38
497.529	1287.38
497.746	1304.38
497.963	1363.38
498.181	1411.38
498.398	1465.38
498.615	1503.38
498.832	1593.38
499.049	1711.38
499.267	1790.38
499.484	1951.38
499.701	2097.38
499.918	2273.38
500.135	2433.38
500.352	2686.38
500.569	2790.38
500.786	2710.38
501.003	2571.38
501.22	2459.38
501.437	2216.38
501.654	2061.38
501.871	1923.38
502.088	1756.38
502.305	1707.38
502.522	1594.38
502.739	1573.38
502.956	1479.38
503.172	1430.38
503.389	1355.38
503.606	1347.38
503.823	1324.38
504.04	1307.38
504.256	1319.38
504.473	1297.38
504.69	1288.38
504.907	1291.38
505.123	1231.38
505.34	1177.38
505.557	1155.38
505.773	1121.38
505.99	1126.38
506.207	1079.38
506.423	1072.38
506.64	1077.38
506.856	1059.38
507.073	1039.38
507.289	1041.38
507.506	1004.38
507.722	1021.38
507.939	997.38
508.155	1002.38
508.372	1002.38
508.588	982.38
508.805	991.38
509.021	978.38
509.238	983.38
509.454	941.38
509.67	928.38
509.887	958.38
510.103	951.38
510.319	936.38
510.536	940.38
510.752	903.38
510.968	916.38
511.184	906.38
511.401	889.38
511.617	918.38
511.833	923.38
512.049	931.38
512.265	925.38
512.481	918.38
512.698	918.38
512.914	907.38
513.13	891.38
513.346	918.38
513.562	922.38
513.778	957.38
513.994	934.38
514.21	923.38
514.426	925.38
514.642	895.38
514.858	930.38
515.074	934.38
515.29	920.38
515.506	949.38
515.721	987.38
515.937	990.38
516.153	982.38
516.369	991.38
516.585	1034.38
516.801	1045.38
517.016	1103.38
517.232	1132.38
517.448	1165.38
517.664	1172.38
517.879	1182.38
518.095	1181.38
518.311	1143.38
518.527	1123.38
518.742	1084.38
518.958	1068.38
519.173	1024.38
519.389	1027.38
519.605	982.38
519.82	958.38
520.036	928.38
520.251	957.38
520.467	920.38
520.682	913.38
520.898	922.38
521.113	894.38
521.329	932.38
521.544	876.38
521.76	892.38
521.975	899.38
522.19	861.38
522.406	887.38
522.621	873.38
522.836	843.38
523.052	869.38
523.267	862.38
523.482	874.38
523.698	850.38
523.913	843.38
524.128	818.38
524.343	846.38
524.559	848.38
524.774	834.38
524.989	869.38
525.204	830.38
525.419	836.38
525.634	854.38
525.849	828.38
526.064	815.38
526.28	819.38
526.495	811.38
526.71	809.38
526.925	819.38
527.14	791.38
527.355	807.38
527.57	819.38
527.785	821.38
527.999	812.38
528.214	820.38
528.429	819.38
528.644	828.38
528.859	830.38
529.074	844.38
529.289	839.38
529.503	834.38
529.718	831.38
529.933	806.38
530.148	801.38
530.363	824.38
530.577	791.38
530.792	797.38
531.007	807.38
531.221	809.38
531.436	796.38
531.651	813.38
531.865	791.38
532.08	807.38
532.295	794.38
532.509	796.38
532.724	827.38
532.938	822.38
533.153	815.38
533.367	825.38
533.582	800.38
533.796	804.38
534.011	817.38
534.225	799.38
534.44	767.38
534.654	783.38
534.868	778.38
535.083	792.38
535.297	825.38
535.511	789.38
535.726	771.38
535.94	771.38
536.154	777.38
536.369	777.38
536.583	762.38
536.797	763.38
537.011	763.38
537.225	741.38
537.44	747.38
537.654	760.38
537.868	746.38
538.082	723.38
538.296	711.38
538.51	728.38
538.724	731.38
538.938	729.38
539.153	733.38
539.367	731.38
539.581	738.38
539.795	739.38
540.009	716.38
540.222	710.38
540.436	714.38
540.65	742.38
540.864	709.38
541.078	737.38
541.292	731.38
541.506	736.38
541.72	726.38
541.934	748.38
542.147	738.38
542.361	723.38
542.575	720.38
542.789	735.38
543.002	725.38
543.216	747.38
543.43	732.38
543.644	720.38
543.857	720.38
544.071	729.38
544.285	738.38
544.498	724.38
544.712	746.38
544.925	748.38
545.139	744.38
545.352	716.38
545.566	737.38
545.779	764.38
545.993	728.38
546.206	733.38
546.42	722.38
546.633	731.38
546.847	739.38
547.06	729.38
547.274	748.38
547.487	728.38
547.7	747.38
547.914	757.38
548.127	758.38
548.34	744.38
548.554	734.38
548.767	745.38
548.98	759.38
549.193	748.38
549.407	759.38
549.62	789.38
549.833	757.38
550.046	708.38
550.259	753.38
550.473	744.38
550.686	747.38
550.899	748.38
551.112	735.38
551.325	744.38
551.538	715.38
551.751	735.38
551.964	740.38
552.177	716.38
552.39	747.38
552.603	780.38
552.816	760.38
553.029	791.38
553.242	776.38
553.455	807.38
553.667	801.38
553.88	768.38
554.093	751.38
554.306	754.38
554.519	729.38
554.732	746.38
554.944	726.38
555.157	706.38
555.37	708.38
555.583	697.38
555.795	677.38
556.008	667.38
556.221	674.38
556.433	675.38
556.646	665.38
556.859	644.38
557.071	651.38
557.284	635.38
557.496	648.38
557.709	645.38
557.921	634.38
558.134	637.38
558.346	621.38
558.559	617.38
558.771	614.38
558.984	601.38
559.196	604.38
559.409	653.38
559.621	626.38
559.833	625.38
560.046	598.38
560.258	591.38
560.47	609.38
560.683	611.38
560.895	608.38
561.107	597.38
561.32	630.38
561.532	625.38
561.744	614.38
561.956	613.38
562.168	612.38
562.381	621.38
562.593	615.38
562.805	621.38
563.017	600.38
563.229	617.38
563.441	618.38
563.653	630.38
563.865	623.38
564.077	627.38
564.289	647.38
564.501	637.38
564.713	649.38
564.925	688.38
565.137	707.38
565.349	681.38
565.561	738.38
565.773	705.38
565.985	728.38
566.197	749.38
566.408	813.38
566.62	850.38
566.832	890.38
567.044	897.38
567.255	899.38
567.467	890.38
567.679	965.38
567.891	991.38
568.102	992.38
568.314	941.38
568.526	873.38
568.737	836.38
568.949	781.38
569.161	756.38
569.372	701.38
569.584	689.38
569.795	650.38
570.007	651.38
570.218	636.38
570.43	633.38
570.641	627.38
570.853	615.38
571.064	627.38
571.276	613.38
571.487	600.38
571.698	577.38
571.91	583.38
572.121	545.38
572.333	554.38
572.544	554.38
572.755	524.38
572.966	536.38
573.178	532.38
573.389	505.38
573.6	500.38
573.811	515.38
574.023	477.38
574.234	503.38
574.445	507.38
574.656	486.38
574.867	490.38
575.078	512.38
575.289	479.38
575.501	495.38
575.712	488.38
575.923	476.38
576.134	475.38
576.345	479.38
576.556	478.38
576.767	480.38
576.978	469.38
577.188	467.38
577.399	442.38
577.61	461.38
577.821	446.38
578.032	455.38
578.243	448.38
578.454	445.38
578.665	445.38
578.875	468.38
579.086	435.38
579.297	449.38
579.508	441.38
579.718	457.38
579.929	436.38
580.14	457.38
580.35	422.38
580.561	426.38
580.772	424.38
580.982	437.38
581.193	439.38
581.403	440.38
581.614	425.38
581.825	425.38
582.035	432.38
582.246	416.38
582.456	399.38
582.667	431.38
582.877	429.38
583.087	433.38
583.298	427.38
583.508	411.38
583.719	415.38
583.929	424.38
584.139	431.38
584.35	396.38
584.56	397.38
584.77	397.38
584.981	411.38
585.191	400.38
585.401	389.38
585.611	395.38
585.821	393.38
586.032	415.38
586.242	393.38
586.452	397.38
586.662	404.38
586.872	407.38
587.082	415.38
587.292	400.38
587.502	412.38
587.713	395.38
587.923	388.38
588.133	388.38
588.343	386.38
588.553	396.38
588.762	395.38
588.972	393.38
589.182	424.38
589.392	435.38
589.602	391.38
589.812	425.38
590.022	431.38
590.232	410.38
590.441	403.38
590.651	406.38
590.861	408.38
591.071	389.38
591.281	416.38
591.49	428.38
591.7	419.38
591.91	411.38
592.119	408.38
592.329	412.38
592.539	443.38
592.748	453.38
592.958	431.38
593.167	459.38
593.377	448.38
593.587	474.38
593.796	459.38
594.006	467.38
594.215	457.38
594.424	463.38
594.634	467.38
594.843	445.38
595.053	445.38
595.262	436.38
595.472	419.38
595.681	412.38
595.89	401.38
596.1	386.38
596.309	398.38
596.518	393.38
596.727	380.38
596.937	401.38
597.146	375.38
597.355	371.38
597.564	353.38
597.774	373.38
597.983	367.38
598.192	348.38
598.401	359.38
598.61	324.38
598.819	339.38
599.028	349.38
599.237	350.38
599.446	352.38
599.655	356.38
599.864	345.38
600.073	335.38
600.282	341.38
600.491	331.38
600.7	331.38
600.909	331.38
601.118	328.38
601.327	328.38
601.536	324.38
601.745	327.38
601.953	326.38
602.162	315.38
602.371	316.38
602.58	320.38
602.789	340.38
602.997	318.38
603.206	321.38
603.415	332.38
603.623	328.38
603.832	311.38
604.041	314.38
604.249	343.38
604.458	321.38
604.666	318.38
604.875	330.38
605.084	320.38
605.292	297.38
605.501	313.38
605.709	293.38
605.918	301.38
606.126	309.38
606.334	321.38
606.543	309.38
606.751	328.38
606.96	299.38
607.168	321.38
607.376	313.38
607.585	300.38
607.793	301.38
608.001	309.38
608.21	306.38
608.418	300.38
608.626	313.38
608.834	282.38
609.043	298.38
609.251	310.38
609.459	289.38
609.667	320.38
609.875	278.38
610.083	303.38
610.291	306.38
610.499	296.38
610.707	279.38
610.916	283.38
611.124	291.38
611.332	283.38
611.54	299.38
611.748	310.38
611.955	280.38
612.163	280.38
612.371	283.38
612.579	297.38
612.787	281.38
612.995	288.38
613.203	288.38
613.411	288.38
613.618	306.38
613.826	281.38
614.034	276.38
614.242	289.38
614.449	275.38
614.657	270.38
614.865	273.38
615.072	285.38
615.28	283.38
615.488	280.38
615.695	287.38
615.903	275.38
616.111	281.38
616.318	292.38
616.526	283.38
616.733	289.38
616.941	284.38
617.148	276.38
617.356	285.38
617.563	277.38
617.771	291.38
617.978	287.38
618.185	287.38
618.393	279.38
618.6	293.38
618.807	285.38
619.015	287.38
619.222	292.38
619.429	288.38
619.637	278.38
619.844	291.38
620.051	271.38
620.258	280.38
620.466	271.38
620.673	268.38
620.88	261.38
621.087	277.38
621.294	247.38
621.501	275.38
621.708	263.38
621.915	265.38
622.122	259.38
622.329	269.38
622.536	244.38
622.743	272.38
622.95	253.38
623.157	277.38
623.364	252.38
623.571	257.38
623.778	248.38
623.985	248.38
624.192	262.38
624.399	268.38
624.606	246.38
624.812	234.38
625.019	245.38
625.226	253.38
625.433	243.38
625.639	244.38
625.846	246.38
626.053	243.38
626.259	239.38
626.466	255.38
626.673	234.38
626.879	243.38
627.086	246.38
627.293	246.38
627.499	232.38
627.706	234.38
627.912	246.38
628.119	235.38
628.325	244.38
628.532	230.38
628.738	230.38
628.945	219.38
629.151	235.38
629.357	232.38
629.564	220.38
629.77	243.38
629.976	234.38
630.183	222.38
630.389	225.38
630.595	225.38
630.802	233.38
631.008	218.38
631.214	212.38
631.42	216.38
631.627	219.38
631.833	222.38
632.039	220.38
632.245	233.38
632.451	230.38
632.657	205.38
632.863	224.38
633.069	224.38
633.275	215.38
633.481	215.38
633.688	216.38
633.893	212.38
634.099	205.38
634.305	235.38
634.511	210.38
634.717	216.38
634.923	199.38
635.129	208.38
635.335	216.38
635.541	227.38
635.747	209.38
635.952	201.38
636.158	214.38
636.364	196.38
636.57	195.38
636.775	217.38
636.981	207.38
637.187	208.38
637.392	213.38
637.598	209.38
637.804	196.38
638.009	204.38
638.215	196.38
638.421	196.38
638.626	193.38
638.832	202.38
639.037	209.38
639.243	205.38
639.448	218.38
639.654	205.38
639.859	184.38
640.065	189.38
640.27	210.38
640.475	191.38
640.681	197.38
640.886	198.38
641.091	199.38
641.297	201.38
641.502	196.38
641.707	196.38
641.913	192.38
642.118	186.38
642.323	210.38
642.528	196.38
642.733	214.38
642.939	195.38
643.144	197.38
643.349	182.38
643.554	185.38
643.759	200.38
643.964	195.38
644.169	176.38
644.374	196.38
644.579	196.38
644.784	201.38
644.989	185.38
645.194	180.38
645.399	213.38
645.604	176.38
645.809	202.38
646.014	187.38
646.219	206.38
646.423	197.38
646.628	166.38
646.833	194.38
647.038	195.38
647.243	203.38
647.447	186.38
647.652	189.38
647.857	210.38
648.062	208.38
648.266	211.38
648.471	193.38
648.676	195.38
648.88	197.38
649.085	195.38
649.289	176.38
649.494	185.38
649.698	188.38
649.903	182.38
650.107	171.38
650.312	173.38
650.516	188.38
650.721	180.38
650.925	169.38
651.13	177.38
651.334	182.38
651.539	179.38
651.743	181.38
651.947	170.38
652.152	175.38
652.356	177.38
652.56	167.38
652.764	168.38
652.969	177.38
653.173	159.38
653.377	165.38
653.581	151.38
653.785	168.38
653.99	156.38
654.194	146.38
654.398	155.38
654.602	157.38
654.806	139.38
655.01	154.38
655.214	156.38
655.418	162.38
655.622	135.38
655.826	169.38
656.03	160.38
656.234	146.38
656.438	157.38
656.642	152.38
656.846	133.38
657.049	139.38
657.253	130.38
657.457	139.38
657.661	125.38
657.865	132.38
658.068	128.38
658.272	127.38
658.476	121.38
658.68	114.38
658.883	119.38
659.087	97.38
659.291	100.38
659.494	101.38
659.698	114.38
659.901	105.38
660.105	107.38
660.309	111.38
660.512	100.38
660.716	109.38
660.919	84.38
661.123	78.38
661.326	91.38
661.53	87.38
661.733	98.38
661.936	92.38
662.14	89.38
662.343	91.38
662.546	96.38
662.75	91.38
662.953	95.38
663.156	88.38
663.36	87.38
663.563	85.38
663.766	90.38
663.969	87.38
664.173	76.38
664.376	81.38
664.579	83.38
664.782	83.38
664.985	85.38
665.188	88.38
665.391	85.38
665.594	83.38
665.797	90.38
666	85.38
666.203	91.38
666.406	63.38
666.609	82.38
666.812	75.38
667.015	92.38
667.218	87.38
667.421	92.38
667.624	100.38
667.827	87.38
668.03	74.38
668.232	92.38
668.435	77.38
668.638	89.38
668.841	92.38
669.043	80.38
669.246	81.38
669.449	89.38
669.651	76.38
669.854	64.38
670.057	76.38
670.259	79.38
670.462	88.38
670.665	73.38
670.867	81.38
671.07	87.38
671.272	87.38
671.475	90.38
671.677	74.38
671.88	72.38
672.082	87.38
672.284	82.38
672.487	100.38
672.689	97.38
672.892	84.38
