Data from NiCl2@0.25M.TitratingCurve.Agarose3%dH2O.NegLispCup.LampEnergy10.LIBS07252019_HRD10591_18-23-10-573.txt Node
Date: Thu Jul 25 18:23:10 EDT 2019
User: cochatt
Spectrometer: HR+D1059
Trigger mode: 1
Integration Time (sec): 1.000000E-1
Scans to average: 1
Electric dark correction enabled: true
Nonlinearity correction enabled: false
Boxcar width: 0
XAxis mode: Wavelengths
Number of Pixels in Spectrum: 2048
>>>>>Begin Spectral Data<<<<<
223.165	-7.5
223.4	-7.5
223.635	-7.5
223.869	-25.5
224.104	-23.5
224.338	-28.5
224.573	-10.5
224.808	-4.5
225.042	2.5
225.277	-1.5
225.511	5.5
225.746	-8.5
225.98	7.5
226.215	9.5
226.449	17.5
226.683	14.5
226.918	23.5
227.152	29.5
227.387	23.5
227.621	39.5
227.856	38.5
228.09	30.5
228.324	33.5
228.559	53.5
228.793	65.5
229.027	92.5
229.262	93.5
229.496	101.5
229.73	106.5
229.964	107.5
230.199	118.5
230.433	120.5
230.667	126.5
230.901	130.5
231.136	110.5
231.37	111.5
231.604	127.5
231.838	118.5
232.072	131.5
232.306	117.5
232.541	123.5
232.775	124.5
233.009	137.5
233.243	110.5
233.477	132.5
233.711	129.5
233.945	120.5
234.179	119.5
234.413	132.5
234.647	134.5
234.881	142.5
235.115	134.5
235.349	136.5
235.583	121.5
235.817	120.5
236.051	125.5
236.285	125.5
236.519	117.5
236.753	128.5
236.987	131.5
237.221	135.5
237.455	125.5
237.689	148.5
237.922	124.5
238.156	152.5
238.39	139.5
238.624	140.5
238.858	139.5
239.091	138.5
239.325	146.5
239.559	160.5
239.793	138.5
240.027	155.5
240.26	144.5
240.494	156.5
240.728	160.5
240.961	159.5
241.195	152.5
241.429	160.5
241.662	173.5
241.896	153.5
242.13	165.5
242.363	153.5
242.597	151.5
242.83	175.5
243.064	155.5
243.298	162.5
243.531	165.5
243.765	163.5
243.998	174.5
244.232	178.5
244.465	175.5
244.699	162.5
244.932	167.5
245.166	181.5
245.399	172.5
245.633	169.5
245.866	178.5
246.099	169.5
246.333	176.5
246.566	181.5
246.8	192.5
247.033	200.5
247.266	182.5
247.5	177.5
247.733	197.5
247.966	191.5
248.2	189.5
248.433	185.5
248.666	208.5
248.899	202.5
249.133	188.5
249.366	205.5
249.599	193.5
249.832	197.5
250.066	214.5
250.299	211.5
250.532	215.5
250.765	200.5
250.998	201.5
251.231	197.5
251.465	209.5
251.698	233.5
251.931	217.5
252.164	225.5
252.397	219.5
252.63	212.5
252.863	205.5
253.096	205.5
253.329	234.5
253.562	208.5
253.795	215.5
254.028	220.5
254.261	227.5
254.494	228.5
254.727	241.5
254.96	224.5
255.193	231.5
255.426	217.5
255.659	223.5
255.892	232.5
256.124	242.5
256.357	237.5
256.59	234.5
256.823	229.5
257.056	247.5
257.289	254.5
257.521	240.5
257.754	241.5
257.987	228.5
258.22	245.5
258.452	257.5
258.685	259.5
258.918	250.5
259.151	241.5
259.383	237.5
259.616	245.5
259.849	257.5
260.081	261.5
260.314	261.5
260.547	276.5
260.779	249.5
261.012	281.5
261.244	277.5
261.477	264.5
261.71	272.5
261.942	271.5
262.175	279.5
262.407	279.5
262.64	259.5
262.872	272.5
263.105	261.5
263.337	265.5
263.57	249.5
263.802	269.5
264.035	262.5
264.267	284.5
264.499	280.5
264.732	288.5
264.964	265.5
265.197	292.5
265.429	263.5
265.661	281.5
265.894	282.5
266.126	283.5
266.358	290.5
266.591	272.5
266.823	289.5
267.055	296.5
267.287	286.5
267.52	287.5
267.752	289.5
267.984	297.5
268.216	280.5
268.448	302.5
268.681	310.5
268.913	305.5
269.145	273.5
269.377	287.5
269.609	310.5
269.841	293.5
270.073	303.5
270.306	298.5
270.538	294.5
270.77	300.5
271.002	303.5
271.234	296.5
271.466	305.5
271.698	290.5
271.93	300.5
272.162	318.5
272.394	324.5
272.626	306.5
272.858	328.5
273.09	314.5
273.322	321.5
273.553	321.5
273.785	316.5
274.017	318.5
274.249	321.5
274.481	331.5
274.713	332.5
274.945	322.5
275.176	321.5
275.408	342.5
275.64	335.5
275.872	336.5
276.104	336.5
276.335	313.5
276.567	326.5
276.799	331.5
277.031	331.5
277.262	356.5
277.494	337.5
277.726	326.5
277.957	351.5
278.189	341.5
278.421	346.5
278.652	363.5
278.884	360.5
279.115	362.5
279.347	342.5
279.579	343.5
279.81	350.5
280.042	379.5
280.273	351.5
280.505	356.5
280.736	343.5
280.968	377.5
281.199	359.5
281.431	380.5
281.662	357.5
281.894	370.5
282.125	371.5
282.356	374.5
282.588	372.5
282.819	386.5
283.051	351.5
283.282	357.5
283.513	382.5
283.745	395.5
283.976	376.5
284.207	371.5
284.439	376.5
284.67	386.5
284.901	388.5
285.132	369.5
285.364	397.5
285.595	386.5
285.826	380.5
286.057	381.5
286.288	384.5
286.52	389.5
286.751	391.5
286.982	406.5
287.213	399.5
287.444	390.5
287.675	413.5
287.906	397.5
288.138	421.5
288.369	426.5
288.6	408.5
288.831	421.5
289.062	424.5
289.293	400.5
289.524	398.5
289.755	421.5
289.986	410.5
290.217	411.5
290.448	414.5
290.679	409.5
290.91	405.5
291.141	403.5
291.371	414.5
291.602	423.5
291.833	415.5
292.064	428.5
292.295	430.5
292.526	414.5
292.757	406.5
292.987	418.5
293.218	416.5
293.449	420.5
293.68	413.5
293.91	438.5
294.141	428.5
294.372	400.5
294.603	413.5
294.833	419.5
295.064	416.5
295.295	425.5
295.525	435.5
295.756	420.5
295.987	426.5
296.217	430.5
296.448	434.5
296.679	426.5
296.909	421.5
297.14	456.5
297.37	454.5
297.601	448.5
297.831	461.5
298.062	462.5
298.292	461.5
298.523	442.5
298.753	446.5
298.984	456.5
299.214	456.5
299.445	441.5
299.675	443.5
299.905	462.5
300.136	441.5
300.366	473.5
300.597	458.5
300.827	455.5
301.057	487.5
301.288	494.5
301.518	470.5
301.748	495.5
301.979	504.5
302.209	469.5
302.439	484.5
302.669	470.5
302.9	485.5
303.13	487.5
303.36	486.5
303.59	482.5
303.82	486.5
304.051	484.5
304.281	472.5
304.511	473.5
304.741	484.5
304.971	465.5
305.201	493.5
305.431	485.5
305.661	471.5
305.891	492.5
306.121	482.5
306.352	468.5
306.582	476.5
306.812	482.5
307.042	486.5
307.272	475.5
307.502	464.5
307.731	450.5
307.961	459.5
308.191	460.5
308.421	469.5
308.651	470.5
308.881	486.5
309.111	444.5
309.341	472.5
309.571	474.5
309.8	444.5
310.03	478.5
310.26	472.5
310.49	444.5
310.72	476.5
310.949	466.5
311.179	487.5
311.409	473.5
311.639	468.5
311.868	480.5
312.098	493.5
312.328	494.5
312.557	501.5
312.787	506.5
313.017	506.5
313.246	529.5
313.476	531.5
313.706	517.5
313.935	509.5
314.165	492.5
314.394	515.5
314.624	531.5
314.853	519.5
315.083	533.5
315.312	516.5
315.542	524.5
315.771	517.5
316.001	508.5
316.23	512.5
316.46	486.5
316.689	483.5
316.919	496.5
317.148	495.5
317.377	507.5
317.607	489.5
317.836	500.5
318.065	498.5
318.295	510.5
318.524	507.5
318.753	505.5
318.983	484.5
319.212	502.5
319.441	516.5
319.67	500.5
319.9	503.5
320.129	523.5
320.358	500.5
320.587	492.5
320.816	509.5
321.046	500.5
321.275	526.5
321.504	530.5
321.733	511.5
321.962	512.5
322.191	511.5
322.42	496.5
322.649	528.5
322.878	525.5
323.108	512.5
323.337	519.5
323.566	526.5
323.795	534.5
324.024	516.5
324.253	533.5
324.482	506.5
324.71	514.5
324.939	521.5
325.168	523.5
325.397	538.5
325.626	541.5
325.855	524.5
326.084	564.5
326.313	556.5
326.542	574.5
326.77	597.5
326.999	543.5
327.228	545.5
327.457	549.5
327.686	566.5
327.914	557.5
328.143	553.5
328.372	553.5
328.6	578.5
328.829	546.5
329.058	556.5
329.287	553.5
329.515	556.5
329.744	579.5
329.972	576.5
330.201	582.5
330.43	564.5
330.658	578.5
330.887	569.5
331.115	580.5
331.344	610.5
331.572	586.5
331.801	613.5
332.03	615.5
332.258	647.5
332.486	648.5
332.715	656.5
332.943	689.5
333.172	737.5
333.4	724.5
333.629	762.5
333.857	751.5
334.085	768.5
334.314	721.5
334.542	706.5
334.771	701.5
334.999	697.5
335.227	665.5
335.455	674.5
335.684	668.5
335.912	680.5
336.14	656.5
336.369	671.5
336.597	653.5
336.825	665.5
337.053	646.5
337.281	625.5
337.51	632.5
337.738	632.5
337.966	641.5
338.194	639.5
338.422	611.5
338.65	615.5
338.878	607.5
339.106	607.5
339.334	612.5
339.562	610.5
339.79	592.5
340.018	586.5
340.246	588.5
340.474	601.5
340.702	571.5
340.93	586.5
341.158	566.5
341.386	581.5
341.614	576.5
341.842	584.5
342.07	584.5
342.298	577.5
342.526	594.5
342.754	600.5
342.981	579.5
343.209	578.5
343.437	607.5
343.665	673.5
343.893	715.5
344.12	707.5
344.348	688.5
344.576	656.5
344.804	620.5
345.031	593.5
345.259	578.5
345.487	588.5
345.714	576.5
345.942	570.5
346.17	591.5
346.397	568.5
346.625	575.5
346.853	559.5
347.08	554.5
347.308	573.5
347.535	579.5
347.763	593.5
347.99	568.5
348.218	550.5
348.445	575.5
348.673	580.5
348.9	520.5
349.128	548.5
349.355	544.5
349.583	571.5
349.81	573.5
350.037	561.5
350.265	521.5
350.492	570.5
350.72	551.5
350.947	563.5
351.174	540.5
351.402	552.5
351.629	545.5
351.856	561.5
352.083	530.5
352.311	542.5
352.538	565.5
352.765	546.5
352.992	535.5
353.22	540.5
353.447	546.5
353.674	559.5
353.901	553.5
354.128	540.5
354.355	537.5
354.583	540.5
354.81	519.5
355.037	558.5
355.264	547.5
355.491	535.5
355.718	539.5
355.945	558.5
356.172	552.5
356.399	556.5
356.626	545.5
356.853	542.5
357.08	518.5
357.307	539.5
357.534	558.5
357.761	537.5
357.988	550.5
358.215	551.5
358.441	553.5
358.668	558.5
358.895	541.5
359.122	541.5
359.349	535.5
359.576	548.5
359.802	540.5
360.029	550.5
360.256	548.5
360.483	558.5
360.709	540.5
360.936	535.5
361.163	551.5
361.39	564.5
361.616	559.5
361.843	527.5
362.07	560.5
362.296	562.5
362.523	536.5
362.749	529.5
362.976	554.5
363.203	531.5
363.429	522.5
363.656	547.5
363.882	539.5
364.109	541.5
364.335	536.5
364.562	546.5
364.788	546.5
365.015	558.5
365.241	546.5
365.468	556.5
365.694	542.5
365.92	535.5
366.147	549.5
366.373	544.5
366.599	552.5
366.826	569.5
367.052	590.5
367.278	552.5
367.505	552.5
367.731	563.5
367.957	557.5
368.184	550.5
368.41	567.5
368.636	540.5
368.862	570.5
369.089	558.5
369.315	568.5
369.541	570.5
369.767	572.5
369.993	588.5
370.219	574.5
370.445	567.5
370.672	596.5
370.898	601.5
371.124	572.5
371.35	592.5
371.576	593.5
371.802	601.5
372.028	599.5
372.254	611.5
372.48	597.5
372.706	611.5
372.932	620.5
373.158	612.5
373.384	611.5
373.61	608.5
373.835	610.5
374.061	607.5
374.287	611.5
374.513	609.5
374.739	632.5
374.965	644.5
375.191	664.5
375.416	630.5
375.642	639.5
375.868	616.5
376.094	622.5
376.319	630.5
376.545	584.5
376.771	601.5
376.997	595.5
377.222	605.5
377.448	590.5
377.674	614.5
377.899	613.5
378.125	596.5
378.35	581.5
378.576	576.5
378.802	584.5
379.027	599.5
379.253	589.5
379.478	569.5
379.704	580.5
379.929	571.5
380.155	588.5
380.38	595.5
380.606	585.5
380.831	580.5
381.057	582.5
381.282	590.5
381.507	576.5
381.733	581.5
381.958	608.5
382.184	602.5
382.409	605.5
382.634	626.5
382.86	617.5
383.085	631.5
383.31	620.5
383.535	643.5
383.761	669.5
383.986	675.5
384.211	678.5
384.436	701.5
384.662	690.5
384.887	725.5
385.112	721.5
385.337	723.5
385.562	715.5
385.787	714.5
386.013	727.5
386.238	720.5
386.463	705.5
386.688	713.5
386.913	733.5
387.138	696.5
387.363	726.5
387.588	702.5
387.813	700.5
388.038	689.5
388.263	698.5
388.488	698.5
388.713	691.5
388.938	699.5
389.163	677.5
389.387	708.5
389.612	708.5
389.837	699.5
390.062	685.5
390.287	721.5
390.512	704.5
390.736	717.5
390.961	714.5
391.186	725.5
391.411	731.5
391.636	752.5
391.86	785.5
392.085	805.5
392.31	799.5
392.534	772.5
392.759	775.5
392.984	725.5
393.208	742.5
393.433	729.5
393.658	754.5
393.882	755.5
394.107	767.5
394.331	765.5
394.556	745.5
394.78	748.5
395.005	754.5
395.229	766.5
395.454	793.5
395.678	795.5
395.903	777.5
396.127	780.5
396.352	769.5
396.576	735.5
396.801	744.5
397.025	758.5
397.249	778.5
397.474	758.5
397.698	778.5
397.922	797.5
398.147	807.5
398.371	833.5
398.595	830.5
398.82	892.5
399.044	947.5
399.268	1026.5
399.492	1225.5
399.717	1370.5
399.941	1336.5
400.165	1174.5
400.389	1058.5
400.613	1004.5
400.837	933.5
401.062	919.5
401.286	909.5
401.51	894.5
401.734	890.5
401.958	910.5
402.182	908.5
402.406	922.5
402.63	940.5
402.854	950.5
403.078	956.5
403.302	981.5
403.526	1025.5
403.75	1006.5
403.974	1061.5
404.198	1045.5
404.422	1039.5
404.645	1009.5
404.869	1013.5
405.093	1012.5
405.317	977.5
405.541	985.5
405.765	978.5
405.988	920.5
406.212	929.5
406.436	966.5
406.66	988.5
406.883	999.5
407.107	1048.5
407.331	1104.5
407.555	1128.5
407.778	1125.5
408.002	1112.5
408.226	1070.5
408.449	1065.5
408.673	1026.5
408.896	997.5
409.12	1000.5
409.344	996.5
409.567	972.5
409.791	979.5
410.014	952.5
410.238	963.5
410.461	947.5
410.685	977.5
410.908	952.5
411.132	912.5
411.355	930.5
411.578	941.5
411.802	913.5
412.025	936.5
412.249	929.5
412.472	934.5
412.695	900.5
412.919	881.5
413.142	885.5
413.365	894.5
413.589	886.5
413.812	876.5
414.035	871.5
414.258	888.5
414.482	898.5
414.705	888.5
414.928	888.5
415.151	906.5
415.374	886.5
415.597	863.5
415.821	874.5
416.044	879.5
416.267	868.5
416.49	868.5
416.713	857.5
416.936	878.5
417.159	897.5
417.382	868.5
417.605	854.5
417.828	862.5
418.051	895.5
418.274	868.5
418.497	853.5
418.72	934.5
418.943	917.5
419.166	962.5
419.389	985.5
419.611	954.5
419.834	936.5
420.057	881.5
420.28	903.5
420.503	885.5
420.726	854.5
420.948	865.5
421.171	856.5
421.394	872.5
421.617	856.5
421.839	862.5
422.062	855.5
422.285	862.5
422.507	885.5
422.73	888.5
422.953	880.5
423.175	909.5
423.398	915.5
423.621	928.5
423.843	942.5
424.066	926.5
424.288	903.5
424.511	912.5
424.733	948.5
424.956	881.5
425.178	886.5
425.401	880.5
425.623	894.5
425.846	837.5
426.068	862.5
426.291	813.5
426.513	855.5
426.735	846.5
426.958	818.5
427.18	789.5
427.402	800.5
427.625	792.5
427.847	775.5
428.069	784.5
428.292	768.5
428.514	766.5
428.736	774.5
428.958	794.5
429.181	752.5
429.403	788.5
429.625	762.5
429.847	746.5
430.069	737.5
430.292	754.5
430.514	750.5
430.736	727.5
430.958	737.5
431.18	737.5
431.402	774.5
431.624	759.5
431.846	797.5
432.068	779.5
432.29	815.5
432.512	779.5
432.734	759.5
432.956	768.5
433.178	768.5
433.4	747.5
433.622	758.5
433.844	738.5
434.066	762.5
434.287	784.5
434.509	816.5
434.731	862.5
434.953	848.5
435.175	871.5
435.397	844.5
435.618	804.5
435.84	806.5
436.062	791.5
436.284	751.5
436.505	760.5
436.727	784.5
436.949	786.5
437.17	754.5
437.392	721.5
437.614	733.5
437.835	705.5
438.057	733.5
438.278	722.5
438.5	730.5
438.721	737.5
438.943	755.5
439.165	737.5
439.386	720.5
439.608	757.5
439.829	768.5
440.05	790.5
440.272	774.5
440.493	777.5
440.715	809.5
440.936	796.5
441.158	798.5
441.379	820.5
441.6	858.5
441.822	876.5
442.043	861.5
442.264	841.5
442.486	837.5
442.707	864.5
442.928	860.5
443.149	825.5
443.371	853.5
443.592	854.5
443.813	892.5
444.034	838.5
444.255	920.5
444.476	933.5
444.698	1020.5
444.919	1045.5
445.14	1112.5
445.361	949.5
445.582	900.5
445.803	840.5
446.024	823.5
446.245	821.5
446.466	790.5
446.687	753.5
446.908	760.5
447.129	749.5
447.35	746.5
447.571	739.5
447.792	748.5
448.013	720.5
448.234	710.5
448.455	703.5
448.675	704.5
448.896	696.5
449.117	698.5
449.338	699.5
449.559	665.5
449.779	700.5
450	676.5
450.221	691.5
450.442	695.5
450.662	700.5
450.883	688.5
451.104	726.5
451.324	721.5
451.545	717.5
451.766	724.5
451.986	714.5
452.207	721.5
452.428	727.5
452.648	703.5
452.869	712.5
453.089	673.5
453.31	704.5
453.53	671.5
453.751	650.5
453.971	673.5
454.192	677.5
454.412	658.5
454.633	669.5
454.853	683.5
455.073	679.5
455.294	668.5
455.514	650.5
455.734	661.5
455.955	660.5
456.175	661.5
456.395	651.5
456.616	642.5
456.836	656.5
457.056	645.5
457.276	655.5
457.497	648.5
457.717	665.5
457.937	654.5
458.157	679.5
458.377	672.5
458.598	690.5
458.818	723.5
459.038	751.5
459.258	765.5
459.478	768.5
459.698	794.5
459.918	815.5
460.138	848.5
460.358	903.5
460.578	883.5
460.798	928.5
461.018	922.5
461.238	882.5
461.458	926.5
461.678	921.5
461.898	898.5
462.118	918.5
462.338	969.5
462.558	981.5
462.777	1023.5
462.997	1121.5
463.217	1197.5
463.437	1215.5
463.657	1082.5
463.876	1062.5
464.096	1047.5
464.316	1046.5
464.536	1061.5
464.755	1011.5
464.975	968.5
465.195	925.5
465.414	881.5
465.634	823.5
465.854	816.5
466.073	800.5
466.293	791.5
466.512	787.5
466.732	725.5
466.951	764.5
467.171	771.5
467.391	757.5
467.61	732.5
467.829	745.5
468.049	706.5
468.268	712.5
468.488	703.5
468.707	696.5
468.927	731.5
469.146	729.5
469.365	726.5
469.585	717.5
469.804	727.5
470.023	749.5
470.243	782.5
470.462	743.5
470.681	754.5
470.901	756.5
471.12	780.5
471.339	737.5
471.558	734.5
471.777	738.5
471.997	713.5
472.216	725.5
472.435	698.5
472.654	723.5
472.873	703.5
473.092	703.5
473.311	692.5
473.53	698.5
473.749	672.5
473.968	695.5
474.187	688.5
474.406	684.5
474.625	701.5
474.844	703.5
475.063	708.5
475.282	722.5
475.501	676.5
475.72	706.5
475.939	727.5
476.158	732.5
476.377	725.5
476.596	713.5
476.814	737.5
477.033	704.5
477.252	745.5
477.471	771.5
477.69	767.5
477.908	798.5
478.127	847.5
478.346	821.5
478.564	828.5
478.783	855.5
479.002	888.5
479.22	873.5
479.439	860.5
479.658	855.5
479.876	890.5
480.095	868.5
480.313	912.5
480.532	958.5
480.751	924.5
480.969	893.5
481.188	855.5
481.406	836.5
481.624	815.5
481.843	792.5
482.061	798.5
482.28	783.5
482.498	791.5
482.717	794.5
482.935	788.5
483.153	779.5
483.372	808.5
483.59	816.5
483.808	774.5
484.027	775.5
484.245	803.5
484.463	823.5
484.681	832.5
484.9	818.5
485.118	830.5
485.336	815.5
485.554	830.5
485.772	830.5
485.99	823.5
486.209	822.5
486.427	853.5
486.645	822.5
486.863	838.5
487.081	849.5
487.299	848.5
487.517	846.5
487.735	836.5
487.953	824.5
488.171	838.5
488.389	812.5
488.607	836.5
488.825	823.5
489.043	812.5
489.261	817.5
489.479	808.5
489.696	813.5
489.914	844.5
490.132	832.5
490.35	858.5
490.568	824.5
490.786	818.5
491.003	861.5
491.221	839.5
491.439	861.5
491.657	860.5
491.874	872.5
492.092	864.5
492.31	865.5
492.527	862.5
492.745	871.5
492.963	867.5
493.18	841.5
493.398	902.5
493.615	866.5
493.833	863.5
494.05	916.5
494.268	883.5
494.485	904.5
494.703	907.5
494.92	876.5
495.138	877.5
495.355	876.5
495.573	881.5
495.79	909.5
496.008	915.5
496.225	927.5
496.442	932.5
496.66	922.5
496.877	944.5
497.094	944.5
497.312	964.5
497.529	1018.5
497.746	1016.5
497.963	1028.5
498.181	1067.5
498.398	1106.5
498.615	1183.5
498.832	1300.5
499.049	1362.5
499.267	1486.5
499.484	1623.5
499.701	1799.5
499.918	2009.5
500.135	2251.5
500.352	2618.5
500.569	2740.5
500.786	2644.5
501.003	2458.5
501.22	2168.5
501.437	1911.5
501.654	1686.5
501.871	1516.5
502.088	1419.5
502.305	1313.5
502.522	1296.5
502.739	1237.5
502.956	1141.5
503.172	1156.5
503.389	1079.5
503.606	1029.5
503.823	1032.5
504.04	1019.5
504.256	1051.5
504.473	1061.5
504.69	1059.5
504.907	1038.5
505.123	1007.5
505.34	910.5
505.557	888.5
505.773	876.5
505.99	848.5
506.207	848.5
506.423	818.5
506.64	804.5
506.856	788.5
507.073	790.5
507.289	766.5
507.506	791.5
507.722	800.5
507.939	763.5
508.155	772.5
508.372	777.5
508.588	755.5
508.805	746.5
509.021	738.5
509.238	730.5
509.454	712.5
509.67	713.5
509.887	734.5
510.103	717.5
510.319	739.5
510.536	753.5
510.752	712.5
510.968	706.5
511.184	722.5
511.401	701.5
511.617	709.5
511.833	717.5
512.049	713.5
512.265	716.5
512.481	733.5
512.698	695.5
512.914	724.5
513.13	711.5
513.346	713.5
513.562	724.5
513.778	721.5
513.994	733.5
514.21	711.5
514.426	729.5
514.642	717.5
514.858	729.5
515.074	726.5
515.29	750.5
515.506	744.5
515.721	764.5
515.937	786.5
516.153	782.5
516.369	813.5
516.585	808.5
516.801	850.5
517.016	890.5
517.232	932.5
517.448	985.5
517.664	994.5
517.879	1017.5
518.095	990.5
518.311	973.5
518.527	920.5
518.742	896.5
518.958	874.5
519.173	816.5
519.389	819.5
519.605	802.5
519.82	751.5
520.036	774.5
520.251	733.5
520.467	726.5
520.682	738.5
520.898	714.5
521.113	700.5
521.329	696.5
521.544	702.5
521.76	704.5
521.975	689.5
522.19	673.5
522.406	669.5
522.621	669.5
522.836	666.5
523.052	671.5
523.267	686.5
523.482	685.5
523.698	679.5
523.913	671.5
524.128	650.5
524.343	668.5
524.559	647.5
524.774	642.5
524.989	643.5
525.204	682.5
525.419	640.5
525.634	646.5
525.849	653.5
526.064	664.5
526.28	632.5
526.495	639.5
526.71	651.5
526.925	636.5
527.14	633.5
527.355	633.5
527.57	631.5
527.785	642.5
527.999	651.5
528.214	654.5
528.429	662.5
528.644	648.5
528.859	629.5
529.074	638.5
529.289	652.5
529.503	660.5
529.718	641.5
529.933	639.5
530.148	642.5
530.363	663.5
530.577	634.5
530.792	607.5
531.007	644.5
531.221	648.5
531.436	649.5
531.651	641.5
531.865	640.5
532.08	637.5
532.295	654.5
532.509	655.5
532.724	636.5
532.938	652.5
533.153	648.5
533.367	610.5
533.582	654.5
533.796	641.5
534.011	646.5
534.225	642.5
534.44	644.5
534.654	631.5
534.868	630.5
535.083	625.5
535.297	617.5
535.511	613.5
535.726	626.5
535.94	609.5
536.154	605.5
536.369	609.5
536.583	612.5
536.797	612.5
537.011	587.5
537.225	585.5
537.44	605.5
537.654	615.5
537.868	591.5
538.082	571.5
538.296	593.5
538.51	596.5
538.724	595.5
538.938	572.5
539.153	561.5
539.367	578.5
539.581	576.5
539.795	617.5
540.009	585.5
540.222	580.5
540.436	580.5
540.65	581.5
540.864	576.5
541.078	586.5
541.292	601.5
541.506	573.5
541.72	598.5
541.934	605.5
542.147	585.5
542.361	601.5
542.575	606.5
542.789	585.5
543.002	566.5
543.216	573.5
543.43	575.5
543.644	547.5
543.857	558.5
544.071	581.5
544.285	601.5
544.498	592.5
544.712	594.5
544.925	594.5
545.139	586.5
545.352	595.5
545.566	595.5
545.779	587.5
545.993	604.5
546.206	605.5
546.42	610.5
546.633	610.5
546.847	584.5
547.06	580.5
547.274	591.5
547.487	572.5
547.7	588.5
547.914	589.5
548.127	609.5
548.34	587.5
548.554	584.5
548.767	589.5
548.98	599.5
549.193	602.5
549.407	616.5
549.62	620.5
549.833	612.5
550.046	607.5
550.259	620.5
550.473	585.5
550.686	572.5
550.899	577.5
551.112	581.5
551.325	577.5
551.538	577.5
551.751	563.5
551.964	583.5
552.177	594.5
552.39	604.5
552.603	642.5
552.816	630.5
553.029	644.5
553.242	664.5
553.455	668.5
553.667	657.5
553.88	651.5
554.093	632.5
554.306	615.5
554.519	617.5
554.732	590.5
554.944	558.5
555.157	572.5
555.37	565.5
555.583	534.5
555.795	541.5
556.008	526.5
556.221	519.5
556.433	525.5
556.646	512.5
556.859	526.5
557.071	525.5
557.284	519.5
557.496	524.5
557.709	510.5
557.921	511.5
558.134	495.5
558.346	497.5
558.559	505.5
558.771	486.5
558.984	504.5
559.196	508.5
559.409	492.5
559.621	513.5
559.833	489.5
560.046	488.5
560.258	482.5
560.47	476.5
560.683	481.5
560.895	488.5
561.107	471.5
561.32	478.5
561.532	479.5
561.744	484.5
561.956	490.5
562.168	480.5
562.381	496.5
562.593	481.5
562.805	483.5
563.017	492.5
563.229	500.5
563.441	472.5
563.653	496.5
563.865	489.5
564.077	496.5
564.289	504.5
564.501	523.5
564.713	524.5
564.925	541.5
565.137	517.5
565.349	564.5
565.561	552.5
565.773	577.5
565.985	591.5
566.197	641.5
566.408	666.5
566.62	701.5
566.832	808.5
567.044	801.5
567.255	772.5
567.467	820.5
567.679	839.5
567.891	936.5
568.102	959.5
568.314	908.5
568.526	792.5
568.737	742.5
568.949	656.5
569.161	631.5
569.372	581.5
569.584	560.5
569.795	541.5
570.007	509.5
570.218	520.5
570.43	509.5
570.641	495.5
570.853	491.5
571.064	493.5
571.276	488.5
571.487	498.5
571.698	467.5
571.91	457.5
572.121	445.5
572.333	442.5
572.544	424.5
572.755	410.5
572.966	407.5
573.178	416.5
573.389	420.5
573.6	398.5
573.811	420.5
574.023	410.5
574.234	413.5
574.445	401.5
574.656	397.5
574.867	430.5
575.078	390.5
575.289	383.5
575.501	386.5
575.712	384.5
575.923	389.5
576.134	386.5
576.345	372.5
576.556	377.5
576.767	370.5
576.978	384.5
577.188	381.5
577.399	378.5
577.61	388.5
577.821	357.5
578.032	351.5
578.243	348.5
578.454	348.5
578.665	365.5
578.875	362.5
579.086	372.5
579.297	346.5
579.508	357.5
579.718	348.5
579.929	355.5
580.14	333.5
580.35	351.5
580.561	337.5
580.772	346.5
580.982	357.5
581.193	343.5
581.403	365.5
581.614	349.5
581.825	354.5
582.035	351.5
582.246	341.5
582.456	350.5
582.667	334.5
582.877	333.5
583.087	344.5
583.298	345.5
583.508	346.5
583.719	330.5
583.929	340.5
584.139	345.5
584.35	336.5
584.56	342.5
584.77	330.5
584.981	335.5
585.191	318.5
585.401	318.5
585.611	317.5
585.821	325.5
586.032	327.5
586.242	316.5
586.452	316.5
586.662	330.5
586.872	336.5
587.082	343.5
587.292	326.5
587.502	329.5
587.713	321.5
587.923	298.5
588.133	319.5
588.343	308.5
588.553	324.5
588.762	318.5
588.972	324.5
589.182	331.5
589.392	338.5
589.602	349.5
589.812	329.5
590.022	321.5
590.232	340.5
590.441	332.5
590.651	335.5
590.861	316.5
591.071	351.5
591.281	346.5
591.49	329.5
591.7	351.5
591.91	352.5
592.119	338.5
592.329	342.5
592.539	377.5
592.748	377.5
592.958	399.5
593.167	412.5
593.377	394.5
593.587	407.5
593.796	424.5
594.006	421.5
594.215	424.5
594.424	413.5
594.634	417.5
594.843	376.5
595.053	386.5
595.262	353.5
595.472	355.5
595.681	324.5
595.89	344.5
596.1	316.5
596.309	319.5
596.518	301.5
596.727	322.5
596.937	302.5
597.146	302.5
597.355	295.5
597.564	298.5
597.774	307.5
597.983	294.5
598.192	305.5
598.401	292.5
598.61	282.5
598.819	269.5
599.028	275.5
599.237	289.5
599.446	257.5
599.655	264.5
599.864	276.5
600.073	286.5
600.282	257.5
600.491	267.5
600.7	266.5
600.909	262.5
601.118	281.5
601.327	268.5
601.536	264.5
601.745	264.5
601.953	269.5
602.162	289.5
602.371	278.5
602.58	278.5
602.789	280.5
602.997	265.5
603.206	276.5
603.415	271.5
603.623	229.5
603.832	276.5
604.041	275.5
604.249	249.5
604.458	263.5
604.666	293.5
604.875	251.5
605.084	266.5
605.292	247.5
605.501	274.5
605.709	252.5
605.918	250.5
606.126	252.5
606.334	262.5
606.543	260.5
606.751	240.5
606.96	250.5
607.168	266.5
607.376	232.5
607.585	242.5
607.793	250.5
608.001	245.5
608.21	242.5
608.418	262.5
608.626	269.5
608.834	250.5
609.043	246.5
609.251	248.5
609.459	247.5
609.667	244.5
609.875	240.5
610.083	259.5
610.291	240.5
610.499	256.5
610.707	221.5
610.916	254.5
611.124	228.5
611.332	259.5
611.54	242.5
611.748	239.5
611.955	237.5
612.163	251.5
612.371	255.5
612.579	246.5
612.787	244.5
612.995	248.5
613.203	256.5
613.411	217.5
613.618	238.5
613.826	242.5
614.034	238.5
614.242	241.5
614.449	242.5
614.657	260.5
614.865	241.5
615.072	252.5
615.28	252.5
615.488	226.5
615.695	242.5
615.903	227.5
616.111	236.5
616.318	254.5
616.526	245.5
616.733	249.5
616.941	230.5
617.148	233.5
617.356	233.5
617.563	238.5
617.771	248.5
617.978	231.5
618.185	258.5
618.393	230.5
618.6	239.5
618.807	243.5
619.015	248.5
619.222	246.5
619.429	220.5
619.637	223.5
619.844	246.5
620.051	223.5
620.258	230.5
620.466	237.5
620.673	233.5
620.88	209.5
621.087	209.5
621.294	217.5
621.501	222.5
621.708	232.5
621.915	238.5
622.122	214.5
622.329	224.5
622.536	213.5
622.743	215.5
622.95	218.5
623.157	214.5
623.364	206.5
623.571	201.5
623.778	213.5
623.985	211.5
624.192	220.5
624.399	215.5
624.606	202.5
624.812	212.5
625.019	206.5
625.226	225.5
625.433	210.5
625.639	210.5
625.846	228.5
626.053	201.5
626.259	210.5
626.466	212.5
626.673	217.5
626.879	197.5
627.086	205.5
627.293	210.5
627.499	202.5
627.706	212.5
627.912	212.5
628.119	198.5
628.325	214.5
628.532	196.5
628.738	206.5
628.945	192.5
629.151	201.5
629.357	199.5
629.564	203.5
629.77	199.5
629.976	193.5
630.183	207.5
630.389	209.5
630.595	195.5
630.802	183.5
631.008	194.5
631.214	184.5
631.42	206.5
631.627	183.5
631.833	192.5
632.039	186.5
632.245	188.5
632.451	190.5
632.657	169.5
632.863	188.5
633.069	193.5
633.275	201.5
633.481	177.5
633.688	185.5
633.893	187.5
634.099	186.5
634.305	182.5
634.511	176.5
634.717	185.5
634.923	197.5
635.129	178.5
635.335	178.5
635.541	173.5
635.747	169.5
635.952	172.5
636.158	178.5
636.364	182.5
636.57	191.5
636.775	183.5
636.981	178.5
637.187	183.5
637.392	187.5
637.598	185.5
637.804	164.5
638.009	176.5
638.215	174.5
638.421	166.5
638.626	161.5
638.832	174.5
639.037	170.5
639.243	186.5
639.448	188.5
639.654	179.5
639.859	178.5
640.065	178.5
640.27	179.5
640.475	176.5
640.681	161.5
640.886	174.5
641.091	181.5
641.297	186.5
641.502	180.5
641.707	172.5
641.913	174.5
642.118	170.5
642.323	167.5
642.528	162.5
642.733	162.5
642.939	181.5
643.144	170.5
643.349	166.5
643.554	173.5
643.759	158.5
643.964	156.5
644.169	177.5
644.374	155.5
644.579	173.5
644.784	148.5
644.989	152.5
645.194	171.5
645.399	146.5
645.604	169.5
645.809	155.5
646.014	157.5
646.219	178.5
646.423	167.5
646.628	169.5
646.833	152.5
647.038	173.5
647.243	165.5
647.447	161.5
647.652	170.5
647.857	175.5
648.062	190.5
648.266	176.5
648.471	174.5
648.676	178.5
648.88	184.5
649.085	174.5
649.289	151.5
649.494	176.5
649.698	159.5
649.903	165.5
650.107	164.5
650.312	148.5
650.516	151.5
650.721	146.5
650.925	159.5
651.13	148.5
651.334	153.5
651.539	136.5
651.743	150.5
651.947	150.5
652.152	155.5
652.356	150.5
652.56	145.5
652.764	151.5
652.969	143.5
653.173	137.5
653.377	145.5
653.581	129.5
653.785	142.5
653.99	142.5
654.194	141.5
654.398	146.5
654.602	137.5
654.806	126.5
655.01	134.5
655.214	144.5
655.418	141.5
655.622	121.5
655.826	129.5
656.03	147.5
656.234	126.5
656.438	134.5
656.642	131.5
656.846	108.5
657.049	138.5
657.253	122.5
657.457	125.5
657.661	112.5
657.865	118.5
658.068	119.5
658.272	110.5
658.476	105.5
658.68	117.5
658.883	103.5
659.087	97.5
659.291	94.5
659.494	111.5
659.698	106.5
659.901	108.5
660.105	92.5
660.309	108.5
660.512	90.5
660.716	111.5
660.919	95.5
661.123	98.5
661.326	85.5
661.53	79.5
661.733	74.5
661.936	84.5
662.14	83.5
662.343	90.5
662.546	80.5
662.75	85.5
662.953	79.5
663.156	92.5
663.36	93.5
663.563	85.5
663.766	92.5
663.969	78.5
664.173	80.5
664.376	82.5
664.579	81.5
664.782	80.5
664.985	71.5
665.188	86.5
665.391	87.5
665.594	83.5
665.797	83.5
666	81.5
666.203	87.5
666.406	72.5
666.609	75.5
666.812	93.5
667.015	73.5
667.218	72.5
667.421	90.5
667.624	79.5
667.827	88.5
668.03	90.5
668.232	85.5
668.435	74.5
668.638	80.5
668.841	94.5
669.043	77.5
669.246	77.5
669.449	71.5
669.651	93.5
669.854	81.5
670.057	81.5
670.259	80.5
670.462	85.5
670.665	82.5
670.867	75.5
671.07	87.5
671.272	90.5
671.475	80.5
671.677	87.5
671.88	79.5
672.082	70.5
672.284	78.5
672.487	81.5
672.689	82.5
672.892	77.5
