Data from NiCl2@0.125M.TitratingCurve.Agarose3%dH2O.NegLispCup.LampEnergy10.LIBS07252019_HRD10591_18-29-38-576.txt Node
Date: Thu Jul 25 18:29:38 EDT 2019
User: cochatt
Spectrometer: HR+D1059
Trigger mode: 1
Integration Time (sec): 1.000000E-1
Scans to average: 1
Electric dark correction enabled: true
Nonlinearity correction enabled: false
Boxcar width: 0
XAxis mode: Wavelengths
Number of Pixels in Spectrum: 2048
>>>>>Begin Spectral Data<<<<<
223.165	-18.19
223.4	-18.19
223.635	-18.19
223.869	-16.19
224.104	-34.19
224.338	-21.19
224.573	-3.19
224.808	-8.19
225.042	-0.19
225.277	-17.19
225.511	-13.19
225.746	-8.19
225.98	12.81
226.215	26.81
226.449	15.81
226.683	12.81
226.918	38.81
227.152	32.81
227.387	24.81
227.621	35.81
227.856	46.81
228.09	58.81
228.324	42.81
228.559	52.81
228.793	76.81
229.027	108.81
229.262	133.81
229.496	127.81
229.73	119.81
229.964	144.81
230.199	141.81
230.433	144.81
230.667	154.81
230.901	148.81
231.136	124.81
231.37	152.81
231.604	152.81
231.838	149.81
232.072	151.81
232.306	175.81
232.541	152.81
232.775	157.81
233.009	156.81
233.243	148.81
233.477	174.81
233.711	166.81
233.945	151.81
234.179	170.81
234.413	167.81
234.647	178.81
234.881	179.81
235.115	162.81
235.349	148.81
235.583	175.81
235.817	182.81
236.051	170.81
236.285	159.81
236.519	166.81
236.753	176.81
236.987	144.81
237.221	167.81
237.455	179.81
237.689	174.81
237.922	186.81
238.156	184.81
238.39	171.81
238.624	170.81
238.858	176.81
239.091	194.81
239.325	196.81
239.559	195.81
239.793	212.81
240.027	200.81
240.26	205.81
240.494	193.81
240.728	195.81
240.961	211.81
241.195	194.81
241.429	195.81
241.662	203.81
241.896	229.81
242.13	227.81
242.363	215.81
242.597	199.81
242.83	228.81
243.064	230.81
243.298	223.81
243.531	216.81
243.765	198.81
243.998	217.81
244.232	224.81
244.465	227.81
244.699	250.81
244.932	234.81
245.166	247.81
245.399	242.81
245.633	238.81
245.866	251.81
246.099	258.81
246.333	261.81
246.566	252.81
246.8	242.81
247.033	253.81
247.266	256.81
247.5	252.81
247.733	261.81
247.966	262.81
248.2	289.81
248.433	261.81
248.666	259.81
248.899	289.81
249.133	271.81
249.366	281.81
249.599	269.81
249.832	271.81
250.066	272.81
250.299	272.81
250.532	283.81
250.765	282.81
250.998	253.81
251.231	292.81
251.465	295.81
251.698	286.81
251.931	301.81
252.164	302.81
252.397	289.81
252.63	305.81
252.863	320.81
253.096	318.81
253.329	294.81
253.562	292.81
253.795	287.81
254.028	306.81
254.261	307.81
254.494	306.81
254.727	291.81
254.96	295.81
255.193	307.81
255.426	314.81
255.659	320.81
255.892	320.81
256.124	323.81
256.357	321.81
256.59	319.81
256.823	330.81
257.056	311.81
257.289	311.81
257.521	328.81
257.754	341.81
257.987	341.81
258.22	327.81
258.452	313.81
258.685	361.81
258.918	352.81
259.151	338.81
259.383	347.81
259.616	339.81
259.849	345.81
260.081	336.81
260.314	363.81
260.547	344.81
260.779	328.81
261.012	361.81
261.244	343.81
261.477	367.81
261.71	354.81
261.942	343.81
262.175	359.81
262.407	348.81
262.64	329.81
262.872	380.81
263.105	374.81
263.337	353.81
263.57	366.81
263.802	354.81
264.035	375.81
264.267	368.81
264.499	376.81
264.732	375.81
264.964	399.81
265.197	387.81
265.429	394.81
265.661	389.81
265.894	390.81
266.126	391.81
266.358	384.81
266.591	394.81
266.823	394.81
267.055	408.81
267.287	393.81
267.52	401.81
267.752	409.81
267.984	399.81
268.216	406.81
268.448	408.81
268.681	419.81
268.913	423.81
269.145	419.81
269.377	434.81
269.609	411.81
269.841	429.81
270.073	425.81
270.306	412.81
270.538	400.81
270.77	408.81
271.002	421.81
271.234	448.81
271.466	447.81
271.698	441.81
271.93	421.81
272.162	428.81
272.394	417.81
272.626	437.81
272.858	439.81
273.09	447.81
273.322	444.81
273.553	448.81
273.785	442.81
274.017	474.81
274.249	452.81
274.481	445.81
274.713	427.81
274.945	449.81
275.176	457.81
275.408	450.81
275.64	436.81
275.872	461.81
276.104	466.81
276.335	454.81
276.567	452.81
276.799	488.81
277.031	476.81
277.262	461.81
277.494	445.81
277.726	472.81
277.957	501.81
278.189	474.81
278.421	468.81
278.652	484.81
278.884	477.81
279.115	478.81
279.347	488.81
279.579	500.81
279.81	487.81
280.042	481.81
280.273	506.81
280.505	483.81
280.736	484.81
280.968	523.81
281.199	495.81
281.431	520.81
281.662	521.81
281.894	486.81
282.125	520.81
282.356	540.81
282.588	508.81
282.819	526.81
283.051	515.81
283.282	520.81
283.513	519.81
283.745	550.81
283.976	544.81
284.207	527.81
284.439	533.81
284.67	550.81
284.901	525.81
285.132	536.81
285.364	570.81
285.595	538.81
285.826	563.81
286.057	575.81
286.288	572.81
286.52	562.81
286.751	557.81
286.982	562.81
287.213	560.81
287.444	575.81
287.675	559.81
287.906	545.81
288.138	555.81
288.369	566.81
288.6	570.81
288.831	570.81
289.062	547.81
289.293	559.81
289.524	567.81
289.755	586.81
289.986	588.81
290.217	573.81
290.448	608.81
290.679	599.81
290.91	603.81
291.141	587.81
291.371	587.81
291.602	578.81
291.833	570.81
292.064	576.81
292.295	598.81
292.526	606.81
292.757	600.81
292.987	588.81
293.218	574.81
293.449	580.81
293.68	600.81
293.91	587.81
294.141	613.81
294.372	599.81
294.603	602.81
294.833	578.81
295.064	595.81
295.295	581.81
295.525	608.81
295.756	629.81
295.987	595.81
296.217	615.81
296.448	617.81
296.679	624.81
296.909	610.81
297.14	598.81
297.37	640.81
297.601	634.81
297.831	625.81
298.062	629.81
298.292	646.81
298.523	642.81
298.753	670.81
298.984	643.81
299.214	640.81
299.445	634.81
299.675	639.81
299.905	655.81
300.136	637.81
300.366	645.81
300.597	637.81
300.827	676.81
301.057	694.81
301.288	662.81
301.518	680.81
301.748	670.81
301.979	646.81
302.209	684.81
302.439	666.81
302.669	662.81
302.9	657.81
303.13	655.81
303.36	658.81
303.59	648.81
303.82	667.81
304.051	669.81
304.281	680.81
304.511	636.81
304.741	642.81
304.971	680.81
305.201	653.81
305.431	642.81
305.661	670.81
305.891	642.81
306.121	656.81
306.352	660.81
306.582	626.81
306.812	644.81
307.042	642.81
307.272	643.81
307.502	644.81
307.731	648.81
307.961	650.81
308.191	648.81
308.421	642.81
308.651	611.81
308.881	630.81
309.111	630.81
309.341	628.81
309.571	621.81
309.8	648.81
310.03	654.81
310.26	664.81
310.49	642.81
310.72	628.81
310.949	657.81
311.179	674.81
311.409	649.81
311.639	655.81
311.868	666.81
312.098	667.81
312.328	659.81
312.557	668.81
312.787	680.81
313.017	680.81
313.246	663.81
313.476	693.81
313.706	709.81
313.935	664.81
314.165	702.81
314.394	678.81
314.624	698.81
314.853	701.81
315.083	695.81
315.312	701.81
315.542	683.81
315.771	676.81
316.001	673.81
316.23	689.81
316.46	687.81
316.689	662.81
316.919	664.81
317.148	674.81
317.377	685.81
317.607	647.81
317.836	647.81
318.065	671.81
318.295	684.81
318.524	680.81
318.753	674.81
318.983	687.81
319.212	684.81
319.441	668.81
319.67	649.81
319.9	660.81
320.129	680.81
320.358	707.81
320.587	675.81
320.816	682.81
321.046	663.81
321.275	692.81
321.504	674.81
321.733	677.81
321.962	682.81
322.191	688.81
322.42	669.81
322.649	670.81
322.878	677.81
323.108	694.81
323.337	679.81
323.566	702.81
323.795	690.81
324.024	693.81
324.253	708.81
324.482	715.81
324.71	702.81
324.939	710.81
325.168	707.81
325.397	692.81
325.626	708.81
325.855	729.81
326.084	756.81
326.313	736.81
326.542	728.81
326.77	738.81
326.999	719.81
327.228	721.81
327.457	715.81
327.686	707.81
327.914	727.81
328.143	722.81
328.372	735.81
328.6	734.81
328.829	722.81
329.058	743.81
329.287	748.81
329.515	744.81
329.744	743.81
329.972	773.81
330.201	737.81
330.43	760.81
330.658	720.81
330.887	744.81
331.115	759.81
331.344	762.81
331.572	776.81
331.801	810.81
332.03	795.81
332.258	848.81
332.486	851.81
332.715	874.81
332.943	912.81
333.172	948.81
333.4	971.81
333.629	1045.81
333.857	1058.81
334.085	1035.81
334.314	987.81
334.542	994.81
334.771	981.81
334.999	931.81
335.227	900.81
335.455	932.81
335.684	918.81
335.912	899.81
336.14	893.81
336.369	892.81
336.597	868.81
336.825	893.81
337.053	904.81
337.281	889.81
337.51	864.81
337.738	860.81
337.966	845.81
338.194	841.81
338.422	804.81
338.65	820.81
338.878	819.81
339.106	805.81
339.334	799.81
339.562	793.81
339.79	778.81
340.018	759.81
340.246	748.81
340.474	788.81
340.702	764.81
340.93	798.81
341.158	779.81
341.386	757.81
341.614	796.81
341.842	754.81
342.07	755.81
342.298	777.81
342.526	757.81
342.754	746.81
342.981	768.81
343.209	781.81
343.437	796.81
343.665	854.81
343.893	946.81
344.12	982.81
344.348	938.81
344.576	871.81
344.804	847.81
345.031	822.81
345.259	826.81
345.487	769.81
345.714	778.81
345.942	760.81
346.17	773.81
346.397	750.81
346.625	751.81
346.853	753.81
347.08	732.81
347.308	778.81
347.535	770.81
347.763	754.81
347.99	783.81
348.218	769.81
348.445	781.81
348.673	742.81
348.9	743.81
349.128	737.81
349.355	731.81
349.583	733.81
349.81	731.81
350.037	729.81
350.265	744.81
350.492	721.81
350.72	708.81
350.947	708.81
351.174	709.81
351.402	694.81
351.629	707.81
351.856	705.81
352.083	727.81
352.311	690.81
352.538	714.81
352.765	719.81
352.992	702.81
353.22	705.81
353.447	707.81
353.674	691.81
353.901	691.81
354.128	696.81
354.355	683.81
354.583	732.81
354.81	717.81
355.037	749.81
355.264	728.81
355.491	731.81
355.718	724.81
355.945	720.81
356.172	721.81
356.399	717.81
356.626	751.81
356.853	706.81
357.08	706.81
357.307	728.81
357.534	741.81
357.761	706.81
357.988	726.81
358.215	719.81
358.441	707.81
358.668	718.81
358.895	707.81
359.122	732.81
359.349	734.81
359.576	718.81
359.802	724.81
360.029	714.81
360.256	720.81
360.483	745.81
360.709	723.81
360.936	710.81
361.163	722.81
361.39	743.81
361.616	726.81
361.843	710.81
362.07	714.81
362.296	724.81
362.523	702.81
362.749	717.81
362.976	698.81
363.203	696.81
363.429	706.81
363.656	717.81
363.882	706.81
364.109	710.81
364.335	726.81
364.562	715.81
364.788	713.81
365.015	706.81
365.241	709.81
365.468	703.81
365.694	715.81
365.92	731.81
366.147	743.81
366.373	727.81
366.599	710.81
366.826	695.81
367.052	683.81
367.278	716.81
367.505	726.81
367.731	738.81
367.957	715.81
368.184	730.81
368.41	716.81
368.636	720.81
368.862	750.81
369.089	723.81
369.315	740.81
369.541	733.81
369.767	746.81
369.993	749.81
370.219	725.81
370.445	777.81
370.672	752.81
370.898	770.81
371.124	775.81
371.35	749.81
371.576	792.81
371.802	783.81
372.028	793.81
372.254	776.81
372.48	770.81
372.706	782.81
372.932	834.81
373.158	807.81
373.384	783.81
373.61	770.81
373.835	795.81
374.061	778.81
374.287	779.81
374.513	841.81
374.739	828.81
374.965	815.81
375.191	889.81
375.416	873.81
375.642	831.81
375.868	854.81
376.094	845.81
376.319	798.81
376.545	809.81
376.771	784.81
376.997	770.81
377.222	809.81
377.448	808.81
377.674	804.81
377.899	787.81
378.125	760.81
378.35	770.81
378.576	789.81
378.802	796.81
379.027	769.81
379.253	757.81
379.478	774.81
379.704	757.81
379.929	768.81
380.155	748.81
380.38	769.81
380.606	770.81
380.831	752.81
381.057	782.81
381.282	782.81
381.507	766.81
381.733	785.81
381.958	778.81
382.184	812.81
382.409	813.81
382.634	820.81
382.86	827.81
383.085	844.81
383.31	832.81
383.535	866.81
383.761	835.81
383.986	909.81
384.211	903.81
384.436	905.81
384.662	927.81
384.887	971.81
385.112	947.81
385.337	964.81
385.562	959.81
385.787	968.81
386.013	975.81
386.238	975.81
386.463	973.81
386.688	947.81
386.913	971.81
387.138	959.81
387.363	934.81
387.588	934.81
387.813	915.81
388.038	930.81
388.263	920.81
388.488	941.81
388.713	949.81
388.938	930.81
389.163	924.81
389.387	913.81
389.612	906.81
389.837	932.81
390.062	908.81
390.287	932.81
390.512	926.81
390.736	967.81
390.961	929.81
391.186	957.81
391.411	1020.81
391.636	1050.81
391.86	1073.81
392.085	1053.81
392.31	1069.81
392.534	1051.81
392.759	1027.81
392.984	998.81
393.208	993.81
393.433	996.81
393.658	1001.81
393.882	982.81
394.107	1012.81
394.331	1012.81
394.556	1016.81
394.78	1012.81
395.005	1014.81
395.229	1031.81
395.454	1040.81
395.678	1074.81
395.903	1099.81
396.127	1041.81
396.352	1023.81
396.576	958.81
396.801	970.81
397.025	999.81
397.249	1015.81
397.474	1076.81
397.698	1072.81
397.922	1033.81
398.147	1045.81
398.371	1071.81
398.595	1115.81
398.82	1174.81
399.044	1258.81
399.268	1408.81
399.492	1641.81
399.717	1852.81
399.941	1883.81
400.165	1662.81
400.389	1492.81
400.613	1332.81
400.837	1236.81
401.062	1211.81
401.286	1184.81
401.51	1203.81
401.734	1196.81
401.958	1188.81
402.182	1222.81
402.406	1242.81
402.63	1228.81
402.854	1261.81
403.078	1276.81
403.302	1356.81
403.526	1391.81
403.75	1359.81
403.974	1395.81
404.198	1424.81
404.422	1418.81
404.645	1394.81
404.869	1360.81
405.093	1385.81
405.317	1330.81
405.541	1348.81
405.765	1328.81
405.988	1330.81
406.212	1348.81
406.436	1340.81
406.66	1332.81
406.883	1359.81
407.107	1423.81
407.331	1524.81
407.555	1565.81
407.778	1549.81
408.002	1543.81
408.226	1428.81
408.449	1433.81
408.673	1390.81
408.896	1350.81
409.12	1371.81
409.344	1372.81
409.567	1344.81
409.791	1375.81
410.014	1360.81
410.238	1378.81
410.461	1355.81
410.685	1319.81
410.908	1290.81
411.132	1265.81
411.355	1206.81
411.578	1244.81
411.802	1239.81
412.025	1213.81
412.249	1243.81
412.472	1269.81
412.695	1213.81
412.919	1219.81
413.142	1170.81
413.365	1190.81
413.589	1197.81
413.812	1188.81
414.035	1191.81
414.258	1173.81
414.482	1171.81
414.705	1210.81
414.928	1204.81
415.151	1182.81
415.374	1210.81
415.597	1187.81
415.821	1168.81
416.044	1146.81
416.267	1148.81
416.49	1180.81
416.713	1147.81
416.936	1176.81
417.159	1183.81
417.382	1188.81
417.605	1142.81
417.828	1167.81
418.051	1194.81
418.274	1186.81
418.497	1204.81
418.72	1250.81
418.943	1191.81
419.166	1331.81
419.389	1415.81
419.611	1364.81
419.834	1294.81
420.057	1265.81
420.28	1230.81
420.503	1168.81
420.726	1159.81
420.948	1179.81
421.171	1150.81
421.394	1205.81
421.617	1174.81
421.839	1163.81
422.062	1206.81
422.285	1154.81
422.507	1221.81
422.73	1204.81
422.953	1207.81
423.175	1253.81
423.398	1207.81
423.621	1256.81
423.843	1264.81
424.066	1281.81
424.288	1253.81
424.511	1258.81
424.733	1262.81
424.956	1235.81
425.178	1244.81
425.401	1228.81
425.623	1169.81
425.846	1157.81
426.068	1168.81
426.291	1168.81
426.513	1125.81
426.735	1142.81
426.958	1103.81
427.18	1084.81
427.402	1081.81
427.625	1062.81
427.847	1069.81
428.069	1037.81
428.292	1069.81
428.514	1058.81
428.736	1079.81
428.958	1060.81
429.181	1011.81
429.403	1032.81
429.625	1017.81
429.847	1014.81
430.069	1007.81
430.292	1050.81
430.514	990.81
430.736	1056.81
430.958	1037.81
431.18	1032.81
431.402	1015.81
431.624	1010.81
431.846	1042.81
432.068	1100.81
432.29	1104.81
432.512	1063.81
432.734	1052.81
432.956	1065.81
433.178	1060.81
433.4	1056.81
433.622	1090.81
433.844	1070.81
434.066	1070.81
434.287	1091.81
434.509	1122.81
434.731	1148.81
434.953	1180.81
435.175	1187.81
435.397	1206.81
435.618	1144.81
435.84	1112.81
436.062	1086.81
436.284	1089.81
436.505	1070.81
436.727	1087.81
436.949	1049.81
437.17	1078.81
437.392	1038.81
437.614	1025.81
437.835	1022.81
438.057	1000.81
438.278	1018.81
438.5	1004.81
438.721	1016.81
438.943	1025.81
439.165	1004.81
439.386	1032.81
439.608	1055.81
439.829	1053.81
440.05	1037.81
440.272	1060.81
440.493	1116.81
440.715	1076.81
440.936	1126.81
441.158	1126.81
441.379	1149.81
441.6	1193.81
441.822	1224.81
442.043	1226.81
442.264	1192.81
442.486	1166.81
442.707	1204.81
442.928	1149.81
443.149	1196.81
443.371	1167.81
443.592	1202.81
443.813	1214.81
444.034	1215.81
444.255	1274.81
444.476	1310.81
444.698	1399.81
444.919	1479.81
445.14	1565.81
445.361	1370.81
445.582	1246.81
445.803	1190.81
446.024	1134.81
446.245	1128.81
446.466	1124.81
446.687	1096.81
446.908	1095.81
447.129	1113.81
447.35	1071.81
447.571	1052.81
447.792	1015.81
448.013	999.81
448.234	982.81
448.455	997.81
448.675	988.81
448.896	992.81
449.117	980.81
449.338	1006.81
449.559	954.81
449.779	940.81
450	955.81
450.221	967.81
450.442	970.81
450.662	993.81
450.883	988.81
451.104	1063.81
451.324	999.81
451.545	1013.81
451.766	1007.81
451.986	989.81
452.207	990.81
452.428	993.81
452.648	1012.81
452.869	983.81
453.089	965.81
453.31	978.81
453.53	950.81
453.751	930.81
453.971	1007.81
454.192	933.81
454.412	922.81
454.633	910.81
454.853	944.81
455.073	908.81
455.294	954.81
455.514	921.81
455.734	913.81
455.955	909.81
456.175	899.81
456.395	908.81
456.616	889.81
456.836	910.81
457.056	913.81
457.276	890.81
457.497	918.81
457.717	935.81
457.937	935.81
458.157	919.81
458.377	946.81
458.598	964.81
458.818	977.81
459.038	997.81
459.258	1031.81
459.478	1101.81
459.698	1102.81
459.918	1153.81
460.138	1180.81
460.358	1251.81
460.578	1308.81
460.798	1251.81
461.018	1341.81
461.238	1244.81
461.458	1280.81
461.678	1268.81
461.898	1303.81
462.118	1272.81
462.338	1382.81
462.558	1401.81
462.777	1444.81
462.997	1596.81
463.217	1760.81
463.437	1758.81
463.657	1609.81
463.876	1563.81
464.096	1514.81
464.316	1519.81
464.536	1520.81
464.755	1451.81
464.975	1406.81
465.195	1304.81
465.414	1242.81
465.634	1189.81
465.854	1088.81
466.073	1117.81
466.293	1092.81
466.512	1062.81
466.732	1026.81
466.951	1063.81
467.171	1012.81
467.391	1046.81
467.61	1033.81
467.829	1046.81
468.049	1042.81
468.268	996.81
468.488	997.81
468.707	958.81
468.927	999.81
469.146	983.81
469.365	989.81
469.585	1001.81
469.804	1024.81
470.023	1054.81
470.243	1058.81
470.462	1064.81
470.681	1077.81
470.901	1044.81
471.12	1023.81
471.339	1035.81
471.558	1013.81
471.777	996.81
471.997	995.81
472.216	975.81
472.435	980.81
472.654	954.81
472.873	975.81
473.092	911.81
473.311	954.81
473.53	958.81
473.749	954.81
473.968	965.81
474.187	958.81
474.406	952.81
474.625	946.81
474.844	961.81
475.063	972.81
475.282	981.81
475.501	965.81
475.72	967.81
475.939	997.81
476.158	1000.81
476.377	980.81
476.596	1003.81
476.814	1006.81
477.033	1011.81
477.252	1072.81
477.471	1083.81
477.69	1066.81
477.908	1076.81
478.127	1124.81
478.346	1147.81
478.564	1184.81
478.783	1219.81
479.002	1199.81
479.22	1221.81
479.439	1204.81
479.658	1214.81
479.876	1189.81
480.095	1230.81
480.313	1269.81
480.532	1351.81
480.751	1322.81
480.969	1247.81
481.188	1202.81
481.406	1168.81
481.624	1133.81
481.843	1110.81
482.061	1140.81
482.28	1095.81
482.498	1102.81
482.717	1094.81
482.935	1088.81
483.153	1090.81
483.372	1107.81
483.59	1116.81
483.808	1094.81
484.027	1079.81
484.245	1100.81
484.463	1111.81
484.681	1137.81
484.9	1122.81
485.118	1132.81
485.336	1134.81
485.554	1151.81
485.772	1166.81
485.99	1195.81
486.209	1174.81
486.427	1184.81
486.645	1177.81
486.863	1192.81
487.081	1164.81
487.299	1153.81
487.517	1152.81
487.735	1172.81
487.953	1156.81
488.171	1134.81
488.389	1108.81
488.607	1146.81
488.825	1121.81
489.043	1156.81
489.261	1134.81
489.479	1172.81
489.696	1135.81
489.914	1148.81
490.132	1139.81
490.35	1192.81
490.568	1168.81
490.786	1171.81
491.003	1159.81
491.221	1172.81
491.439	1156.81
491.657	1159.81
491.874	1155.81
492.092	1183.81
492.31	1206.81
492.527	1194.81
492.745	1172.81
492.963	1180.81
493.18	1183.81
493.398	1208.81
493.615	1206.81
493.833	1182.81
494.05	1167.81
494.268	1214.81
494.485	1245.81
494.703	1231.81
494.92	1255.81
495.138	1207.81
495.355	1229.81
495.573	1224.81
495.79	1228.81
496.008	1243.81
496.225	1223.81
496.442	1231.81
496.66	1284.81
496.877	1275.81
497.094	1282.81
497.312	1318.81
497.529	1322.81
497.746	1356.81
497.963	1418.81
498.181	1493.81
498.398	1513.81
498.615	1644.81
498.832	1731.81
499.049	1904.81
499.267	2048.81
499.484	2234.81
499.701	2514.81
499.918	2826.81
500.135	3168.81
500.352	3680.81
500.569	3923.81
500.786	3857.81
501.003	3603.81
501.22	3204.81
501.437	2820.81
501.654	2436.81
501.871	2163.81
502.088	1970.81
502.305	1838.81
502.522	1772.81
502.739	1700.81
502.956	1586.81
503.172	1558.81
503.389	1454.81
503.606	1403.81
503.823	1404.81
504.04	1369.81
504.256	1408.81
504.473	1444.81
504.69	1507.81
504.907	1432.81
505.123	1367.81
505.34	1290.81
505.557	1218.81
505.773	1182.81
505.99	1140.81
506.207	1106.81
506.423	1119.81
506.64	1137.81
506.856	1100.81
507.073	1092.81
507.289	1097.81
507.506	1080.81
507.722	1065.81
507.939	1087.81
508.155	1058.81
508.372	1002.81
508.588	1011.81
508.805	1026.81
509.021	993.81
509.238	989.81
509.454	988.81
509.67	1015.81
509.887	974.81
510.103	990.81
510.319	1005.81
510.536	1003.81
510.752	997.81
510.968	1014.81
511.184	989.81
511.401	990.81
511.617	984.81
511.833	983.81
512.049	963.81
512.265	941.81
512.481	980.81
512.698	968.81
512.914	995.81
513.13	963.81
513.346	959.81
513.562	969.81
513.778	971.81
513.994	997.81
514.21	1011.81
514.426	1014.81
514.642	1010.81
514.858	1032.81
515.074	1003.81
515.29	1022.81
515.506	1005.81
515.721	1019.81
515.937	1036.81
516.153	1064.81
516.369	1101.81
516.585	1104.81
516.801	1175.81
517.016	1232.81
517.232	1277.81
517.448	1307.81
517.664	1345.81
517.879	1411.81
518.095	1421.81
518.311	1385.81
518.527	1286.81
518.742	1231.81
518.958	1182.81
519.173	1162.81
519.389	1138.81
519.605	1088.81
519.82	1034.81
520.036	1032.81
520.251	1010.81
520.467	1004.81
520.682	988.81
520.898	987.81
521.113	945.81
521.329	941.81
521.544	954.81
521.76	950.81
521.975	963.81
522.19	922.81
522.406	917.81
522.621	930.81
522.836	922.81
523.052	920.81
523.267	926.81
523.482	909.81
523.698	906.81
523.913	925.81
524.128	929.81
524.343	887.81
524.559	911.81
524.774	878.81
524.989	915.81
525.204	900.81
525.419	906.81
525.634	899.81
525.849	876.81
526.064	904.81
526.28	882.81
526.495	864.81
526.71	879.81
526.925	882.81
527.14	864.81
527.355	895.81
527.57	892.81
527.785	890.81
527.999	911.81
528.214	895.81
528.429	892.81
528.644	889.81
528.859	873.81
529.074	887.81
529.289	912.81
529.503	882.81
529.718	873.81
529.933	891.81
530.148	879.81
530.363	875.81
530.577	867.81
530.792	893.81
531.007	876.81
531.221	888.81
531.436	874.81
531.651	921.81
531.865	884.81
532.08	876.81
532.295	878.81
532.509	873.81
532.724	865.81
532.938	876.81
533.153	900.81
533.367	886.81
533.582	892.81
533.796	900.81
534.011	871.81
534.225	911.81
534.44	857.81
534.654	882.81
534.868	868.81
535.083	865.81
535.297	861.81
535.511	864.81
535.726	865.81
535.94	855.81
536.154	853.81
536.369	834.81
536.583	842.81
536.797	842.81
537.011	835.81
537.225	850.81
537.44	832.81
537.654	836.81
537.868	811.81
538.082	811.81
538.296	802.81
538.51	819.81
538.724	846.81
538.938	818.81
539.153	793.81
539.367	805.81
539.581	804.81
539.795	793.81
540.009	790.81
540.222	760.81
540.436	794.81
540.65	786.81
540.864	789.81
541.078	783.81
541.292	801.81
541.506	812.81
541.72	794.81
541.934	749.81
542.147	814.81
542.361	776.81
542.575	791.81
542.789	794.81
543.002	767.81
543.216	776.81
543.43	772.81
543.644	798.81
543.857	765.81
544.071	762.81
544.285	799.81
544.498	774.81
544.712	802.81
544.925	768.81
545.139	800.81
545.352	819.81
545.566	818.81
545.779	810.81
545.993	797.81
546.206	789.81
546.42	820.81
546.633	804.81
546.847	832.81
547.06	824.81
547.274	795.81
547.487	808.81
547.7	794.81
547.914	813.81
548.127	814.81
548.34	841.81
548.554	804.81
548.767	824.81
548.98	811.81
549.193	810.81
549.407	819.81
549.62	832.81
549.833	831.81
550.046	847.81
550.259	829.81
550.473	814.81
550.686	781.81
550.899	798.81
551.112	791.81
551.325	792.81
551.538	790.81
551.751	807.81
551.964	785.81
552.177	795.81
552.39	818.81
552.603	854.81
552.816	873.81
553.029	852.81
553.242	874.81
553.455	908.81
553.667	876.81
553.88	898.81
554.093	847.81
554.306	879.81
554.519	834.81
554.732	797.81
554.944	797.81
555.157	798.81
555.37	783.81
555.583	762.81
555.795	776.81
556.008	743.81
556.221	740.81
556.433	723.81
556.646	736.81
556.859	685.81
557.071	707.81
557.284	685.81
557.496	715.81
557.709	690.81
557.921	679.81
558.134	695.81
558.346	672.81
558.559	685.81
558.771	684.81
558.984	688.81
559.196	702.81
559.409	678.81
559.621	666.81
559.833	662.81
560.046	670.81
560.258	661.81
560.47	676.81
560.683	674.81
560.895	677.81
561.107	661.81
561.32	657.81
561.532	678.81
561.744	700.81
561.956	666.81
562.168	657.81
562.381	672.81
562.593	666.81
562.805	672.81
563.017	672.81
563.229	672.81
563.441	667.81
563.653	698.81
563.865	692.81
564.077	698.81
564.289	693.81
564.501	704.81
564.713	728.81
564.925	702.81
565.137	695.81
565.349	743.81
565.561	778.81
565.773	806.81
565.985	823.81
566.197	891.81
566.408	954.81
566.62	1031.81
566.832	1101.81
567.044	1139.81
567.255	1127.81
567.467	1164.81
567.679	1252.81
567.891	1356.81
568.102	1387.81
568.314	1322.81
568.526	1176.81
568.737	1038.81
568.949	968.81
569.161	886.81
569.372	843.81
569.584	782.81
569.795	735.81
570.007	722.81
570.218	714.81
570.43	690.81
570.641	696.81
570.853	703.81
571.064	722.81
571.276	715.81
571.487	692.81
571.698	701.81
571.91	627.81
572.121	643.81
572.333	613.81
572.544	588.81
572.755	618.81
572.966	574.81
573.178	592.81
573.389	572.81
573.6	583.81
573.811	564.81
574.023	547.81
574.234	548.81
574.445	569.81
574.656	570.81
574.867	574.81
575.078	554.81
575.289	571.81
575.501	560.81
575.712	547.81
575.923	532.81
576.134	532.81
576.345	544.81
576.556	543.81
576.767	539.81
576.978	537.81
577.188	553.81
577.399	541.81
577.61	524.81
577.821	514.81
578.032	526.81
578.243	513.81
578.454	501.81
578.665	488.81
578.875	501.81
579.086	483.81
579.297	480.81
579.508	495.81
579.718	516.81
579.929	483.81
580.14	500.81
580.35	479.81
580.561	478.81
580.772	472.81
580.982	499.81
581.193	487.81
581.403	466.81
581.614	463.81
581.825	495.81
582.035	494.81
582.246	502.81
582.456	490.81
582.667	475.81
582.877	471.81
583.087	454.81
583.298	432.81
583.508	461.81
583.719	471.81
583.929	464.81
584.139	464.81
584.35	464.81
584.56	463.81
584.77	485.81
584.981	472.81
585.191	476.81
585.401	465.81
585.611	471.81
585.821	448.81
586.032	459.81
586.242	463.81
586.452	461.81
586.662	458.81
586.872	462.81
587.082	476.81
587.292	465.81
587.502	450.81
587.713	458.81
587.923	450.81
588.133	456.81
588.343	435.81
588.553	451.81
588.762	453.81
588.972	464.81
589.182	458.81
589.392	455.81
589.602	452.81
589.812	456.81
590.022	471.81
590.232	448.81
590.441	442.81
590.651	458.81
590.861	482.81
591.071	469.81
591.281	466.81
591.49	467.81
591.7	468.81
591.91	479.81
592.119	493.81
592.329	510.81
592.539	511.81
592.748	521.81
592.958	531.81
593.167	566.81
593.377	573.81
593.587	597.81
593.796	583.81
594.006	589.81
594.215	604.81
594.424	590.81
594.634	578.81
594.843	560.81
595.053	550.81
595.262	505.81
595.472	489.81
595.681	470.81
595.89	449.81
596.1	456.81
596.309	456.81
596.518	460.81
596.727	443.81
596.937	437.81
597.146	424.81
597.355	420.81
597.564	423.81
597.774	400.81
597.983	395.81
598.192	404.81
598.401	397.81
598.61	418.81
598.819	399.81
599.028	382.81
599.237	394.81
599.446	387.81
599.655	377.81
599.864	399.81
600.073	399.81
600.282	379.81
600.491	382.81
600.7	378.81
600.909	378.81
601.118	365.81
601.327	377.81
601.536	387.81
601.745	373.81
601.953	346.81
602.162	359.81
602.371	370.81
602.58	380.81
602.789	377.81
602.997	368.81
603.206	382.81
603.415	366.81
603.623	362.81
603.832	377.81
604.041	370.81
604.249	362.81
604.458	364.81
604.666	343.81
604.875	366.81
605.084	354.81
605.292	359.81
605.501	355.81
605.709	364.81
605.918	357.81
606.126	357.81
606.334	339.81
606.543	351.81
606.751	337.81
606.96	354.81
607.168	352.81
607.376	360.81
607.585	341.81
607.793	338.81
608.001	360.81
608.21	355.81
608.418	364.81
608.626	357.81
608.834	343.81
609.043	335.81
609.251	352.81
609.459	334.81
609.667	344.81
609.875	316.81
610.083	340.81
610.291	320.81
610.499	347.81
610.707	331.81
610.916	345.81
611.124	337.81
611.332	321.81
611.54	349.81
611.748	331.81
611.955	316.81
612.163	327.81
612.371	334.81
612.579	323.81
612.787	342.81
612.995	320.81
613.203	335.81
613.411	323.81
613.618	346.81
613.826	351.81
614.034	341.81
614.242	319.81
614.449	331.81
614.657	330.81
614.865	324.81
615.072	329.81
615.28	340.81
615.488	337.81
615.695	334.81
615.903	321.81
616.111	307.81
616.318	319.81
616.526	334.81
616.733	342.81
616.941	322.81
617.148	322.81
617.356	326.81
617.563	335.81
617.771	348.81
617.978	316.81
618.185	333.81
618.393	320.81
618.6	319.81
618.807	338.81
619.015	319.81
619.222	331.81
619.429	325.81
619.637	345.81
619.844	327.81
620.051	328.81
620.258	327.81
620.466	301.81
620.673	315.81
620.88	294.81
621.087	296.81
621.294	315.81
621.501	306.81
621.708	323.81
621.915	299.81
622.122	300.81
622.329	300.81
622.536	322.81
622.743	308.81
622.95	315.81
623.157	290.81
623.364	318.81
623.571	279.81
623.778	310.81
623.985	300.81
624.192	306.81
624.399	272.81
624.606	298.81
624.812	293.81
625.019	291.81
625.226	300.81
625.433	301.81
625.639	292.81
625.846	292.81
626.053	269.81
626.259	278.81
626.466	293.81
626.673	282.81
626.879	278.81
627.086	292.81
627.293	272.81
627.499	290.81
627.706	280.81
627.912	294.81
628.119	282.81
628.325	286.81
628.532	260.81
628.738	271.81
628.945	270.81
629.151	280.81
629.357	276.81
629.564	269.81
629.77	264.81
629.976	250.81
630.183	236.81
630.389	262.81
630.595	265.81
630.802	265.81
631.008	254.81
631.214	263.81
631.42	266.81
631.627	259.81
631.833	249.81
632.039	250.81
632.245	271.81
632.451	244.81
632.657	262.81
632.863	265.81
633.069	251.81
633.275	247.81
633.481	247.81
633.688	266.81
633.893	259.81
634.099	258.81
634.305	263.81
634.511	252.81
634.717	242.81
634.923	239.81
635.129	234.81
635.335	253.81
635.541	252.81
635.747	259.81
635.952	240.81
636.158	228.81
636.364	264.81
636.57	245.81
636.775	220.81
636.981	226.81
637.187	244.81
637.392	233.81
637.598	242.81
637.804	234.81
638.009	246.81
638.215	231.81
638.421	227.81
638.626	211.81
638.832	218.81
639.037	225.81
639.243	231.81
639.448	226.81
639.654	234.81
639.859	222.81
640.065	213.81
640.27	234.81
640.475	216.81
640.681	220.81
640.886	223.81
641.091	237.81
641.297	235.81
641.502	220.81
641.707	221.81
641.913	217.81
642.118	218.81
642.323	223.81
642.528	219.81
642.733	212.81
642.939	217.81
643.144	211.81
643.349	223.81
643.554	214.81
643.759	216.81
643.964	218.81
644.169	235.81
644.374	199.81
644.579	208.81
644.784	222.81
644.989	223.81
645.194	211.81
645.399	208.81
645.604	215.81
645.809	223.81
646.014	213.81
646.219	227.81
646.423	218.81
646.628	221.81
646.833	205.81
647.038	227.81
647.243	220.81
647.447	220.81
647.652	214.81
647.857	226.81
648.062	231.81
648.266	238.81
648.471	236.81
648.676	233.81
648.88	234.81
649.085	219.81
649.289	221.81
649.494	228.81
649.698	224.81
649.903	214.81
650.107	212.81
650.312	215.81
650.516	219.81
650.721	207.81
650.925	204.81
651.13	183.81
651.334	192.81
651.539	190.81
651.743	187.81
651.947	197.81
652.152	193.81
652.356	192.81
652.56	181.81
652.764	184.81
652.969	179.81
653.173	192.81
653.377	171.81
653.581	185.81
653.785	180.81
653.99	180.81
654.194	152.81
654.398	168.81
654.602	175.81
654.806	165.81
655.01	173.81
655.214	175.81
655.418	162.81
655.622	156.81
655.826	144.81
656.03	170.81
656.234	172.81
656.438	156.81
656.642	136.81
656.846	161.81
657.049	140.81
657.253	153.81
657.457	144.81
657.661	154.81
657.865	132.81
658.068	127.81
658.272	124.81
658.476	120.81
658.68	110.81
658.883	103.81
659.087	101.81
659.291	108.81
659.494	93.81
659.698	111.81
659.901	94.81
660.105	108.81
660.309	116.81
660.512	118.81
660.716	109.81
660.919	89.81
661.123	99.81
661.326	92.81
661.53	100.81
661.733	100.81
661.936	92.81
662.14	99.81
662.343	93.81
662.546	92.81
662.75	91.81
662.953	91.81
663.156	90.81
663.36	78.81
663.563	91.81
663.766	80.81
663.969	79.81
664.173	93.81
664.376	79.81
664.579	74.81
664.782	87.81
664.985	85.81
665.188	74.81
665.391	81.81
665.594	85.81
665.797	84.81
666	88.81
666.203	92.81
666.406	77.81
666.609	95.81
666.812	95.81
667.015	88.81
667.218	83.81
667.421	88.81
667.624	87.81
667.827	87.81
668.03	95.81
668.232	94.81
668.435	83.81
668.638	95.81
668.841	101.81
669.043	76.81
669.246	77.81
669.449	99.81
669.651	89.81
669.854	78.81
670.057	72.81
670.259	85.81
670.462	84.81
670.665	72.81
670.867	89.81
671.07	83.81
671.272	84.81
671.475	77.81
671.677	75.81
671.88	92.81
672.082	94.81
672.284	92.81
672.487	76.81
672.689	90.81
672.892	100.81
