Data from NiCl2@0.25M.TitratingCurve.Agarose3%dH2O.NegLispCup.LampEnergy10.LIBS07252019_HRD10591_18-24-00-572.txt Node
Date: Thu Jul 25 18:24:00 EDT 2019
User: cochatt
Spectrometer: HR+D1059
Trigger mode: 1
Integration Time (sec): 1.000000E-1
Scans to average: 1
Electric dark correction enabled: true
Nonlinearity correction enabled: false
Boxcar width: 0
XAxis mode: Wavelengths
Number of Pixels in Spectrum: 2048
>>>>>Begin Spectral Data<<<<<
223.165	-20.62
223.4	-20.62
223.635	-20.62
223.869	-4.62
224.104	-18.62
224.338	-12.62
224.573	-8.62
224.808	-7.62
225.042	-19.62
225.277	-2.62
225.511	-1.62
225.746	-0.62
225.98	13.38
226.215	9.38
226.449	9.38
226.683	13.38
226.918	26.38
227.152	25.38
227.387	43.38
227.621	46.38
227.856	44.38
228.09	52.38
228.324	43.38
228.559	62.38
228.793	79.38
229.027	116.38
229.262	128.38
229.496	139.38
229.73	141.38
229.964	138.38
230.199	139.38
230.433	144.38
230.667	147.38
230.901	161.38
231.136	158.38
231.37	182.38
231.604	163.38
231.838	171.38
232.072	177.38
232.306	170.38
232.541	188.38
232.775	166.38
233.009	185.38
233.243	161.38
233.477	177.38
233.711	169.38
233.945	184.38
234.179	169.38
234.413	166.38
234.647	185.38
234.881	181.38
235.115	181.38
235.349	199.38
235.583	182.38
235.817	188.38
236.051	185.38
236.285	175.38
236.519	179.38
236.753	191.38
236.987	195.38
237.221	184.38
237.455	194.38
237.689	188.38
237.922	184.38
238.156	183.38
238.39	193.38
238.624	200.38
238.858	211.38
239.091	190.38
239.325	211.38
239.559	222.38
239.793	211.38
240.027	222.38
240.26	213.38
240.494	216.38
240.728	218.38
240.961	212.38
241.195	226.38
241.429	227.38
241.662	231.38
241.896	232.38
242.13	225.38
242.363	245.38
242.597	239.38
242.83	240.38
243.064	233.38
243.298	246.38
243.531	251.38
243.765	249.38
243.998	246.38
244.232	237.38
244.465	253.38
244.699	249.38
244.932	263.38
245.166	254.38
245.399	268.38
245.633	259.38
245.866	267.38
246.099	280.38
246.333	275.38
246.566	270.38
246.8	261.38
247.033	287.38
247.266	282.38
247.5	257.38
247.733	285.38
247.966	295.38
248.2	287.38
248.433	291.38
248.666	316.38
248.899	285.38
249.133	297.38
249.366	306.38
249.599	301.38
249.832	312.38
250.066	310.38
250.299	312.38
250.532	323.38
250.765	313.38
250.998	297.38
251.231	324.38
251.465	313.38
251.698	337.38
251.931	321.38
252.164	331.38
252.397	322.38
252.63	331.38
252.863	303.38
253.096	342.38
253.329	319.38
253.562	345.38
253.795	342.38
254.028	337.38
254.261	337.38
254.494	331.38
254.727	339.38
254.96	345.38
255.193	354.38
255.426	355.38
255.659	358.38
255.892	359.38
256.124	374.38
256.357	371.38
256.59	351.38
256.823	346.38
257.056	360.38
257.289	381.38
257.521	378.38
257.754	367.38
257.987	371.38
258.22	353.38
258.452	378.38
258.685	387.38
258.918	399.38
259.151	378.38
259.383	366.38
259.616	375.38
259.849	377.38
260.081	376.38
260.314	382.38
260.547	385.38
260.779	385.38
261.012	410.38
261.244	397.38
261.477	425.38
261.71	405.38
261.942	415.38
262.175	396.38
262.407	408.38
262.64	413.38
262.872	397.38
263.105	420.38
263.337	427.38
263.57	422.38
263.802	445.38
264.035	419.38
264.267	423.38
264.499	420.38
264.732	447.38
264.964	440.38
265.197	437.38
265.429	442.38
265.661	447.38
265.894	439.38
266.126	457.38
266.358	435.38
266.591	436.38
266.823	429.38
267.055	441.38
267.287	441.38
267.52	433.38
267.752	462.38
267.984	469.38
268.216	448.38
268.448	462.38
268.681	464.38
268.913	456.38
269.145	458.38
269.377	459.38
269.609	468.38
269.841	477.38
270.073	464.38
270.306	476.38
270.538	465.38
270.77	456.38
271.002	489.38
271.234	473.38
271.466	465.38
271.698	491.38
271.93	477.38
272.162	488.38
272.394	502.38
272.626	478.38
272.858	491.38
273.09	518.38
273.322	520.38
273.553	499.38
273.785	501.38
274.017	526.38
274.249	502.38
274.481	503.38
274.713	492.38
274.945	535.38
275.176	507.38
275.408	521.38
275.64	519.38
275.872	526.38
276.104	536.38
276.335	533.38
276.567	522.38
276.799	529.38
277.031	533.38
277.262	515.38
277.494	525.38
277.726	533.38
277.957	545.38
278.189	536.38
278.421	538.38
278.652	555.38
278.884	536.38
279.115	549.38
279.347	546.38
279.579	585.38
279.81	567.38
280.042	557.38
280.273	565.38
280.505	581.38
280.736	561.38
280.968	575.38
281.199	571.38
281.431	576.38
281.662	585.38
281.894	593.38
282.125	558.38
282.356	606.38
282.588	623.38
282.819	608.38
283.051	581.38
283.282	607.38
283.513	603.38
283.745	592.38
283.976	599.38
284.207	593.38
284.439	623.38
284.67	624.38
284.901	621.38
285.132	596.38
285.364	616.38
285.595	615.38
285.826	626.38
286.057	607.38
286.288	629.38
286.52	653.38
286.751	643.38
286.982	641.38
287.213	645.38
287.444	636.38
287.675	633.38
287.906	677.38
288.138	662.38
288.369	643.38
288.6	670.38
288.831	657.38
289.062	654.38
289.293	667.38
289.524	661.38
289.755	642.38
289.986	669.38
290.217	665.38
290.448	639.38
290.679	652.38
290.91	645.38
291.141	638.38
291.371	658.38
291.602	663.38
291.833	673.38
292.064	671.38
292.295	670.38
292.526	663.38
292.757	657.38
292.987	647.38
293.218	666.38
293.449	673.38
293.68	693.38
293.91	650.38
294.141	661.38
294.372	668.38
294.603	678.38
294.833	677.38
295.064	687.38
295.295	695.38
295.525	669.38
295.756	672.38
295.987	677.38
296.217	693.38
296.448	689.38
296.679	685.38
296.909	673.38
297.14	713.38
297.37	707.38
297.601	715.38
297.831	709.38
298.062	735.38
298.292	723.38
298.523	748.38
298.753	747.38
298.984	717.38
299.214	705.38
299.445	728.38
299.675	736.38
299.905	709.38
300.136	721.38
300.366	722.38
300.597	737.38
300.827	761.38
301.057	763.38
301.288	744.38
301.518	773.38
301.748	767.38
301.979	796.38
302.209	795.38
302.439	765.38
302.669	767.38
302.9	750.38
303.13	767.38
303.36	757.38
303.59	763.38
303.82	737.38
304.051	771.38
304.281	755.38
304.511	749.38
304.741	748.38
304.971	759.38
305.201	747.38
305.431	722.38
305.661	785.38
305.891	743.38
306.121	732.38
306.352	720.38
306.582	724.38
306.812	728.38
307.042	743.38
307.272	739.38
307.502	744.38
307.731	735.38
307.961	756.38
308.191	756.38
308.421	742.38
308.651	732.38
308.881	735.38
309.111	724.38
309.341	740.38
309.571	741.38
309.8	746.38
310.03	724.38
310.26	743.38
310.49	753.38
310.72	763.38
310.949	765.38
311.179	757.38
311.409	780.38
311.639	758.38
311.868	777.38
312.098	761.38
312.328	761.38
312.557	773.38
312.787	797.38
313.017	790.38
313.246	790.38
313.476	797.38
313.706	805.38
313.935	830.38
314.165	795.38
314.394	793.38
314.624	794.38
314.853	802.38
315.083	784.38
315.312	803.38
315.542	817.38
315.771	786.38
316.001	797.38
316.23	766.38
316.46	770.38
316.689	788.38
316.919	783.38
317.148	806.38
317.377	776.38
317.607	778.38
317.836	793.38
318.065	809.38
318.295	762.38
318.524	779.38
318.753	749.38
318.983	795.38
319.212	768.38
319.441	775.38
319.67	778.38
319.9	761.38
320.129	786.38
320.358	782.38
320.587	772.38
320.816	790.38
321.046	788.38
321.275	826.38
321.504	782.38
321.733	826.38
321.962	799.38
322.191	809.38
322.42	805.38
322.649	808.38
322.878	812.38
323.108	793.38
323.337	839.38
323.566	796.38
323.795	805.38
324.024	820.38
324.253	834.38
324.482	820.38
324.71	820.38
324.939	831.38
325.168	824.38
325.397	799.38
325.626	848.38
325.855	838.38
326.084	868.38
326.313	864.38
326.542	887.38
326.77	886.38
326.999	860.38
327.228	863.38
327.457	861.38
327.686	870.38
327.914	863.38
328.143	862.38
328.372	866.38
328.6	876.38
328.829	863.38
329.058	850.38
329.287	857.38
329.515	875.38
329.744	855.38
329.972	910.38
330.201	881.38
330.43	896.38
330.658	920.38
330.887	916.38
331.115	939.38
331.344	906.38
331.572	932.38
331.801	968.38
332.03	953.38
332.258	974.38
332.486	998.38
332.715	1060.38
332.943	1071.38
333.172	1104.38
333.4	1163.38
333.629	1186.38
333.857	1176.38
334.085	1168.38
334.314	1174.38
334.542	1127.38
334.771	1126.38
334.999	1095.38
335.227	1085.38
335.455	1070.38
335.684	1051.38
335.912	1083.38
336.14	1072.38
336.369	1051.38
336.597	1044.38
336.825	1026.38
337.053	1061.38
337.281	1035.38
337.51	991.38
337.738	985.38
337.966	966.38
338.194	991.38
338.422	949.38
338.65	965.38
338.878	973.38
339.106	965.38
339.334	974.38
339.562	937.38
339.79	944.38
340.018	912.38
340.246	865.38
340.474	883.38
340.702	900.38
340.93	926.38
341.158	895.38
341.386	929.38
341.614	926.38
341.842	907.38
342.07	878.38
342.298	863.38
342.526	886.38
342.754	878.38
342.981	896.38
343.209	924.38
343.437	960.38
343.665	1043.38
343.893	1095.38
344.12	1127.38
344.348	1099.38
344.576	1071.38
344.804	1008.38
345.031	947.38
345.259	939.38
345.487	933.38
345.714	924.38
345.942	909.38
346.17	889.38
346.397	881.38
346.625	899.38
346.853	867.38
347.08	839.38
347.308	887.38
347.535	888.38
347.763	880.38
347.99	874.38
348.218	872.38
348.445	864.38
348.673	869.38
348.9	880.38
349.128	875.38
349.355	869.38
349.583	862.38
349.81	825.38
350.037	876.38
350.265	883.38
350.492	825.38
350.72	849.38
350.947	858.38
351.174	859.38
351.402	834.38
351.629	868.38
351.856	858.38
352.083	862.38
352.311	852.38
352.538	864.38
352.765	859.38
352.992	846.38
353.22	837.38
353.447	822.38
353.674	841.38
353.901	831.38
354.128	808.38
354.355	823.38
354.583	838.38
354.81	825.38
355.037	835.38
355.264	844.38
355.491	841.38
355.718	852.38
355.945	860.38
356.172	840.38
356.399	844.38
356.626	846.38
356.853	876.38
357.08	855.38
357.307	858.38
357.534	847.38
357.761	836.38
357.988	848.38
358.215	854.38
358.441	849.38
358.668	853.38
358.895	842.38
359.122	816.38
359.349	843.38
359.576	874.38
359.802	836.38
360.029	825.38
360.256	843.38
360.483	826.38
360.709	847.38
360.936	836.38
361.163	827.38
361.39	843.38
361.616	848.38
361.843	853.38
362.07	853.38
362.296	841.38
362.523	826.38
362.749	835.38
362.976	840.38
363.203	833.38
363.429	837.38
363.656	862.38
363.882	837.38
364.109	823.38
364.335	823.38
364.562	836.38
364.788	835.38
365.015	854.38
365.241	855.38
365.468	825.38
365.694	821.38
365.92	839.38
366.147	829.38
366.373	834.38
366.599	843.38
366.826	830.38
367.052	838.38
367.278	856.38
367.505	843.38
367.731	833.38
367.957	872.38
368.184	812.38
368.41	830.38
368.636	848.38
368.862	844.38
369.089	845.38
369.315	865.38
369.541	884.38
369.767	876.38
369.993	856.38
370.219	878.38
370.445	859.38
370.672	873.38
370.898	904.38
371.124	909.38
371.35	929.38
371.576	897.38
371.802	925.38
372.028	888.38
372.254	907.38
372.48	907.38
372.706	933.38
372.932	943.38
373.158	957.38
373.384	947.38
373.61	908.38
373.835	905.38
374.061	927.38
374.287	912.38
374.513	931.38
374.739	944.38
374.965	1011.38
375.191	1005.38
375.416	1012.38
375.642	992.38
375.868	964.38
376.094	936.38
376.319	920.38
376.545	932.38
376.771	924.38
376.997	919.38
377.222	923.38
377.448	910.38
377.674	923.38
377.899	928.38
378.125	921.38
378.35	899.38
378.576	904.38
378.802	886.38
379.027	897.38
379.253	897.38
379.478	890.38
379.704	906.38
379.929	903.38
380.155	900.38
380.38	888.38
380.606	894.38
380.831	920.38
381.057	907.38
381.282	899.38
381.507	922.38
381.733	903.38
381.958	933.38
382.184	942.38
382.409	936.38
382.634	941.38
382.86	949.38
383.085	970.38
383.31	987.38
383.535	1013.38
383.761	1031.38
383.986	1001.38
384.211	1021.38
384.436	1085.38
384.662	1072.38
384.887	1092.38
385.112	1083.38
385.337	1116.38
385.562	1116.38
385.787	1104.38
386.013	1143.38
386.238	1089.38
386.463	1127.38
386.688	1135.38
386.913	1101.38
387.138	1100.38
387.363	1111.38
387.588	1079.38
387.813	1092.38
388.038	1082.38
388.263	1083.38
388.488	1097.38
388.713	1077.38
388.938	1094.38
389.163	1056.38
389.387	1068.38
389.612	1027.38
389.837	1065.38
390.062	1071.38
390.287	1072.38
390.512	1079.38
390.736	1072.38
390.961	1070.38
391.186	1117.38
391.411	1179.38
391.636	1172.38
391.86	1233.38
392.085	1280.38
392.31	1260.38
392.534	1213.38
392.759	1187.38
392.984	1157.38
393.208	1147.38
393.433	1157.38
393.658	1194.38
393.882	1177.38
394.107	1159.38
394.331	1165.38
394.556	1165.38
394.78	1159.38
395.005	1177.38
395.229	1181.38
395.454	1209.38
395.678	1230.38
395.903	1242.38
396.127	1201.38
396.352	1190.38
396.576	1180.38
396.801	1195.38
397.025	1163.38
397.249	1229.38
397.474	1273.38
397.698	1237.38
397.922	1227.38
398.147	1231.38
398.371	1281.38
398.595	1341.38
398.82	1384.38
399.044	1445.38
399.268	1620.38
399.492	1885.38
399.717	2132.38
399.941	2128.38
400.165	1894.38
400.389	1726.38
400.613	1564.38
400.837	1450.38
401.062	1434.38
401.286	1416.38
401.51	1389.38
401.734	1389.38
401.958	1390.38
402.182	1393.38
402.406	1425.38
402.63	1469.38
402.854	1489.38
403.078	1507.38
403.302	1559.38
403.526	1568.38
403.75	1618.38
403.974	1616.38
404.198	1650.38
404.422	1621.38
404.645	1590.38
404.869	1575.38
405.093	1585.38
405.317	1554.38
405.541	1556.38
405.765	1529.38
405.988	1530.38
406.212	1549.38
406.436	1506.38
406.66	1563.38
406.883	1592.38
407.107	1686.38
407.331	1738.38
407.555	1801.38
407.778	1853.38
408.002	1741.38
408.226	1687.38
408.449	1682.38
408.673	1591.38
408.896	1573.38
409.12	1565.38
409.344	1572.38
409.567	1590.38
409.791	1563.38
410.014	1559.38
410.238	1527.38
410.461	1516.38
410.685	1553.38
410.908	1505.38
411.132	1484.38
411.355	1422.38
411.578	1421.38
411.802	1421.38
412.025	1447.38
412.249	1485.38
412.472	1450.38
412.695	1416.38
412.919	1407.38
413.142	1366.38
413.365	1392.38
413.589	1385.38
413.812	1391.38
414.035	1370.38
414.258	1371.38
414.482	1401.38
414.705	1381.38
414.928	1401.38
415.151	1413.38
415.374	1353.38
415.597	1359.38
415.821	1315.38
416.044	1333.38
416.267	1351.38
416.49	1327.38
416.713	1351.38
416.936	1336.38
417.159	1320.38
417.382	1356.38
417.605	1348.38
417.828	1325.38
418.051	1362.38
418.274	1379.38
418.497	1401.38
418.72	1406.38
418.943	1385.38
419.166	1467.38
419.389	1589.38
419.611	1543.38
419.834	1440.38
420.057	1454.38
420.28	1402.38
420.503	1371.38
420.726	1368.38
420.948	1340.38
421.171	1354.38
421.394	1348.38
421.617	1328.38
421.839	1373.38
422.062	1363.38
422.285	1366.38
422.507	1393.38
422.73	1381.38
422.953	1415.38
423.175	1408.38
423.398	1448.38
423.621	1420.38
423.843	1463.38
424.066	1465.38
424.288	1448.38
424.511	1431.38
424.733	1427.38
424.956	1372.38
425.178	1407.38
425.401	1352.38
425.623	1333.38
425.846	1331.38
426.068	1329.38
426.291	1312.38
426.513	1317.38
426.735	1268.38
426.958	1269.38
427.18	1259.38
427.402	1265.38
427.625	1255.38
427.847	1234.38
428.069	1216.38
428.292	1237.38
428.514	1224.38
428.736	1212.38
428.958	1193.38
429.181	1183.38
429.403	1139.38
429.625	1157.38
429.847	1157.38
430.069	1158.38
430.292	1150.38
430.514	1141.38
430.736	1157.38
430.958	1158.38
431.18	1182.38
431.402	1201.38
431.624	1207.38
431.846	1166.38
432.068	1228.38
432.29	1220.38
432.512	1186.38
432.734	1209.38
432.956	1177.38
433.178	1206.38
433.4	1213.38
433.622	1235.38
433.844	1227.38
434.066	1234.38
434.287	1240.38
434.509	1272.38
434.731	1321.38
434.953	1354.38
435.175	1395.38
435.397	1345.38
435.618	1269.38
435.84	1233.38
436.062	1230.38
436.284	1211.38
436.505	1167.38
436.727	1197.38
436.949	1205.38
437.17	1187.38
437.392	1187.38
437.614	1172.38
437.835	1150.38
438.057	1151.38
438.278	1127.38
438.5	1114.38
438.721	1152.38
438.943	1155.38
439.165	1155.38
439.386	1160.38
439.608	1214.38
439.829	1172.38
440.05	1203.38
440.272	1188.38
440.493	1199.38
440.715	1252.38
440.936	1241.38
441.158	1253.38
441.379	1272.38
441.6	1371.38
441.822	1375.38
442.043	1373.38
442.264	1348.38
442.486	1297.38
442.707	1323.38
442.928	1315.38
443.149	1314.38
443.371	1302.38
443.592	1335.38
443.813	1320.38
444.034	1363.38
444.255	1404.38
444.476	1485.38
444.698	1563.38
444.919	1600.38
445.14	1699.38
445.361	1557.38
445.582	1437.38
445.803	1347.38
446.024	1291.38
446.245	1273.38
446.466	1237.38
446.687	1228.38
446.908	1194.38
447.129	1191.38
447.35	1147.38
447.571	1150.38
447.792	1109.38
448.013	1117.38
448.234	1114.38
448.455	1085.38
448.675	1077.38
448.896	1106.38
449.117	1107.38
449.338	1115.38
449.559	1051.38
449.779	1081.38
450	1063.38
450.221	1074.38
450.442	1069.38
450.662	1097.38
450.883	1099.38
451.104	1134.38
451.324	1129.38
451.545	1098.38
451.766	1109.38
451.986	1086.38
452.207	1115.38
452.428	1109.38
452.648	1079.38
452.869	1081.38
453.089	1076.38
453.31	1093.38
453.53	1103.38
453.751	1059.38
453.971	1051.38
454.192	1039.38
454.412	1017.38
454.633	1035.38
454.853	1037.38
455.073	1021.38
455.294	1028.38
455.514	1043.38
455.734	1033.38
455.955	992.38
456.175	997.38
456.395	1032.38
456.616	1023.38
456.836	1036.38
457.056	1011.38
457.276	981.38
457.497	1031.38
457.717	1034.38
457.937	1040.38
458.157	1054.38
458.377	1012.38
458.598	1085.38
458.818	1077.38
459.038	1125.38
459.258	1169.38
459.478	1225.38
459.698	1239.38
459.918	1273.38
460.138	1318.38
460.358	1397.38
460.578	1435.38
460.798	1454.38
461.018	1481.38
461.238	1438.38
461.458	1423.38
461.678	1432.38
461.898	1447.38
462.118	1482.38
462.338	1497.38
462.558	1599.38
462.777	1630.38
462.997	1792.38
463.217	1924.38
463.437	1953.38
463.657	1744.38
463.876	1688.38
464.096	1689.38
464.316	1681.38
464.536	1665.38
464.755	1615.38
464.975	1572.38
465.195	1483.38
465.414	1377.38
465.634	1301.38
465.854	1242.38
466.073	1230.38
466.293	1206.38
466.512	1186.38
466.732	1179.38
466.951	1144.38
467.171	1140.38
467.391	1128.38
467.61	1120.38
467.829	1139.38
468.049	1144.38
468.268	1097.38
468.488	1080.38
468.707	1103.38
468.927	1096.38
469.146	1091.38
469.365	1096.38
469.585	1118.38
469.804	1140.38
470.023	1163.38
470.243	1207.38
470.462	1200.38
470.681	1173.38
470.901	1187.38
471.12	1183.38
471.339	1149.38
471.558	1160.38
471.777	1135.38
471.997	1161.38
472.216	1093.38
472.435	1071.38
472.654	1087.38
472.873	1086.38
473.092	1064.38
473.311	1053.38
473.53	1068.38
473.749	1065.38
473.968	1077.38
474.187	1071.38
474.406	1066.38
474.625	1082.38
474.844	1104.38
475.063	1091.38
475.282	1116.38
475.501	1091.38
475.72	1089.38
475.939	1099.38
476.158	1114.38
476.377	1111.38
476.596	1112.38
476.814	1134.38
477.033	1131.38
477.252	1148.38
477.471	1181.38
477.69	1203.38
477.908	1223.38
478.127	1286.38
478.346	1291.38
478.564	1343.38
478.783	1328.38
479.002	1375.38
479.22	1370.38
479.439	1366.38
479.658	1353.38
479.876	1340.38
480.095	1388.38
480.313	1423.38
480.532	1473.38
480.751	1486.38
480.969	1395.38
481.188	1345.38
481.406	1312.38
481.624	1270.38
481.843	1239.38
482.061	1255.38
482.28	1214.38
482.498	1213.38
482.717	1204.38
482.935	1217.38
483.153	1244.38
483.372	1248.38
483.59	1296.38
483.808	1238.38
484.027	1217.38
484.245	1243.38
484.463	1242.38
484.681	1256.38
484.9	1246.38
485.118	1261.38
485.336	1251.38
485.554	1322.38
485.772	1290.38
485.99	1301.38
486.209	1303.38
486.427	1313.38
486.645	1314.38
486.863	1293.38
487.081	1293.38
487.299	1306.38
487.517	1267.38
487.735	1286.38
487.953	1305.38
488.171	1272.38
488.389	1287.38
488.607	1271.38
488.825	1277.38
489.043	1308.38
489.261	1232.38
489.479	1300.38
489.696	1271.38
489.914	1283.38
490.132	1291.38
490.35	1313.38
490.568	1283.38
490.786	1278.38
491.003	1305.38
491.221	1309.38
491.439	1310.38
491.657	1303.38
491.874	1272.38
492.092	1355.38
492.31	1337.38
492.527	1321.38
492.745	1339.38
492.963	1342.38
493.18	1318.38
493.398	1352.38
493.615	1283.38
493.833	1352.38
494.05	1316.38
494.268	1372.38
494.485	1342.38
494.703	1391.38
494.92	1386.38
495.138	1388.38
495.355	1382.38
495.573	1391.38
495.79	1404.38
496.008	1397.38
496.225	1445.38
496.442	1431.38
496.66	1460.38
496.877	1455.38
497.094	1502.38
497.312	1486.38
497.529	1531.38
497.746	1596.38
497.963	1614.38
498.181	1734.38
498.398	1799.38
498.615	1884.38
498.832	2013.38
499.049	2150.38
499.267	2395.38
499.484	2628.38
499.701	2828.38
499.918	3195.38
500.135	3735.38
500.352	4116.38
500.569	4333.38
500.786	4300.38
501.003	4038.38
501.22	3592.38
501.437	3185.38
501.654	2742.38
501.871	2526.38
502.088	2277.38
502.305	2154.38
502.522	2067.38
502.739	1951.38
502.956	1857.38
503.172	1760.38
503.389	1707.38
503.606	1649.38
503.823	1593.38
504.04	1653.38
504.256	1632.38
504.473	1667.38
504.69	1649.38
504.907	1663.38
505.123	1533.38
505.34	1450.38
505.557	1385.38
505.773	1365.38
505.99	1271.38
506.207	1305.38
506.423	1300.38
506.64	1282.38
506.856	1262.38
507.073	1253.38
507.289	1226.38
507.506	1196.38
507.722	1221.38
507.939	1201.38
508.155	1221.38
508.372	1189.38
508.588	1173.38
508.805	1148.38
509.021	1163.38
509.238	1175.38
509.454	1135.38
509.67	1127.38
509.887	1091.38
510.103	1096.38
510.319	1115.38
510.536	1079.38
510.752	1097.38
510.968	1121.38
511.184	1082.38
511.401	1105.38
511.617	1121.38
511.833	1084.38
512.049	1139.38
512.265	1095.38
512.481	1085.38
512.698	1112.38
512.914	1120.38
513.13	1128.38
513.346	1127.38
513.562	1152.38
513.778	1147.38
513.994	1136.38
514.21	1119.38
514.426	1124.38
514.642	1124.38
514.858	1134.38
515.074	1151.38
515.29	1155.38
515.506	1177.38
515.721	1189.38
515.937	1217.38
516.153	1214.38
516.369	1264.38
516.585	1318.38
516.801	1367.38
517.016	1390.38
517.232	1473.38
517.448	1490.38
517.664	1569.38
517.879	1583.38
518.095	1578.38
518.311	1547.38
518.527	1457.38
518.742	1412.38
518.958	1358.38
519.173	1292.38
519.389	1265.38
519.605	1215.38
519.82	1220.38
520.036	1180.38
520.251	1129.38
520.467	1119.38
520.682	1115.38
520.898	1124.38
521.113	1118.38
521.329	1105.38
521.544	1089.38
521.76	1077.38
521.975	1087.38
522.19	1067.38
522.406	1072.38
522.621	1063.38
522.836	1037.38
523.052	1028.38
523.267	1030.38
523.482	1030.38
523.698	1029.38
523.913	1029.38
524.128	1014.38
524.343	1018.38
524.559	1011.38
524.774	1000.38
524.989	1028.38
525.204	1033.38
525.419	980.38
525.634	989.38
525.849	994.38
526.064	1014.38
526.28	1007.38
526.495	990.38
526.71	1028.38
526.925	994.38
527.14	999.38
527.355	993.38
527.57	987.38
527.785	990.38
527.999	987.38
528.214	992.38
528.429	969.38
528.644	1002.38
528.859	999.38
529.074	1009.38
529.289	982.38
529.503	970.38
529.718	1017.38
529.933	977.38
530.148	1008.38
530.363	995.38
530.577	987.38
530.792	987.38
531.007	970.38
531.221	979.38
531.436	1008.38
531.651	1006.38
531.865	988.38
532.08	999.38
532.295	990.38
532.509	998.38
532.724	974.38
532.938	983.38
533.153	985.38
533.367	990.38
533.582	990.38
533.796	1003.38
534.011	977.38
534.225	974.38
534.44	967.38
534.654	919.38
534.868	975.38
535.083	994.38
535.297	976.38
535.511	967.38
535.726	978.38
535.94	945.38
536.154	948.38
536.369	933.38
536.583	923.38
536.797	920.38
537.011	941.38
537.225	916.38
537.44	920.38
537.654	922.38
537.868	909.38
538.082	874.38
538.296	891.38
538.51	888.38
538.724	914.38
538.938	885.38
539.153	931.38
539.367	910.38
539.581	891.38
539.795	903.38
540.009	897.38
540.222	910.38
540.436	899.38
540.65	886.38
540.864	906.38
541.078	900.38
541.292	871.38
541.506	876.38
541.72	870.38
541.934	887.38
542.147	896.38
542.361	872.38
542.575	874.38
542.789	862.38
543.002	864.38
543.216	883.38
543.43	847.38
543.644	855.38
543.857	892.38
544.071	893.38
544.285	894.38
544.498	883.38
544.712	908.38
544.925	895.38
545.139	904.38
545.352	934.38
545.566	922.38
545.779	953.38
545.993	937.38
546.206	916.38
546.42	907.38
546.633	916.38
546.847	893.38
547.06	923.38
547.274	894.38
547.487	887.38
547.7	898.38
547.914	920.38
548.127	900.38
548.34	944.38
548.554	913.38
548.767	921.38
548.98	897.38
549.193	914.38
549.407	909.38
549.62	943.38
549.833	935.38
550.046	933.38
550.259	938.38
550.473	895.38
550.686	869.38
550.899	901.38
551.112	899.38
551.325	880.38
551.538	883.38
551.751	899.38
551.964	894.38
552.177	919.38
552.39	937.38
552.603	923.38
552.816	939.38
553.029	954.38
553.242	992.38
553.455	1023.38
553.667	1030.38
553.88	1013.38
554.093	971.38
554.306	934.38
554.519	893.38
554.732	885.38
554.944	858.38
555.157	862.38
555.37	863.38
555.583	851.38
555.795	833.38
556.008	805.38
556.221	806.38
556.433	788.38
556.646	800.38
556.859	763.38
557.071	777.38
557.284	804.38
557.496	791.38
557.709	782.38
557.921	762.38
558.134	756.38
558.346	762.38
558.559	764.38
558.771	755.38
558.984	737.38
559.196	725.38
559.409	728.38
559.621	753.38
559.833	750.38
560.046	722.38
560.258	718.38
560.47	738.38
560.683	743.38
560.895	750.38
561.107	732.38
561.32	714.38
561.532	734.38
561.744	745.38
561.956	736.38
562.168	744.38
562.381	732.38
562.593	742.38
562.805	728.38
563.017	735.38
563.229	721.38
563.441	752.38
563.653	733.38
563.865	747.38
564.077	749.38
564.289	783.38
564.501	795.38
564.713	809.38
564.925	835.38
565.137	835.38
565.349	837.38
565.561	858.38
565.773	899.38
565.985	958.38
566.197	1013.38
566.408	1053.38
566.62	1146.38
566.832	1217.38
567.044	1247.38
567.255	1285.38
567.467	1311.38
567.679	1371.38
567.891	1452.38
568.102	1499.38
568.314	1439.38
568.526	1268.38
568.737	1175.38
568.949	1076.38
569.161	971.38
569.372	893.38
569.584	884.38
569.795	799.38
570.007	795.38
570.218	786.38
570.43	778.38
570.641	760.38
570.853	778.38
571.064	781.38
571.276	785.38
571.487	751.38
571.698	720.38
571.91	707.38
572.121	671.38
572.333	677.38
572.544	668.38
572.755	645.38
572.966	662.38
573.178	638.38
573.389	632.38
573.6	639.38
573.811	613.38
574.023	651.38
574.234	612.38
574.445	608.38
574.656	609.38
574.867	591.38
575.078	634.38
575.289	627.38
575.501	605.38
575.712	575.38
575.923	587.38
576.134	580.38
576.345	576.38
576.556	572.38
576.767	585.38
576.978	581.38
577.188	593.38
577.399	582.38
577.61	569.38
577.821	559.38
578.032	548.38
578.243	549.38
578.454	553.38
578.665	542.38
578.875	546.38
579.086	539.38
579.297	540.38
579.508	549.38
579.718	536.38
579.929	522.38
580.14	511.38
580.35	513.38
580.561	514.38
580.772	522.38
580.982	508.38
581.193	512.38
581.403	507.38
581.614	507.38
581.825	526.38
582.035	491.38
582.246	502.38
582.456	504.38
582.667	521.38
582.877	506.38
583.087	508.38
583.298	502.38
583.508	498.38
583.719	503.38
583.929	506.38
584.139	516.38
584.35	501.38
584.56	491.38
584.77	513.38
584.981	496.38
585.191	504.38
585.401	501.38
585.611	504.38
585.821	490.38
586.032	481.38
586.242	492.38
586.452	485.38
586.662	478.38
586.872	487.38
587.082	489.38
587.292	484.38
587.502	472.38
587.713	487.38
587.923	496.38
588.133	474.38
588.343	475.38
588.553	461.38
588.762	500.38
588.972	497.38
589.182	527.38
589.392	502.38
589.602	487.38
589.812	515.38
590.022	529.38
590.232	478.38
590.441	496.38
590.651	487.38
590.861	500.38
591.071	486.38
591.281	512.38
591.49	501.38
591.7	503.38
591.91	536.38
592.119	540.38
592.329	545.38
592.539	555.38
592.748	588.38
592.958	587.38
593.167	606.38
593.377	615.38
593.587	624.38
593.796	604.38
594.006	629.38
594.215	647.38
594.424	636.38
594.634	608.38
594.843	599.38
595.053	575.38
595.262	589.38
595.472	529.38
595.681	543.38
595.89	521.38
596.1	531.38
596.309	473.38
596.518	483.38
596.727	472.38
596.937	468.38
597.146	445.38
597.355	439.38
597.564	441.38
597.774	431.38
597.983	428.38
598.192	427.38
598.401	433.38
598.61	420.38
598.819	429.38
599.028	421.38
599.237	411.38
599.446	421.38
599.655	389.38
599.864	398.38
600.073	397.38
600.282	417.38
600.491	394.38
600.7	398.38
600.909	410.38
601.118	390.38
601.327	420.38
601.536	400.38
601.745	391.38
601.953	392.38
602.162	393.38
602.371	379.38
602.58	384.38
602.789	390.38
602.997	393.38
603.206	402.38
603.415	394.38
603.623	390.38
603.832	374.38
604.041	357.38
604.249	361.38
604.458	381.38
604.666	361.38
604.875	376.38
605.084	376.38
605.292	373.38
605.501	373.38
605.709	372.38
605.918	378.38
606.126	352.38
606.334	343.38
606.543	379.38
606.751	358.38
606.96	356.38
607.168	368.38
607.376	360.38
607.585	348.38
607.793	352.38
608.001	348.38
608.21	364.38
608.418	365.38
608.626	374.38
608.834	351.38
609.043	371.38
609.251	366.38
609.459	363.38
609.667	367.38
609.875	346.38
610.083	375.38
610.291	367.38
610.499	335.38
610.707	342.38
610.916	340.38
611.124	345.38
611.332	353.38
611.54	356.38
611.748	332.38
611.955	325.38
612.163	337.38
612.371	345.38
612.579	328.38
612.787	345.38
612.995	342.38
613.203	358.38
613.411	342.38
613.618	336.38
613.826	368.38
614.034	346.38
614.242	348.38
614.449	350.38
614.657	326.38
614.865	331.38
615.072	339.38
615.28	352.38
615.488	356.38
615.695	349.38
615.903	349.38
616.111	353.38
616.318	349.38
616.526	349.38
616.733	356.38
616.941	342.38
617.148	348.38
617.356	331.38
617.563	350.38
617.771	337.38
617.978	336.38
618.185	335.38
618.393	350.38
618.6	341.38
618.807	345.38
619.015	343.38
619.222	332.38
619.429	347.38
619.637	349.38
619.844	342.38
620.051	327.38
620.258	317.38
620.466	313.38
620.673	308.38
620.88	320.38
621.087	324.38
621.294	300.38
621.501	310.38
621.708	325.38
621.915	318.38
622.122	334.38
622.329	315.38
622.536	321.38
622.743	309.38
622.95	302.38
623.157	293.38
623.364	311.38
623.571	319.38
623.778	305.38
623.985	304.38
624.192	304.38
624.399	287.38
624.606	280.38
624.812	305.38
625.019	284.38
625.226	314.38
625.433	311.38
625.639	282.38
625.846	280.38
626.053	297.38
626.259	304.38
626.466	281.38
626.673	301.38
626.879	287.38
627.086	287.38
627.293	290.38
627.499	292.38
627.706	301.38
627.912	311.38
628.119	289.38
628.325	296.38
628.532	296.38
628.738	273.38
628.945	298.38
629.151	279.38
629.357	269.38
629.564	267.38
629.77	294.38
629.976	271.38
630.183	264.38
630.389	258.38
630.595	247.38
630.802	276.38
631.008	272.38
631.214	265.38
631.42	268.38
631.627	269.38
631.833	267.38
632.039	265.38
632.245	251.38
632.451	248.38
632.657	261.38
632.863	253.38
633.069	254.38
633.275	271.38
633.481	266.38
633.688	260.38
633.893	248.38
634.099	247.38
634.305	256.38
634.511	256.38
634.717	265.38
634.923	263.38
635.129	247.38
635.335	244.38
635.541	231.38
635.747	252.38
635.952	249.38
636.158	228.38
636.364	234.38
636.57	240.38
636.775	238.38
636.981	247.38
637.187	251.38
637.392	206.38
637.598	240.38
637.804	243.38
638.009	265.38
638.215	231.38
638.421	252.38
638.626	238.38
638.832	230.38
639.037	239.38
639.243	223.38
639.448	246.38
639.654	241.38
639.859	231.38
640.065	252.38
640.27	227.38
640.475	227.38
640.681	208.38
640.886	229.38
641.091	227.38
641.297	215.38
641.502	235.38
641.707	233.38
641.913	216.38
642.118	232.38
642.323	211.38
642.528	224.38
642.733	225.38
642.939	203.38
643.144	214.38
643.349	218.38
643.554	223.38
643.759	227.38
643.964	227.38
644.169	208.38
644.374	208.38
644.579	224.38
644.784	217.38
644.989	220.38
645.194	203.38
645.399	209.38
645.604	205.38
645.809	212.38
646.014	217.38
646.219	216.38
646.423	228.38
646.628	216.38
646.833	221.38
647.038	214.38
647.243	216.38
647.447	234.38
647.652	247.38
647.857	225.38
648.062	222.38
648.266	234.38
648.471	210.38
648.676	240.38
648.88	223.38
649.085	230.38
649.289	224.38
649.494	220.38
649.698	231.38
649.903	207.38
650.107	224.38
650.312	214.38
650.516	198.38
650.721	204.38
650.925	186.38
651.13	190.38
651.334	188.38
651.539	200.38
651.743	186.38
651.947	190.38
652.152	206.38
652.356	172.38
652.56	158.38
652.764	179.38
652.969	180.38
653.173	182.38
653.377	183.38
653.581	164.38
653.785	171.38
653.99	163.38
654.194	169.38
654.398	164.38
654.602	146.38
654.806	151.38
655.01	188.38
655.214	167.38
655.418	154.38
655.622	153.38
655.826	145.38
656.03	147.38
656.234	162.38
656.438	156.38
656.642	161.38
656.846	151.38
657.049	137.38
657.253	123.38
657.457	137.38
657.661	131.38
657.865	128.38
658.068	148.38
658.272	112.38
658.476	119.38
658.68	129.38
658.883	112.38
659.087	112.38
659.291	127.38
659.494	119.38
659.698	118.38
659.901	126.38
660.105	104.38
660.309	97.38
660.512	100.38
660.716	96.38
660.919	104.38
661.123	101.38
661.326	96.38
661.53	99.38
661.733	92.38
661.936	100.38
662.14	103.38
662.343	87.38
662.546	84.38
662.75	99.38
662.953	91.38
663.156	90.38
663.36	92.38
663.563	98.38
663.766	87.38
663.969	87.38
664.173	86.38
664.376	76.38
664.579	91.38
664.782	89.38
664.985	87.38
665.188	100.38
665.391	87.38
665.594	86.38
665.797	91.38
666	99.38
666.203	81.38
666.406	81.38
666.609	93.38
666.812	91.38
667.015	83.38
667.218	83.38
667.421	82.38
667.624	92.38
667.827	72.38
668.03	82.38
668.232	67.38
668.435	82.38
668.638	85.38
668.841	71.38
669.043	87.38
669.246	91.38
669.449	80.38
669.651	99.38
669.854	71.38
670.057	77.38
670.259	94.38
670.462	87.38
670.665	90.38
670.867	79.38
671.07	95.38
671.272	80.38
671.475	83.38
671.677	86.38
671.88	80.38
672.082	95.38
672.284	92.38
672.487	86.38
672.689	95.38
672.892	81.38
