Data from NiCl2@0.0625M.TitratingCurve.Agarose3%dH2O.NegLispCup.LampEnergy10.LIBS07252019_HRD10591_18-33-53-577.txt Node
Date: Thu Jul 25 18:33:53 EDT 2019
User: cochatt
Spectrometer: HR+D1059
Trigger mode: 1
Integration Time (sec): 1.000000E-1
Scans to average: 1
Electric dark correction enabled: true
Nonlinearity correction enabled: false
Boxcar width: 0
XAxis mode: Wavelengths
Number of Pixels in Spectrum: 2048
>>>>>Begin Spectral Data<<<<<
223.165	-19.75
223.4	-19.75
223.635	-19.75
223.869	-17.75
224.104	-18.75
224.338	-15.75
224.573	-21.75
224.808	2.25
225.042	-14.75
225.277	-0.75
225.511	-9.75
225.746	10.25
225.98	-2.75
226.215	23.25
226.449	14.25
226.683	12.25
226.918	24.25
227.152	35.25
227.387	21.25
227.621	39.25
227.856	45.25
228.09	45.25
228.324	59.25
228.559	56.25
228.793	65.25
229.027	130.25
229.262	159.25
229.496	155.25
229.73	174.25
229.964	177.25
230.199	180.25
230.433	174.25
230.667	195.25
230.901	180.25
231.136	189.25
231.37	212.25
231.604	211.25
231.838	210.25
232.072	201.25
232.306	212.25
232.541	190.25
232.775	198.25
233.009	206.25
233.243	217.25
233.477	205.25
233.711	211.25
233.945	203.25
234.179	209.25
234.413	212.25
234.647	217.25
234.881	213.25
235.115	218.25
235.349	232.25
235.583	215.25
235.817	221.25
236.051	224.25
236.285	231.25
236.519	244.25
236.753	236.25
236.987	210.25
237.221	241.25
237.455	233.25
237.689	224.25
237.922	243.25
238.156	244.25
238.39	253.25
238.624	251.25
238.858	258.25
239.091	246.25
239.325	258.25
239.559	273.25
239.793	268.25
240.027	288.25
240.26	242.25
240.494	275.25
240.728	292.25
240.961	283.25
241.195	290.25
241.429	271.25
241.662	299.25
241.896	307.25
242.13	301.25
242.363	291.25
242.597	310.25
242.83	311.25
243.064	310.25
243.298	301.25
243.531	316.25
243.765	321.25
243.998	324.25
244.232	329.25
244.465	323.25
244.699	305.25
244.932	358.25
245.166	343.25
245.399	350.25
245.633	353.25
245.866	331.25
246.099	330.25
246.333	344.25
246.566	344.25
246.8	347.25
247.033	350.25
247.266	334.25
247.5	356.25
247.733	366.25
247.966	374.25
248.2	397.25
248.433	385.25
248.666	380.25
248.899	379.25
249.133	390.25
249.366	396.25
249.599	409.25
249.832	394.25
250.066	391.25
250.299	392.25
250.532	409.25
250.765	417.25
250.998	417.25
251.231	429.25
251.465	418.25
251.698	444.25
251.931	426.25
252.164	425.25
252.397	441.25
252.63	434.25
252.863	447.25
253.096	425.25
253.329	454.25
253.562	445.25
253.795	456.25
254.028	473.25
254.261	466.25
254.494	459.25
254.727	448.25
254.96	460.25
255.193	466.25
255.426	464.25
255.659	467.25
255.892	472.25
256.124	460.25
256.357	464.25
256.59	472.25
256.823	498.25
257.056	501.25
257.289	485.25
257.521	499.25
257.754	481.25
257.987	504.25
258.22	512.25
258.452	500.25
258.685	512.25
258.918	500.25
259.151	520.25
259.383	517.25
259.616	508.25
259.849	506.25
260.081	512.25
260.314	532.25
260.547	515.25
260.779	558.25
261.012	540.25
261.244	542.25
261.477	521.25
261.71	552.25
261.942	540.25
262.175	547.25
262.407	557.25
262.64	551.25
262.872	531.25
263.105	571.25
263.337	576.25
263.57	581.25
263.802	582.25
264.035	556.25
264.267	574.25
264.499	578.25
264.732	578.25
264.964	584.25
265.197	598.25
265.429	570.25
265.661	574.25
265.894	588.25
266.126	605.25
266.358	597.25
266.591	584.25
266.823	592.25
267.055	614.25
267.287	602.25
267.52	641.25
267.752	612.25
267.984	625.25
268.216	615.25
268.448	635.25
268.681	637.25
268.913	624.25
269.145	630.25
269.377	614.25
269.609	621.25
269.841	636.25
270.073	624.25
270.306	647.25
270.538	640.25
270.77	643.25
271.002	654.25
271.234	668.25
271.466	659.25
271.698	648.25
271.93	643.25
272.162	668.25
272.394	667.25
272.626	663.25
272.858	650.25
273.09	671.25
273.322	691.25
273.553	686.25
273.785	696.25
274.017	658.25
274.249	704.25
274.481	708.25
274.713	691.25
274.945	717.25
275.176	709.25
275.408	694.25
275.64	705.25
275.872	720.25
276.104	722.25
276.335	716.25
276.567	727.25
276.799	726.25
277.031	721.25
277.262	719.25
277.494	721.25
277.726	714.25
277.957	746.25
278.189	734.25
278.421	761.25
278.652	744.25
278.884	741.25
279.115	758.25
279.347	739.25
279.579	754.25
279.81	766.25
280.042	770.25
280.273	749.25
280.505	755.25
280.736	782.25
280.968	776.25
281.199	780.25
281.431	797.25
281.662	789.25
281.894	794.25
282.125	780.25
282.356	802.25
282.588	810.25
282.819	828.25
283.051	804.25
283.282	812.25
283.513	821.25
283.745	774.25
283.976	813.25
284.207	818.25
284.439	820.25
284.67	836.25
284.901	808.25
285.132	802.25
285.364	854.25
285.595	837.25
285.826	829.25
286.057	867.25
286.288	849.25
286.52	863.25
286.751	870.25
286.982	866.25
287.213	828.25
287.444	877.25
287.675	870.25
287.906	854.25
288.138	870.25
288.369	856.25
288.6	893.25
288.831	908.25
289.062	892.25
289.293	890.25
289.524	859.25
289.755	876.25
289.986	888.25
290.217	872.25
290.448	874.25
290.679	888.25
290.91	929.25
291.141	895.25
291.371	910.25
291.602	896.25
291.833	858.25
292.064	917.25
292.295	922.25
292.526	904.25
292.757	888.25
292.987	891.25
293.218	875.25
293.449	910.25
293.68	911.25
293.91	885.25
294.141	896.25
294.372	917.25
294.603	896.25
294.833	905.25
295.064	913.25
295.295	907.25
295.525	911.25
295.756	893.25
295.987	902.25
296.217	915.25
296.448	934.25
296.679	896.25
296.909	933.25
297.14	928.25
297.37	967.25
297.601	944.25
297.831	981.25
298.062	965.25
298.292	964.25
298.523	969.25
298.753	978.25
298.984	969.25
299.214	969.25
299.445	952.25
299.675	960.25
299.905	1004.25
300.136	971.25
300.366	989.25
300.597	982.25
300.827	1003.25
301.057	1019.25
301.288	1060.25
301.518	1042.25
301.748	1018.25
301.979	1049.25
302.209	1052.25
302.439	1056.25
302.669	1017.25
302.9	1024.25
303.13	1034.25
303.36	994.25
303.59	1044.25
303.82	1053.25
304.051	1005.25
304.281	1033.25
304.511	1028.25
304.741	1043.25
304.971	1025.25
305.201	1008.25
305.431	982.25
305.661	1033.25
305.891	1015.25
306.121	1042.25
306.352	1034.25
306.582	1029.25
306.812	1003.25
307.042	1026.25
307.272	996.25
307.502	1020.25
307.731	1008.25
307.961	1033.25
308.191	1000.25
308.421	1011.25
308.651	1014.25
308.881	1009.25
309.111	999.25
309.341	1005.25
309.571	1038.25
309.8	1010.25
310.03	1068.25
310.26	1056.25
310.49	1026.25
310.72	1020.25
310.949	1020.25
311.179	1063.25
311.409	1027.25
311.639	1027.25
311.868	1061.25
312.098	1068.25
312.328	1045.25
312.557	1058.25
312.787	1046.25
313.017	1044.25
313.246	1085.25
313.476	1071.25
313.706	1078.25
313.935	1090.25
314.165	1101.25
314.394	1098.25
314.624	1108.25
314.853	1117.25
315.083	1086.25
315.312	1112.25
315.542	1125.25
315.771	1076.25
316.001	1068.25
316.23	1096.25
316.46	1092.25
316.689	1109.25
316.919	1090.25
317.148	1115.25
317.377	1031.25
317.607	1072.25
317.836	1095.25
318.065	1112.25
318.295	1123.25
318.524	1090.25
318.753	1081.25
318.983	1099.25
319.212	1098.25
319.441	1074.25
319.67	1081.25
319.9	1066.25
320.129	1085.25
320.358	1085.25
320.587	1084.25
320.816	1086.25
321.046	1081.25
321.275	1112.25
321.504	1102.25
321.733	1103.25
321.962	1112.25
322.191	1117.25
322.42	1114.25
322.649	1123.25
322.878	1103.25
323.108	1102.25
323.337	1145.25
323.566	1106.25
323.795	1116.25
324.024	1147.25
324.253	1133.25
324.482	1116.25
324.71	1140.25
324.939	1139.25
325.168	1152.25
325.397	1130.25
325.626	1174.25
325.855	1197.25
326.084	1173.25
326.313	1195.25
326.542	1195.25
326.77	1177.25
326.999	1182.25
327.228	1128.25
327.457	1162.25
327.686	1145.25
327.914	1177.25
328.143	1174.25
328.372	1230.25
328.6	1212.25
328.829	1193.25
329.058	1197.25
329.287	1201.25
329.515	1201.25
329.744	1216.25
329.972	1239.25
330.201	1207.25
330.43	1225.25
330.658	1214.25
330.887	1242.25
331.115	1217.25
331.344	1259.25
331.572	1243.25
331.801	1266.25
332.03	1290.25
332.258	1335.25
332.486	1346.25
332.715	1364.25
332.943	1396.25
333.172	1456.25
333.4	1490.25
333.629	1504.25
333.857	1540.25
334.085	1556.25
334.314	1529.25
334.542	1485.25
334.771	1488.25
334.999	1470.25
335.227	1476.25
335.455	1455.25
335.684	1435.25
335.912	1441.25
336.14	1442.25
336.369	1436.25
336.597	1443.25
336.825	1431.25
337.053	1451.25
337.281	1389.25
337.51	1356.25
337.738	1355.25
337.966	1330.25
338.194	1320.25
338.422	1335.25
338.65	1305.25
338.878	1336.25
339.106	1297.25
339.334	1320.25
339.562	1293.25
339.79	1260.25
340.018	1236.25
340.246	1251.25
340.474	1242.25
340.702	1250.25
340.93	1238.25
341.158	1224.25
341.386	1274.25
341.614	1267.25
341.842	1249.25
342.07	1262.25
342.298	1244.25
342.526	1243.25
342.754	1243.25
342.981	1226.25
343.209	1275.25
343.437	1363.25
343.665	1342.25
343.893	1475.25
344.12	1452.25
344.348	1432.25
344.576	1383.25
344.804	1369.25
345.031	1334.25
345.259	1282.25
345.487	1264.25
345.714	1257.25
345.942	1236.25
346.17	1234.25
346.397	1228.25
346.625	1243.25
346.853	1210.25
347.08	1189.25
347.308	1205.25
347.535	1216.25
347.763	1222.25
347.99	1210.25
348.218	1198.25
348.445	1204.25
348.673	1192.25
348.9	1220.25
349.128	1221.25
349.355	1155.25
349.583	1184.25
349.81	1201.25
350.037	1202.25
350.265	1183.25
350.492	1140.25
350.72	1176.25
350.947	1171.25
351.174	1152.25
351.402	1189.25
351.629	1165.25
351.856	1173.25
352.083	1132.25
352.311	1145.25
352.538	1124.25
352.765	1121.25
352.992	1154.25
353.22	1140.25
353.447	1172.25
353.674	1145.25
353.901	1163.25
354.128	1184.25
354.355	1172.25
354.583	1159.25
354.81	1113.25
355.037	1160.25
355.264	1148.25
355.491	1158.25
355.718	1179.25
355.945	1156.25
356.172	1145.25
356.399	1193.25
356.626	1178.25
356.853	1165.25
357.08	1165.25
357.307	1167.25
357.534	1188.25
357.761	1173.25
357.988	1188.25
358.215	1126.25
358.441	1164.25
358.668	1150.25
358.895	1170.25
359.122	1150.25
359.349	1129.25
359.576	1156.25
359.802	1143.25
360.029	1134.25
360.256	1184.25
360.483	1161.25
360.709	1188.25
360.936	1186.25
361.163	1145.25
361.39	1144.25
361.616	1156.25
361.843	1160.25
362.07	1154.25
362.296	1138.25
362.523	1156.25
362.749	1171.25
362.976	1168.25
363.203	1158.25
363.429	1134.25
363.656	1156.25
363.882	1174.25
364.109	1160.25
364.335	1152.25
364.562	1156.25
364.788	1160.25
365.015	1172.25
365.241	1168.25
365.468	1165.25
365.694	1158.25
365.92	1163.25
366.147	1174.25
366.373	1148.25
366.599	1178.25
366.826	1178.25
367.052	1156.25
367.278	1155.25
367.505	1190.25
367.731	1169.25
367.957	1154.25
368.184	1184.25
368.41	1180.25
368.636	1224.25
368.862	1204.25
369.089	1190.25
369.315	1216.25
369.541	1226.25
369.767	1200.25
369.993	1214.25
370.219	1220.25
370.445	1215.25
370.672	1213.25
370.898	1261.25
371.124	1260.25
371.35	1260.25
371.576	1309.25
371.802	1247.25
372.028	1230.25
372.254	1221.25
372.48	1270.25
372.706	1282.25
372.932	1321.25
373.158	1309.25
373.384	1296.25
373.61	1301.25
373.835	1282.25
374.061	1293.25
374.287	1282.25
374.513	1286.25
374.739	1322.25
374.965	1350.25
375.191	1387.25
375.416	1384.25
375.642	1310.25
375.868	1312.25
376.094	1280.25
376.319	1268.25
376.545	1281.25
376.771	1257.25
376.997	1261.25
377.222	1234.25
377.448	1260.25
377.674	1246.25
377.899	1245.25
378.125	1261.25
378.35	1210.25
378.576	1249.25
378.802	1228.25
379.027	1230.25
379.253	1241.25
379.478	1224.25
379.704	1241.25
379.929	1237.25
380.155	1267.25
380.38	1244.25
380.606	1267.25
380.831	1232.25
381.057	1246.25
381.282	1253.25
381.507	1265.25
381.733	1283.25
381.958	1236.25
382.184	1281.25
382.409	1312.25
382.634	1282.25
382.86	1295.25
383.085	1352.25
383.31	1351.25
383.535	1369.25
383.761	1324.25
383.986	1393.25
384.211	1428.25
384.436	1416.25
384.662	1421.25
384.887	1439.25
385.112	1487.25
385.337	1496.25
385.562	1452.25
385.787	1498.25
386.013	1510.25
386.238	1488.25
386.463	1473.25
386.688	1517.25
386.913	1485.25
387.138	1486.25
387.363	1467.25
387.588	1490.25
387.813	1494.25
388.038	1475.25
388.263	1478.25
388.488	1505.25
388.713	1523.25
388.938	1494.25
389.163	1453.25
389.387	1475.25
389.612	1472.25
389.837	1458.25
390.062	1466.25
390.287	1522.25
390.512	1480.25
390.736	1508.25
390.961	1533.25
391.186	1540.25
391.411	1547.25
391.636	1635.25
391.86	1661.25
392.085	1649.25
392.31	1639.25
392.534	1630.25
392.759	1624.25
392.984	1601.25
393.208	1592.25
393.433	1611.25
393.658	1552.25
393.882	1561.25
394.107	1578.25
394.331	1585.25
394.556	1553.25
394.78	1570.25
395.005	1642.25
395.229	1556.25
395.454	1624.25
395.678	1693.25
395.903	1658.25
396.127	1635.25
396.352	1622.25
396.576	1606.25
396.801	1604.25
397.025	1611.25
397.249	1660.25
397.474	1682.25
397.698	1660.25
397.922	1674.25
398.147	1701.25
398.371	1686.25
398.595	1801.25
398.82	1878.25
399.044	1970.25
399.268	2100.25
399.492	2312.25
399.717	2498.25
399.941	2566.25
400.165	2415.25
400.389	2221.25
400.613	2107.25
400.837	1996.25
401.062	1933.25
401.286	1896.25
401.51	1876.25
401.734	1840.25
401.958	1866.25
402.182	1894.25
402.406	1906.25
402.63	1904.25
402.854	1933.25
403.078	1953.25
403.302	1981.25
403.526	1978.25
403.75	1989.25
403.974	2022.25
404.198	2049.25
404.422	2034.25
404.645	2012.25
404.869	1994.25
405.093	2044.25
405.317	1992.25
405.541	1981.25
405.765	1987.25
405.988	2001.25
406.212	2008.25
406.436	2032.25
406.66	2086.25
406.883	2091.25
407.107	2157.25
407.331	2253.25
407.555	2326.25
407.778	2322.25
408.002	2318.25
408.226	2240.25
408.449	2189.25
408.673	2155.25
408.896	2104.25
409.12	2115.25
409.344	2090.25
409.567	2068.25
409.791	2082.25
410.014	2063.25
410.238	2012.25
410.461	2055.25
410.685	1987.25
410.908	2002.25
411.132	1982.25
411.355	1922.25
411.578	1944.25
411.802	1920.25
412.025	1972.25
412.249	1983.25
412.472	1991.25
412.695	1885.25
412.919	1884.25
413.142	1872.25
413.365	1891.25
413.589	1855.25
413.812	1843.25
414.035	1827.25
414.258	1845.25
414.482	1907.25
414.705	1884.25
414.928	1909.25
415.151	1858.25
415.374	1855.25
415.597	1848.25
415.821	1814.25
416.044	1776.25
416.267	1813.25
416.49	1764.25
416.713	1749.25
416.936	1765.25
417.159	1782.25
417.382	1769.25
417.605	1737.25
417.828	1734.25
418.051	1808.25
418.274	1798.25
418.497	1783.25
418.72	1807.25
418.943	1830.25
419.166	1913.25
419.389	2072.25
419.611	1991.25
419.834	1933.25
420.057	1890.25
420.28	1797.25
420.503	1767.25
420.726	1765.25
420.948	1749.25
421.171	1751.25
421.394	1806.25
421.617	1750.25
421.839	1806.25
422.062	1826.25
422.285	1783.25
422.507	1840.25
422.73	1804.25
422.953	1842.25
423.175	1849.25
423.398	1833.25
423.621	1816.25
423.843	1874.25
424.066	1865.25
424.288	1850.25
424.511	1816.25
424.733	1791.25
424.956	1777.25
425.178	1771.25
425.401	1794.25
425.623	1796.25
425.846	1743.25
426.068	1728.25
426.291	1720.25
426.513	1718.25
426.735	1691.25
426.958	1737.25
427.18	1680.25
427.402	1668.25
427.625	1653.25
427.847	1644.25
428.069	1660.25
428.292	1655.25
428.514	1598.25
428.736	1611.25
428.958	1640.25
429.181	1605.25
429.403	1589.25
429.625	1594.25
429.847	1604.25
430.069	1611.25
430.292	1575.25
430.514	1605.25
430.736	1588.25
430.958	1610.25
431.18	1658.25
431.402	1645.25
431.624	1582.25
431.846	1638.25
432.068	1696.25
432.29	1669.25
432.512	1626.25
432.734	1626.25
432.956	1640.25
433.178	1653.25
433.4	1656.25
433.622	1668.25
433.844	1707.25
434.066	1723.25
434.287	1690.25
434.509	1718.25
434.731	1761.25
434.953	1845.25
435.175	1813.25
435.397	1813.25
435.618	1725.25
435.84	1731.25
436.062	1708.25
436.284	1661.25
436.505	1634.25
436.727	1638.25
436.949	1619.25
437.17	1625.25
437.392	1678.25
437.614	1622.25
437.835	1551.25
438.057	1560.25
438.278	1553.25
438.5	1553.25
438.721	1545.25
438.943	1542.25
439.165	1550.25
439.386	1515.25
439.608	1591.25
439.829	1613.25
440.05	1607.25
440.272	1597.25
440.493	1571.25
440.715	1624.25
440.936	1662.25
441.158	1685.25
441.379	1672.25
441.6	1737.25
441.822	1789.25
442.043	1744.25
442.264	1769.25
442.486	1707.25
442.707	1718.25
442.928	1706.25
443.149	1721.25
443.371	1719.25
443.592	1768.25
443.813	1750.25
444.034	1734.25
444.255	1809.25
444.476	1898.25
444.698	1989.25
444.919	2011.25
445.14	2125.25
445.361	1940.25
445.582	1827.25
445.803	1748.25
446.024	1725.25
446.245	1680.25
446.466	1653.25
446.687	1593.25
446.908	1640.25
447.129	1558.25
447.35	1544.25
447.571	1536.25
447.792	1516.25
448.013	1501.25
448.234	1473.25
448.455	1469.25
448.675	1514.25
448.896	1470.25
449.117	1438.25
449.338	1437.25
449.559	1447.25
449.779	1417.25
450	1439.25
450.221	1414.25
450.442	1422.25
450.662	1449.25
450.883	1458.25
451.104	1448.25
451.324	1487.25
451.545	1483.25
451.766	1450.25
451.986	1454.25
452.207	1444.25
452.428	1444.25
452.648	1432.25
452.869	1412.25
453.089	1403.25
453.31	1389.25
453.53	1397.25
453.751	1401.25
453.971	1393.25
454.192	1416.25
454.412	1357.25
454.633	1372.25
454.853	1352.25
455.073	1364.25
455.294	1371.25
455.514	1365.25
455.734	1349.25
455.955	1361.25
456.175	1356.25
456.395	1366.25
456.616	1378.25
456.836	1370.25
457.056	1370.25
457.276	1349.25
457.497	1383.25
457.717	1392.25
457.937	1386.25
458.157	1404.25
458.377	1408.25
458.598	1478.25
458.818	1460.25
459.038	1499.25
459.258	1581.25
459.478	1556.25
459.698	1643.25
459.918	1667.25
460.138	1734.25
460.358	1803.25
460.578	1755.25
460.798	1818.25
461.018	1840.25
461.238	1827.25
461.458	1835.25
461.678	1824.25
461.898	1854.25
462.118	1868.25
462.338	1969.25
462.558	1986.25
462.777	2027.25
462.997	2201.25
463.217	2259.25
463.437	2319.25
463.657	2180.25
463.876	2132.25
464.096	2130.25
464.316	2091.25
464.536	2080.25
464.755	2013.25
464.975	1982.25
465.195	1887.25
465.414	1764.25
465.634	1678.25
465.854	1648.25
466.073	1611.25
466.293	1600.25
466.512	1567.25
466.732	1554.25
466.951	1539.25
467.171	1550.25
467.391	1556.25
467.61	1512.25
467.829	1480.25
468.049	1499.25
468.268	1462.25
468.488	1486.25
468.707	1469.25
468.927	1486.25
469.146	1472.25
469.365	1489.25
469.585	1492.25
469.804	1534.25
470.023	1541.25
470.243	1549.25
470.462	1587.25
470.681	1564.25
470.901	1563.25
471.12	1575.25
471.339	1509.25
471.558	1536.25
471.777	1506.25
471.997	1489.25
472.216	1465.25
472.435	1455.25
472.654	1457.25
472.873	1422.25
473.092	1454.25
473.311	1462.25
473.53	1483.25
473.749	1446.25
473.968	1436.25
474.187	1435.25
474.406	1469.25
474.625	1450.25
474.844	1498.25
475.063	1484.25
475.282	1477.25
475.501	1481.25
475.72	1487.25
475.939	1513.25
476.158	1501.25
476.377	1528.25
476.596	1524.25
476.814	1538.25
477.033	1547.25
477.252	1602.25
477.471	1622.25
477.69	1642.25
477.908	1692.25
478.127	1728.25
478.346	1744.25
478.564	1773.25
478.783	1781.25
479.002	1810.25
479.22	1805.25
479.439	1823.25
479.658	1851.25
479.876	1824.25
480.095	1892.25
480.313	1926.25
480.532	1948.25
480.751	1953.25
480.969	1939.25
481.188	1870.25
481.406	1846.25
481.624	1851.25
481.843	1796.25
482.061	1805.25
482.28	1813.25
482.498	1782.25
482.717	1748.25
482.935	1778.25
483.153	1821.25
483.372	1809.25
483.59	1819.25
483.808	1834.25
484.027	1836.25
484.245	1870.25
484.463	1896.25
484.681	1906.25
484.9	1978.25
485.118	1954.25
485.336	1965.25
485.554	1968.25
485.772	1986.25
485.99	1989.25
486.209	1969.25
486.427	1978.25
486.645	1959.25
486.863	1974.25
487.081	1950.25
487.299	1967.25
487.517	1930.25
487.735	1950.25
487.953	1938.25
488.171	1920.25
488.389	1902.25
488.607	1905.25
488.825	1912.25
489.043	1849.25
489.261	1860.25
489.479	1875.25
489.696	1870.25
489.914	1869.25
490.132	1849.25
490.35	1885.25
490.568	1821.25
490.786	1830.25
491.003	1874.25
491.221	1852.25
491.439	1873.25
491.657	1840.25
491.874	1830.25
492.092	1836.25
492.31	1818.25
492.527	1836.25
492.745	1860.25
492.963	1812.25
493.18	1853.25
493.398	1882.25
493.615	1857.25
493.833	1848.25
494.05	1901.25
494.268	1869.25
494.485	1852.25
494.703	1888.25
494.92	1875.25
495.138	1882.25
495.355	1883.25
495.573	1878.25
495.79	1894.25
496.008	1947.25
496.225	1922.25
496.442	1921.25
496.66	1961.25
496.877	2004.25
497.094	1986.25
497.312	2045.25
497.529	2091.25
497.746	2101.25
497.963	2170.25
498.181	2258.25
498.398	2342.25
498.615	2474.25
498.832	2651.25
499.049	2712.25
499.267	2972.25
499.484	3186.25
499.701	3474.25
499.918	3720.25
500.135	4184.25
500.352	4564.25
500.569	4686.25
500.786	4680.25
501.003	4400.25
501.22	4137.25
501.437	3764.25
501.654	3406.25
501.871	3105.25
502.088	2942.25
502.305	2709.25
502.522	2610.25
502.739	2551.25
502.956	2430.25
503.172	2275.25
503.389	2212.25
503.606	2153.25
503.823	2089.25
504.04	2118.25
504.256	2111.25
504.473	2159.25
504.69	2119.25
504.907	2081.25
505.123	1959.25
505.34	1880.25
505.557	1853.25
505.773	1762.25
505.99	1736.25
506.207	1691.25
506.423	1683.25
506.64	1661.25
506.856	1642.25
507.073	1614.25
507.289	1622.25
507.506	1608.25
507.722	1590.25
507.939	1611.25
508.155	1575.25
508.372	1572.25
508.588	1563.25
508.805	1564.25
509.021	1519.25
509.238	1543.25
509.454	1529.25
509.67	1512.25
509.887	1478.25
510.103	1503.25
510.319	1475.25
510.536	1435.25
510.752	1473.25
510.968	1492.25
511.184	1429.25
511.401	1480.25
511.617	1429.25
511.833	1458.25
512.049	1420.25
512.265	1429.25
512.481	1443.25
512.698	1459.25
512.914	1457.25
513.13	1438.25
513.346	1496.25
513.562	1479.25
513.778	1447.25
513.994	1464.25
514.21	1447.25
514.426	1461.25
514.642	1466.25
514.858	1470.25
515.074	1514.25
515.29	1502.25
515.506	1541.25
515.721	1548.25
515.937	1572.25
516.153	1589.25
516.369	1593.25
516.585	1650.25
516.801	1687.25
517.016	1734.25
517.232	1832.25
517.448	1844.25
517.664	1912.25
517.879	1922.25
518.095	1913.25
518.311	1884.25
518.527	1781.25
518.742	1776.25
518.958	1678.25
519.173	1644.25
519.389	1634.25
519.605	1591.25
519.82	1536.25
520.036	1551.25
520.251	1495.25
520.467	1479.25
520.682	1464.25
520.898	1420.25
521.113	1450.25
521.329	1431.25
521.544	1431.25
521.76	1394.25
521.975	1385.25
522.19	1379.25
522.406	1370.25
522.621	1402.25
522.836	1388.25
523.052	1348.25
523.267	1356.25
523.482	1357.25
523.698	1358.25
523.913	1342.25
524.128	1342.25
524.343	1315.25
524.559	1335.25
524.774	1328.25
524.989	1293.25
525.204	1312.25
525.419	1296.25
525.634	1302.25
525.849	1301.25
526.064	1286.25
526.28	1289.25
526.495	1291.25
526.71	1258.25
526.925	1282.25
527.14	1285.25
527.355	1272.25
527.57	1278.25
527.785	1281.25
527.999	1305.25
528.214	1320.25
528.429	1288.25
528.644	1325.25
528.859	1316.25
529.074	1253.25
529.289	1273.25
529.503	1279.25
529.718	1288.25
529.933	1254.25
530.148	1285.25
530.363	1286.25
530.577	1278.25
530.792	1274.25
531.007	1296.25
531.221	1272.25
531.436	1285.25
531.651	1284.25
531.865	1271.25
532.08	1278.25
532.295	1236.25
532.509	1260.25
532.724	1251.25
532.938	1271.25
533.153	1305.25
533.367	1250.25
533.582	1276.25
533.796	1246.25
534.011	1252.25
534.225	1250.25
534.44	1245.25
534.654	1232.25
534.868	1223.25
535.083	1236.25
535.297	1237.25
535.511	1204.25
535.726	1220.25
535.94	1228.25
536.154	1218.25
536.369	1233.25
536.583	1189.25
536.797	1195.25
537.011	1184.25
537.225	1168.25
537.44	1193.25
537.654	1193.25
537.868	1172.25
538.082	1154.25
538.296	1160.25
538.51	1188.25
538.724	1152.25
538.938	1145.25
539.153	1133.25
539.367	1154.25
539.581	1161.25
539.795	1134.25
540.009	1130.25
540.222	1137.25
540.436	1129.25
540.65	1121.25
540.864	1130.25
541.078	1144.25
541.292	1139.25
541.506	1129.25
541.72	1121.25
541.934	1149.25
542.147	1124.25
542.361	1123.25
542.575	1092.25
542.789	1122.25
543.002	1111.25
543.216	1140.25
543.43	1107.25
543.644	1106.25
543.857	1081.25
544.071	1116.25
544.285	1125.25
544.498	1137.25
544.712	1127.25
544.925	1129.25
545.139	1138.25
545.352	1152.25
545.566	1128.25
545.779	1123.25
545.993	1137.25
546.206	1166.25
546.42	1173.25
546.633	1140.25
546.847	1146.25
547.06	1147.25
547.274	1159.25
547.487	1155.25
547.7	1133.25
547.914	1149.25
548.127	1148.25
548.34	1148.25
548.554	1148.25
548.767	1133.25
548.98	1154.25
549.193	1131.25
549.407	1143.25
549.62	1165.25
549.833	1160.25
550.046	1138.25
550.259	1142.25
550.473	1113.25
550.686	1136.25
550.899	1105.25
551.112	1122.25
551.325	1109.25
551.538	1112.25
551.751	1105.25
551.964	1131.25
552.177	1143.25
552.39	1164.25
552.603	1154.25
552.816	1194.25
553.029	1214.25
553.242	1212.25
553.455	1238.25
553.667	1225.25
553.88	1211.25
554.093	1206.25
554.306	1148.25
554.519	1144.25
554.732	1100.25
554.944	1104.25
555.157	1107.25
555.37	1077.25
555.583	1077.25
555.795	1029.25
556.008	1025.25
556.221	1009.25
556.433	982.25
556.646	992.25
556.859	982.25
557.071	1002.25
557.284	998.25
557.496	972.25
557.709	964.25
557.921	954.25
558.134	971.25
558.346	972.25
558.559	966.25
558.771	946.25
558.984	933.25
559.196	930.25
559.409	951.25
559.621	984.25
559.833	940.25
560.046	948.25
560.258	942.25
560.47	940.25
560.683	948.25
560.895	944.25
561.107	918.25
561.32	948.25
561.532	943.25
561.744	949.25
561.956	952.25
562.168	906.25
562.381	932.25
562.593	929.25
562.805	939.25
563.017	920.25
563.229	930.25
563.441	979.25
563.653	986.25
563.865	983.25
564.077	966.25
564.289	1026.25
564.501	1015.25
564.713	989.25
564.925	1024.25
565.137	1044.25
565.349	1085.25
565.561	1068.25
565.773	1115.25
565.985	1154.25
566.197	1200.25
566.408	1279.25
566.62	1364.25
566.832	1412.25
567.044	1452.25
567.255	1459.25
567.467	1501.25
567.679	1539.25
567.891	1619.25
568.102	1631.25
568.314	1515.25
568.526	1436.25
568.737	1347.25
568.949	1234.25
569.161	1170.25
569.372	1110.25
569.584	1053.25
569.795	1027.25
570.007	1000.25
570.218	984.25
570.43	953.25
570.641	950.25
570.853	947.25
571.064	945.25
571.276	957.25
571.487	907.25
571.698	895.25
571.91	869.25
572.121	865.25
572.333	872.25
572.544	846.25
572.755	813.25
572.966	793.25
573.178	802.25
573.389	771.25
573.6	779.25
573.811	775.25
574.023	778.25
574.234	761.25
574.445	787.25
574.656	766.25
574.867	761.25
575.078	765.25
575.289	773.25
575.501	748.25
575.712	725.25
575.923	747.25
576.134	738.25
576.345	714.25
576.556	723.25
576.767	701.25
576.978	706.25
577.188	697.25
577.399	728.25
577.61	683.25
577.821	724.25
578.032	725.25
578.243	691.25
578.454	692.25
578.665	707.25
578.875	689.25
579.086	692.25
579.297	681.25
579.508	693.25
579.718	672.25
579.929	673.25
580.14	649.25
580.35	666.25
580.561	675.25
580.772	677.25
580.982	650.25
581.193	663.25
581.403	649.25
581.614	674.25
581.825	645.25
582.035	636.25
582.246	654.25
582.456	641.25
582.667	646.25
582.877	636.25
583.087	650.25
583.298	609.25
583.508	620.25
583.719	622.25
583.929	634.25
584.139	635.25
584.35	638.25
584.56	635.25
584.77	622.25
584.981	603.25
585.191	604.25
585.401	627.25
585.611	627.25
585.821	641.25
586.032	628.25
586.242	626.25
586.452	621.25
586.662	609.25
586.872	620.25
587.082	586.25
587.292	607.25
587.502	605.25
587.713	598.25
587.923	609.25
588.133	595.25
588.343	580.25
588.553	589.25
588.762	607.25
588.972	614.25
589.182	629.25
589.392	612.25
589.602	616.25
589.812	609.25
590.022	613.25
590.232	613.25
590.441	604.25
590.651	598.25
590.861	621.25
591.071	638.25
591.281	639.25
591.49	618.25
591.7	670.25
591.91	654.25
592.119	654.25
592.329	651.25
592.539	686.25
592.748	704.25
592.958	723.25
593.167	711.25
593.377	708.25
593.587	725.25
593.796	736.25
594.006	722.25
594.215	742.25
594.424	732.25
594.634	718.25
594.843	710.25
595.053	668.25
595.262	670.25
595.472	666.25
595.681	624.25
595.89	605.25
596.1	598.25
596.309	606.25
596.518	597.25
596.727	580.25
596.937	576.25
597.146	556.25
597.355	553.25
597.564	556.25
597.774	556.25
597.983	555.25
598.192	532.25
598.401	537.25
598.61	526.25
598.819	488.25
599.028	504.25
599.237	517.25
599.446	523.25
599.655	519.25
599.864	532.25
600.073	510.25
600.282	517.25
600.491	489.25
600.7	507.25
600.909	500.25
601.118	494.25
601.327	508.25
601.536	492.25
601.745	493.25
601.953	502.25
602.162	478.25
602.371	474.25
602.58	513.25
602.789	474.25
602.997	504.25
603.206	472.25
603.415	496.25
603.623	496.25
603.832	462.25
604.041	489.25
604.249	485.25
604.458	475.25
604.666	453.25
604.875	464.25
605.084	473.25
605.292	461.25
605.501	465.25
605.709	458.25
605.918	438.25
606.126	465.25
606.334	461.25
606.543	436.25
606.751	453.25
606.96	450.25
607.168	450.25
607.376	458.25
607.585	457.25
607.793	430.25
608.001	456.25
608.21	446.25
608.418	449.25
608.626	445.25
608.834	459.25
609.043	435.25
609.251	440.25
609.459	453.25
609.667	436.25
609.875	444.25
610.083	430.25
610.291	443.25
610.499	448.25
610.707	460.25
610.916	448.25
611.124	431.25
611.332	435.25
611.54	442.25
611.748	437.25
611.955	445.25
612.163	445.25
612.371	439.25
612.579	443.25
612.787	427.25
612.995	427.25
613.203	420.25
613.411	429.25
613.618	433.25
613.826	404.25
614.034	394.25
614.242	429.25
614.449	420.25
614.657	429.25
614.865	401.25
615.072	428.25
615.28	438.25
615.488	440.25
615.695	414.25
615.903	414.25
616.111	441.25
616.318	447.25
616.526	449.25
616.733	427.25
616.941	417.25
617.148	403.25
617.356	403.25
617.563	425.25
617.771	420.25
617.978	422.25
618.185	424.25
618.393	428.25
618.6	416.25
618.807	411.25
619.015	401.25
619.222	421.25
619.429	421.25
619.637	422.25
619.844	412.25
620.051	411.25
620.258	399.25
620.466	401.25
620.673	385.25
620.88	353.25
621.087	388.25
621.294	412.25
621.501	407.25
621.708	408.25
621.915	399.25
622.122	401.25
622.329	375.25
622.536	398.25
622.743	398.25
622.95	400.25
623.157	390.25
623.364	351.25
623.571	377.25
623.778	380.25
623.985	388.25
624.192	376.25
624.399	357.25
624.606	366.25
624.812	369.25
625.019	377.25
625.226	359.25
625.433	378.25
625.639	349.25
625.846	334.25
626.053	362.25
626.259	357.25
626.466	374.25
626.673	361.25
626.879	361.25
627.086	380.25
627.293	370.25
627.499	352.25
627.706	366.25
627.912	354.25
628.119	352.25
628.325	349.25
628.532	360.25
628.738	344.25
628.945	322.25
629.151	347.25
629.357	342.25
629.564	313.25
629.77	322.25
629.976	353.25
630.183	341.25
630.389	321.25
630.595	325.25
630.802	325.25
631.008	330.25
631.214	320.25
631.42	320.25
631.627	332.25
631.833	317.25
632.039	324.25
632.245	304.25
632.451	330.25
632.657	293.25
632.863	306.25
633.069	311.25
633.275	316.25
633.481	304.25
633.688	305.25
633.893	309.25
634.099	291.25
634.305	320.25
634.511	320.25
634.717	326.25
634.923	299.25
635.129	323.25
635.335	322.25
635.541	304.25
635.747	285.25
635.952	282.25
636.158	309.25
636.364	312.25
636.57	314.25
636.775	304.25
636.981	301.25
637.187	293.25
637.392	311.25
637.598	296.25
637.804	322.25
638.009	301.25
638.215	292.25
638.421	306.25
638.626	290.25
638.832	296.25
639.037	282.25
639.243	294.25
639.448	274.25
639.654	307.25
639.859	285.25
640.065	294.25
640.27	290.25
640.475	281.25
640.681	282.25
640.886	267.25
641.091	293.25
641.297	281.25
641.502	292.25
641.707	284.25
641.913	281.25
642.118	289.25
642.323	283.25
642.528	294.25
642.733	275.25
642.939	279.25
643.144	280.25
643.349	285.25
643.554	274.25
643.759	292.25
643.964	284.25
644.169	282.25
644.374	273.25
644.579	288.25
644.784	290.25
644.989	287.25
645.194	287.25
645.399	275.25
645.604	292.25
645.809	271.25
646.014	313.25
646.219	291.25
646.423	303.25
646.628	282.25
646.833	299.25
647.038	293.25
647.243	289.25
647.447	300.25
647.652	311.25
647.857	297.25
648.062	304.25
648.266	328.25
648.471	319.25
648.676	332.25
648.88	312.25
649.085	319.25
649.289	296.25
649.494	303.25
649.698	308.25
649.903	300.25
650.107	280.25
650.312	283.25
650.516	285.25
650.721	292.25
650.925	288.25
651.13	288.25
651.334	279.25
651.539	282.25
651.743	276.25
651.947	288.25
652.152	275.25
652.356	273.25
652.56	277.25
652.764	268.25
652.969	274.25
653.173	284.25
653.377	278.25
653.581	267.25
653.785	287.25
653.99	278.25
654.194	278.25
654.398	277.25
654.602	292.25
654.806	306.25
655.01	310.25
655.214	328.25
655.418	322.25
655.622	325.25
655.826	346.25
656.03	362.25
656.234	397.25
656.438	414.25
656.642	422.25
656.846	387.25
657.049	352.25
657.253	306.25
657.457	287.25
657.661	262.25
657.865	226.25
658.068	217.25
658.272	207.25
658.476	211.25
658.68	176.25
658.883	180.25
659.087	158.25
659.291	164.25
659.494	132.25
659.698	142.25
659.901	135.25
660.105	121.25
660.309	122.25
660.512	124.25
660.716	120.25
660.919	127.25
661.123	109.25
661.326	124.25
661.53	117.25
661.733	110.25
661.936	106.25
662.14	103.25
662.343	91.25
662.546	90.25
662.75	90.25
662.953	90.25
663.156	93.25
663.36	98.25
663.563	86.25
663.766	92.25
663.969	86.25
664.173	81.25
664.376	83.25
664.579	83.25
664.782	100.25
664.985	85.25
665.188	90.25
665.391	89.25
665.594	73.25
665.797	73.25
666	83.25
666.203	84.25
666.406	82.25
666.609	89.25
666.812	82.25
667.015	82.25
667.218	80.25
667.421	84.25
667.624	82.25
667.827	83.25
668.03	64.25
668.232	85.25
668.435	78.25
668.638	76.25
668.841	76.25
669.043	86.25
669.246	74.25
669.449	80.25
669.651	88.25
669.854	89.25
670.057	89.25
670.259	80.25
670.462	71.25
670.665	80.25
670.867	65.25
671.07	92.25
671.272	89.25
671.475	79.25
671.677	75.25
671.88	86.25
672.082	83.25
672.284	88.25
672.487	94.25
672.689	86.25
672.892	84.25
