Data from NiCl2@0.125M.TitratingCurve.Agarose3%dH2O.NegLispCup.LampEnergy10.LIBS07252019_HRD10591_18-29-43-574.txt Node
Date: Thu Jul 25 18:29:43 EDT 2019
User: cochatt
Spectrometer: HR+D1059
Trigger mode: 1
Integration Time (sec): 1.000000E-1
Scans to average: 1
Electric dark correction enabled: true
Nonlinearity correction enabled: false
Boxcar width: 0
XAxis mode: Wavelengths
Number of Pixels in Spectrum: 2048
>>>>>Begin Spectral Data<<<<<
223.165	-12.56
223.4	-12.56
223.635	-12.56
223.869	-7.56
224.104	-9.56
224.338	-16.56
224.573	-19.56
224.808	-14.56
225.042	-23.56
225.277	-5.56
225.511	-3.56
225.746	7.44
225.98	-0.56
226.215	5.44
226.449	13.44
226.683	25.44
226.918	27.44
227.152	34.44
227.387	48.44
227.621	38.44
227.856	42.44
228.09	39.44
228.324	52.44
228.559	52.44
228.793	67.44
229.027	122.44
229.262	110.44
229.496	112.44
229.73	142.44
229.964	134.44
230.199	118.44
230.433	138.44
230.667	136.44
230.901	123.44
231.136	139.44
231.37	134.44
231.604	152.44
231.838	138.44
232.072	151.44
232.306	177.44
232.541	159.44
232.775	158.44
233.009	174.44
233.243	166.44
233.477	165.44
233.711	161.44
233.945	157.44
234.179	156.44
234.413	157.44
234.647	167.44
234.881	170.44
235.115	149.44
235.349	149.44
235.583	164.44
235.817	150.44
236.051	162.44
236.285	163.44
236.519	165.44
236.753	169.44
236.987	180.44
237.221	151.44
237.455	169.44
237.689	165.44
237.922	179.44
238.156	169.44
238.39	162.44
238.624	171.44
238.858	170.44
239.091	175.44
239.325	173.44
239.559	200.44
239.793	184.44
240.027	179.44
240.26	187.44
240.494	183.44
240.728	182.44
240.961	199.44
241.195	210.44
241.429	216.44
241.662	215.44
241.896	196.44
242.13	202.44
242.363	203.44
242.597	215.44
242.83	213.44
243.064	226.44
243.298	226.44
243.531	213.44
243.765	217.44
243.998	221.44
244.232	235.44
244.465	227.44
244.699	223.44
244.932	251.44
245.166	231.44
245.399	242.44
245.633	241.44
245.866	219.44
246.099	239.44
246.333	241.44
246.566	239.44
246.8	243.44
247.033	250.44
247.266	246.44
247.5	254.44
247.733	258.44
247.966	258.44
248.2	270.44
248.433	270.44
248.666	271.44
248.899	262.44
249.133	260.44
249.366	271.44
249.599	267.44
249.832	262.44
250.066	287.44
250.299	284.44
250.532	267.44
250.765	275.44
250.998	277.44
251.231	283.44
251.465	287.44
251.698	278.44
251.931	266.44
252.164	292.44
252.397	298.44
252.63	288.44
252.863	303.44
253.096	297.44
253.329	288.44
253.562	304.44
253.795	290.44
254.028	298.44
254.261	287.44
254.494	302.44
254.727	287.44
254.96	293.44
255.193	286.44
255.426	312.44
255.659	314.44
255.892	301.44
256.124	303.44
256.357	302.44
256.59	330.44
256.823	307.44
257.056	315.44
257.289	329.44
257.521	328.44
257.754	320.44
257.987	335.44
258.22	313.44
258.452	330.44
258.685	324.44
258.918	324.44
259.151	334.44
259.383	341.44
259.616	336.44
259.849	325.44
260.081	329.44
260.314	341.44
260.547	356.44
260.779	344.44
261.012	344.44
261.244	351.44
261.477	339.44
261.71	354.44
261.942	352.44
262.175	361.44
262.407	351.44
262.64	346.44
262.872	374.44
263.105	356.44
263.337	367.44
263.57	352.44
263.802	385.44
264.035	377.44
264.267	375.44
264.499	360.44
264.732	375.44
264.964	354.44
265.197	379.44
265.429	387.44
265.661	382.44
265.894	375.44
266.126	385.44
266.358	400.44
266.591	386.44
266.823	381.44
267.055	378.44
267.287	377.44
267.52	380.44
267.752	390.44
267.984	401.44
268.216	403.44
268.448	401.44
268.681	367.44
268.913	412.44
269.145	414.44
269.377	395.44
269.609	401.44
269.841	393.44
270.073	401.44
270.306	400.44
270.538	394.44
270.77	412.44
271.002	437.44
271.234	395.44
271.466	405.44
271.698	396.44
271.93	409.44
272.162	414.44
272.394	401.44
272.626	424.44
272.858	422.44
273.09	429.44
273.322	422.44
273.553	413.44
273.785	446.44
274.017	429.44
274.249	443.44
274.481	453.44
274.713	438.44
274.945	450.44
275.176	454.44
275.408	474.44
275.64	440.44
275.872	439.44
276.104	458.44
276.335	441.44
276.567	446.44
276.799	461.44
277.031	457.44
277.262	459.44
277.494	442.44
277.726	463.44
277.957	466.44
278.189	457.44
278.421	464.44
278.652	455.44
278.884	477.44
279.115	465.44
279.347	484.44
279.579	462.44
279.81	449.44
280.042	470.44
280.273	475.44
280.505	487.44
280.736	489.44
280.968	481.44
281.199	497.44
281.431	498.44
281.662	508.44
281.894	500.44
282.125	502.44
282.356	520.44
282.588	516.44
282.819	496.44
283.051	527.44
283.282	510.44
283.513	538.44
283.745	520.44
283.976	500.44
284.207	531.44
284.439	511.44
284.67	519.44
284.901	516.44
285.132	516.44
285.364	513.44
285.595	548.44
285.826	518.44
286.057	541.44
286.288	529.44
286.52	540.44
286.751	539.44
286.982	552.44
287.213	533.44
287.444	525.44
287.675	540.44
287.906	539.44
288.138	545.44
288.369	555.44
288.6	550.44
288.831	549.44
289.062	559.44
289.293	553.44
289.524	546.44
289.755	558.44
289.986	543.44
290.217	565.44
290.448	550.44
290.679	576.44
290.91	572.44
291.141	560.44
291.371	575.44
291.602	557.44
291.833	553.44
292.064	578.44
292.295	567.44
292.526	579.44
292.757	563.44
292.987	584.44
293.218	564.44
293.449	577.44
293.68	579.44
293.91	551.44
294.141	587.44
294.372	581.44
294.603	576.44
294.833	586.44
295.064	576.44
295.295	577.44
295.525	585.44
295.756	597.44
295.987	586.44
296.217	603.44
296.448	610.44
296.679	571.44
296.909	622.44
297.14	621.44
297.37	626.44
297.601	615.44
297.831	613.44
298.062	605.44
298.292	648.44
298.523	660.44
298.753	647.44
298.984	619.44
299.214	625.44
299.445	612.44
299.675	637.44
299.905	633.44
300.136	629.44
300.366	629.44
300.597	643.44
300.827	655.44
301.057	654.44
301.288	674.44
301.518	651.44
301.748	651.44
301.979	666.44
302.209	647.44
302.439	644.44
302.669	658.44
302.9	650.44
303.13	661.44
303.36	631.44
303.59	633.44
303.82	632.44
304.051	641.44
304.281	645.44
304.511	641.44
304.741	664.44
304.971	630.44
305.201	633.44
305.431	626.44
305.661	622.44
305.891	591.44
306.121	632.44
306.352	644.44
306.582	622.44
306.812	627.44
307.042	665.44
307.272	631.44
307.502	602.44
307.731	619.44
307.961	611.44
308.191	610.44
308.421	623.44
308.651	600.44
308.881	617.44
309.111	631.44
309.341	625.44
309.571	633.44
309.8	614.44
310.03	628.44
310.26	615.44
310.49	623.44
310.72	625.44
310.949	648.44
311.179	646.44
311.409	639.44
311.639	633.44
311.868	640.44
312.098	624.44
312.328	642.44
312.557	640.44
312.787	649.44
313.017	665.44
313.246	655.44
313.476	681.44
313.706	678.44
313.935	667.44
314.165	671.44
314.394	694.44
314.624	681.44
314.853	673.44
315.083	663.44
315.312	658.44
315.542	685.44
315.771	647.44
316.001	681.44
316.23	687.44
316.46	645.44
316.689	642.44
316.919	679.44
317.148	640.44
317.377	660.44
317.607	641.44
317.836	654.44
318.065	649.44
318.295	672.44
318.524	662.44
318.753	634.44
318.983	624.44
319.212	633.44
319.441	658.44
319.67	664.44
319.9	645.44
320.129	634.44
320.358	658.44
320.587	643.44
320.816	664.44
321.046	639.44
321.275	645.44
321.504	659.44
321.733	666.44
321.962	667.44
322.191	699.44
322.42	665.44
322.649	661.44
322.878	673.44
323.108	661.44
323.337	661.44
323.566	659.44
323.795	657.44
324.024	662.44
324.253	674.44
324.482	693.44
324.71	692.44
324.939	699.44
325.168	667.44
325.397	690.44
325.626	686.44
325.855	667.44
326.084	698.44
326.313	713.44
326.542	722.44
326.77	736.44
326.999	718.44
327.228	692.44
327.457	696.44
327.686	721.44
327.914	720.44
328.143	745.44
328.372	740.44
328.6	702.44
328.829	712.44
329.058	725.44
329.287	717.44
329.515	732.44
329.744	741.44
329.972	727.44
330.201	750.44
330.43	742.44
330.658	741.44
330.887	733.44
331.115	744.44
331.344	741.44
331.572	740.44
331.801	790.44
332.03	794.44
332.258	809.44
332.486	823.44
332.715	872.44
332.943	887.44
333.172	901.44
333.4	989.44
333.629	1010.44
333.857	1007.44
334.085	971.44
334.314	970.44
334.542	925.44
334.771	906.44
334.999	910.44
335.227	883.44
335.455	899.44
335.684	872.44
335.912	867.44
336.14	888.44
336.369	872.44
336.597	891.44
336.825	843.44
337.053	862.44
337.281	865.44
337.51	842.44
337.738	825.44
337.966	777.44
338.194	780.44
338.422	798.44
338.65	784.44
338.878	809.44
339.106	787.44
339.334	787.44
339.562	787.44
339.79	756.44
340.018	758.44
340.246	727.44
340.474	744.44
340.702	761.44
340.93	767.44
341.158	758.44
341.386	741.44
341.614	749.44
341.842	739.44
342.07	743.44
342.298	747.44
342.526	744.44
342.754	722.44
342.981	760.44
343.209	759.44
343.437	795.44
343.665	835.44
343.893	920.44
344.12	935.44
344.348	885.44
344.576	854.44
344.804	805.44
345.031	781.44
345.259	761.44
345.487	769.44
345.714	747.44
345.942	735.44
346.17	734.44
346.397	743.44
346.625	737.44
346.853	725.44
347.08	724.44
347.308	725.44
347.535	763.44
347.763	750.44
347.99	749.44
348.218	768.44
348.445	723.44
348.673	734.44
348.9	731.44
349.128	725.44
349.355	715.44
349.583	719.44
349.81	700.44
350.037	696.44
350.265	709.44
350.492	704.44
350.72	679.44
350.947	691.44
351.174	722.44
351.402	706.44
351.629	685.44
351.856	681.44
352.083	677.44
352.311	680.44
352.538	687.44
352.765	685.44
352.992	689.44
353.22	674.44
353.447	690.44
353.674	693.44
353.901	681.44
354.128	682.44
354.355	684.44
354.583	696.44
354.81	711.44
355.037	694.44
355.264	713.44
355.491	706.44
355.718	681.44
355.945	705.44
356.172	689.44
356.399	717.44
356.626	694.44
356.853	685.44
357.08	686.44
357.307	713.44
357.534	676.44
357.761	707.44
357.988	721.44
358.215	692.44
358.441	697.44
358.668	687.44
358.895	692.44
359.122	699.44
359.349	695.44
359.576	707.44
359.802	720.44
360.029	699.44
360.256	688.44
360.483	708.44
360.709	689.44
360.936	704.44
361.163	700.44
361.39	703.44
361.616	711.44
361.843	685.44
362.07	683.44
362.296	688.44
362.523	691.44
362.749	695.44
362.976	706.44
363.203	681.44
363.429	678.44
363.656	699.44
363.882	685.44
364.109	729.44
364.335	691.44
364.562	706.44
364.788	702.44
365.015	677.44
365.241	683.44
365.468	705.44
365.694	699.44
365.92	696.44
366.147	697.44
366.373	692.44
366.599	681.44
366.826	697.44
367.052	705.44
367.278	699.44
367.505	709.44
367.731	710.44
367.957	710.44
368.184	707.44
368.41	676.44
368.636	681.44
368.862	697.44
369.089	711.44
369.315	710.44
369.541	721.44
369.767	698.44
369.993	714.44
370.219	721.44
370.445	746.44
370.672	747.44
370.898	740.44
371.124	747.44
371.35	774.44
371.576	769.44
371.802	768.44
372.028	715.44
372.254	788.44
372.48	785.44
372.706	756.44
372.932	782.44
373.158	806.44
373.384	797.44
373.61	771.44
373.835	747.44
374.061	741.44
374.287	773.44
374.513	764.44
374.739	777.44
374.965	843.44
375.191	856.44
375.416	874.44
375.642	820.44
375.868	836.44
376.094	779.44
376.319	786.44
376.545	795.44
376.771	759.44
376.997	779.44
377.222	771.44
377.448	755.44
377.674	789.44
377.899	761.44
378.125	750.44
378.35	771.44
378.576	733.44
378.802	738.44
379.027	734.44
379.253	777.44
379.478	765.44
379.704	753.44
379.929	758.44
380.155	749.44
380.38	768.44
380.606	746.44
380.831	738.44
381.057	750.44
381.282	746.44
381.507	750.44
381.733	758.44
381.958	767.44
382.184	780.44
382.409	771.44
382.634	797.44
382.86	807.44
383.085	791.44
383.31	806.44
383.535	833.44
383.761	847.44
383.986	852.44
384.211	872.44
384.436	900.44
384.662	899.44
384.887	914.44
385.112	923.44
385.337	929.44
385.562	912.44
385.787	925.44
386.013	917.44
386.238	938.44
386.463	928.44
386.688	921.44
386.913	930.44
387.138	918.44
387.363	913.44
387.588	905.44
387.813	906.44
388.038	902.44
388.263	907.44
388.488	894.44
388.713	889.44
388.938	901.44
389.163	888.44
389.387	869.44
389.612	874.44
389.837	875.44
390.062	902.44
390.287	903.44
390.512	881.44
390.736	901.44
390.961	942.44
391.186	918.44
391.411	970.44
391.636	1020.44
391.86	1035.44
392.085	1049.44
392.31	1042.44
392.534	1031.44
392.759	1012.44
392.984	960.44
393.208	966.44
393.433	963.44
393.658	975.44
393.882	981.44
394.107	983.44
394.331	973.44
394.556	981.44
394.78	978.44
395.005	994.44
395.229	985.44
395.454	1032.44
395.678	1047.44
395.903	1055.44
396.127	1047.44
396.352	979.44
396.576	974.44
396.801	966.44
397.025	991.44
397.249	1007.44
397.474	1031.44
397.698	1031.44
397.922	1059.44
398.147	1001.44
398.371	1039.44
398.595	1077.44
398.82	1158.44
399.044	1225.44
399.268	1361.44
399.492	1537.44
399.717	1841.44
399.941	1839.44
400.165	1626.44
400.389	1446.44
400.613	1282.44
400.837	1223.44
401.062	1157.44
401.286	1135.44
401.51	1154.44
401.734	1129.44
401.958	1137.44
402.182	1160.44
402.406	1181.44
402.63	1198.44
402.854	1252.44
403.078	1262.44
403.302	1294.44
403.526	1313.44
403.75	1346.44
403.974	1355.44
404.198	1368.44
404.422	1338.44
404.645	1336.44
404.869	1328.44
405.093	1336.44
405.317	1321.44
405.541	1302.44
405.765	1308.44
405.988	1286.44
406.212	1308.44
406.436	1285.44
406.66	1299.44
406.883	1305.44
407.107	1395.44
407.331	1461.44
407.555	1563.44
407.778	1498.44
408.002	1480.44
408.226	1422.44
408.449	1391.44
408.673	1329.44
408.896	1376.44
409.12	1307.44
409.344	1335.44
409.567	1347.44
409.791	1340.44
410.014	1336.44
410.238	1318.44
410.461	1315.44
410.685	1310.44
410.908	1302.44
411.132	1242.44
411.355	1201.44
411.578	1209.44
411.802	1170.44
412.025	1208.44
412.249	1230.44
412.472	1250.44
412.695	1227.44
412.919	1172.44
413.142	1149.44
413.365	1149.44
413.589	1199.44
413.812	1139.44
414.035	1124.44
414.258	1130.44
414.482	1169.44
414.705	1209.44
414.928	1186.44
415.151	1167.44
415.374	1194.44
415.597	1161.44
415.821	1145.44
416.044	1118.44
416.267	1121.44
416.49	1118.44
416.713	1129.44
416.936	1133.44
417.159	1175.44
417.382	1121.44
417.605	1147.44
417.828	1138.44
418.051	1161.44
418.274	1180.44
418.497	1155.44
418.72	1224.44
418.943	1195.44
419.166	1257.44
419.389	1368.44
419.611	1348.44
419.834	1235.44
420.057	1211.44
420.28	1194.44
420.503	1172.44
420.726	1139.44
420.948	1135.44
421.171	1143.44
421.394	1143.44
421.617	1167.44
421.839	1143.44
422.062	1165.44
422.285	1163.44
422.507	1179.44
422.73	1166.44
422.953	1181.44
423.175	1218.44
423.398	1271.44
423.621	1255.44
423.843	1257.44
424.066	1282.44
424.288	1205.44
424.511	1229.44
424.733	1212.44
424.956	1224.44
425.178	1169.44
425.401	1189.44
425.623	1181.44
425.846	1113.44
426.068	1114.44
426.291	1125.44
426.513	1100.44
426.735	1078.44
426.958	1084.44
427.18	1074.44
427.402	1088.44
427.625	1072.44
427.847	1017.44
428.069	1016.44
428.292	1065.44
428.514	1014.44
428.736	1019.44
428.958	1034.44
429.181	1013.44
429.403	1002.44
429.625	986.44
429.847	995.44
430.069	1026.44
430.292	1020.44
430.514	1024.44
430.736	1011.44
430.958	1029.44
431.18	989.44
431.402	1002.44
431.624	1035.44
431.846	1044.44
432.068	1012.44
432.29	1057.44
432.512	1014.44
432.734	1035.44
432.956	1025.44
433.178	1010.44
433.4	1028.44
433.622	1056.44
433.844	1055.44
434.066	1051.44
434.287	1081.44
434.509	1118.44
434.731	1141.44
434.953	1158.44
435.175	1164.44
435.397	1194.44
435.618	1114.44
435.84	1108.44
436.062	1067.44
436.284	1041.44
436.505	1020.44
436.727	1038.44
436.949	1053.44
437.17	1014.44
437.392	1023.44
437.614	1035.44
437.835	995.44
438.057	992.44
438.278	1007.44
438.5	1014.44
438.721	991.44
438.943	1017.44
439.165	1003.44
439.386	1013.44
439.608	1061.44
439.829	1048.44
440.05	1039.44
440.272	1013.44
440.493	1042.44
440.715	1033.44
440.936	1082.44
441.158	1096.44
441.379	1091.44
441.6	1167.44
441.822	1201.44
442.043	1210.44
442.264	1129.44
442.486	1155.44
442.707	1157.44
442.928	1155.44
443.149	1156.44
443.371	1130.44
443.592	1149.44
443.813	1183.44
444.034	1177.44
444.255	1232.44
444.476	1275.44
444.698	1352.44
444.919	1455.44
445.14	1509.44
445.361	1346.44
445.582	1226.44
445.803	1155.44
446.024	1102.44
446.245	1085.44
446.466	1096.44
446.687	1034.44
446.908	1040.44
447.129	1036.44
447.35	1016.44
447.571	1002.44
447.792	994.44
448.013	986.44
448.234	966.44
448.455	968.44
448.675	955.44
448.896	952.44
449.117	933.44
449.338	947.44
449.559	939.44
449.779	947.44
450	943.44
450.221	962.44
450.442	970.44
450.662	958.44
450.883	991.44
451.104	1007.44
451.324	976.44
451.545	990.44
451.766	979.44
451.986	952.44
452.207	951.44
452.428	946.44
452.648	942.44
452.869	927.44
453.089	966.44
453.31	938.44
453.53	931.44
453.751	916.44
453.971	914.44
454.192	931.44
454.412	902.44
454.633	913.44
454.853	936.44
455.073	879.44
455.294	877.44
455.514	884.44
455.734	890.44
455.955	864.44
456.175	877.44
456.395	897.44
456.616	888.44
456.836	897.44
457.056	862.44
457.276	847.44
457.497	874.44
457.717	911.44
457.937	907.44
458.157	900.44
458.377	897.44
458.598	924.44
458.818	958.44
459.038	942.44
459.258	1026.44
459.478	1082.44
459.698	1069.44
459.918	1102.44
460.138	1151.44
460.358	1232.44
460.578	1256.44
460.798	1238.44
461.018	1274.44
461.238	1220.44
461.458	1227.44
461.678	1239.44
461.898	1224.44
462.118	1256.44
462.338	1295.44
462.558	1375.44
462.777	1410.44
462.997	1567.44
463.217	1726.44
463.437	1716.44
463.657	1588.44
463.876	1501.44
464.096	1497.44
464.316	1482.44
464.536	1472.44
464.755	1425.44
464.975	1361.44
465.195	1287.44
465.414	1233.44
465.634	1113.44
465.854	1102.44
466.073	1078.44
466.293	1052.44
466.512	1037.44
466.732	1033.44
466.951	985.44
467.171	1017.44
467.391	1021.44
467.61	998.44
467.829	1010.44
468.049	986.44
468.268	982.44
468.488	953.44
468.707	958.44
468.927	921.44
469.146	975.44
469.365	969.44
469.585	965.44
469.804	1001.44
470.023	1014.44
470.243	1018.44
470.462	1035.44
470.681	1065.44
470.901	1053.44
471.12	1051.44
471.339	1028.44
471.558	1009.44
471.777	1006.44
471.997	957.44
472.216	943.44
472.435	968.44
472.654	950.44
472.873	944.44
473.092	951.44
473.311	903.44
473.53	928.44
473.749	912.44
473.968	927.44
474.187	917.44
474.406	919.44
474.625	913.44
474.844	935.44
475.063	962.44
475.282	920.44
475.501	959.44
475.72	942.44
475.939	972.44
476.158	985.44
476.377	994.44
476.596	975.44
476.814	996.44
477.033	1006.44
477.252	1009.44
477.471	1037.44
477.69	1075.44
477.908	1099.44
478.127	1094.44
478.346	1125.44
478.564	1118.44
478.783	1137.44
479.002	1213.44
479.22	1167.44
479.439	1232.44
479.658	1188.44
479.876	1173.44
480.095	1178.44
480.313	1241.44
480.532	1309.44
480.751	1286.44
480.969	1238.44
481.188	1163.44
481.406	1137.44
481.624	1124.44
481.843	1061.44
482.061	1096.44
482.28	1078.44
482.498	1066.44
482.717	1063.44
482.935	1102.44
483.153	1076.44
483.372	1099.44
483.59	1081.44
483.808	1078.44
484.027	1067.44
484.245	1086.44
484.463	1080.44
484.681	1108.44
484.9	1090.44
485.118	1113.44
485.336	1141.44
485.554	1102.44
485.772	1118.44
485.99	1144.44
486.209	1176.44
486.427	1148.44
486.645	1131.44
486.863	1151.44
487.081	1136.44
487.299	1127.44
487.517	1104.44
487.735	1149.44
487.953	1100.44
488.171	1149.44
488.389	1116.44
488.607	1120.44
488.825	1078.44
489.043	1100.44
489.261	1124.44
489.479	1113.44
489.696	1077.44
489.914	1158.44
490.132	1149.44
490.35	1111.44
490.568	1123.44
490.786	1141.44
491.003	1119.44
491.221	1130.44
491.439	1131.44
491.657	1123.44
491.874	1128.44
492.092	1137.44
492.31	1150.44
492.527	1167.44
492.745	1122.44
492.963	1167.44
493.18	1157.44
493.398	1140.44
493.615	1188.44
493.833	1155.44
494.05	1190.44
494.268	1182.44
494.485	1178.44
494.703	1151.44
494.92	1214.44
495.138	1193.44
495.355	1176.44
495.573	1207.44
495.79	1180.44
496.008	1185.44
496.225	1198.44
496.442	1239.44
496.66	1239.44
496.877	1219.44
497.094	1275.44
497.312	1290.44
497.529	1290.44
497.746	1349.44
497.963	1423.44
498.181	1437.44
498.398	1464.44
498.615	1586.44
498.832	1677.44
499.049	1827.44
499.267	1999.44
499.484	2175.44
499.701	2432.44
499.918	2699.44
500.135	3120.44
500.352	3627.44
500.569	3866.44
500.786	3750.44
501.003	3457.44
501.22	3175.44
501.437	2703.44
501.654	2333.44
501.871	2118.44
502.088	1915.44
502.305	1803.44
502.522	1685.44
502.739	1636.44
502.956	1526.44
503.172	1453.44
503.389	1408.44
503.606	1407.44
503.823	1360.44
504.04	1376.44
504.256	1358.44
504.473	1382.44
504.69	1435.44
504.907	1446.44
505.123	1309.44
505.34	1243.44
505.557	1187.44
505.773	1157.44
505.99	1120.44
506.207	1089.44
506.423	1110.44
506.64	1085.44
506.856	1094.44
507.073	1069.44
507.289	1038.44
507.506	1030.44
507.722	1030.44
507.939	1024.44
508.155	1022.44
508.372	1000.44
508.588	990.44
508.805	1022.44
509.021	972.44
509.238	999.44
509.454	993.44
509.67	965.44
509.887	981.44
510.103	951.44
510.319	966.44
510.536	965.44
510.752	933.44
510.968	956.44
511.184	963.44
511.401	927.44
511.617	930.44
511.833	954.44
512.049	944.44
512.265	926.44
512.481	934.44
512.698	946.44
512.914	949.44
513.13	944.44
513.346	949.44
513.562	937.44
513.778	958.44
513.994	934.44
514.21	956.44
514.426	952.44
514.642	970.44
514.858	1017.44
515.074	980.44
515.29	997.44
515.506	972.44
515.721	1021.44
515.937	1012.44
516.153	1034.44
516.369	1039.44
516.585	1103.44
516.801	1129.44
517.016	1146.44
517.232	1248.44
517.448	1306.44
517.664	1382.44
517.879	1353.44
518.095	1367.44
518.311	1338.44
518.527	1293.44
518.742	1207.44
518.958	1157.44
519.173	1130.44
519.389	1098.44
519.605	1039.44
519.82	1023.44
520.036	1001.44
520.251	982.44
520.467	970.44
520.682	970.44
520.898	956.44
521.113	935.44
521.329	949.44
521.544	950.44
521.76	956.44
521.975	936.44
522.19	933.44
522.406	914.44
522.621	921.44
522.836	891.44
523.052	911.44
523.267	877.44
523.482	880.44
523.698	866.44
523.913	873.44
524.128	888.44
524.343	891.44
524.559	868.44
524.774	879.44
524.989	886.44
525.204	897.44
525.419	899.44
525.634	840.44
525.849	882.44
526.064	879.44
526.28	846.44
526.495	842.44
526.71	874.44
526.925	836.44
527.14	846.44
527.355	848.44
527.57	875.44
527.785	866.44
527.999	871.44
528.214	880.44
528.429	874.44
528.644	857.44
528.859	864.44
529.074	879.44
529.289	844.44
529.503	882.44
529.718	863.44
529.933	855.44
530.148	890.44
530.363	889.44
530.577	866.44
530.792	849.44
531.007	862.44
531.221	877.44
531.436	837.44
531.651	858.44
531.865	869.44
532.08	859.44
532.295	846.44
532.509	864.44
532.724	857.44
532.938	851.44
533.153	852.44
533.367	870.44
533.582	875.44
533.796	858.44
534.011	855.44
534.225	880.44
534.44	865.44
534.654	854.44
534.868	859.44
535.083	859.44
535.297	843.44
535.511	849.44
535.726	841.44
535.94	835.44
536.154	820.44
536.369	824.44
536.583	819.44
536.797	809.44
537.011	826.44
537.225	777.44
537.44	804.44
537.654	797.44
537.868	816.44
538.082	783.44
538.296	787.44
538.51	786.44
538.724	808.44
538.938	802.44
539.153	782.44
539.367	807.44
539.581	787.44
539.795	748.44
540.009	751.44
540.222	762.44
540.436	773.44
540.65	775.44
540.864	767.44
541.078	785.44
541.292	771.44
541.506	768.44
541.72	776.44
541.934	782.44
542.147	765.44
542.361	769.44
542.575	763.44
542.789	753.44
543.002	726.44
543.216	755.44
543.43	728.44
543.644	757.44
543.857	757.44
544.071	730.44
544.285	793.44
544.498	768.44
544.712	749.44
544.925	790.44
545.139	809.44
545.352	765.44
545.566	789.44
545.779	770.44
545.993	789.44
546.206	798.44
546.42	775.44
546.633	775.44
546.847	796.44
547.06	766.44
547.274	802.44
547.487	779.44
547.7	799.44
547.914	764.44
548.127	794.44
548.34	806.44
548.554	804.44
548.767	794.44
548.98	811.44
549.193	809.44
549.407	790.44
549.62	817.44
549.833	846.44
550.046	837.44
550.259	794.44
550.473	774.44
550.686	772.44
550.899	773.44
551.112	770.44
551.325	770.44
551.538	770.44
551.751	751.44
551.964	794.44
552.177	779.44
552.39	789.44
552.603	837.44
552.816	818.44
553.029	866.44
553.242	875.44
553.455	899.44
553.667	895.44
553.88	865.44
554.093	865.44
554.306	830.44
554.519	829.44
554.732	793.44
554.944	763.44
555.157	763.44
555.37	753.44
555.583	743.44
555.795	719.44
556.008	713.44
556.221	710.44
556.433	687.44
556.646	702.44
556.859	678.44
557.071	659.44
557.284	688.44
557.496	685.44
557.709	662.44
557.921	677.44
558.134	653.44
558.346	668.44
558.559	666.44
558.771	660.44
558.984	666.44
559.196	679.44
559.409	676.44
559.621	652.44
559.833	659.44
560.046	644.44
560.258	653.44
560.47	649.44
560.683	641.44
560.895	649.44
561.107	640.44
561.32	652.44
561.532	641.44
561.744	673.44
561.956	638.44
562.168	636.44
562.381	666.44
562.593	648.44
562.805	653.44
563.017	656.44
563.229	650.44
563.441	658.44
563.653	684.44
563.865	670.44
564.077	663.44
564.289	687.44
564.501	675.44
564.713	706.44
564.925	706.44
565.137	716.44
565.349	726.44
565.561	743.44
565.773	784.44
565.985	813.44
566.197	854.44
566.408	929.44
566.62	1010.44
566.832	1088.44
567.044	1093.44
567.255	1107.44
567.467	1125.44
567.679	1221.44
567.891	1269.44
568.102	1356.44
568.314	1289.44
568.526	1141.44
568.737	1002.44
568.949	928.44
569.161	862.44
569.372	773.44
569.584	754.44
569.795	725.44
570.007	703.44
570.218	690.44
570.43	690.44
570.641	676.44
570.853	691.44
571.064	677.44
571.276	701.44
571.487	685.44
571.698	662.44
571.91	631.44
572.121	606.44
572.333	605.44
572.544	614.44
572.755	550.44
572.966	572.44
573.178	593.44
573.389	551.44
573.6	560.44
573.811	549.44
574.023	532.44
574.234	548.44
574.445	535.44
574.656	553.44
574.867	532.44
575.078	561.44
575.289	542.44
575.501	541.44
575.712	535.44
575.923	524.44
576.134	497.44
576.345	539.44
576.556	515.44
576.767	530.44
576.978	522.44
577.188	495.44
577.399	527.44
577.61	513.44
577.821	488.44
578.032	505.44
578.243	491.44
578.454	495.44
578.665	483.44
578.875	509.44
579.086	488.44
579.297	478.44
579.508	472.44
579.718	485.44
579.929	463.44
580.14	473.44
580.35	464.44
580.561	470.44
580.772	461.44
580.982	485.44
581.193	465.44
581.403	468.44
581.614	462.44
581.825	448.44
582.035	446.44
582.246	473.44
582.456	471.44
582.667	469.44
582.877	447.44
583.087	438.44
583.298	469.44
583.508	449.44
583.719	448.44
583.929	459.44
584.139	447.44
584.35	465.44
584.56	455.44
584.77	465.44
584.981	431.44
585.191	465.44
585.401	441.44
585.611	458.44
585.821	449.44
586.032	434.44
586.242	431.44
586.452	448.44
586.662	441.44
586.872	432.44
587.082	443.44
587.292	435.44
587.502	415.44
587.713	435.44
587.923	433.44
588.133	439.44
588.343	431.44
588.553	434.44
588.762	435.44
588.972	451.44
589.182	442.44
589.392	443.44
589.602	442.44
589.812	434.44
590.022	448.44
590.232	442.44
590.441	445.44
590.651	439.44
590.861	446.44
591.071	466.44
591.281	446.44
591.49	441.44
591.7	476.44
591.91	472.44
592.119	480.44
592.329	497.44
592.539	509.44
592.748	506.44
592.958	554.44
593.167	562.44
593.377	565.44
593.587	600.44
593.796	582.44
594.006	570.44
594.215	605.44
594.424	567.44
594.634	574.44
594.843	531.44
595.053	518.44
595.262	487.44
595.472	499.44
595.681	455.44
595.89	471.44
596.1	440.44
596.309	434.44
596.518	442.44
596.727	421.44
596.937	422.44
597.146	414.44
597.355	415.44
597.564	390.44
597.774	398.44
597.983	399.44
598.192	394.44
598.401	387.44
598.61	386.44
598.819	382.44
599.028	401.44
599.237	379.44
599.446	382.44
599.655	390.44
599.864	370.44
600.073	351.44
600.282	368.44
600.491	373.44
600.7	370.44
600.909	352.44
601.118	356.44
601.327	352.44
601.536	383.44
601.745	365.44
601.953	371.44
602.162	373.44
602.371	367.44
602.58	368.44
602.789	368.44
602.997	354.44
603.206	345.44
603.415	358.44
603.623	367.44
603.832	345.44
604.041	352.44
604.249	360.44
604.458	340.44
604.666	354.44
604.875	365.44
605.084	329.44
605.292	337.44
605.501	336.44
605.709	336.44
605.918	355.44
606.126	337.44
606.334	321.44
606.543	328.44
606.751	343.44
606.96	315.44
607.168	351.44
607.376	327.44
607.585	366.44
607.793	333.44
608.001	333.44
608.21	351.44
608.418	346.44
608.626	343.44
608.834	329.44
609.043	330.44
609.251	325.44
609.459	342.44
609.667	350.44
609.875	327.44
610.083	349.44
610.291	342.44
610.499	337.44
610.707	321.44
610.916	340.44
611.124	315.44
611.332	307.44
611.54	342.44
611.748	340.44
611.955	319.44
612.163	323.44
612.371	321.44
612.579	323.44
612.787	319.44
612.995	313.44
613.203	332.44
613.411	329.44
613.618	317.44
613.826	332.44
614.034	324.44
614.242	312.44
614.449	305.44
614.657	328.44
614.865	307.44
615.072	341.44
615.28	313.44
615.488	314.44
615.695	302.44
615.903	338.44
616.111	307.44
616.318	335.44
616.526	318.44
616.733	311.44
616.941	319.44
617.148	325.44
617.356	329.44
617.563	308.44
617.771	332.44
617.978	326.44
618.185	324.44
618.393	322.44
618.6	308.44
618.807	327.44
619.015	309.44
619.222	308.44
619.429	332.44
619.637	316.44
619.844	308.44
620.051	323.44
620.258	304.44
620.466	283.44
620.673	295.44
620.88	281.44
621.087	283.44
621.294	289.44
621.501	282.44
621.708	288.44
621.915	310.44
622.122	285.44
622.329	276.44
622.536	313.44
622.743	298.44
622.95	288.44
623.157	289.44
623.364	299.44
623.571	291.44
623.778	279.44
623.985	297.44
624.192	294.44
624.399	271.44
624.606	284.44
624.812	277.44
625.019	299.44
625.226	288.44
625.433	284.44
625.639	270.44
625.846	268.44
626.053	294.44
626.259	281.44
626.466	280.44
626.673	258.44
626.879	267.44
627.086	269.44
627.293	271.44
627.499	253.44
627.706	275.44
627.912	260.44
628.119	254.44
628.325	264.44
628.532	261.44
628.738	271.44
628.945	273.44
629.151	250.44
629.357	272.44
629.564	250.44
629.77	253.44
629.976	257.44
630.183	263.44
630.389	266.44
630.595	256.44
630.802	277.44
631.008	239.44
631.214	247.44
631.42	255.44
631.627	242.44
631.833	231.44
632.039	235.44
632.245	237.44
632.451	255.44
632.657	245.44
632.863	240.44
633.069	246.44
633.275	238.44
633.481	247.44
633.688	237.44
633.893	234.44
634.099	222.44
634.305	242.44
634.511	231.44
634.717	252.44
634.923	243.44
635.129	230.44
635.335	227.44
635.541	230.44
635.747	228.44
635.952	226.44
636.158	243.44
636.364	231.44
636.57	231.44
636.775	228.44
636.981	225.44
637.187	252.44
637.392	219.44
637.598	224.44
637.804	192.44
638.009	243.44
638.215	239.44
638.421	210.44
638.626	219.44
638.832	214.44
639.037	209.44
639.243	216.44
639.448	235.44
639.654	226.44
639.859	236.44
640.065	229.44
640.27	213.44
640.475	213.44
640.681	228.44
640.886	210.44
641.091	217.44
641.297	209.44
641.502	216.44
641.707	227.44
641.913	221.44
642.118	203.44
642.323	211.44
642.528	202.44
642.733	217.44
642.939	213.44
643.144	209.44
643.349	201.44
643.554	212.44
643.759	202.44
643.964	208.44
644.169	204.44
644.374	209.44
644.579	214.44
644.784	217.44
644.989	211.44
645.194	214.44
645.399	202.44
645.604	195.44
645.809	203.44
646.014	215.44
646.219	192.44
646.423	185.44
646.628	211.44
646.833	218.44
647.038	202.44
647.243	218.44
647.447	219.44
647.652	207.44
647.857	217.44
648.062	230.44
648.266	229.44
648.471	229.44
648.676	235.44
648.88	227.44
649.085	224.44
649.289	218.44
649.494	192.44
649.698	207.44
649.903	202.44
650.107	209.44
650.312	209.44
650.516	200.44
650.721	209.44
650.925	195.44
651.13	192.44
651.334	184.44
651.539	193.44
651.743	186.44
651.947	177.44
652.152	182.44
652.356	187.44
652.56	190.44
652.764	171.44
652.969	181.44
653.173	192.44
653.377	167.44
653.581	179.44
653.785	167.44
653.99	175.44
654.194	164.44
654.398	159.44
654.602	184.44
654.806	173.44
655.01	165.44
655.214	174.44
655.418	151.44
655.622	165.44
655.826	146.44
656.03	159.44
656.234	152.44
656.438	158.44
656.642	167.44
656.846	139.44
657.049	144.44
657.253	154.44
657.457	143.44
657.661	139.44
657.865	132.44
658.068	131.44
658.272	131.44
658.476	113.44
658.68	121.44
658.883	114.44
659.087	121.44
659.291	109.44
659.494	114.44
659.698	115.44
659.901	117.44
660.105	104.44
660.309	109.44
660.512	94.44
660.716	112.44
660.919	107.44
661.123	98.44
661.326	101.44
661.53	99.44
661.733	111.44
661.936	84.44
662.14	86.44
662.343	91.44
662.546	74.44
662.75	97.44
662.953	67.44
663.156	80.44
663.36	79.44
663.563	77.44
663.766	98.44
663.969	84.44
664.173	71.44
664.376	84.44
664.579	94.44
664.782	73.44
664.985	73.44
665.188	80.44
665.391	84.44
665.594	90.44
665.797	75.44
666	76.44
666.203	62.44
666.406	77.44
666.609	67.44
666.812	71.44
667.015	76.44
667.218	89.44
667.421	78.44
667.624	81.44
667.827	80.44
668.03	68.44
668.232	74.44
668.435	78.44
668.638	77.44
668.841	90.44
669.043	87.44
669.246	80.44
669.449	75.44
669.651	83.44
669.854	78.44
670.057	68.44
670.259	81.44
670.462	75.44
670.665	78.44
670.867	91.44
671.07	83.44
671.272	82.44
671.475	81.44
671.677	85.44
671.88	82.44
672.082	86.44
672.284	76.44
672.487	78.44
672.689	74.44
672.892	85.44
