Data from NiCl2@0.5M.TitratingCurve.Agarose3%dH2O.NegLispCup.LampEnergy10.LIBS07252019_HRD10591_18-19-35-570.txt Node
Date: Thu Jul 25 18:19:35 EDT 2019
User: cochatt
Spectrometer: HR+D1059
Trigger mode: 1
Integration Time (sec): 1.000000E-1
Scans to average: 1
Electric dark correction enabled: true
Nonlinearity correction enabled: false
Boxcar width: 0
XAxis mode: Wavelengths
Number of Pixels in Spectrum: 2048
>>>>>Begin Spectral Data<<<<<
223.165	-20.88
223.4	-20.88
223.635	-20.88
223.869	-21.88
224.104	-7.88
224.338	-16.88
224.573	8.12
224.808	-11.88
225.042	-23.88
225.277	-1.88
225.511	-9.88
225.746	-9.88
225.98	16.12
226.215	8.12
226.449	23.12
226.683	10.12
226.918	22.12
227.152	37.12
227.387	24.12
227.621	58.12
227.856	41.12
228.09	46.12
228.324	51.12
228.559	56.12
228.793	72.12
229.027	106.12
229.262	113.12
229.496	126.12
229.73	113.12
229.964	123.12
230.199	148.12
230.433	134.12
230.667	148.12
230.901	137.12
231.136	140.12
231.37	129.12
231.604	156.12
231.838	159.12
232.072	147.12
232.306	161.12
232.541	166.12
232.775	143.12
233.009	152.12
233.243	146.12
233.477	144.12
233.711	148.12
233.945	147.12
234.179	155.12
234.413	151.12
234.647	166.12
234.881	143.12
235.115	158.12
235.349	148.12
235.583	167.12
235.817	144.12
236.051	141.12
236.285	142.12
236.519	149.12
236.753	157.12
236.987	158.12
237.221	169.12
237.455	161.12
237.689	155.12
237.922	155.12
238.156	170.12
238.39	166.12
238.624	171.12
238.858	175.12
239.091	162.12
239.325	166.12
239.559	160.12
239.793	175.12
240.027	165.12
240.26	185.12
240.494	164.12
240.728	175.12
240.961	160.12
241.195	188.12
241.429	182.12
241.662	178.12
241.896	186.12
242.13	198.12
242.363	193.12
242.597	198.12
242.83	204.12
243.064	202.12
243.298	194.12
243.531	192.12
243.765	198.12
243.998	198.12
244.232	225.12
244.465	212.12
244.699	201.12
244.932	200.12
245.166	193.12
245.399	214.12
245.633	216.12
245.866	208.12
246.099	217.12
246.333	214.12
246.566	222.12
246.8	228.12
247.033	231.12
247.266	238.12
247.5	220.12
247.733	229.12
247.966	224.12
248.2	235.12
248.433	222.12
248.666	212.12
248.899	228.12
249.133	236.12
249.366	238.12
249.599	229.12
249.832	251.12
250.066	234.12
250.299	225.12
250.532	248.12
250.765	242.12
250.998	256.12
251.231	259.12
251.465	257.12
251.698	261.12
251.931	250.12
252.164	258.12
252.397	253.12
252.63	262.12
252.863	255.12
253.096	269.12
253.329	244.12
253.562	243.12
253.795	262.12
254.028	270.12
254.261	270.12
254.494	277.12
254.727	259.12
254.96	256.12
255.193	272.12
255.426	286.12
255.659	288.12
255.892	280.12
256.124	290.12
256.357	281.12
256.59	287.12
256.823	300.12
257.056	292.12
257.289	290.12
257.521	280.12
257.754	289.12
257.987	296.12
258.22	284.12
258.452	295.12
258.685	306.12
258.918	274.12
259.151	301.12
259.383	309.12
259.616	304.12
259.849	311.12
260.081	288.12
260.314	310.12
260.547	315.12
260.779	311.12
261.012	321.12
261.244	335.12
261.477	338.12
261.71	322.12
261.942	334.12
262.175	322.12
262.407	336.12
262.64	322.12
262.872	319.12
263.105	319.12
263.337	342.12
263.57	331.12
263.802	314.12
264.035	328.12
264.267	340.12
264.499	333.12
264.732	324.12
264.964	326.12
265.197	326.12
265.429	362.12
265.661	357.12
265.894	336.12
266.126	367.12
266.358	361.12
266.591	354.12
266.823	366.12
267.055	359.12
267.287	352.12
267.52	359.12
267.752	350.12
267.984	364.12
268.216	355.12
268.448	376.12
268.681	373.12
268.913	355.12
269.145	358.12
269.377	355.12
269.609	402.12
269.841	374.12
270.073	367.12
270.306	397.12
270.538	375.12
270.77	374.12
271.002	372.12
271.234	385.12
271.466	373.12
271.698	383.12
271.93	398.12
272.162	376.12
272.394	383.12
272.626	377.12
272.858	397.12
273.09	375.12
273.322	398.12
273.553	396.12
273.785	391.12
274.017	399.12
274.249	396.12
274.481	386.12
274.713	400.12
274.945	393.12
275.176	421.12
275.408	395.12
275.64	406.12
275.872	384.12
276.104	406.12
276.335	406.12
276.567	434.12
276.799	428.12
277.031	414.12
277.262	419.12
277.494	423.12
277.726	430.12
277.957	415.12
278.189	430.12
278.421	437.12
278.652	427.12
278.884	413.12
279.115	423.12
279.347	436.12
279.579	440.12
279.81	443.12
280.042	441.12
280.273	441.12
280.505	445.12
280.736	462.12
280.968	436.12
281.199	446.12
281.431	464.12
281.662	448.12
281.894	453.12
282.125	448.12
282.356	456.12
282.588	461.12
282.819	454.12
283.051	456.12
283.282	458.12
283.513	442.12
283.745	443.12
283.976	446.12
284.207	476.12
284.439	472.12
284.67	451.12
284.901	469.12
285.132	488.12
285.364	477.12
285.595	479.12
285.826	471.12
286.057	501.12
286.288	462.12
286.52	481.12
286.751	482.12
286.982	482.12
287.213	478.12
287.444	485.12
287.675	502.12
287.906	506.12
288.138	508.12
288.369	504.12
288.6	485.12
288.831	491.12
289.062	515.12
289.293	517.12
289.524	514.12
289.755	485.12
289.986	520.12
290.217	522.12
290.448	499.12
290.679	500.12
290.91	513.12
291.141	516.12
291.371	534.12
291.602	534.12
291.833	489.12
292.064	529.12
292.295	530.12
292.526	522.12
292.757	525.12
292.987	511.12
293.218	516.12
293.449	528.12
293.68	518.12
293.91	526.12
294.141	525.12
294.372	522.12
294.603	527.12
294.833	526.12
295.064	531.12
295.295	516.12
295.525	510.12
295.756	548.12
295.987	525.12
296.217	541.12
296.448	540.12
296.679	539.12
296.909	562.12
297.14	562.12
297.37	563.12
297.601	552.12
297.831	543.12
298.062	552.12
298.292	572.12
298.523	573.12
298.753	572.12
298.984	572.12
299.214	579.12
299.445	573.12
299.675	578.12
299.905	566.12
300.136	586.12
300.366	616.12
300.597	592.12
300.827	619.12
301.057	594.12
301.288	607.12
301.518	607.12
301.748	597.12
301.979	574.12
302.209	607.12
302.439	589.12
302.669	576.12
302.9	585.12
303.13	592.12
303.36	607.12
303.59	613.12
303.82	600.12
304.051	626.12
304.281	638.12
304.511	609.12
304.741	626.12
304.971	612.12
305.201	624.12
305.431	611.12
305.661	600.12
305.891	599.12
306.121	582.12
306.352	585.12
306.582	585.12
306.812	599.12
307.042	569.12
307.272	575.12
307.502	595.12
307.731	580.12
307.961	569.12
308.191	593.12
308.421	570.12
308.651	605.12
308.881	595.12
309.111	603.12
309.341	604.12
309.571	614.12
309.8	607.12
310.03	611.12
310.26	631.12
310.49	598.12
310.72	598.12
310.949	631.12
311.179	628.12
311.409	602.12
311.639	626.12
311.868	596.12
312.098	652.12
312.328	636.12
312.557	604.12
312.787	621.12
313.017	638.12
313.246	652.12
313.476	659.12
313.706	669.12
313.935	654.12
314.165	614.12
314.394	636.12
314.624	656.12
314.853	635.12
315.083	643.12
315.312	630.12
315.542	662.12
315.771	629.12
316.001	638.12
316.23	642.12
316.46	633.12
316.689	651.12
316.919	632.12
317.148	629.12
317.377	633.12
317.607	640.12
317.836	627.12
318.065	641.12
318.295	623.12
318.524	638.12
318.753	622.12
318.983	632.12
319.212	622.12
319.441	644.12
319.67	639.12
319.9	612.12
320.129	622.12
320.358	644.12
320.587	642.12
320.816	632.12
321.046	628.12
321.275	646.12
321.504	636.12
321.733	657.12
321.962	652.12
322.191	681.12
322.42	667.12
322.649	643.12
322.878	666.12
323.108	651.12
323.337	662.12
323.566	657.12
323.795	674.12
324.024	671.12
324.253	662.12
324.482	690.12
324.71	677.12
324.939	656.12
325.168	669.12
325.397	663.12
325.626	678.12
325.855	683.12
326.084	657.12
326.313	687.12
326.542	684.12
326.77	687.12
326.999	716.12
327.228	701.12
327.457	688.12
327.686	665.12
327.914	711.12
328.143	694.12
328.372	688.12
328.6	697.12
328.829	700.12
329.058	702.12
329.287	690.12
329.515	711.12
329.744	701.12
329.972	713.12
330.201	697.12
330.43	699.12
330.658	726.12
330.887	709.12
331.115	748.12
331.344	739.12
331.572	747.12
331.801	748.12
332.03	776.12
332.258	759.12
332.486	765.12
332.715	791.12
332.943	781.12
333.172	842.12
333.4	830.12
333.629	848.12
333.857	883.12
334.085	889.12
334.314	868.12
334.542	869.12
334.771	862.12
334.999	839.12
335.227	855.12
335.455	844.12
335.684	838.12
335.912	846.12
336.14	841.12
336.369	847.12
336.597	816.12
336.825	806.12
337.053	834.12
337.281	838.12
337.51	797.12
337.738	809.12
337.966	811.12
338.194	814.12
338.422	792.12
338.65	797.12
338.878	749.12
339.106	782.12
339.334	780.12
339.562	785.12
339.79	735.12
340.018	734.12
340.246	725.12
340.474	743.12
340.702	743.12
340.93	738.12
341.158	750.12
341.386	733.12
341.614	779.12
341.842	766.12
342.07	731.12
342.298	735.12
342.526	743.12
342.754	719.12
342.981	742.12
343.209	732.12
343.437	786.12
343.665	799.12
343.893	820.12
344.12	838.12
344.348	845.12
344.576	797.12
344.804	794.12
345.031	770.12
345.259	752.12
345.487	731.12
345.714	736.12
345.942	761.12
346.17	778.12
346.397	746.12
346.625	726.12
346.853	703.12
347.08	730.12
347.308	722.12
347.535	698.12
347.763	723.12
347.99	712.12
348.218	699.12
348.445	704.12
348.673	699.12
348.9	709.12
349.128	702.12
349.355	724.12
349.583	730.12
349.81	690.12
350.037	681.12
350.265	687.12
350.492	672.12
350.72	684.12
350.947	698.12
351.174	698.12
351.402	718.12
351.629	718.12
351.856	727.12
352.083	668.12
352.311	685.12
352.538	708.12
352.765	708.12
352.992	662.12
353.22	652.12
353.447	655.12
353.674	651.12
353.901	657.12
354.128	676.12
354.355	652.12
354.583	668.12
354.81	660.12
355.037	670.12
355.264	670.12
355.491	673.12
355.718	656.12
355.945	656.12
356.172	652.12
356.399	671.12
356.626	680.12
356.853	681.12
357.08	664.12
357.307	692.12
357.534	695.12
357.761	653.12
357.988	666.12
358.215	634.12
358.441	662.12
358.668	655.12
358.895	669.12
359.122	670.12
359.349	661.12
359.576	664.12
359.802	661.12
360.029	681.12
360.256	681.12
360.483	673.12
360.709	648.12
360.936	653.12
361.163	669.12
361.39	672.12
361.616	692.12
361.843	702.12
362.07	724.12
362.296	734.12
362.523	676.12
362.749	674.12
362.976	654.12
363.203	645.12
363.429	654.12
363.656	646.12
363.882	657.12
364.109	652.12
364.335	662.12
364.562	656.12
364.788	654.12
365.015	622.12
365.241	656.12
365.468	654.12
365.694	675.12
365.92	669.12
366.147	646.12
366.373	662.12
366.599	653.12
366.826	666.12
367.052	633.12
367.278	669.12
367.505	676.12
367.731	656.12
367.957	676.12
368.184	675.12
368.41	650.12
368.636	670.12
368.862	666.12
369.089	656.12
369.315	685.12
369.541	691.12
369.767	666.12
369.993	678.12
370.219	680.12
370.445	696.12
370.672	692.12
370.898	686.12
371.124	680.12
371.35	681.12
371.576	706.12
371.802	699.12
372.028	676.12
372.254	719.12
372.48	707.12
372.706	701.12
372.932	734.12
373.158	753.12
373.384	717.12
373.61	718.12
373.835	704.12
374.061	687.12
374.287	709.12
374.513	720.12
374.739	738.12
374.965	759.12
375.191	734.12
375.416	734.12
375.642	727.12
375.868	696.12
376.094	707.12
376.319	692.12
376.545	703.12
376.771	727.12
376.997	684.12
377.222	709.12
377.448	678.12
377.674	678.12
377.899	678.12
378.125	697.12
378.35	674.12
378.576	695.12
378.802	684.12
379.027	688.12
379.253	667.12
379.478	664.12
379.704	677.12
379.929	669.12
380.155	662.12
380.38	675.12
380.606	685.12
380.831	676.12
381.057	654.12
381.282	668.12
381.507	706.12
381.733	687.12
381.958	687.12
382.184	686.12
382.409	694.12
382.634	692.12
382.86	692.12
383.085	695.12
383.31	691.12
383.535	720.12
383.761	713.12
383.986	755.12
384.211	737.12
384.436	763.12
384.662	757.12
384.887	750.12
385.112	787.12
385.337	794.12
385.562	790.12
385.787	777.12
386.013	816.12
386.238	813.12
386.463	792.12
386.688	794.12
386.913	785.12
387.138	763.12
387.363	787.12
387.588	790.12
387.813	800.12
388.038	782.12
388.263	805.12
388.488	794.12
388.713	795.12
388.938	774.12
389.163	758.12
389.387	796.12
389.612	776.12
389.837	814.12
390.062	759.12
390.287	797.12
390.512	790.12
390.736	799.12
390.961	787.12
391.186	818.12
391.411	840.12
391.636	843.12
391.86	882.12
392.085	868.12
392.31	862.12
392.534	865.12
392.759	861.12
392.984	812.12
393.208	839.12
393.433	840.12
393.658	835.12
393.882	838.12
394.107	819.12
394.331	840.12
394.556	834.12
394.78	863.12
395.005	867.12
395.229	845.12
395.454	880.12
395.678	875.12
395.903	863.12
396.127	854.12
396.352	868.12
396.576	838.12
396.801	835.12
397.025	847.12
397.249	862.12
397.474	884.12
397.698	874.12
397.922	885.12
398.147	878.12
398.371	907.12
398.595	916.12
398.82	946.12
399.044	1006.12
399.268	1088.12
399.492	1216.12
399.717	1283.12
399.941	1293.12
400.165	1206.12
400.389	1126.12
400.613	1066.12
400.837	1004.12
401.062	1005.12
401.286	957.12
401.51	947.12
401.734	966.12
401.958	987.12
402.182	988.12
402.406	989.12
402.63	1015.12
402.854	997.12
403.078	1037.12
403.302	1055.12
403.526	1041.12
403.75	1033.12
403.974	1056.12
404.198	1062.12
404.422	1069.12
404.645	1058.12
404.869	1082.12
405.093	1057.12
405.317	1063.12
405.541	1038.12
405.765	1021.12
405.988	1048.12
406.212	1028.12
406.436	1053.12
406.66	1076.12
406.883	1091.12
407.107	1139.12
407.331	1172.12
407.555	1216.12
407.778	1198.12
408.002	1198.12
408.226	1142.12
408.449	1138.12
408.673	1092.12
408.896	1101.12
409.12	1102.12
409.344	1128.12
409.567	1099.12
409.791	1078.12
410.014	1076.12
410.238	1076.12
410.461	1063.12
410.685	1039.12
410.908	1033.12
411.132	1036.12
411.355	1019.12
411.578	1008.12
411.802	1026.12
412.025	1004.12
412.249	1027.12
412.472	1042.12
412.695	991.12
412.919	1008.12
413.142	983.12
413.365	1000.12
413.589	1009.12
413.812	984.12
414.035	1003.12
414.258	1001.12
414.482	1001.12
414.705	1011.12
414.928	1024.12
415.151	984.12
415.374	983.12
415.597	963.12
415.821	992.12
416.044	985.12
416.267	966.12
416.49	964.12
416.713	995.12
416.936	958.12
417.159	977.12
417.382	936.12
417.605	951.12
417.828	998.12
418.051	980.12
418.274	978.12
418.497	1000.12
418.72	976.12
418.943	988.12
419.166	1040.12
419.389	1142.12
419.611	1094.12
419.834	1062.12
420.057	1034.12
420.28	1011.12
420.503	958.12
420.726	1003.12
420.948	1004.12
421.171	977.12
421.394	996.12
421.617	973.12
421.839	997.12
422.062	976.12
422.285	975.12
422.507	988.12
422.73	1010.12
422.953	982.12
423.175	998.12
423.398	1034.12
423.621	991.12
423.843	1022.12
424.066	1018.12
424.288	1014.12
424.511	1011.12
424.733	1003.12
424.956	1014.12
425.178	1010.12
425.401	987.12
425.623	980.12
425.846	977.12
426.068	952.12
426.291	984.12
426.513	971.12
426.735	952.12
426.958	940.12
427.18	942.12
427.402	938.12
427.625	942.12
427.847	911.12
428.069	896.12
428.292	939.12
428.514	933.12
428.736	956.12
428.958	912.12
429.181	920.12
429.403	898.12
429.625	905.12
429.847	908.12
430.069	916.12
430.292	931.12
430.514	896.12
430.736	919.12
430.958	936.12
431.18	911.12
431.402	909.12
431.624	943.12
431.846	912.12
432.068	896.12
432.29	943.12
432.512	940.12
432.734	937.12
432.956	901.12
433.178	931.12
433.4	961.12
433.622	959.12
433.844	953.12
434.066	959.12
434.287	936.12
434.509	966.12
434.731	997.12
434.953	1005.12
435.175	1014.12
435.397	1022.12
435.618	983.12
435.84	974.12
436.062	952.12
436.284	982.12
436.505	938.12
436.727	951.12
436.949	924.12
437.17	915.12
437.392	933.12
437.614	902.12
437.835	905.12
438.057	908.12
438.278	900.12
438.5	920.12
438.721	903.12
438.943	926.12
439.165	898.12
439.386	930.12
439.608	929.12
439.829	962.12
440.05	942.12
440.272	947.12
440.493	946.12
440.715	961.12
440.936	980.12
441.158	983.12
441.379	1042.12
441.6	1024.12
441.822	1036.12
442.043	1030.12
442.264	998.12
442.486	1021.12
442.707	1012.12
442.928	986.12
443.149	1005.12
443.371	1023.12
443.592	1057.12
443.813	1045.12
444.034	1038.12
444.255	1064.12
444.476	1120.12
444.698	1154.12
444.919	1160.12
445.14	1287.12
445.361	1144.12
445.582	1083.12
445.803	1014.12
446.024	993.12
446.245	1011.12
446.466	992.12
446.687	930.12
446.908	977.12
447.129	914.12
447.35	925.12
447.571	909.12
447.792	917.12
448.013	894.12
448.234	914.12
448.455	877.12
448.675	875.12
448.896	885.12
449.117	877.12
449.338	888.12
449.559	889.12
449.779	876.12
450	891.12
450.221	900.12
450.442	886.12
450.662	883.12
450.883	896.12
451.104	898.12
451.324	896.12
451.545	873.12
451.766	886.12
451.986	884.12
452.207	875.12
452.428	869.12
452.648	876.12
452.869	862.12
453.089	868.12
453.31	848.12
453.53	866.12
453.751	840.12
453.971	831.12
454.192	860.12
454.412	861.12
454.633	878.12
454.853	843.12
455.073	846.12
455.294	857.12
455.514	844.12
455.734	830.12
455.955	840.12
456.175	859.12
456.395	816.12
456.616	829.12
456.836	825.12
457.056	845.12
457.276	822.12
457.497	834.12
457.717	859.12
457.937	847.12
458.157	858.12
458.377	874.12
458.598	877.12
458.818	886.12
459.038	898.12
459.258	923.12
459.478	968.12
459.698	951.12
459.918	1016.12
460.138	1066.12
460.358	1053.12
460.578	1070.12
460.798	1086.12
461.018	1090.12
461.238	1068.12
461.458	1075.12
461.678	1086.12
461.898	1087.12
462.118	1123.12
462.338	1156.12
462.558	1177.12
462.777	1227.12
462.997	1304.12
463.217	1346.12
463.437	1358.12
463.657	1299.12
463.876	1256.12
464.096	1247.12
464.316	1209.12
464.536	1221.12
464.755	1183.12
464.975	1140.12
465.195	1080.12
465.414	1086.12
465.634	1015.12
465.854	991.12
466.073	984.12
466.293	966.12
466.512	965.12
466.732	954.12
466.951	936.12
467.171	930.12
467.391	954.12
467.61	934.12
467.829	918.12
468.049	918.12
468.268	919.12
468.488	908.12
468.707	926.12
468.927	910.12
469.146	905.12
469.365	896.12
469.585	919.12
469.804	964.12
470.023	939.12
470.243	921.12
470.462	944.12
470.681	956.12
470.901	961.12
471.12	964.12
471.339	924.12
471.558	930.12
471.777	926.12
471.997	918.12
472.216	923.12
472.435	888.12
472.654	888.12
472.873	881.12
473.092	897.12
473.311	900.12
473.53	903.12
473.749	901.12
473.968	910.12
474.187	879.12
474.406	876.12
474.625	909.12
474.844	896.12
475.063	893.12
475.282	912.12
475.501	946.12
475.72	924.12
475.939	931.12
476.158	971.12
476.377	937.12
476.596	932.12
476.814	958.12
477.033	928.12
477.252	956.12
477.471	995.12
477.69	1025.12
477.908	1007.12
478.127	1061.12
478.346	1046.12
478.564	1080.12
478.783	1069.12
479.002	1123.12
479.22	1122.12
479.439	1122.12
479.658	1089.12
479.876	1076.12
480.095	1109.12
480.313	1124.12
480.532	1129.12
480.751	1128.12
480.969	1086.12
481.188	1082.12
481.406	1065.12
481.624	1037.12
481.843	1022.12
482.061	1016.12
482.28	1032.12
482.498	1024.12
482.717	1046.12
482.935	1037.12
483.153	1058.12
483.372	1059.12
483.59	1058.12
483.808	1064.12
484.027	1054.12
484.245	1063.12
484.463	1044.12
484.681	1072.12
484.9	1081.12
485.118	1058.12
485.336	1090.12
485.554	1058.12
485.772	1099.12
485.99	1058.12
486.209	1076.12
486.427	1092.12
486.645	1059.12
486.863	1089.12
487.081	1110.12
487.299	1080.12
487.517	1105.12
487.735	1040.12
487.953	1098.12
488.171	1143.12
488.389	1085.12
488.607	1063.12
488.825	1059.12
489.043	1036.12
489.261	1069.12
489.479	1091.12
489.696	1088.12
489.914	1088.12
490.132	1070.12
490.35	1104.12
490.568	1101.12
490.786	1121.12
491.003	1132.12
491.221	1130.12
491.439	1126.12
491.657	1114.12
491.874	1126.12
492.092	1132.12
492.31	1102.12
492.527	1114.12
492.745	1105.12
492.963	1127.12
493.18	1122.12
493.398	1160.12
493.615	1130.12
493.833	1150.12
494.05	1117.12
494.268	1182.12
494.485	1156.12
494.703	1191.12
494.92	1173.12
495.138	1146.12
495.355	1154.12
495.573	1173.12
495.79	1168.12
496.008	1156.12
496.225	1183.12
496.442	1226.12
496.66	1178.12
496.877	1212.12
497.094	1252.12
497.312	1242.12
497.529	1259.12
497.746	1299.12
497.963	1324.12
498.181	1380.12
498.398	1448.12
498.615	1519.12
498.832	1564.12
499.049	1618.12
499.267	1744.12
499.484	1898.12
499.701	2028.12
499.918	2169.12
500.135	2384.12
500.352	2568.12
500.569	2724.12
500.786	2684.12
501.003	2558.12
501.22	2338.12
501.437	2145.12
501.654	1971.12
501.871	1866.12
502.088	1732.12
502.305	1630.12
502.522	1542.12
502.739	1517.12
502.956	1431.12
503.172	1395.12
503.389	1384.12
503.606	1312.12
503.823	1323.12
504.04	1334.12
504.256	1286.12
504.473	1307.12
504.69	1323.12
504.907	1274.12
505.123	1212.12
505.34	1170.12
505.557	1146.12
505.773	1153.12
505.99	1112.12
506.207	1112.12
506.423	1068.12
506.64	1076.12
506.856	1051.12
507.073	1062.12
507.289	1017.12
507.506	1032.12
507.722	1010.12
507.939	1038.12
508.155	1013.12
508.372	1007.12
508.588	1001.12
508.805	974.12
509.021	1005.12
509.238	966.12
509.454	953.12
509.67	950.12
509.887	932.12
510.103	923.12
510.319	916.12
510.536	930.12
510.752	947.12
510.968	940.12
511.184	923.12
511.401	929.12
511.617	943.12
511.833	942.12
512.049	935.12
512.265	921.12
512.481	910.12
512.698	908.12
512.914	918.12
513.13	925.12
513.346	921.12
513.562	933.12
513.778	908.12
513.994	926.12
514.21	904.12
514.426	919.12
514.642	946.12
514.858	977.12
515.074	936.12
515.29	966.12
515.506	984.12
515.721	970.12
515.937	1001.12
516.153	1013.12
516.369	1004.12
516.585	1024.12
516.801	1037.12
517.016	1067.12
517.232	1112.12
517.448	1131.12
517.664	1185.12
517.879	1132.12
518.095	1126.12
518.311	1127.12
518.527	1103.12
518.742	1082.12
518.958	1050.12
519.173	1026.12
519.389	1012.12
519.605	972.12
519.82	954.12
520.036	968.12
520.251	935.12
520.467	950.12
520.682	947.12
520.898	919.12
521.113	869.12
521.329	907.12
521.544	889.12
521.76	888.12
521.975	875.12
522.19	871.12
522.406	866.12
522.621	850.12
522.836	846.12
523.052	851.12
523.267	880.12
523.482	867.12
523.698	841.12
523.913	852.12
524.128	868.12
524.343	844.12
524.559	835.12
524.774	825.12
524.989	838.12
525.204	870.12
525.419	831.12
525.634	828.12
525.849	826.12
526.064	858.12
526.28	826.12
526.495	848.12
526.71	846.12
526.925	798.12
527.14	819.12
527.355	821.12
527.57	828.12
527.785	838.12
527.999	813.12
528.214	832.12
528.429	828.12
528.644	834.12
528.859	823.12
529.074	813.12
529.289	826.12
529.503	810.12
529.718	827.12
529.933	804.12
530.148	807.12
530.363	822.12
530.577	822.12
530.792	822.12
531.007	787.12
531.221	830.12
531.436	807.12
531.651	811.12
531.865	818.12
532.08	834.12
532.295	787.12
532.509	777.12
532.724	804.12
532.938	824.12
533.153	791.12
533.367	805.12
533.582	818.12
533.796	820.12
534.011	816.12
534.225	787.12
534.44	790.12
534.654	779.12
534.868	778.12
535.083	797.12
535.297	793.12
535.511	780.12
535.726	806.12
535.94	772.12
536.154	756.12
536.369	789.12
536.583	755.12
536.797	775.12
537.011	741.12
537.225	758.12
537.44	764.12
537.654	766.12
537.868	732.12
538.082	722.12
538.296	742.12
538.51	780.12
538.724	742.12
538.938	740.12
539.153	728.12
539.367	738.12
539.581	728.12
539.795	740.12
540.009	744.12
540.222	746.12
540.436	727.12
540.65	744.12
540.864	740.12
541.078	747.12
541.292	740.12
541.506	723.12
541.72	735.12
541.934	758.12
542.147	766.12
542.361	729.12
542.575	715.12
542.789	715.12
543.002	694.12
543.216	741.12
543.43	728.12
543.644	727.12
543.857	712.12
544.071	741.12
544.285	740.12
544.498	729.12
544.712	742.12
544.925	738.12
545.139	722.12
545.352	739.12
545.566	755.12
545.779	759.12
545.993	750.12
546.206	772.12
546.42	748.12
546.633	745.12
546.847	757.12
547.06	718.12
547.274	752.12
547.487	758.12
547.7	745.12
547.914	757.12
548.127	770.12
548.34	734.12
548.554	734.12
548.767	738.12
548.98	774.12
549.193	740.12
549.407	741.12
549.62	742.12
549.833	758.12
550.046	775.12
550.259	738.12
550.473	724.12
550.686	738.12
550.899	709.12
551.112	726.12
551.325	723.12
551.538	707.12
551.751	712.12
551.964	719.12
552.177	739.12
552.39	748.12
552.603	735.12
552.816	783.12
553.029	761.12
553.242	772.12
553.455	803.12
553.667	800.12
553.88	752.12
554.093	751.12
554.306	757.12
554.519	751.12
554.732	726.12
554.944	726.12
555.157	710.12
555.37	702.12
555.583	696.12
555.795	685.12
556.008	680.12
556.221	665.12
556.433	657.12
556.646	672.12
556.859	644.12
557.071	642.12
557.284	643.12
557.496	648.12
557.709	637.12
557.921	648.12
558.134	654.12
558.346	625.12
558.559	635.12
558.771	632.12
558.984	627.12
559.196	632.12
559.409	622.12
559.621	632.12
559.833	644.12
560.046	628.12
560.258	623.12
560.47	622.12
560.683	632.12
560.895	616.12
561.107	633.12
561.32	616.12
561.532	630.12
561.744	624.12
561.956	605.12
562.168	605.12
562.381	616.12
562.593	610.12
562.805	625.12
563.017	631.12
563.229	616.12
563.441	618.12
563.653	604.12
563.865	641.12
564.077	636.12
564.289	618.12
564.501	634.12
564.713	654.12
564.925	654.12
565.137	644.12
565.349	702.12
565.561	689.12
565.773	706.12
565.985	743.12
566.197	756.12
566.408	818.12
566.62	851.12
566.832	851.12
567.044	891.12
567.255	864.12
567.467	895.12
567.679	922.12
567.891	965.12
568.102	947.12
568.314	946.12
568.526	864.12
568.737	831.12
568.949	782.12
569.161	757.12
569.372	698.12
569.584	672.12
569.795	650.12
570.007	658.12
570.218	631.12
570.43	633.12
570.641	608.12
570.853	596.12
571.064	602.12
571.276	608.12
571.487	611.12
571.698	578.12
571.91	568.12
572.121	552.12
572.333	563.12
572.544	558.12
572.755	538.12
572.966	499.12
573.178	516.12
573.389	532.12
573.6	525.12
573.811	494.12
574.023	516.12
574.234	512.12
574.445	489.12
574.656	501.12
574.867	484.12
575.078	485.12
575.289	472.12
575.501	491.12
575.712	473.12
575.923	472.12
576.134	489.12
576.345	463.12
576.556	467.12
576.767	470.12
576.978	474.12
577.188	472.12
577.399	460.12
577.61	475.12
577.821	439.12
578.032	447.12
578.243	472.12
578.454	457.12
578.665	446.12
578.875	442.12
579.086	432.12
579.297	438.12
579.508	444.12
579.718	420.12
579.929	430.12
580.14	440.12
580.35	430.12
580.561	450.12
580.772	446.12
580.982	415.12
581.193	430.12
581.403	421.12
581.614	430.12
581.825	423.12
582.035	412.12
582.246	403.12
582.456	422.12
582.667	437.12
582.877	426.12
583.087	418.12
583.298	422.12
583.508	415.12
583.719	422.12
583.929	404.12
584.139	415.12
584.35	425.12
584.56	415.12
584.77	401.12
584.981	417.12
585.191	386.12
585.401	390.12
585.611	381.12
585.821	411.12
586.032	411.12
586.242	409.12
586.452	410.12
586.662	400.12
586.872	394.12
587.082	394.12
587.292	398.12
587.502	380.12
587.713	402.12
587.923	404.12
588.133	395.12
588.343	421.12
588.553	406.12
588.762	397.12
588.972	408.12
589.182	450.12
589.392	455.12
589.602	437.12
589.812	451.12
590.022	434.12
590.232	397.12
590.441	398.12
590.651	418.12
590.861	398.12
591.071	407.12
591.281	399.12
591.49	405.12
591.7	401.12
591.91	419.12
592.119	432.12
592.329	423.12
592.539	438.12
592.748	438.12
592.958	426.12
593.167	444.12
593.377	449.12
593.587	451.12
593.796	453.12
594.006	462.12
594.215	462.12
594.424	472.12
594.634	472.12
594.843	442.12
595.053	432.12
595.262	418.12
595.472	435.12
595.681	417.12
595.89	387.12
596.1	399.12
596.309	398.12
596.518	380.12
596.727	378.12
596.937	369.12
597.146	371.12
597.355	372.12
597.564	362.12
597.774	356.12
597.983	355.12
598.192	352.12
598.401	341.12
598.61	348.12
598.819	350.12
599.028	349.12
599.237	361.12
599.446	350.12
599.655	332.12
599.864	350.12
600.073	318.12
600.282	332.12
600.491	329.12
600.7	357.12
600.909	336.12
601.118	344.12
601.327	319.12
601.536	344.12
601.745	341.12
601.953	334.12
602.162	329.12
602.371	323.12
602.58	329.12
602.789	330.12
602.997	323.12
603.206	329.12
603.415	328.12
603.623	326.12
603.832	314.12
604.041	317.12
604.249	314.12
604.458	309.12
604.666	323.12
604.875	309.12
605.084	303.12
605.292	303.12
605.501	296.12
605.709	309.12
605.918	321.12
606.126	315.12
606.334	304.12
606.543	300.12
606.751	309.12
606.96	328.12
607.168	309.12
607.376	291.12
607.585	294.12
607.793	307.12
608.001	298.12
608.21	310.12
608.418	318.12
608.626	308.12
608.834	303.12
609.043	292.12
609.251	292.12
609.459	316.12
609.667	314.12
609.875	306.12
610.083	303.12
610.291	292.12
610.499	302.12
610.707	298.12
610.916	289.12
611.124	279.12
611.332	298.12
611.54	296.12
611.748	289.12
611.955	298.12
612.163	310.12
612.371	282.12
612.579	293.12
612.787	278.12
612.995	294.12
613.203	271.12
613.411	279.12
613.618	270.12
613.826	276.12
614.034	280.12
614.242	294.12
614.449	261.12
614.657	276.12
614.865	286.12
615.072	291.12
615.28	293.12
615.488	282.12
615.695	278.12
615.903	294.12
616.111	272.12
616.318	261.12
616.526	269.12
616.733	283.12
616.941	303.12
617.148	283.12
617.356	286.12
617.563	250.12
617.771	286.12
617.978	289.12
618.185	274.12
618.393	278.12
618.6	285.12
618.807	286.12
619.015	282.12
619.222	278.12
619.429	269.12
619.637	266.12
619.844	267.12
620.051	271.12
620.258	270.12
620.466	269.12
620.673	261.12
620.88	251.12
621.087	259.12
621.294	268.12
621.501	259.12
621.708	263.12
621.915	263.12
622.122	243.12
622.329	264.12
622.536	262.12
622.743	261.12
622.95	250.12
623.157	261.12
623.364	262.12
623.571	259.12
623.778	255.12
623.985	249.12
624.192	256.12
624.399	255.12
624.606	264.12
624.812	262.12
625.019	237.12
625.226	250.12
625.433	247.12
625.639	245.12
625.846	233.12
626.053	238.12
626.259	245.12
626.466	242.12
626.673	236.12
626.879	226.12
627.086	227.12
627.293	243.12
627.499	248.12
627.706	260.12
627.912	252.12
628.119	253.12
628.325	216.12
628.532	218.12
628.738	233.12
628.945	235.12
629.151	236.12
629.357	227.12
629.564	237.12
629.77	237.12
629.976	229.12
630.183	236.12
630.389	240.12
630.595	227.12
630.802	219.12
631.008	229.12
631.214	228.12
631.42	212.12
631.627	235.12
631.833	222.12
632.039	214.12
632.245	221.12
632.451	217.12
632.657	218.12
632.863	230.12
633.069	224.12
633.275	223.12
633.481	210.12
633.688	214.12
633.893	221.12
634.099	220.12
634.305	216.12
634.511	232.12
634.717	211.12
634.923	219.12
635.129	220.12
635.335	202.12
635.541	221.12
635.747	215.12
635.952	220.12
636.158	211.12
636.364	209.12
636.57	211.12
636.775	217.12
636.981	210.12
637.187	199.12
637.392	206.12
637.598	192.12
637.804	209.12
638.009	212.12
638.215	208.12
638.421	198.12
638.626	190.12
638.832	205.12
639.037	197.12
639.243	207.12
639.448	204.12
639.654	207.12
639.859	205.12
640.065	199.12
640.27	208.12
640.475	202.12
640.681	196.12
640.886	201.12
641.091	192.12
641.297	194.12
641.502	181.12
641.707	206.12
641.913	200.12
642.118	181.12
642.323	191.12
642.528	198.12
642.733	180.12
642.939	199.12
643.144	198.12
643.349	192.12
643.554	199.12
643.759	181.12
643.964	171.12
644.169	180.12
644.374	197.12
644.579	201.12
644.784	173.12
644.989	191.12
645.194	199.12
645.399	189.12
645.604	190.12
645.809	189.12
646.014	193.12
646.219	196.12
646.423	182.12
646.628	196.12
646.833	198.12
647.038	187.12
647.243	197.12
647.447	195.12
647.652	202.12
647.857	207.12
648.062	205.12
648.266	207.12
648.471	201.12
648.676	184.12
648.88	192.12
649.085	210.12
649.289	190.12
649.494	182.12
649.698	197.12
649.903	192.12
650.107	181.12
650.312	186.12
650.516	175.12
650.721	174.12
650.925	178.12
651.13	184.12
651.334	182.12
651.539	163.12
651.743	166.12
651.947	175.12
652.152	179.12
652.356	167.12
652.56	152.12
652.764	159.12
652.969	162.12
653.173	156.12
653.377	163.12
653.581	155.12
653.785	156.12
653.99	148.12
654.194	164.12
654.398	150.12
654.602	147.12
654.806	144.12
655.01	149.12
655.214	144.12
655.418	129.12
655.622	151.12
655.826	159.12
656.03	140.12
656.234	143.12
656.438	142.12
656.642	137.12
656.846	141.12
657.049	151.12
657.253	131.12
657.457	129.12
657.661	140.12
657.865	127.12
658.068	135.12
658.272	134.12
658.476	134.12
658.68	113.12
658.883	114.12
659.087	107.12
659.291	102.12
659.494	111.12
659.698	105.12
659.901	98.12
660.105	100.12
660.309	95.12
660.512	102.12
660.716	106.12
660.919	82.12
661.123	104.12
661.326	99.12
661.53	93.12
661.733	91.12
661.936	87.12
662.14	85.12
662.343	87.12
662.546	73.12
662.75	84.12
662.953	83.12
663.156	86.12
663.36	90.12
663.563	93.12
663.766	72.12
663.969	92.12
664.173	93.12
664.376	91.12
664.579	92.12
664.782	97.12
664.985	77.12
665.188	82.12
665.391	90.12
665.594	87.12
665.797	87.12
666	98.12
666.203	95.12
666.406	70.12
666.609	77.12
666.812	90.12
667.015	79.12
667.218	88.12
667.421	71.12
667.624	86.12
667.827	85.12
668.03	91.12
668.232	96.12
668.435	76.12
668.638	86.12
668.841	79.12
669.043	78.12
669.246	97.12
669.449	86.12
669.651	98.12
669.854	96.12
670.057	72.12
670.259	82.12
670.462	103.12
670.665	83.12
670.867	68.12
671.07	72.12
671.272	87.12
671.475	88.12
671.677	85.12
671.88	90.12
672.082	84.12
672.284	80.12
672.487	82.12
672.689	90.12
672.892	77.12
