Data from NiCl2@0.125M.TitratingCurve.Agarose3%dH2O.NegLispCup.LampEnergy10.LIBS07252019_HRD10591_18-29-26-574.txt Node
Date: Thu Jul 25 18:29:26 EDT 2019
User: cochatt
Spectrometer: HR+D1059
Trigger mode: 1
Integration Time (sec): 1.000000E-1
Scans to average: 1
Electric dark correction enabled: true
Nonlinearity correction enabled: false
Boxcar width: 0
XAxis mode: Wavelengths
Number of Pixels in Spectrum: 2048
>>>>>Begin Spectral Data<<<<<
223.165	-20.12
223.4	-20.12
223.635	-20.12
223.869	-17.12
224.104	-12.12
224.338	-10.12
224.573	-0.12
224.808	-1.12
225.042	-12.12
225.277	2.88
225.511	-10.12
225.746	4.88
225.98	-0.12
226.215	12.88
226.449	9.88
226.683	20.88
226.918	12.88
227.152	18.88
227.387	33.88
227.621	31.88
227.856	52.88
228.09	40.88
228.324	49.88
228.559	44.88
228.793	62.88
229.027	92.88
229.262	100.88
229.496	121.88
229.73	128.88
229.964	118.88
230.199	126.88
230.433	123.88
230.667	142.88
230.901	138.88
231.136	141.88
231.37	139.88
231.604	147.88
231.838	145.88
232.072	147.88
232.306	158.88
232.541	156.88
232.775	149.88
233.009	156.88
233.243	142.88
233.477	156.88
233.711	157.88
233.945	156.88
234.179	154.88
234.413	140.88
234.647	153.88
234.881	147.88
235.115	166.88
235.349	142.88
235.583	160.88
235.817	156.88
236.051	149.88
236.285	152.88
236.519	163.88
236.753	172.88
236.987	148.88
237.221	170.88
237.455	162.88
237.689	182.88
237.922	180.88
238.156	162.88
238.39	133.88
238.624	157.88
238.858	171.88
239.091	192.88
239.325	164.88
239.559	174.88
239.793	172.88
240.027	198.88
240.26	197.88
240.494	186.88
240.728	182.88
240.961	189.88
241.195	185.88
241.429	195.88
241.662	184.88
241.896	210.88
242.13	199.88
242.363	197.88
242.597	178.88
242.83	198.88
243.064	207.88
243.298	195.88
243.531	188.88
243.765	220.88
243.998	218.88
244.232	210.88
244.465	224.88
244.699	225.88
244.932	220.88
245.166	223.88
245.399	221.88
245.633	242.88
245.866	223.88
246.099	233.88
246.333	230.88
246.566	225.88
246.8	221.88
247.033	241.88
247.266	225.88
247.5	214.88
247.733	223.88
247.966	248.88
248.2	243.88
248.433	256.88
248.666	240.88
248.899	248.88
249.133	250.88
249.366	269.88
249.599	259.88
249.832	263.88
250.066	261.88
250.299	254.88
250.532	240.88
250.765	264.88
250.998	259.88
251.231	289.88
251.465	272.88
251.698	281.88
251.931	289.88
252.164	265.88
252.397	277.88
252.63	271.88
252.863	263.88
253.096	272.88
253.329	270.88
253.562	272.88
253.795	278.88
254.028	291.88
254.261	276.88
254.494	294.88
254.727	293.88
254.96	275.88
255.193	276.88
255.426	291.88
255.659	297.88
255.892	301.88
256.124	306.88
256.357	270.88
256.59	306.88
256.823	294.88
257.056	321.88
257.289	293.88
257.521	301.88
257.754	321.88
257.987	317.88
258.22	332.88
258.452	324.88
258.685	320.88
258.918	321.88
259.151	317.88
259.383	332.88
259.616	298.88
259.849	323.88
260.081	326.88
260.314	333.88
260.547	341.88
260.779	324.88
261.012	353.88
261.244	324.88
261.477	329.88
261.71	341.88
261.942	323.88
262.175	336.88
262.407	332.88
262.64	333.88
262.872	322.88
263.105	351.88
263.337	357.88
263.57	344.88
263.802	355.88
264.035	345.88
264.267	352.88
264.499	363.88
264.732	351.88
264.964	356.88
265.197	371.88
265.429	344.88
265.661	359.88
265.894	359.88
266.126	370.88
266.358	378.88
266.591	358.88
266.823	372.88
267.055	373.88
267.287	369.88
267.52	374.88
267.752	379.88
267.984	390.88
268.216	386.88
268.448	391.88
268.681	386.88
268.913	394.88
269.145	383.88
269.377	382.88
269.609	380.88
269.841	386.88
270.073	383.88
270.306	377.88
270.538	406.88
270.77	379.88
271.002	386.88
271.234	400.88
271.466	371.88
271.698	383.88
271.93	401.88
272.162	414.88
272.394	414.88
272.626	423.88
272.858	401.88
273.09	405.88
273.322	408.88
273.553	404.88
273.785	406.88
274.017	413.88
274.249	412.88
274.481	420.88
274.713	404.88
274.945	404.88
275.176	421.88
275.408	397.88
275.64	411.88
275.872	421.88
276.104	453.88
276.335	424.88
276.567	418.88
276.799	426.88
277.031	428.88
277.262	436.88
277.494	426.88
277.726	442.88
277.957	451.88
278.189	439.88
278.421	420.88
278.652	429.88
278.884	439.88
279.115	427.88
279.347	453.88
279.579	466.88
279.81	454.88
280.042	428.88
280.273	446.88
280.505	448.88
280.736	480.88
280.968	457.88
281.199	475.88
281.431	458.88
281.662	462.88
281.894	472.88
282.125	477.88
282.356	476.88
282.588	468.88
282.819	487.88
283.051	474.88
283.282	487.88
283.513	478.88
283.745	499.88
283.976	467.88
284.207	491.88
284.439	501.88
284.67	499.88
284.901	501.88
285.132	498.88
285.364	488.88
285.595	520.88
285.826	493.88
286.057	477.88
286.288	509.88
286.52	496.88
286.751	520.88
286.982	494.88
287.213	501.88
287.444	532.88
287.675	527.88
287.906	508.88
288.138	508.88
288.369	540.88
288.6	517.88
288.831	519.88
289.062	524.88
289.293	544.88
289.524	506.88
289.755	527.88
289.986	544.88
290.217	526.88
290.448	524.88
290.679	539.88
290.91	550.88
291.141	557.88
291.371	555.88
291.602	521.88
291.833	533.88
292.064	553.88
292.295	538.88
292.526	558.88
292.757	545.88
292.987	546.88
293.218	525.88
293.449	552.88
293.68	554.88
293.91	531.88
294.141	561.88
294.372	522.88
294.603	560.88
294.833	561.88
295.064	541.88
295.295	557.88
295.525	563.88
295.756	568.88
295.987	545.88
296.217	555.88
296.448	572.88
296.679	560.88
296.909	565.88
297.14	572.88
297.37	568.88
297.601	600.88
297.831	574.88
298.062	586.88
298.292	606.88
298.523	601.88
298.753	619.88
298.984	576.88
299.214	584.88
299.445	576.88
299.675	571.88
299.905	573.88
300.136	593.88
300.366	608.88
300.597	588.88
300.827	589.88
301.057	628.88
301.288	629.88
301.518	628.88
301.748	657.88
301.979	638.88
302.209	617.88
302.439	618.88
302.669	616.88
302.9	597.88
303.13	595.88
303.36	596.88
303.59	611.88
303.82	588.88
304.051	597.88
304.281	600.88
304.511	576.88
304.741	610.88
304.971	603.88
305.201	601.88
305.431	630.88
305.661	603.88
305.891	602.88
306.121	602.88
306.352	576.88
306.582	599.88
306.812	588.88
307.042	598.88
307.272	604.88
307.502	598.88
307.731	586.88
307.961	581.88
308.191	582.88
308.421	585.88
308.651	596.88
308.881	572.88
309.111	579.88
309.341	559.88
309.571	578.88
309.8	581.88
310.03	580.88
310.26	570.88
310.49	582.88
310.72	611.88
310.949	577.88
311.179	600.88
311.409	584.88
311.639	596.88
311.868	598.88
312.098	613.88
312.328	617.88
312.557	576.88
312.787	605.88
313.017	630.88
313.246	618.88
313.476	628.88
313.706	632.88
313.935	640.88
314.165	670.88
314.394	612.88
314.624	644.88
314.853	637.88
315.083	618.88
315.312	646.88
315.542	648.88
315.771	621.88
316.001	611.88
316.23	620.88
316.46	597.88
316.689	601.88
316.919	636.88
317.148	621.88
317.377	640.88
317.607	626.88
317.836	604.88
318.065	596.88
318.295	589.88
318.524	612.88
318.753	609.88
318.983	599.88
319.212	603.88
319.441	621.88
319.67	606.88
319.9	625.88
320.129	604.88
320.358	585.88
320.587	611.88
320.816	588.88
321.046	616.88
321.275	615.88
321.504	618.88
321.733	628.88
321.962	605.88
322.191	599.88
322.42	605.88
322.649	616.88
322.878	631.88
323.108	634.88
323.337	618.88
323.566	612.88
323.795	618.88
324.024	625.88
324.253	617.88
324.482	636.88
324.71	619.88
324.939	644.88
325.168	648.88
325.397	644.88
325.626	646.88
325.855	659.88
326.084	655.88
326.313	673.88
326.542	688.88
326.77	666.88
326.999	676.88
327.228	662.88
327.457	668.88
327.686	664.88
327.914	663.88
328.143	683.88
328.372	645.88
328.6	661.88
328.829	676.88
329.058	689.88
329.287	698.88
329.515	647.88
329.744	680.88
329.972	664.88
330.201	673.88
330.43	672.88
330.658	690.88
330.887	685.88
331.115	654.88
331.344	697.88
331.572	708.88
331.801	717.88
332.03	739.88
332.258	731.88
332.486	791.88
332.715	811.88
332.943	849.88
333.172	864.88
333.4	931.88
333.629	932.88
333.857	928.88
334.085	923.88
334.314	913.88
334.542	893.88
334.771	874.88
334.999	849.88
335.227	808.88
335.455	832.88
335.684	851.88
335.912	853.88
336.14	801.88
336.369	827.88
336.597	829.88
336.825	827.88
337.053	809.88
337.281	788.88
337.51	780.88
337.738	746.88
337.966	732.88
338.194	728.88
338.422	746.88
338.65	722.88
338.878	732.88
339.106	732.88
339.334	737.88
339.562	720.88
339.79	698.88
340.018	700.88
340.246	706.88
340.474	700.88
340.702	706.88
340.93	704.88
341.158	719.88
341.386	699.88
341.614	665.88
341.842	683.88
342.07	727.88
342.298	676.88
342.526	681.88
342.754	686.88
342.981	677.88
343.209	724.88
343.437	754.88
343.665	748.88
343.893	873.88
344.12	909.88
344.348	852.88
344.576	792.88
344.804	761.88
345.031	738.88
345.259	720.88
345.487	720.88
345.714	697.88
345.942	701.88
346.17	690.88
346.397	680.88
346.625	670.88
346.853	690.88
347.08	659.88
347.308	706.88
347.535	694.88
347.763	710.88
347.99	718.88
348.218	692.88
348.445	698.88
348.673	684.88
348.9	676.88
349.128	677.88
349.355	673.88
349.583	656.88
349.81	670.88
350.037	665.88
350.265	654.88
350.492	657.88
350.72	640.88
350.947	637.88
351.174	646.88
351.402	644.88
351.629	642.88
351.856	661.88
352.083	629.88
352.311	642.88
352.538	649.88
352.765	645.88
352.992	639.88
353.22	630.88
353.447	625.88
353.674	640.88
353.901	656.88
354.128	663.88
354.355	649.88
354.583	665.88
354.81	659.88
355.037	655.88
355.264	621.88
355.491	640.88
355.718	645.88
355.945	628.88
356.172	650.88
356.399	672.88
356.626	646.88
356.853	666.88
357.08	644.88
357.307	644.88
357.534	657.88
357.761	658.88
357.988	630.88
358.215	645.88
358.441	671.88
358.668	641.88
358.895	676.88
359.122	654.88
359.349	609.88
359.576	642.88
359.802	642.88
360.029	668.88
360.256	636.88
360.483	655.88
360.709	642.88
360.936	646.88
361.163	643.88
361.39	642.88
361.616	675.88
361.843	648.88
362.07	648.88
362.296	661.88
362.523	659.88
362.749	641.88
362.976	645.88
363.203	638.88
363.429	620.88
363.656	652.88
363.882	636.88
364.109	638.88
364.335	647.88
364.562	646.88
364.788	667.88
365.015	654.88
365.241	632.88
365.468	650.88
365.694	652.88
365.92	634.88
366.147	647.88
366.373	640.88
366.599	650.88
366.826	638.88
367.052	626.88
367.278	660.88
367.505	650.88
367.731	638.88
367.957	647.88
368.184	673.88
368.41	657.88
368.636	674.88
368.862	677.88
369.089	659.88
369.315	658.88
369.541	678.88
369.767	677.88
369.993	666.88
370.219	685.88
370.445	692.88
370.672	694.88
370.898	671.88
371.124	695.88
371.35	691.88
371.576	711.88
371.802	722.88
372.028	691.88
372.254	707.88
372.48	713.88
372.706	738.88
372.932	731.88
373.158	758.88
373.384	711.88
373.61	690.88
373.835	743.88
374.061	713.88
374.287	736.88
374.513	724.88
374.739	733.88
374.965	788.88
375.191	788.88
375.416	791.88
375.642	755.88
375.868	769.88
376.094	743.88
376.319	744.88
376.545	742.88
376.771	685.88
376.997	710.88
377.222	686.88
377.448	736.88
377.674	706.88
377.899	700.88
378.125	699.88
378.35	696.88
378.576	672.88
378.802	677.88
379.027	700.88
379.253	700.88
379.478	706.88
379.704	707.88
379.929	698.88
380.155	698.88
380.38	685.88
380.606	712.88
380.831	712.88
381.057	693.88
381.282	698.88
381.507	700.88
381.733	710.88
381.958	718.88
382.184	729.88
382.409	720.88
382.634	712.88
382.86	746.88
383.085	747.88
383.31	744.88
383.535	776.88
383.761	783.88
383.986	805.88
384.211	820.88
384.436	838.88
384.662	853.88
384.887	866.88
385.112	848.88
385.337	890.88
385.562	847.88
385.787	880.88
386.013	865.88
386.238	873.88
386.463	886.88
386.688	876.88
386.913	852.88
387.138	856.88
387.363	828.88
387.588	853.88
387.813	835.88
388.038	845.88
388.263	854.88
388.488	837.88
388.713	854.88
388.938	834.88
389.163	811.88
389.387	792.88
389.612	808.88
389.837	826.88
390.062	816.88
390.287	840.88
390.512	817.88
390.736	806.88
390.961	867.88
391.186	866.88
391.411	908.88
391.636	916.88
391.86	938.88
392.085	986.88
392.31	981.88
392.534	930.88
392.759	907.88
392.984	889.88
393.208	894.88
393.433	898.88
393.658	894.88
393.882	922.88
394.107	939.88
394.331	915.88
394.556	904.88
394.78	906.88
395.005	912.88
395.229	938.88
395.454	922.88
395.678	972.88
395.903	981.88
396.127	968.88
396.352	928.88
396.576	885.88
396.801	884.88
397.025	915.88
397.249	929.88
397.474	959.88
397.698	968.88
397.922	958.88
398.147	922.88
398.371	977.88
398.595	988.88
398.82	1037.88
399.044	1113.88
399.268	1242.88
399.492	1444.88
399.717	1690.88
399.941	1720.88
400.165	1496.88
400.389	1301.88
400.613	1190.88
400.837	1162.88
401.062	1112.88
401.286	1088.88
401.51	1043.88
401.734	1064.88
401.958	1083.88
402.182	1094.88
402.406	1125.88
402.63	1142.88
402.854	1159.88
403.078	1184.88
403.302	1202.88
403.526	1255.88
403.75	1286.88
403.974	1269.88
404.198	1297.88
404.422	1291.88
404.645	1296.88
404.869	1272.88
405.093	1267.88
405.317	1202.88
405.541	1250.88
405.765	1205.88
405.988	1168.88
406.212	1204.88
406.436	1193.88
406.66	1196.88
406.883	1244.88
407.107	1313.88
407.331	1357.88
407.555	1421.88
407.778	1420.88
408.002	1349.88
408.226	1336.88
408.449	1312.88
408.673	1248.88
408.896	1248.88
409.12	1220.88
409.344	1207.88
409.567	1194.88
409.791	1273.88
410.014	1249.88
410.238	1211.88
410.461	1236.88
410.685	1198.88
410.908	1160.88
411.132	1160.88
411.355	1138.88
411.578	1137.88
411.802	1126.88
412.025	1118.88
412.249	1143.88
412.472	1134.88
412.695	1118.88
412.919	1097.88
413.142	1070.88
413.365	1079.88
413.589	1056.88
413.812	1072.88
414.035	1082.88
414.258	1074.88
414.482	1077.88
414.705	1089.88
414.928	1091.88
415.151	1099.88
415.374	1080.88
415.597	1082.88
415.821	1044.88
416.044	1040.88
416.267	1035.88
416.49	1037.88
416.713	1033.88
416.936	1072.88
417.159	1054.88
417.382	1056.88
417.605	1058.88
417.828	1085.88
418.051	1064.88
418.274	1085.88
418.497	1050.88
418.72	1110.88
418.943	1097.88
419.166	1166.88
419.389	1240.88
419.611	1217.88
419.834	1180.88
420.057	1146.88
420.28	1084.88
420.503	1045.88
420.726	1060.88
420.948	1062.88
421.171	1057.88
421.394	1070.88
421.617	1088.88
421.839	1081.88
422.062	1120.88
422.285	1058.88
422.507	1098.88
422.73	1115.88
422.953	1136.88
423.175	1128.88
423.398	1145.88
423.621	1150.88
423.843	1225.88
424.066	1172.88
424.288	1161.88
424.511	1140.88
424.733	1112.88
424.956	1104.88
425.178	1119.88
425.401	1061.88
425.623	1099.88
425.846	1050.88
426.068	1020.88
426.291	1046.88
426.513	1014.88
426.735	986.88
426.958	1022.88
427.18	981.88
427.402	938.88
427.625	961.88
427.847	973.88
428.069	974.88
428.292	979.88
428.514	920.88
428.736	940.88
428.958	956.88
429.181	945.88
429.403	917.88
429.625	914.88
429.847	904.88
430.069	930.88
430.292	894.88
430.514	936.88
430.736	928.88
430.958	943.88
431.18	932.88
431.402	928.88
431.624	919.88
431.846	910.88
432.068	972.88
432.29	956.88
432.512	962.88
432.734	938.88
432.956	935.88
433.178	970.88
433.4	952.88
433.622	988.88
433.844	978.88
434.066	985.88
434.287	980.88
434.509	1014.88
434.731	1076.88
434.953	1092.88
435.175	1112.88
435.397	1077.88
435.618	1030.88
435.84	1006.88
436.062	982.88
436.284	969.88
436.505	949.88
436.727	973.88
436.949	966.88
437.17	982.88
437.392	957.88
437.614	923.88
437.835	917.88
438.057	926.88
438.278	899.88
438.5	894.88
438.721	872.88
438.943	919.88
439.165	906.88
439.386	928.88
439.608	963.88
439.829	961.88
440.05	962.88
440.272	975.88
440.493	974.88
440.715	971.88
440.936	1004.88
441.158	1006.88
441.379	1049.88
441.6	1076.88
441.822	1113.88
442.043	1117.88
442.264	1079.88
442.486	1067.88
442.707	1054.88
442.928	1063.88
443.149	1090.88
443.371	1052.88
443.592	1081.88
443.813	1079.88
444.034	1091.88
444.255	1151.88
444.476	1175.88
444.698	1296.88
444.919	1356.88
445.14	1396.88
445.361	1234.88
445.582	1150.88
445.803	1065.88
446.024	1024.88
446.245	1032.88
446.466	1001.88
446.687	988.88
446.908	975.88
447.129	960.88
447.35	944.88
447.571	933.88
447.792	909.88
448.013	929.88
448.234	915.88
448.455	916.88
448.675	862.88
448.896	903.88
449.117	882.88
449.338	883.88
449.559	865.88
449.779	869.88
450	872.88
450.221	889.88
450.442	904.88
450.662	910.88
450.883	914.88
451.104	905.88
451.324	907.88
451.545	904.88
451.766	926.88
451.986	915.88
452.207	915.88
452.428	882.88
452.648	905.88
452.869	871.88
453.089	872.88
453.31	891.88
453.53	874.88
453.751	889.88
453.971	856.88
454.192	865.88
454.412	840.88
454.633	844.88
454.853	835.88
455.073	810.88
455.294	829.88
455.514	834.88
455.734	845.88
455.955	832.88
456.175	822.88
456.395	827.88
456.616	830.88
456.836	853.88
457.056	835.88
457.276	828.88
457.497	815.88
457.717	804.88
457.937	837.88
458.157	834.88
458.377	862.88
458.598	885.88
458.818	896.88
459.038	921.88
459.258	948.88
459.478	984.88
459.698	1012.88
459.918	1028.88
460.138	1056.88
460.358	1150.88
460.578	1166.88
460.798	1164.88
461.018	1215.88
461.238	1164.88
461.458	1138.88
461.678	1140.88
461.898	1150.88
462.118	1165.88
462.338	1225.88
462.558	1276.88
462.777	1320.88
462.997	1453.88
463.217	1579.88
463.437	1638.88
463.657	1471.88
463.876	1372.88
464.096	1366.88
464.316	1333.88
464.536	1394.88
464.755	1317.88
464.975	1280.88
465.195	1182.88
465.414	1130.88
465.634	1048.88
465.854	1027.88
466.073	996.88
466.293	988.88
466.512	926.88
466.732	945.88
466.951	935.88
467.171	894.88
467.391	923.88
467.61	931.88
467.829	941.88
468.049	936.88
468.268	891.88
468.488	869.88
468.707	889.88
468.927	862.88
469.146	861.88
469.365	888.88
469.585	920.88
469.804	923.88
470.023	931.88
470.243	944.88
470.462	966.88
470.681	978.88
470.901	973.88
471.12	936.88
471.339	920.88
471.558	909.88
471.777	886.88
471.997	891.88
472.216	903.88
472.435	898.88
472.654	854.88
472.873	824.88
473.092	869.88
473.311	862.88
473.53	867.88
473.749	842.88
473.968	877.88
474.187	841.88
474.406	849.88
474.625	844.88
474.844	859.88
475.063	881.88
475.282	871.88
475.501	890.88
475.72	869.88
475.939	868.88
476.158	900.88
476.377	891.88
476.596	890.88
476.814	890.88
477.033	911.88
477.252	933.88
477.471	953.88
477.69	967.88
477.908	984.88
478.127	996.88
478.346	1043.88
478.564	1056.88
478.783	1096.88
479.002	1078.88
479.22	1085.88
479.439	1098.88
479.658	1079.88
479.876	1047.88
480.095	1066.88
480.313	1144.88
480.532	1150.88
480.751	1160.88
480.969	1084.88
481.188	1043.88
481.406	1085.88
481.624	998.88
481.843	939.88
482.061	978.88
482.28	958.88
482.498	976.88
482.717	939.88
482.935	954.88
483.153	961.88
483.372	960.88
483.59	970.88
483.808	978.88
484.027	982.88
484.245	984.88
484.463	982.88
484.681	1002.88
484.9	1021.88
485.118	988.88
485.336	994.88
485.554	1029.88
485.772	1018.88
485.99	1023.88
486.209	1050.88
486.427	1053.88
486.645	1072.88
486.863	1056.88
487.081	1029.88
487.299	1026.88
487.517	1022.88
487.735	1002.88
487.953	1018.88
488.171	1035.88
488.389	1002.88
488.607	992.88
488.825	997.88
489.043	1000.88
489.261	984.88
489.479	1001.88
489.696	1010.88
489.914	992.88
490.132	983.88
490.35	1017.88
490.568	1036.88
490.786	1003.88
491.003	1016.88
491.221	1020.88
491.439	1005.88
491.657	1008.88
491.874	1013.88
492.092	1043.88
492.31	1056.88
492.527	1060.88
492.745	1036.88
492.963	1038.88
493.18	1056.88
493.398	1065.88
493.615	1056.88
493.833	1047.88
494.05	1068.88
494.268	1088.88
494.485	1076.88
494.703	1096.88
494.92	1080.88
495.138	1062.88
495.355	1077.88
495.573	1093.88
495.79	1089.88
496.008	1074.88
496.225	1118.88
496.442	1085.88
496.66	1105.88
496.877	1117.88
497.094	1138.88
497.312	1136.88
497.529	1175.88
497.746	1213.88
497.963	1257.88
498.181	1310.88
498.398	1353.88
498.615	1432.88
498.832	1532.88
499.049	1700.88
499.267	1802.88
499.484	1994.88
499.701	2270.88
499.918	2472.88
500.135	2912.88
500.352	3404.88
500.569	3565.88
500.786	3556.88
501.003	3262.88
501.22	2901.88
501.437	2498.88
501.654	2166.88
501.871	1976.88
502.088	1795.88
502.305	1636.88
502.522	1572.88
502.739	1514.88
502.956	1415.88
503.172	1365.88
503.389	1308.88
503.606	1256.88
503.823	1246.88
504.04	1210.88
504.256	1256.88
504.473	1334.88
504.69	1359.88
504.907	1319.88
505.123	1238.88
505.34	1140.88
505.557	1095.88
505.773	1074.88
505.99	1035.88
506.207	1028.88
506.423	1007.88
506.64	976.88
506.856	975.88
507.073	952.88
507.289	964.88
507.506	951.88
507.722	978.88
507.939	932.88
508.155	931.88
508.372	900.88
508.588	907.88
508.805	924.88
509.021	874.88
509.238	890.88
509.454	904.88
509.67	876.88
509.887	876.88
510.103	892.88
510.319	891.88
510.536	877.88
510.752	912.88
510.968	896.88
511.184	892.88
511.401	855.88
511.617	873.88
511.833	881.88
512.049	881.88
512.265	893.88
512.481	897.88
512.698	864.88
512.914	889.88
513.13	864.88
513.346	858.88
513.562	903.88
513.778	888.88
513.994	876.88
514.21	877.88
514.426	913.88
514.642	887.88
514.858	910.88
515.074	898.88
515.29	919.88
515.506	918.88
515.721	932.88
515.937	951.88
516.153	948.88
516.369	977.88
516.585	1035.88
516.801	1059.88
517.016	1073.88
517.232	1138.88
517.448	1197.88
517.664	1278.88
517.879	1284.88
518.095	1291.88
518.311	1238.88
518.527	1162.88
518.742	1104.88
518.958	1084.88
519.173	1010.88
519.389	984.88
519.605	948.88
519.82	929.88
520.036	950.88
520.251	939.88
520.467	906.88
520.682	892.88
520.898	883.88
521.113	869.88
521.329	882.88
521.544	862.88
521.76	836.88
521.975	839.88
522.19	842.88
522.406	816.88
522.621	844.88
522.836	829.88
523.052	861.88
523.267	833.88
523.482	786.88
523.698	814.88
523.913	830.88
524.128	822.88
524.343	797.88
524.559	810.88
524.774	808.88
524.989	808.88
525.204	821.88
525.419	822.88
525.634	794.88
525.849	814.88
526.064	782.88
526.28	801.88
526.495	802.88
526.71	808.88
526.925	765.88
527.14	790.88
527.355	808.88
527.57	787.88
527.785	792.88
527.999	819.88
528.214	790.88
528.429	804.88
528.644	795.88
528.859	802.88
529.074	800.88
529.289	810.88
529.503	781.88
529.718	817.88
529.933	776.88
530.148	795.88
530.363	789.88
530.577	768.88
530.792	798.88
531.007	788.88
531.221	805.88
531.436	805.88
531.651	813.88
531.865	813.88
532.08	811.88
532.295	772.88
532.509	804.88
532.724	793.88
532.938	792.88
533.153	818.88
533.367	804.88
533.582	809.88
533.796	798.88
534.011	761.88
534.225	794.88
534.44	778.88
534.654	785.88
534.868	793.88
535.083	782.88
535.297	771.88
535.511	775.88
535.726	772.88
535.94	788.88
536.154	762.88
536.369	742.88
536.583	718.88
536.797	729.88
537.011	736.88
537.225	755.88
537.44	753.88
537.654	747.88
537.868	722.88
538.082	723.88
538.296	721.88
538.51	716.88
538.724	735.88
538.938	714.88
539.153	731.88
539.367	752.88
539.581	710.88
539.795	694.88
540.009	701.88
540.222	705.88
540.436	721.88
540.65	716.88
540.864	693.88
541.078	690.88
541.292	695.88
541.506	711.88
541.72	722.88
541.934	706.88
542.147	707.88
542.361	717.88
542.575	724.88
542.789	700.88
543.002	700.88
543.216	685.88
543.43	695.88
543.644	706.88
543.857	702.88
544.071	691.88
544.285	701.88
544.498	696.88
544.712	717.88
544.925	711.88
545.139	720.88
545.352	734.88
545.566	729.88
545.779	755.88
545.993	711.88
546.206	739.88
546.42	743.88
546.633	728.88
546.847	719.88
547.06	727.88
547.274	715.88
547.487	732.88
547.7	736.88
547.914	733.88
548.127	740.88
548.34	736.88
548.554	747.88
548.767	736.88
548.98	741.88
549.193	737.88
549.407	726.88
549.62	758.88
549.833	757.88
550.046	759.88
550.259	730.88
550.473	736.88
550.686	731.88
550.899	729.88
551.112	684.88
551.325	699.88
551.538	686.88
551.751	679.88
551.964	705.88
552.177	726.88
552.39	744.88
552.603	728.88
552.816	788.88
553.029	766.88
553.242	792.88
553.455	827.88
553.667	824.88
553.88	822.88
554.093	777.88
554.306	744.88
554.519	761.88
554.732	735.88
554.944	712.88
555.157	717.88
555.37	704.88
555.583	702.88
555.795	684.88
556.008	647.88
556.221	660.88
556.433	652.88
556.646	643.88
556.859	653.88
557.071	631.88
557.284	639.88
557.496	594.88
557.709	620.88
557.921	644.88
558.134	599.88
558.346	609.88
558.559	625.88
558.771	624.88
558.984	645.88
559.196	627.88
559.409	619.88
559.621	584.88
559.833	603.88
560.046	604.88
560.258	585.88
560.47	581.88
560.683	581.88
560.895	614.88
561.107	598.88
561.32	575.88
561.532	616.88
561.744	611.88
561.956	614.88
562.168	606.88
562.381	601.88
562.593	606.88
562.805	610.88
563.017	598.88
563.229	596.88
563.441	617.88
563.653	615.88
563.865	620.88
564.077	615.88
564.289	619.88
564.501	616.88
564.713	644.88
564.925	638.88
565.137	678.88
565.349	676.88
565.561	689.88
565.773	702.88
565.985	761.88
566.197	782.88
566.408	856.88
566.62	942.88
566.832	1028.88
567.044	1024.88
567.255	1011.88
567.467	1042.88
567.679	1083.88
567.891	1196.88
568.102	1260.88
568.314	1225.88
568.526	1078.88
568.737	944.88
568.949	902.88
569.161	773.88
569.372	713.88
569.584	700.88
569.795	685.88
570.007	668.88
570.218	648.88
570.43	639.88
570.641	648.88
570.853	644.88
571.064	637.88
571.276	638.88
571.487	633.88
571.698	591.88
571.91	551.88
572.121	572.88
572.333	540.88
572.544	518.88
572.755	540.88
572.966	539.88
573.178	524.88
573.389	516.88
573.6	503.88
573.811	503.88
574.023	507.88
574.234	516.88
574.445	514.88
574.656	507.88
574.867	513.88
575.078	516.88
575.289	513.88
575.501	493.88
575.712	490.88
575.923	468.88
576.134	483.88
576.345	470.88
576.556	465.88
576.767	466.88
576.978	463.88
577.188	459.88
577.399	472.88
577.61	463.88
577.821	460.88
578.032	463.88
578.243	461.88
578.454	465.88
578.665	453.88
578.875	441.88
579.086	441.88
579.297	465.88
579.508	447.88
579.718	420.88
579.929	446.88
580.14	445.88
580.35	448.88
580.561	431.88
580.772	440.88
580.982	452.88
581.193	413.88
581.403	422.88
581.614	454.88
581.825	435.88
582.035	409.88
582.246	429.88
582.456	429.88
582.667	426.88
582.877	412.88
583.087	422.88
583.298	418.88
583.508	425.88
583.719	445.88
583.929	417.88
584.139	428.88
584.35	418.88
584.56	413.88
584.77	422.88
584.981	413.88
585.191	416.88
585.401	405.88
585.611	403.88
585.821	400.88
586.032	411.88
586.242	414.88
586.452	419.88
586.662	412.88
586.872	407.88
587.082	410.88
587.292	396.88
587.502	402.88
587.713	424.88
587.923	395.88
588.133	403.88
588.343	405.88
588.553	404.88
588.762	378.88
588.972	424.88
589.182	405.88
589.392	399.88
589.602	402.88
589.812	404.88
590.022	406.88
590.232	409.88
590.441	420.88
590.651	412.88
590.861	403.88
591.071	420.88
591.281	418.88
591.49	413.88
591.7	426.88
591.91	424.88
592.119	452.88
592.329	446.88
592.539	473.88
592.748	481.88
592.958	483.88
593.167	536.88
593.377	528.88
593.587	517.88
593.796	536.88
594.006	544.88
594.215	560.88
594.424	541.88
594.634	535.88
594.843	506.88
595.053	498.88
595.262	477.88
595.472	447.88
595.681	417.88
595.89	430.88
596.1	422.88
596.309	419.88
596.518	425.88
596.727	402.88
596.937	371.88
597.146	388.88
597.355	360.88
597.564	384.88
597.774	373.88
597.983	390.88
598.192	353.88
598.401	371.88
598.61	356.88
598.819	361.88
599.028	350.88
599.237	343.88
599.446	349.88
599.655	343.88
599.864	345.88
600.073	345.88
600.282	349.88
600.491	352.88
600.7	345.88
600.909	340.88
601.118	336.88
601.327	342.88
601.536	339.88
601.745	332.88
601.953	352.88
602.162	343.88
602.371	341.88
602.58	339.88
602.789	341.88
602.997	335.88
603.206	334.88
603.415	316.88
603.623	339.88
603.832	314.88
604.041	341.88
604.249	325.88
604.458	332.88
604.666	314.88
604.875	318.88
605.084	322.88
605.292	323.88
605.501	329.88
605.709	337.88
605.918	328.88
606.126	314.88
606.334	306.88
606.543	321.88
606.751	317.88
606.96	309.88
607.168	310.88
607.376	290.88
607.585	317.88
607.793	311.88
608.001	331.88
608.21	313.88
608.418	308.88
608.626	310.88
608.834	307.88
609.043	320.88
609.251	306.88
609.459	305.88
609.667	316.88
609.875	315.88
610.083	302.88
610.291	301.88
610.499	304.88
610.707	297.88
610.916	294.88
611.124	296.88
611.332	312.88
611.54	304.88
611.748	287.88
611.955	301.88
612.163	308.88
612.371	322.88
612.579	300.88
612.787	299.88
612.995	297.88
613.203	304.88
613.411	323.88
613.618	318.88
613.826	306.88
614.034	302.88
614.242	301.88
614.449	294.88
614.657	289.88
614.865	299.88
615.072	298.88
615.28	299.88
615.488	314.88
615.695	294.88
615.903	297.88
616.111	310.88
616.318	295.88
616.526	282.88
616.733	286.88
616.941	300.88
617.148	319.88
617.356	287.88
617.563	308.88
617.771	289.88
617.978	288.88
618.185	294.88
618.393	300.88
618.6	284.88
618.807	299.88
619.015	294.88
619.222	292.88
619.429	277.88
619.637	282.88
619.844	273.88
620.051	280.88
620.258	286.88
620.466	279.88
620.673	274.88
620.88	266.88
621.087	262.88
621.294	302.88
621.501	293.88
621.708	267.88
621.915	274.88
622.122	277.88
622.329	280.88
622.536	268.88
622.743	271.88
622.95	280.88
623.157	270.88
623.364	275.88
623.571	269.88
623.778	262.88
623.985	248.88
624.192	257.88
624.399	265.88
624.606	262.88
624.812	254.88
625.019	268.88
625.226	262.88
625.433	254.88
625.639	258.88
625.846	259.88
626.053	276.88
626.259	272.88
626.466	248.88
626.673	260.88
626.879	243.88
627.086	242.88
627.293	259.88
627.499	240.88
627.706	245.88
627.912	248.88
628.119	241.88
628.325	265.88
628.532	248.88
628.738	243.88
628.945	237.88
629.151	223.88
629.357	246.88
629.564	242.88
629.77	225.88
629.976	242.88
630.183	237.88
630.389	236.88
630.595	212.88
630.802	225.88
631.008	218.88
631.214	234.88
631.42	235.88
631.627	225.88
631.833	228.88
632.039	221.88
632.245	223.88
632.451	224.88
632.657	216.88
632.863	222.88
633.069	232.88
633.275	219.88
633.481	220.88
633.688	219.88
633.893	232.88
634.099	224.88
634.305	226.88
634.511	208.88
634.717	216.88
634.923	236.88
635.129	193.88
635.335	224.88
635.541	226.88
635.747	217.88
635.952	217.88
636.158	216.88
636.364	226.88
636.57	207.88
636.775	210.88
636.981	216.88
637.187	226.88
637.392	232.88
637.598	203.88
637.804	213.88
638.009	215.88
638.215	211.88
638.421	205.88
638.626	205.88
638.832	212.88
639.037	210.88
639.243	205.88
639.448	194.88
639.654	200.88
639.859	201.88
640.065	198.88
640.27	210.88
640.475	191.88
640.681	200.88
640.886	198.88
641.091	197.88
641.297	204.88
641.502	189.88
641.707	192.88
641.913	197.88
642.118	184.88
642.323	213.88
642.528	196.88
642.733	193.88
642.939	191.88
643.144	193.88
643.349	196.88
643.554	179.88
643.759	199.88
643.964	196.88
644.169	186.88
644.374	195.88
644.579	178.88
644.784	190.88
644.989	199.88
645.194	193.88
645.399	196.88
645.604	190.88
645.809	194.88
646.014	201.88
646.219	186.88
646.423	182.88
646.628	197.88
646.833	189.88
647.038	190.88
647.243	196.88
647.447	192.88
647.652	188.88
647.857	193.88
648.062	204.88
648.266	216.88
648.471	218.88
648.676	209.88
648.88	206.88
649.085	187.88
649.289	184.88
649.494	184.88
649.698	205.88
649.903	183.88
650.107	192.88
650.312	170.88
650.516	190.88
650.721	181.88
650.925	186.88
651.13	174.88
651.334	172.88
651.539	165.88
651.743	176.88
651.947	174.88
652.152	169.88
652.356	167.88
652.56	166.88
652.764	154.88
652.969	177.88
653.173	148.88
653.377	150.88
653.581	143.88
653.785	138.88
653.99	156.88
654.194	152.88
654.398	151.88
654.602	157.88
654.806	170.88
655.01	145.88
655.214	139.88
655.418	134.88
655.622	131.88
655.826	142.88
656.03	137.88
656.234	124.88
656.438	128.88
656.642	127.88
656.846	133.88
657.049	114.88
657.253	131.88
657.457	124.88
657.661	124.88
657.865	125.88
658.068	107.88
658.272	116.88
658.476	116.88
658.68	109.88
658.883	100.88
659.087	107.88
659.291	103.88
659.494	98.88
659.698	92.88
659.901	98.88
660.105	108.88
660.309	89.88
660.512	92.88
660.716	99.88
660.919	92.88
661.123	93.88
661.326	81.88
661.53	85.88
661.733	97.88
661.936	91.88
662.14	81.88
662.343	74.88
662.546	88.88
662.75	90.88
662.953	82.88
663.156	98.88
663.36	88.88
663.563	91.88
663.766	86.88
663.969	83.88
664.173	85.88
664.376	81.88
664.579	80.88
664.782	97.88
664.985	71.88
665.188	81.88
665.391	68.88
665.594	78.88
665.797	90.88
666	86.88
666.203	75.88
666.406	75.88
666.609	73.88
666.812	82.88
667.015	76.88
667.218	86.88
667.421	85.88
667.624	87.88
667.827	76.88
668.03	82.88
668.232	87.88
668.435	80.88
668.638	85.88
668.841	86.88
669.043	76.88
669.246	88.88
669.449	81.88
669.651	84.88
669.854	70.88
670.057	84.88
670.259	84.88
670.462	80.88
670.665	75.88
670.867	74.88
671.07	84.88
671.272	84.88
671.475	72.88
671.677	77.88
671.88	78.88
672.082	72.88
672.284	69.88
672.487	79.88
672.689	90.88
672.892	82.88
