Data from NiCl2@0.25M.TitratingCurve.Agarose3%dH2O.NegLispCup.LampEnergy10.LIBS07252019_HRD10591_18-23-16-573.txt Node
Date: Thu Jul 25 18:23:16 EDT 2019
User: cochatt
Spectrometer: HR+D1059
Trigger mode: 1
Integration Time (sec): 1.000000E-1
Scans to average: 1
Electric dark correction enabled: true
Nonlinearity correction enabled: false
Boxcar width: 0
XAxis mode: Wavelengths
Number of Pixels in Spectrum: 2048
>>>>>Begin Spectral Data<<<<<
223.165	-17.25
223.4	-17.25
223.635	-17.25
223.869	-23.25
224.104	-18.25
224.338	-12.25
224.573	-2.25
224.808	-1.25
225.042	-9.25
225.277	-11.25
225.511	-0.25
225.746	12.75
225.98	11.75
226.215	11.75
226.449	2.75
226.683	14.75
226.918	22.75
227.152	18.75
227.387	27.75
227.621	18.75
227.856	50.75
228.09	30.75
228.324	35.75
228.559	55.75
228.793	79.75
229.027	85.75
229.262	82.75
229.496	111.75
229.73	99.75
229.964	110.75
230.199	112.75
230.433	119.75
230.667	117.75
230.901	112.75
231.136	109.75
231.37	117.75
231.604	121.75
231.838	122.75
232.072	135.75
232.306	127.75
232.541	142.75
232.775	120.75
233.009	127.75
233.243	110.75
233.477	122.75
233.711	121.75
233.945	130.75
234.179	134.75
234.413	116.75
234.647	129.75
234.881	126.75
235.115	138.75
235.349	122.75
235.583	112.75
235.817	129.75
236.051	135.75
236.285	118.75
236.519	140.75
236.753	137.75
236.987	123.75
237.221	133.75
237.455	137.75
237.689	158.75
237.922	130.75
238.156	144.75
238.39	132.75
238.624	141.75
238.858	145.75
239.091	162.75
239.325	132.75
239.559	136.75
239.793	153.75
240.027	131.75
240.26	155.75
240.494	163.75
240.728	151.75
240.961	134.75
241.195	145.75
241.429	159.75
241.662	134.75
241.896	146.75
242.13	167.75
242.363	158.75
242.597	158.75
242.83	172.75
243.064	171.75
243.298	164.75
243.531	139.75
243.765	154.75
243.998	184.75
244.232	167.75
244.465	168.75
244.699	162.75
244.932	167.75
245.166	165.75
245.399	176.75
245.633	157.75
245.866	165.75
246.099	163.75
246.333	169.75
246.566	191.75
246.8	175.75
247.033	171.75
247.266	166.75
247.5	183.75
247.733	187.75
247.966	179.75
248.2	173.75
248.433	191.75
248.666	182.75
248.899	180.75
249.133	194.75
249.366	180.75
249.599	217.75
249.832	190.75
250.066	200.75
250.299	200.75
250.532	191.75
250.765	210.75
250.998	195.75
251.231	194.75
251.465	202.75
251.698	222.75
251.931	205.75
252.164	212.75
252.397	216.75
252.63	214.75
252.863	210.75
253.096	222.75
253.329	206.75
253.562	206.75
253.795	219.75
254.028	219.75
254.261	217.75
254.494	206.75
254.727	216.75
254.96	212.75
255.193	217.75
255.426	221.75
255.659	225.75
255.892	229.75
256.124	215.75
256.357	214.75
256.59	212.75
256.823	211.75
257.056	239.75
257.289	233.75
257.521	213.75
257.754	224.75
257.987	217.75
258.22	248.75
258.452	244.75
258.685	256.75
258.918	230.75
259.151	237.75
259.383	225.75
259.616	245.75
259.849	246.75
260.081	236.75
260.314	231.75
260.547	246.75
260.779	239.75
261.012	242.75
261.244	252.75
261.477	246.75
261.71	251.75
261.942	242.75
262.175	253.75
262.407	253.75
262.64	238.75
262.872	253.75
263.105	257.75
263.337	245.75
263.57	271.75
263.802	258.75
264.035	249.75
264.267	263.75
264.499	255.75
264.732	288.75
264.964	278.75
265.197	259.75
265.429	257.75
265.661	284.75
265.894	267.75
266.126	265.75
266.358	266.75
266.591	274.75
266.823	286.75
267.055	283.75
267.287	287.75
267.52	279.75
267.752	266.75
267.984	275.75
268.216	283.75
268.448	275.75
268.681	294.75
268.913	273.75
269.145	299.75
269.377	293.75
269.609	280.75
269.841	296.75
270.073	286.75
270.306	276.75
270.538	289.75
270.77	306.75
271.002	299.75
271.234	296.75
271.466	297.75
271.698	281.75
271.93	308.75
272.162	304.75
272.394	305.75
272.626	298.75
272.858	311.75
273.09	291.75
273.322	313.75
273.553	316.75
273.785	312.75
274.017	327.75
274.249	317.75
274.481	307.75
274.713	315.75
274.945	321.75
275.176	308.75
275.408	301.75
275.64	314.75
275.872	311.75
276.104	306.75
276.335	325.75
276.567	307.75
276.799	314.75
277.031	341.75
277.262	335.75
277.494	335.75
277.726	340.75
277.957	346.75
278.189	319.75
278.421	334.75
278.652	323.75
278.884	352.75
279.115	331.75
279.347	350.75
279.579	347.75
279.81	345.75
280.042	354.75
280.273	338.75
280.505	347.75
280.736	340.75
280.968	354.75
281.199	353.75
281.431	349.75
281.662	354.75
281.894	341.75
282.125	351.75
282.356	380.75
282.588	358.75
282.819	359.75
283.051	352.75
283.282	359.75
283.513	357.75
283.745	363.75
283.976	362.75
284.207	370.75
284.439	354.75
284.67	378.75
284.901	369.75
285.132	371.75
285.364	375.75
285.595	365.75
285.826	359.75
286.057	371.75
286.288	371.75
286.52	371.75
286.751	367.75
286.982	400.75
287.213	394.75
287.444	400.75
287.675	384.75
287.906	390.75
288.138	379.75
288.369	371.75
288.6	405.75
288.831	383.75
289.062	374.75
289.293	399.75
289.524	401.75
289.755	387.75
289.986	390.75
290.217	394.75
290.448	398.75
290.679	391.75
290.91	402.75
291.141	390.75
291.371	386.75
291.602	411.75
291.833	396.75
292.064	412.75
292.295	390.75
292.526	410.75
292.757	390.75
292.987	401.75
293.218	396.75
293.449	414.75
293.68	410.75
293.91	412.75
294.141	389.75
294.372	400.75
294.603	401.75
294.833	389.75
295.064	407.75
295.295	392.75
295.525	398.75
295.756	404.75
295.987	398.75
296.217	395.75
296.448	397.75
296.679	418.75
296.909	413.75
297.14	430.75
297.37	433.75
297.601	412.75
297.831	409.75
298.062	418.75
298.292	449.75
298.523	415.75
298.753	436.75
298.984	427.75
299.214	419.75
299.445	425.75
299.675	435.75
299.905	417.75
300.136	446.75
300.366	457.75
300.597	448.75
300.827	432.75
301.057	421.75
301.288	459.75
301.518	439.75
301.748	434.75
301.979	451.75
302.209	458.75
302.439	457.75
302.669	455.75
302.9	465.75
303.13	453.75
303.36	453.75
303.59	430.75
303.82	457.75
304.051	458.75
304.281	456.75
304.511	470.75
304.741	477.75
304.971	462.75
305.201	458.75
305.431	455.75
305.661	446.75
305.891	452.75
306.121	457.75
306.352	450.75
306.582	437.75
306.812	458.75
307.042	447.75
307.272	465.75
307.502	444.75
307.731	445.75
307.961	449.75
308.191	472.75
308.421	435.75
308.651	437.75
308.881	450.75
309.111	448.75
309.341	435.75
309.571	468.75
309.8	442.75
310.03	468.75
310.26	466.75
310.49	441.75
310.72	454.75
310.949	453.75
311.179	438.75
311.409	454.75
311.639	470.75
311.868	474.75
312.098	477.75
312.328	464.75
312.557	468.75
312.787	457.75
313.017	465.75
313.246	475.75
313.476	490.75
313.706	507.75
313.935	482.75
314.165	487.75
314.394	472.75
314.624	490.75
314.853	483.75
315.083	487.75
315.312	481.75
315.542	496.75
315.771	481.75
316.001	479.75
316.23	475.75
316.46	475.75
316.689	465.75
316.919	484.75
317.148	479.75
317.377	500.75
317.607	472.75
317.836	488.75
318.065	497.75
318.295	503.75
318.524	474.75
318.753	460.75
318.983	482.75
319.212	477.75
319.441	500.75
319.67	494.75
319.9	503.75
320.129	517.75
320.358	481.75
320.587	504.75
320.816	475.75
321.046	477.75
321.275	475.75
321.504	499.75
321.733	489.75
321.962	497.75
322.191	517.75
322.42	497.75
322.649	485.75
322.878	509.75
323.108	457.75
323.337	493.75
323.566	484.75
323.795	488.75
324.024	494.75
324.253	491.75
324.482	513.75
324.71	501.75
324.939	527.75
325.168	496.75
325.397	527.75
325.626	509.75
325.855	522.75
326.084	527.75
326.313	535.75
326.542	533.75
326.77	564.75
326.999	533.75
327.228	518.75
327.457	523.75
327.686	528.75
327.914	521.75
328.143	533.75
328.372	531.75
328.6	539.75
328.829	528.75
329.058	537.75
329.287	515.75
329.515	534.75
329.744	544.75
329.972	569.75
330.201	521.75
330.43	566.75
330.658	530.75
330.887	557.75
331.115	565.75
331.344	568.75
331.572	578.75
331.801	563.75
332.03	583.75
332.258	585.75
332.486	628.75
332.715	612.75
332.943	618.75
333.172	651.75
333.4	666.75
333.629	662.75
333.857	689.75
334.085	682.75
334.314	669.75
334.542	656.75
334.771	652.75
334.999	661.75
335.227	635.75
335.455	622.75
335.684	652.75
335.912	630.75
336.14	628.75
336.369	645.75
336.597	635.75
336.825	644.75
337.053	649.75
337.281	616.75
337.51	617.75
337.738	627.75
337.966	607.75
338.194	594.75
338.422	590.75
338.65	585.75
338.878	627.75
339.106	574.75
339.334	586.75
339.562	582.75
339.79	549.75
340.018	564.75
340.246	543.75
340.474	559.75
340.702	570.75
340.93	550.75
341.158	578.75
341.386	559.75
341.614	555.75
341.842	555.75
342.07	567.75
342.298	557.75
342.526	540.75
342.754	547.75
342.981	593.75
343.209	568.75
343.437	598.75
343.665	609.75
343.893	634.75
344.12	662.75
344.348	623.75
344.576	616.75
344.804	615.75
345.031	597.75
345.259	582.75
345.487	581.75
345.714	577.75
345.942	549.75
346.17	561.75
346.397	561.75
346.625	562.75
346.853	551.75
347.08	519.75
347.308	561.75
347.535	549.75
347.763	553.75
347.99	545.75
348.218	532.75
348.445	529.75
348.673	559.75
348.9	536.75
349.128	554.75
349.355	526.75
349.583	550.75
349.81	544.75
350.037	535.75
350.265	527.75
350.492	535.75
350.72	534.75
350.947	529.75
351.174	515.75
351.402	527.75
351.629	514.75
351.856	523.75
352.083	499.75
352.311	534.75
352.538	536.75
352.765	544.75
352.992	535.75
353.22	519.75
353.447	516.75
353.674	498.75
353.901	529.75
354.128	520.75
354.355	514.75
354.583	548.75
354.81	518.75
355.037	535.75
355.264	512.75
355.491	515.75
355.718	520.75
355.945	513.75
356.172	509.75
356.399	521.75
356.626	531.75
356.853	525.75
357.08	506.75
357.307	532.75
357.534	538.75
357.761	518.75
357.988	518.75
358.215	521.75
358.441	531.75
358.668	529.75
358.895	539.75
359.122	497.75
359.349	522.75
359.576	537.75
359.802	522.75
360.029	539.75
360.256	537.75
360.483	530.75
360.709	511.75
360.936	529.75
361.163	529.75
361.39	544.75
361.616	530.75
361.843	518.75
362.07	544.75
362.296	522.75
362.523	538.75
362.749	530.75
362.976	536.75
363.203	515.75
363.429	521.75
363.656	528.75
363.882	531.75
364.109	528.75
364.335	536.75
364.562	541.75
364.788	545.75
365.015	543.75
365.241	535.75
365.468	529.75
365.694	534.75
365.92	521.75
366.147	522.75
366.373	531.75
366.599	552.75
366.826	527.75
367.052	518.75
367.278	522.75
367.505	544.75
367.731	559.75
367.957	535.75
368.184	537.75
368.41	547.75
368.636	519.75
368.862	529.75
369.089	531.75
369.315	557.75
369.541	545.75
369.767	554.75
369.993	569.75
370.219	550.75
370.445	562.75
370.672	565.75
370.898	567.75
371.124	568.75
371.35	577.75
371.576	562.75
371.802	584.75
372.028	571.75
372.254	572.75
372.48	574.75
372.706	579.75
372.932	589.75
373.158	592.75
373.384	581.75
373.61	564.75
373.835	571.75
374.061	577.75
374.287	598.75
374.513	558.75
374.739	605.75
374.965	631.75
375.191	639.75
375.416	613.75
375.642	602.75
375.868	593.75
376.094	592.75
376.319	583.75
376.545	577.75
376.771	586.75
376.997	547.75
377.222	565.75
377.448	570.75
377.674	595.75
377.899	575.75
378.125	569.75
378.35	565.75
378.576	559.75
378.802	568.75
379.027	566.75
379.253	585.75
379.478	539.75
379.704	558.75
379.929	567.75
380.155	587.75
380.38	552.75
380.606	583.75
380.831	581.75
381.057	579.75
381.282	578.75
381.507	576.75
381.733	576.75
381.958	593.75
382.184	572.75
382.409	595.75
382.634	610.75
382.86	603.75
383.085	623.75
383.31	597.75
383.535	633.75
383.761	629.75
383.986	619.75
384.211	623.75
384.436	653.75
384.662	649.75
384.887	669.75
385.112	662.75
385.337	677.75
385.562	691.75
385.787	665.75
386.013	692.75
386.238	685.75
386.463	690.75
386.688	678.75
386.913	666.75
387.138	662.75
387.363	670.75
387.588	652.75
387.813	658.75
388.038	665.75
388.263	660.75
388.488	648.75
388.713	649.75
388.938	663.75
389.163	681.75
389.387	675.75
389.612	667.75
389.837	654.75
390.062	664.75
390.287	685.75
390.512	659.75
390.736	663.75
390.961	682.75
391.186	695.75
391.411	722.75
391.636	702.75
391.86	737.75
392.085	737.75
392.31	751.75
392.534	738.75
392.759	715.75
392.984	705.75
393.208	705.75
393.433	701.75
393.658	700.75
393.882	705.75
394.107	700.75
394.331	725.75
394.556	746.75
394.78	735.75
395.005	705.75
395.229	729.75
395.454	759.75
395.678	775.75
395.903	760.75
396.127	738.75
396.352	706.75
396.576	721.75
396.801	732.75
397.025	746.75
397.249	733.75
397.474	764.75
397.698	777.75
397.922	787.75
398.147	740.75
398.371	742.75
398.595	803.75
398.82	829.75
399.044	872.75
399.268	967.75
399.492	1026.75
399.717	1154.75
399.941	1183.75
400.165	1056.75
400.389	974.75
400.613	924.75
400.837	888.75
401.062	863.75
401.286	808.75
401.51	863.75
401.734	843.75
401.958	856.75
402.182	829.75
402.406	863.75
402.63	865.75
402.854	906.75
403.078	889.75
403.302	912.75
403.526	923.75
403.75	916.75
403.974	948.75
404.198	920.75
404.422	931.75
404.645	920.75
404.869	930.75
405.093	925.75
405.317	930.75
405.541	915.75
405.765	906.75
405.988	888.75
406.212	921.75
406.436	907.75
406.66	929.75
406.883	942.75
407.107	998.75
407.331	1002.75
407.555	1049.75
407.778	1021.75
408.002	1000.75
408.226	993.75
408.449	993.75
408.673	948.75
408.896	960.75
409.12	935.75
409.344	943.75
409.567	949.75
409.791	954.75
410.014	931.75
410.238	945.75
410.461	922.75
410.685	924.75
410.908	883.75
411.132	920.75
411.355	877.75
411.578	881.75
411.802	877.75
412.025	854.75
412.249	869.75
412.472	882.75
412.695	872.75
412.919	835.75
413.142	821.75
413.365	825.75
413.589	848.75
413.812	873.75
414.035	827.75
414.258	825.75
414.482	831.75
414.705	847.75
414.928	847.75
415.151	827.75
415.374	850.75
415.597	834.75
415.821	801.75
416.044	776.75
416.267	841.75
416.49	824.75
416.713	804.75
416.936	804.75
417.159	813.75
417.382	793.75
417.605	815.75
417.828	818.75
418.051	836.75
418.274	844.75
418.497	835.75
418.72	849.75
418.943	832.75
419.166	859.75
419.389	914.75
419.611	911.75
419.834	878.75
420.057	861.75
420.28	829.75
420.503	842.75
420.726	829.75
420.948	823.75
421.171	809.75
421.394	808.75
421.617	802.75
421.839	816.75
422.062	839.75
422.285	823.75
422.507	840.75
422.73	834.75
422.953	859.75
423.175	854.75
423.398	862.75
423.621	838.75
423.843	861.75
424.066	868.75
424.288	842.75
424.511	829.75
424.733	834.75
424.956	821.75
425.178	809.75
425.401	809.75
425.623	797.75
425.846	783.75
426.068	798.75
426.291	801.75
426.513	792.75
426.735	751.75
426.958	775.75
427.18	764.75
427.402	774.75
427.625	754.75
427.847	742.75
428.069	757.75
428.292	749.75
428.514	758.75
428.736	724.75
428.958	755.75
429.181	742.75
429.403	714.75
429.625	745.75
429.847	741.75
430.069	727.75
430.292	735.75
430.514	735.75
430.736	738.75
430.958	740.75
431.18	698.75
431.402	715.75
431.624	728.75
431.846	752.75
432.068	729.75
432.29	757.75
432.512	736.75
432.734	754.75
432.956	741.75
433.178	745.75
433.4	759.75
433.622	755.75
433.844	749.75
434.066	742.75
434.287	757.75
434.509	777.75
434.731	809.75
434.953	818.75
435.175	823.75
435.397	815.75
435.618	791.75
435.84	779.75
436.062	777.75
436.284	759.75
436.505	744.75
436.727	773.75
436.949	746.75
437.17	744.75
437.392	722.75
437.614	724.75
437.835	718.75
438.057	747.75
438.278	704.75
438.5	711.75
438.721	713.75
438.943	721.75
439.165	722.75
439.386	717.75
439.608	743.75
439.829	758.75
440.05	756.75
440.272	742.75
440.493	723.75
440.715	770.75
440.936	768.75
441.158	764.75
441.379	780.75
441.6	812.75
441.822	815.75
442.043	835.75
442.264	823.75
442.486	782.75
442.707	802.75
442.928	819.75
443.149	794.75
443.371	799.75
443.592	787.75
443.813	803.75
444.034	817.75
444.255	821.75
444.476	888.75
444.698	889.75
444.919	957.75
445.14	1042.75
445.361	911.75
445.582	841.75
445.803	806.75
446.024	783.75
446.245	789.75
446.466	759.75
446.687	769.75
446.908	765.75
447.129	759.75
447.35	718.75
447.571	724.75
447.792	704.75
448.013	709.75
448.234	681.75
448.455	674.75
448.675	707.75
448.896	691.75
449.117	666.75
449.338	689.75
449.559	700.75
449.779	668.75
450	680.75
450.221	678.75
450.442	665.75
450.662	682.75
450.883	691.75
451.104	659.75
451.324	682.75
451.545	681.75
451.766	707.75
451.986	692.75
452.207	687.75
452.428	699.75
452.648	676.75
452.869	666.75
453.089	651.75
453.31	692.75
453.53	639.75
453.751	649.75
453.971	691.75
454.192	661.75
454.412	661.75
454.633	672.75
454.853	629.75
455.073	640.75
455.294	651.75
455.514	648.75
455.734	634.75
455.955	647.75
456.175	654.75
456.395	639.75
456.616	672.75
456.836	657.75
457.056	663.75
457.276	666.75
457.497	647.75
457.717	657.75
457.937	658.75
458.157	666.75
458.377	685.75
458.598	703.75
458.818	677.75
459.038	719.75
459.258	702.75
459.478	753.75
459.698	769.75
459.918	827.75
460.138	826.75
460.358	843.75
460.578	834.75
460.798	857.75
461.018	880.75
461.238	869.75
461.458	865.75
461.678	858.75
461.898	871.75
462.118	858.75
462.338	899.75
462.558	928.75
462.777	955.75
462.997	1040.75
463.217	1095.75
463.437	1093.75
463.657	1025.75
463.876	988.75
464.096	981.75
464.316	947.75
464.536	1002.75
464.755	950.75
464.975	911.75
465.195	865.75
465.414	840.75
465.634	804.75
465.854	779.75
466.073	770.75
466.293	741.75
466.512	755.75
466.732	740.75
466.951	719.75
467.171	757.75
467.391	737.75
467.61	716.75
467.829	720.75
468.049	739.75
468.268	707.75
468.488	689.75
468.707	686.75
468.927	700.75
469.146	686.75
469.365	727.75
469.585	696.75
469.804	715.75
470.023	715.75
470.243	727.75
470.462	729.75
470.681	744.75
470.901	742.75
471.12	714.75
471.339	710.75
471.558	723.75
471.777	713.75
471.997	688.75
472.216	703.75
472.435	682.75
472.654	705.75
472.873	687.75
473.092	665.75
473.311	676.75
473.53	682.75
473.749	661.75
473.968	694.75
474.187	656.75
474.406	685.75
474.625	676.75
474.844	657.75
475.063	693.75
475.282	698.75
475.501	697.75
475.72	727.75
475.939	712.75
476.158	704.75
476.377	719.75
476.596	721.75
476.814	732.75
477.033	723.75
477.252	729.75
477.471	762.75
477.69	770.75
477.908	770.75
478.127	826.75
478.346	803.75
478.564	805.75
478.783	833.75
479.002	847.75
479.22	845.75
479.439	862.75
479.658	820.75
479.876	847.75
480.095	854.75
480.313	871.75
480.532	893.75
480.751	863.75
480.969	869.75
481.188	817.75
481.406	825.75
481.624	821.75
481.843	799.75
482.061	791.75
482.28	806.75
482.498	799.75
482.717	763.75
482.935	792.75
483.153	794.75
483.372	782.75
483.59	819.75
483.808	777.75
484.027	803.75
484.245	827.75
484.463	794.75
484.681	812.75
484.9	811.75
485.118	813.75
485.336	799.75
485.554	811.75
485.772	837.75
485.99	823.75
486.209	824.75
486.427	817.75
486.645	795.75
486.863	797.75
487.081	793.75
487.299	801.75
487.517	854.75
487.735	823.75
487.953	867.75
488.171	829.75
488.389	824.75
488.607	822.75
488.825	800.75
489.043	835.75
489.261	818.75
489.479	823.75
489.696	822.75
489.914	831.75
490.132	826.75
490.35	823.75
490.568	824.75
490.786	856.75
491.003	826.75
491.221	854.75
491.439	871.75
491.657	843.75
491.874	878.75
492.092	884.75
492.31	883.75
492.527	856.75
492.745	881.75
492.963	864.75
493.18	859.75
493.398	867.75
493.615	853.75
493.833	862.75
494.05	884.75
494.268	869.75
494.485	867.75
494.703	869.75
494.92	902.75
495.138	929.75
495.355	895.75
495.573	915.75
495.79	898.75
496.008	936.75
496.225	898.75
496.442	942.75
496.66	931.75
496.877	932.75
497.094	937.75
497.312	964.75
497.529	988.75
497.746	1016.75
497.963	1017.75
498.181	1080.75
498.398	1112.75
498.615	1177.75
498.832	1246.75
499.049	1331.75
499.267	1401.75
499.484	1517.75
499.701	1601.75
499.918	1755.75
500.135	1951.75
500.352	2160.75
500.569	2228.75
500.786	2207.75
501.003	2064.75
501.22	1893.75
501.437	1719.75
501.654	1563.75
501.871	1441.75
502.088	1351.75
502.305	1269.75
502.522	1236.75
502.739	1167.75
502.956	1124.75
503.172	1097.75
503.389	1043.75
503.606	1026.75
503.823	993.75
504.04	991.75
504.256	993.75
504.473	1006.75
504.69	1015.75
504.907	975.75
505.123	963.75
505.34	926.75
505.557	897.75
505.773	887.75
505.99	840.75
506.207	831.75
506.423	810.75
506.64	807.75
506.856	785.75
507.073	781.75
507.289	782.75
507.506	803.75
507.722	785.75
507.939	771.75
508.155	758.75
508.372	749.75
508.588	757.75
508.805	749.75
509.021	736.75
509.238	751.75
509.454	715.75
509.67	729.75
509.887	728.75
510.103	755.75
510.319	717.75
510.536	721.75
510.752	744.75
510.968	729.75
511.184	705.75
511.401	729.75
511.617	721.75
511.833	719.75
512.049	719.75
512.265	726.75
512.481	715.75
512.698	723.75
512.914	712.75
513.13	681.75
513.346	714.75
513.562	712.75
513.778	711.75
513.994	719.75
514.21	729.75
514.426	702.75
514.642	697.75
514.858	723.75
515.074	757.75
515.29	780.75
515.506	760.75
515.721	768.75
515.937	770.75
516.153	786.75
516.369	794.75
516.585	803.75
516.801	821.75
517.016	840.75
517.232	890.75
517.448	899.75
517.664	934.75
517.879	919.75
518.095	929.75
518.311	915.75
518.527	875.75
518.742	881.75
518.958	830.75
519.173	838.75
519.389	798.75
519.605	750.75
519.82	782.75
520.036	747.75
520.251	721.75
520.467	733.75
520.682	717.75
520.898	720.75
521.113	705.75
521.329	701.75
521.544	723.75
521.76	708.75
521.975	705.75
522.19	693.75
522.406	689.75
522.621	661.75
522.836	693.75
523.052	675.75
523.267	676.75
523.482	670.75
523.698	678.75
523.913	663.75
524.128	696.75
524.343	665.75
524.559	658.75
524.774	672.75
524.989	675.75
525.204	644.75
525.419	655.75
525.634	648.75
525.849	649.75
526.064	666.75
526.28	669.75
526.495	646.75
526.71	642.75
526.925	662.75
527.14	625.75
527.355	649.75
527.57	651.75
527.785	651.75
527.999	643.75
528.214	653.75
528.429	631.75
528.644	634.75
528.859	655.75
529.074	673.75
529.289	682.75
529.503	671.75
529.718	641.75
529.933	658.75
530.148	639.75
530.363	633.75
530.577	637.75
530.792	635.75
531.007	646.75
531.221	643.75
531.436	618.75
531.651	643.75
531.865	649.75
532.08	650.75
532.295	634.75
532.509	639.75
532.724	650.75
532.938	641.75
533.153	650.75
533.367	630.75
533.582	641.75
533.796	665.75
534.011	625.75
534.225	639.75
534.44	600.75
534.654	633.75
534.868	639.75
535.083	621.75
535.297	625.75
535.511	606.75
535.726	628.75
535.94	604.75
536.154	628.75
536.369	633.75
536.583	615.75
536.797	608.75
537.011	609.75
537.225	600.75
537.44	616.75
537.654	584.75
537.868	586.75
538.082	583.75
538.296	611.75
538.51	561.75
538.724	609.75
538.938	592.75
539.153	588.75
539.367	591.75
539.581	575.75
539.795	596.75
540.009	593.75
540.222	576.75
540.436	595.75
540.65	574.75
540.864	575.75
541.078	571.75
541.292	567.75
541.506	578.75
541.72	574.75
541.934	601.75
542.147	574.75
542.361	587.75
542.575	590.75
542.789	568.75
543.002	564.75
543.216	584.75
543.43	586.75
543.644	584.75
543.857	573.75
544.071	554.75
544.285	605.75
544.498	562.75
544.712	613.75
544.925	589.75
545.139	587.75
545.352	579.75
545.566	616.75
545.779	602.75
545.993	611.75
546.206	591.75
546.42	597.75
546.633	587.75
546.847	613.75
547.06	578.75
547.274	589.75
547.487	605.75
547.7	585.75
547.914	573.75
548.127	611.75
548.34	600.75
548.554	608.75
548.767	593.75
548.98	593.75
549.193	602.75
549.407	589.75
549.62	600.75
549.833	601.75
550.046	582.75
550.259	609.75
550.473	575.75
550.686	560.75
550.899	563.75
551.112	576.75
551.325	601.75
551.538	585.75
551.751	601.75
551.964	588.75
552.177	577.75
552.39	577.75
552.603	599.75
552.816	615.75
553.029	604.75
553.242	621.75
553.455	597.75
553.667	624.75
553.88	621.75
554.093	609.75
554.306	569.75
554.519	586.75
554.732	569.75
554.944	573.75
555.157	566.75
555.37	542.75
555.583	546.75
555.795	562.75
556.008	521.75
556.221	524.75
556.433	530.75
556.646	529.75
556.859	497.75
557.071	516.75
557.284	525.75
557.496	541.75
557.709	495.75
557.921	494.75
558.134	497.75
558.346	514.75
558.559	521.75
558.771	515.75
558.984	490.75
559.196	511.75
559.409	483.75
559.621	506.75
559.833	477.75
560.046	497.75
560.258	493.75
560.47	472.75
560.683	486.75
560.895	482.75
561.107	499.75
561.32	485.75
561.532	493.75
561.744	504.75
561.956	524.75
562.168	495.75
562.381	495.75
562.593	483.75
562.805	499.75
563.017	503.75
563.229	501.75
563.441	481.75
563.653	513.75
563.865	500.75
564.077	494.75
564.289	490.75
564.501	528.75
564.713	539.75
564.925	531.75
565.137	518.75
565.349	542.75
565.561	563.75
565.773	570.75
565.985	600.75
566.197	611.75
566.408	676.75
566.62	669.75
566.832	750.75
567.044	737.75
567.255	746.75
567.467	749.75
567.679	772.75
567.891	827.75
568.102	810.75
568.314	781.75
568.526	697.75
568.737	687.75
568.949	639.75
569.161	607.75
569.372	560.75
569.584	544.75
569.795	539.75
570.007	521.75
570.218	521.75
570.43	481.75
570.641	487.75
570.853	486.75
571.064	490.75
571.276	480.75
571.487	469.75
571.698	474.75
571.91	447.75
572.121	460.75
572.333	435.75
572.544	434.75
572.755	409.75
572.966	394.75
573.178	420.75
573.389	432.75
573.6	389.75
573.811	390.75
574.023	407.75
574.234	394.75
574.445	394.75
574.656	426.75
574.867	425.75
575.078	417.75
575.289	402.75
575.501	378.75
575.712	375.75
575.923	383.75
576.134	372.75
576.345	365.75
576.556	378.75
576.767	396.75
576.978	378.75
577.188	383.75
577.399	368.75
577.61	379.75
577.821	368.75
578.032	370.75
578.243	383.75
578.454	381.75
578.665	369.75
578.875	349.75
579.086	371.75
579.297	367.75
579.508	353.75
579.718	339.75
579.929	365.75
580.14	359.75
580.35	353.75
580.561	348.75
580.772	349.75
580.982	340.75
581.193	341.75
581.403	358.75
581.614	344.75
581.825	351.75
582.035	345.75
582.246	336.75
582.456	352.75
582.667	357.75
582.877	353.75
583.087	352.75
583.298	342.75
583.508	334.75
583.719	332.75
583.929	340.75
584.139	350.75
584.35	337.75
584.56	325.75
584.77	323.75
584.981	322.75
585.191	333.75
585.401	323.75
585.611	335.75
585.821	330.75
586.032	325.75
586.242	322.75
586.452	344.75
586.662	318.75
586.872	330.75
587.082	330.75
587.292	335.75
587.502	318.75
587.713	314.75
587.923	320.75
588.133	338.75
588.343	310.75
588.553	338.75
588.762	325.75
588.972	340.75
589.182	326.75
589.392	341.75
589.602	329.75
589.812	338.75
590.022	337.75
590.232	331.75
590.441	334.75
590.651	320.75
590.861	319.75
591.071	354.75
591.281	350.75
591.49	339.75
591.7	343.75
591.91	343.75
592.119	337.75
592.329	354.75
592.539	367.75
592.748	381.75
592.958	387.75
593.167	374.75
593.377	388.75
593.587	413.75
593.796	395.75
594.006	387.75
594.215	388.75
594.424	389.75
594.634	378.75
594.843	371.75
595.053	368.75
595.262	336.75
595.472	359.75
595.681	334.75
595.89	337.75
596.1	329.75
596.309	310.75
596.518	316.75
596.727	309.75
596.937	315.75
597.146	299.75
597.355	313.75
597.564	286.75
597.774	284.75
597.983	311.75
598.192	277.75
598.401	297.75
598.61	290.75
598.819	304.75
599.028	287.75
599.237	285.75
599.446	280.75
599.655	274.75
599.864	291.75
600.073	281.75
600.282	285.75
600.491	279.75
600.7	280.75
600.909	282.75
601.118	267.75
601.327	264.75
601.536	278.75
601.745	273.75
601.953	282.75
602.162	276.75
602.371	267.75
602.58	271.75
602.789	275.75
602.997	265.75
603.206	257.75
603.415	256.75
603.623	280.75
603.832	268.75
604.041	273.75
604.249	258.75
604.458	251.75
604.666	278.75
604.875	264.75
605.084	261.75
605.292	251.75
605.501	246.75
605.709	276.75
605.918	246.75
606.126	270.75
606.334	261.75
606.543	264.75
606.751	254.75
606.96	262.75
607.168	264.75
607.376	262.75
607.585	246.75
607.793	248.75
608.001	239.75
608.21	247.75
608.418	243.75
608.626	257.75
608.834	266.75
609.043	255.75
609.251	260.75
609.459	239.75
609.667	277.75
609.875	257.75
610.083	251.75
610.291	251.75
610.499	234.75
610.707	258.75
610.916	238.75
611.124	254.75
611.332	239.75
611.54	246.75
611.748	250.75
611.955	255.75
612.163	255.75
612.371	260.75
612.579	258.75
612.787	239.75
612.995	269.75
613.203	242.75
613.411	244.75
613.618	234.75
613.826	248.75
614.034	261.75
614.242	228.75
614.449	236.75
614.657	234.75
614.865	250.75
615.072	241.75
615.28	252.75
615.488	231.75
615.695	232.75
615.903	249.75
616.111	241.75
616.318	247.75
616.526	241.75
616.733	241.75
616.941	235.75
617.148	255.75
617.356	240.75
617.563	232.75
617.771	226.75
617.978	223.75
618.185	245.75
618.393	228.75
618.6	227.75
618.807	231.75
619.015	234.75
619.222	233.75
619.429	247.75
619.637	231.75
619.844	242.75
620.051	226.75
620.258	235.75
620.466	240.75
620.673	218.75
620.88	221.75
621.087	233.75
621.294	230.75
621.501	210.75
621.708	216.75
621.915	229.75
622.122	224.75
622.329	231.75
622.536	224.75
622.743	215.75
622.95	216.75
623.157	220.75
623.364	207.75
623.571	223.75
623.778	215.75
623.985	219.75
624.192	230.75
624.399	216.75
624.606	209.75
624.812	218.75
625.019	206.75
625.226	208.75
625.433	238.75
625.639	220.75
625.846	207.75
626.053	221.75
626.259	217.75
626.466	224.75
626.673	199.75
626.879	203.75
627.086	222.75
627.293	203.75
627.499	209.75
627.706	201.75
627.912	193.75
628.119	202.75
628.325	205.75
628.532	195.75
628.738	192.75
628.945	207.75
629.151	206.75
629.357	203.75
629.564	207.75
629.77	222.75
629.976	209.75
630.183	186.75
630.389	213.75
630.595	182.75
630.802	196.75
631.008	199.75
631.214	189.75
631.42	191.75
631.627	192.75
631.833	192.75
632.039	205.75
632.245	173.75
632.451	200.75
632.657	196.75
632.863	180.75
633.069	210.75
633.275	189.75
633.481	191.75
633.688	197.75
633.893	196.75
634.099	187.75
634.305	203.75
634.511	181.75
634.717	168.75
634.923	181.75
635.129	193.75
635.335	170.75
635.541	183.75
635.747	181.75
635.952	181.75
636.158	176.75
636.364	174.75
636.57	186.75
636.775	192.75
636.981	189.75
637.187	201.75
637.392	166.75
637.598	175.75
637.804	166.75
638.009	189.75
638.215	168.75
638.421	185.75
638.626	179.75
638.832	185.75
639.037	188.75
639.243	179.75
639.448	175.75
639.654	181.75
639.859	185.75
640.065	192.75
640.27	185.75
640.475	153.75
640.681	161.75
640.886	175.75
641.091	174.75
641.297	183.75
641.502	182.75
641.707	175.75
641.913	176.75
642.118	167.75
642.323	182.75
642.528	165.75
642.733	162.75
642.939	178.75
643.144	168.75
643.349	181.75
643.554	163.75
643.759	166.75
643.964	160.75
644.169	171.75
644.374	169.75
644.579	175.75
644.784	165.75
644.989	162.75
645.194	168.75
645.399	146.75
645.604	157.75
645.809	159.75
646.014	151.75
646.219	162.75
646.423	166.75
646.628	164.75
646.833	155.75
647.038	163.75
647.243	173.75
647.447	158.75
647.652	157.75
647.857	176.75
648.062	181.75
648.266	178.75
648.471	167.75
648.676	181.75
648.88	177.75
649.085	181.75
649.289	151.75
649.494	163.75
649.698	166.75
649.903	177.75
650.107	157.75
650.312	161.75
650.516	160.75
650.721	176.75
650.925	165.75
651.13	152.75
651.334	165.75
651.539	142.75
651.743	160.75
651.947	139.75
652.152	140.75
652.356	166.75
652.56	151.75
652.764	140.75
652.969	141.75
653.173	138.75
653.377	138.75
653.581	130.75
653.785	135.75
653.99	131.75
654.194	148.75
654.398	145.75
654.602	128.75
654.806	147.75
655.01	135.75
655.214	129.75
655.418	126.75
655.622	133.75
655.826	132.75
656.03	143.75
656.234	149.75
656.438	137.75
656.642	137.75
656.846	127.75
657.049	125.75
657.253	126.75
657.457	121.75
657.661	120.75
657.865	136.75
658.068	103.75
658.272	99.75
658.476	106.75
658.68	106.75
658.883	102.75
659.087	103.75
659.291	101.75
659.494	102.75
659.698	102.75
659.901	97.75
660.105	97.75
660.309	110.75
660.512	102.75
660.716	92.75
660.919	99.75
661.123	98.75
661.326	85.75
661.53	98.75
661.733	94.75
661.936	84.75
662.14	74.75
662.343	91.75
662.546	82.75
662.75	87.75
662.953	96.75
663.156	91.75
663.36	86.75
663.563	83.75
663.766	69.75
663.969	84.75
664.173	85.75
664.376	79.75
664.579	81.75
664.782	74.75
664.985	78.75
665.188	75.75
665.391	90.75
665.594	79.75
665.797	83.75
666	69.75
666.203	79.75
666.406	73.75
666.609	77.75
666.812	80.75
667.015	83.75
667.218	91.75
667.421	80.75
667.624	77.75
667.827	74.75
668.03	93.75
668.232	67.75
668.435	88.75
668.638	77.75
668.841	81.75
669.043	101.75
669.246	91.75
669.449	86.75
669.651	83.75
669.854	83.75
670.057	69.75
670.259	71.75
670.462	85.75
670.665	81.75
670.867	73.75
671.07	74.75
671.272	69.75
671.475	69.75
671.677	65.75
671.88	79.75
672.082	79.75
672.284	80.75
672.487	82.75
672.689	75.75
672.892	97.75
