Data from NiCl2@0.0625M.TitratingCurve.Agarose3%dH2O.NegLispCup.LampEnergy10.LIBS07252019_HRD10591_18-33-47-576.txt Node
Date: Thu Jul 25 18:33:47 EDT 2019
User: cochatt
Spectrometer: HR+D1059
Trigger mode: 1
Integration Time (sec): 1.000000E-1
Scans to average: 1
Electric dark correction enabled: true
Nonlinearity correction enabled: false
Boxcar width: 0
XAxis mode: Wavelengths
Number of Pixels in Spectrum: 2048
>>>>>Begin Spectral Data<<<<<
223.165	-12.12
223.4	-12.12
223.635	-12.12
223.869	-6.12
224.104	-23.12
224.338	-21.12
224.573	-22.12
224.808	-20.12
225.042	0.88
225.277	-9.12
225.511	-15.12
225.746	-0.12
225.98	7.88
226.215	17.88
226.449	15.88
226.683	20.88
226.918	33.88
227.152	31.88
227.387	34.88
227.621	40.88
227.856	32.88
228.09	47.88
228.324	37.88
228.559	40.88
228.793	82.88
229.027	136.88
229.262	149.88
229.496	160.88
229.73	162.88
229.964	164.88
230.199	175.88
230.433	194.88
230.667	185.88
230.901	174.88
231.136	185.88
231.37	185.88
231.604	183.88
231.838	191.88
232.072	192.88
232.306	185.88
232.541	194.88
232.775	198.88
233.009	202.88
233.243	195.88
233.477	203.88
233.711	200.88
233.945	225.88
234.179	218.88
234.413	200.88
234.647	199.88
234.881	216.88
235.115	222.88
235.349	208.88
235.583	207.88
235.817	204.88
236.051	224.88
236.285	229.88
236.519	247.88
236.753	246.88
236.987	241.88
237.221	237.88
237.455	242.88
237.689	240.88
237.922	249.88
238.156	248.88
238.39	255.88
238.624	250.88
238.858	245.88
239.091	273.88
239.325	256.88
239.559	256.88
239.793	277.88
240.027	274.88
240.26	271.88
240.494	276.88
240.728	278.88
240.961	280.88
241.195	289.88
241.429	293.88
241.662	315.88
241.896	312.88
242.13	305.88
242.363	293.88
242.597	268.88
242.83	294.88
243.064	311.88
243.298	318.88
243.531	309.88
243.765	319.88
243.998	321.88
244.232	319.88
244.465	342.88
244.699	326.88
244.932	314.88
245.166	337.88
245.399	355.88
245.633	360.88
245.866	371.88
246.099	342.88
246.333	368.88
246.566	351.88
246.8	359.88
247.033	359.88
247.266	369.88
247.5	368.88
247.733	373.88
247.966	376.88
248.2	370.88
248.433	399.88
248.666	402.88
248.899	370.88
249.133	375.88
249.366	372.88
249.599	396.88
249.832	378.88
250.066	404.88
250.299	410.88
250.532	406.88
250.765	398.88
250.998	398.88
251.231	409.88
251.465	397.88
251.698	441.88
251.931	425.88
252.164	459.88
252.397	436.88
252.63	427.88
252.863	426.88
253.096	430.88
253.329	459.88
253.562	451.88
253.795	440.88
254.028	470.88
254.261	466.88
254.494	470.88
254.727	456.88
254.96	440.88
255.193	469.88
255.426	456.88
255.659	450.88
255.892	475.88
256.124	470.88
256.357	504.88
256.59	473.88
256.823	478.88
257.056	469.88
257.289	491.88
257.521	506.88
257.754	493.88
257.987	481.88
258.22	501.88
258.452	511.88
258.685	500.88
258.918	501.88
259.151	502.88
259.383	537.88
259.616	528.88
259.849	516.88
260.081	536.88
260.314	552.88
260.547	560.88
260.779	515.88
261.012	522.88
261.244	527.88
261.477	549.88
261.71	563.88
261.942	558.88
262.175	566.88
262.407	556.88
262.64	541.88
262.872	576.88
263.105	569.88
263.337	563.88
263.57	566.88
263.802	583.88
264.035	577.88
264.267	593.88
264.499	591.88
264.732	594.88
264.964	581.88
265.197	606.88
265.429	586.88
265.661	565.88
265.894	607.88
266.126	625.88
266.358	587.88
266.591	616.88
266.823	632.88
267.055	616.88
267.287	614.88
267.52	588.88
267.752	617.88
267.984	622.88
268.216	608.88
268.448	645.88
268.681	618.88
268.913	629.88
269.145	644.88
269.377	634.88
269.609	625.88
269.841	644.88
270.073	638.88
270.306	627.88
270.538	667.88
270.77	648.88
271.002	642.88
271.234	650.88
271.466	696.88
271.698	659.88
271.93	662.88
272.162	663.88
272.394	672.88
272.626	683.88
272.858	676.88
273.09	697.88
273.322	677.88
273.553	681.88
273.785	669.88
274.017	676.88
274.249	681.88
274.481	704.88
274.713	700.88
274.945	695.88
275.176	730.88
275.408	697.88
275.64	704.88
275.872	709.88
276.104	717.88
276.335	728.88
276.567	737.88
276.799	757.88
277.031	751.88
277.262	741.88
277.494	744.88
277.726	727.88
277.957	751.88
278.189	733.88
278.421	743.88
278.652	748.88
278.884	761.88
279.115	771.88
279.347	764.88
279.579	782.88
279.81	787.88
280.042	791.88
280.273	786.88
280.505	784.88
280.736	793.88
280.968	789.88
281.199	797.88
281.431	791.88
281.662	776.88
281.894	803.88
282.125	810.88
282.356	789.88
282.588	819.88
282.819	823.88
283.051	807.88
283.282	821.88
283.513	840.88
283.745	832.88
283.976	822.88
284.207	837.88
284.439	817.88
284.67	840.88
284.901	846.88
285.132	834.88
285.364	852.88
285.595	868.88
285.826	851.88
286.057	838.88
286.288	856.88
286.52	840.88
286.751	858.88
286.982	882.88
287.213	869.88
287.444	824.88
287.675	868.88
287.906	869.88
288.138	885.88
288.369	870.88
288.6	880.88
288.831	880.88
289.062	886.88
289.293	898.88
289.524	902.88
289.755	917.88
289.986	926.88
290.217	896.88
290.448	868.88
290.679	898.88
290.91	876.88
291.141	908.88
291.371	882.88
291.602	912.88
291.833	915.88
292.064	886.88
292.295	895.88
292.526	930.88
292.757	922.88
292.987	929.88
293.218	918.88
293.449	906.88
293.68	901.88
293.91	941.88
294.141	902.88
294.372	906.88
294.603	908.88
294.833	922.88
295.064	911.88
295.295	918.88
295.525	895.88
295.756	946.88
295.987	903.88
296.217	940.88
296.448	969.88
296.679	945.88
296.909	942.88
297.14	957.88
297.37	973.88
297.601	980.88
297.831	965.88
298.062	984.88
298.292	981.88
298.523	1014.88
298.753	987.88
298.984	982.88
299.214	984.88
299.445	986.88
299.675	989.88
299.905	1006.88
300.136	994.88
300.366	1038.88
300.597	998.88
300.827	1045.88
301.057	1009.88
301.288	1033.88
301.518	1015.88
301.748	1034.88
301.979	1040.88
302.209	1057.88
302.439	1052.88
302.669	1029.88
302.9	1040.88
303.13	1051.88
303.36	1041.88
303.59	1046.88
303.82	1029.88
304.051	1050.88
304.281	1014.88
304.511	1020.88
304.741	1041.88
304.971	1046.88
305.201	1060.88
305.431	1052.88
305.661	1082.88
305.891	1054.88
306.121	1043.88
306.352	1010.88
306.582	1009.88
306.812	1015.88
307.042	1018.88
307.272	1032.88
307.502	1048.88
307.731	1018.88
307.961	1008.88
308.191	1032.88
308.421	985.88
308.651	1010.88
308.881	1022.88
309.111	1023.88
309.341	1021.88
309.571	1053.88
309.8	1055.88
310.03	1016.88
310.26	1044.88
310.49	1033.88
310.72	997.88
310.949	1047.88
311.179	1040.88
311.409	1060.88
311.639	1047.88
311.868	1057.88
312.098	1070.88
312.328	1086.88
312.557	1064.88
312.787	1062.88
313.017	1078.88
313.246	1097.88
313.476	1111.88
313.706	1126.88
313.935	1138.88
314.165	1114.88
314.394	1112.88
314.624	1116.88
314.853	1107.88
315.083	1117.88
315.312	1133.88
315.542	1124.88
315.771	1115.88
316.001	1117.88
316.23	1085.88
316.46	1109.88
316.689	1106.88
316.919	1088.88
317.148	1129.88
317.377	1092.88
317.607	1089.88
317.836	1094.88
318.065	1096.88
318.295	1103.88
318.524	1124.88
318.753	1077.88
318.983	1079.88
319.212	1074.88
319.441	1086.88
319.67	1148.88
319.9	1107.88
320.129	1088.88
320.358	1079.88
320.587	1122.88
320.816	1120.88
321.046	1082.88
321.275	1089.88
321.504	1099.88
321.733	1113.88
321.962	1135.88
322.191	1144.88
322.42	1106.88
322.649	1123.88
322.878	1118.88
323.108	1114.88
323.337	1137.88
323.566	1138.88
323.795	1156.88
324.024	1140.88
324.253	1127.88
324.482	1156.88
324.71	1170.88
324.939	1156.88
325.168	1161.88
325.397	1169.88
325.626	1201.88
325.855	1206.88
326.084	1186.88
326.313	1253.88
326.542	1198.88
326.77	1222.88
326.999	1224.88
327.228	1207.88
327.457	1176.88
327.686	1161.88
327.914	1215.88
328.143	1206.88
328.372	1209.88
328.6	1218.88
328.829	1206.88
329.058	1235.88
329.287	1215.88
329.515	1198.88
329.744	1229.88
329.972	1238.88
330.201	1235.88
330.43	1256.88
330.658	1257.88
330.887	1249.88
331.115	1251.88
331.344	1251.88
331.572	1286.88
331.801	1258.88
332.03	1337.88
332.258	1343.88
332.486	1377.88
332.715	1364.88
332.943	1415.88
333.172	1429.88
333.4	1513.88
333.629	1524.88
333.857	1577.88
334.085	1554.88
334.314	1520.88
334.542	1529.88
334.771	1504.88
334.999	1506.88
335.227	1512.88
335.455	1483.88
335.684	1508.88
335.912	1521.88
336.14	1476.88
336.369	1455.88
336.597	1474.88
336.825	1429.88
337.053	1427.88
337.281	1431.88
337.51	1422.88
337.738	1361.88
337.966	1358.88
338.194	1374.88
338.422	1342.88
338.65	1311.88
338.878	1302.88
339.106	1312.88
339.334	1348.88
339.562	1305.88
339.79	1261.88
340.018	1271.88
340.246	1269.88
340.474	1255.88
340.702	1261.88
340.93	1276.88
341.158	1298.88
341.386	1266.88
341.614	1288.88
341.842	1268.88
342.07	1264.88
342.298	1253.88
342.526	1264.88
342.754	1289.88
342.981	1252.88
343.209	1268.88
343.437	1315.88
343.665	1370.88
343.893	1454.88
344.12	1503.88
344.348	1427.88
344.576	1385.88
344.804	1381.88
345.031	1339.88
345.259	1325.88
345.487	1274.88
345.714	1283.88
345.942	1250.88
346.17	1278.88
346.397	1248.88
346.625	1196.88
346.853	1201.88
347.08	1198.88
347.308	1225.88
347.535	1214.88
347.763	1216.88
347.99	1221.88
348.218	1209.88
348.445	1205.88
348.673	1216.88
348.9	1200.88
349.128	1197.88
349.355	1218.88
349.583	1204.88
349.81	1194.88
350.037	1190.88
350.265	1195.88
350.492	1172.88
350.72	1198.88
350.947	1180.88
351.174	1168.88
351.402	1177.88
351.629	1157.88
351.856	1170.88
352.083	1166.88
352.311	1166.88
352.538	1170.88
352.765	1166.88
352.992	1171.88
353.22	1164.88
353.447	1168.88
353.674	1168.88
353.901	1171.88
354.128	1185.88
354.355	1163.88
354.583	1136.88
354.81	1163.88
355.037	1186.88
355.264	1198.88
355.491	1164.88
355.718	1157.88
355.945	1159.88
356.172	1201.88
356.399	1173.88
356.626	1158.88
356.853	1186.88
357.08	1175.88
357.307	1172.88
357.534	1190.88
357.761	1182.88
357.988	1153.88
358.215	1160.88
358.441	1172.88
358.668	1144.88
358.895	1167.88
359.122	1211.88
359.349	1202.88
359.576	1214.88
359.802	1148.88
360.029	1165.88
360.256	1156.88
360.483	1174.88
360.709	1182.88
360.936	1163.88
361.163	1184.88
361.39	1176.88
361.616	1153.88
361.843	1173.88
362.07	1198.88
362.296	1200.88
362.523	1186.88
362.749	1186.88
362.976	1172.88
363.203	1177.88
363.429	1170.88
363.656	1176.88
363.882	1201.88
364.109	1156.88
364.335	1196.88
364.562	1177.88
364.788	1161.88
365.015	1174.88
365.241	1176.88
365.468	1161.88
365.694	1156.88
365.92	1168.88
366.147	1184.88
366.373	1186.88
366.599	1219.88
366.826	1184.88
367.052	1157.88
367.278	1177.88
367.505	1191.88
367.731	1183.88
367.957	1194.88
368.184	1193.88
368.41	1186.88
368.636	1192.88
368.862	1238.88
369.089	1204.88
369.315	1214.88
369.541	1182.88
369.767	1192.88
369.993	1225.88
370.219	1253.88
370.445	1260.88
370.672	1274.88
370.898	1246.88
371.124	1249.88
371.35	1297.88
371.576	1302.88
371.802	1286.88
372.028	1262.88
372.254	1305.88
372.48	1317.88
372.706	1311.88
372.932	1304.88
373.158	1279.88
373.384	1256.88
373.61	1271.88
373.835	1277.88
374.061	1240.88
374.287	1324.88
374.513	1339.88
374.739	1376.88
374.965	1359.88
375.191	1395.88
375.416	1386.88
375.642	1372.88
375.868	1337.88
376.094	1311.88
376.319	1345.88
376.545	1273.88
376.771	1270.88
376.997	1297.88
377.222	1284.88
377.448	1265.88
377.674	1252.88
377.899	1290.88
378.125	1266.88
378.35	1253.88
378.576	1246.88
378.802	1262.88
379.027	1262.88
379.253	1240.88
379.478	1266.88
379.704	1246.88
379.929	1245.88
380.155	1276.88
380.38	1264.88
380.606	1236.88
380.831	1252.88
381.057	1235.88
381.282	1229.88
381.507	1295.88
381.733	1316.88
381.958	1269.88
382.184	1318.88
382.409	1322.88
382.634	1317.88
382.86	1317.88
383.085	1333.88
383.31	1390.88
383.535	1364.88
383.761	1369.88
383.986	1426.88
384.211	1441.88
384.436	1427.88
384.662	1450.88
384.887	1489.88
385.112	1452.88
385.337	1483.88
385.562	1483.88
385.787	1500.88
386.013	1533.88
386.238	1505.88
386.463	1542.88
386.688	1540.88
386.913	1523.88
387.138	1473.88
387.363	1534.88
387.588	1528.88
387.813	1536.88
388.038	1535.88
388.263	1525.88
388.488	1566.88
388.713	1493.88
388.938	1505.88
389.163	1492.88
389.387	1540.88
389.612	1493.88
389.837	1494.88
390.062	1489.88
390.287	1512.88
390.512	1518.88
390.736	1484.88
390.961	1525.88
391.186	1586.88
391.411	1606.88
391.636	1597.88
391.86	1637.88
392.085	1713.88
392.31	1663.88
392.534	1641.88
392.759	1628.88
392.984	1600.88
393.208	1572.88
393.433	1601.88
393.658	1592.88
393.882	1607.88
394.107	1598.88
394.331	1601.88
394.556	1608.88
394.78	1636.88
395.005	1622.88
395.229	1614.88
395.454	1673.88
395.678	1722.88
395.903	1694.88
396.127	1686.88
396.352	1627.88
396.576	1600.88
396.801	1619.88
397.025	1622.88
397.249	1685.88
397.474	1713.88
397.698	1740.88
397.922	1706.88
398.147	1694.88
398.371	1739.88
398.595	1812.88
398.82	1885.88
399.044	1983.88
399.268	2095.88
399.492	2342.88
399.717	2550.88
399.941	2556.88
400.165	2370.88
400.389	2253.88
400.613	2056.88
400.837	2042.88
401.062	1935.88
401.286	1911.88
401.51	1922.88
401.734	1844.88
401.958	1940.88
402.182	1897.88
402.406	1906.88
402.63	1957.88
402.854	1924.88
403.078	1968.88
403.302	1977.88
403.526	2028.88
403.75	2031.88
403.974	2042.88
404.198	2007.88
404.422	2039.88
404.645	2053.88
404.869	2029.88
405.093	2037.88
405.317	1994.88
405.541	1988.88
405.765	2000.88
405.988	2034.88
406.212	2050.88
406.436	2045.88
406.66	2104.88
406.883	2082.88
407.107	2212.88
407.331	2281.88
407.555	2373.88
407.778	2380.88
408.002	2312.88
408.226	2277.88
408.449	2230.88
408.673	2172.88
408.896	2138.88
409.12	2106.88
409.344	2146.88
409.567	2055.88
409.791	2102.88
410.014	2096.88
410.238	2080.88
410.461	2055.88
410.685	2044.88
410.908	2016.88
411.132	1988.88
411.355	1969.88
411.578	1957.88
411.802	1958.88
412.025	1906.88
412.249	1963.88
412.472	1976.88
412.695	1937.88
412.919	1888.88
413.142	1912.88
413.365	1919.88
413.589	1927.88
413.812	1844.88
414.035	1864.88
414.258	1831.88
414.482	1854.88
414.705	1893.88
414.928	1881.88
415.151	1919.88
415.374	1878.88
415.597	1831.88
415.821	1852.88
416.044	1802.88
416.267	1831.88
416.49	1802.88
416.713	1734.88
416.936	1804.88
417.159	1788.88
417.382	1780.88
417.605	1775.88
417.828	1757.88
418.051	1753.88
418.274	1785.88
418.497	1850.88
418.72	1833.88
418.943	1839.88
419.166	1967.88
419.389	2135.88
419.611	2051.88
419.834	1956.88
420.057	1903.88
420.28	1866.88
420.503	1789.88
420.726	1791.88
420.948	1762.88
421.171	1797.88
421.394	1767.88
421.617	1777.88
421.839	1775.88
422.062	1830.88
422.285	1774.88
422.507	1844.88
422.73	1824.88
422.953	1819.88
423.175	1848.88
423.398	1814.88
423.621	1811.88
423.843	1869.88
424.066	1844.88
424.288	1833.88
424.511	1868.88
424.733	1829.88
424.956	1821.88
425.178	1832.88
425.401	1817.88
425.623	1814.88
425.846	1754.88
426.068	1784.88
426.291	1740.88
426.513	1724.88
426.735	1747.88
426.958	1696.88
427.18	1692.88
427.402	1705.88
427.625	1680.88
427.847	1663.88
428.069	1645.88
428.292	1677.88
428.514	1661.88
428.736	1604.88
428.958	1632.88
429.181	1639.88
429.403	1601.88
429.625	1587.88
429.847	1617.88
430.069	1608.88
430.292	1624.88
430.514	1622.88
430.736	1641.88
430.958	1658.88
431.18	1646.88
431.402	1605.88
431.624	1646.88
431.846	1675.88
432.068	1668.88
432.29	1684.88
432.512	1650.88
432.734	1647.88
432.956	1650.88
433.178	1638.88
433.4	1680.88
433.622	1715.88
433.844	1713.88
434.066	1700.88
434.287	1717.88
434.509	1792.88
434.731	1811.88
434.953	1836.88
435.175	1853.88
435.397	1825.88
435.618	1802.88
435.84	1751.88
436.062	1667.88
436.284	1658.88
436.505	1669.88
436.727	1626.88
436.949	1616.88
437.17	1646.88
437.392	1656.88
437.614	1615.88
437.835	1558.88
438.057	1606.88
438.278	1574.88
438.5	1572.88
438.721	1586.88
438.943	1608.88
439.165	1568.88
439.386	1590.88
439.608	1631.88
439.829	1595.88
440.05	1613.88
440.272	1634.88
440.493	1597.88
440.715	1635.88
440.936	1653.88
441.158	1663.88
441.379	1710.88
441.6	1787.88
441.822	1782.88
442.043	1813.88
442.264	1791.88
442.486	1734.88
442.707	1728.88
442.928	1758.88
443.149	1761.88
443.371	1735.88
443.592	1767.88
443.813	1762.88
444.034	1768.88
444.255	1853.88
444.476	1880.88
444.698	1995.88
444.919	2010.88
445.14	2128.88
445.361	1931.88
445.582	1824.88
445.803	1780.88
446.024	1751.88
446.245	1697.88
446.466	1671.88
446.687	1652.88
446.908	1627.88
447.129	1603.88
447.35	1574.88
447.571	1527.88
447.792	1527.88
448.013	1532.88
448.234	1486.88
448.455	1497.88
448.675	1501.88
448.896	1462.88
449.117	1472.88
449.338	1441.88
449.559	1478.88
449.779	1485.88
450	1430.88
450.221	1413.88
450.442	1461.88
450.662	1443.88
450.883	1439.88
451.104	1511.88
451.324	1481.88
451.545	1453.88
451.766	1419.88
451.986	1454.88
452.207	1466.88
452.428	1439.88
452.648	1473.88
452.869	1406.88
453.089	1427.88
453.31	1466.88
453.53	1406.88
453.751	1396.88
453.971	1407.88
454.192	1412.88
454.412	1380.88
454.633	1367.88
454.853	1434.88
455.073	1377.88
455.294	1369.88
455.514	1334.88
455.734	1372.88
455.955	1344.88
456.175	1364.88
456.395	1376.88
456.616	1389.88
456.836	1380.88
457.056	1354.88
457.276	1380.88
457.497	1385.88
457.717	1371.88
457.937	1402.88
458.157	1426.88
458.377	1468.88
458.598	1488.88
458.818	1470.88
459.038	1513.88
459.258	1570.88
459.478	1601.88
459.698	1638.88
459.918	1680.88
460.138	1690.88
460.358	1821.88
460.578	1851.88
460.798	1837.88
461.018	1870.88
461.238	1811.88
461.458	1840.88
461.678	1804.88
461.898	1862.88
462.118	1874.88
462.338	1968.88
462.558	2019.88
462.777	2113.88
462.997	2178.88
463.217	2282.88
463.437	2326.88
463.657	2217.88
463.876	2126.88
464.096	2109.88
464.316	2092.88
464.536	2073.88
464.755	2034.88
464.975	1958.88
465.195	1894.88
465.414	1817.88
465.634	1734.88
465.854	1653.88
466.073	1620.88
466.293	1622.88
466.512	1549.88
466.732	1572.88
466.951	1541.88
467.171	1584.88
467.391	1567.88
467.61	1526.88
467.829	1540.88
468.049	1542.88
468.268	1484.88
468.488	1468.88
468.707	1490.88
468.927	1495.88
469.146	1513.88
469.365	1521.88
469.585	1471.88
469.804	1571.88
470.023	1572.88
470.243	1545.88
470.462	1584.88
470.681	1585.88
470.901	1600.88
471.12	1549.88
471.339	1510.88
471.558	1518.88
471.777	1516.88
471.997	1485.88
472.216	1473.88
472.435	1478.88
472.654	1511.88
472.873	1449.88
473.092	1474.88
473.311	1465.88
473.53	1496.88
473.749	1459.88
473.968	1481.88
474.187	1477.88
474.406	1436.88
474.625	1482.88
474.844	1462.88
475.063	1466.88
475.282	1507.88
475.501	1513.88
475.72	1535.88
475.939	1557.88
476.158	1519.88
476.377	1533.88
476.596	1523.88
476.814	1619.88
477.033	1577.88
477.252	1621.88
477.471	1616.88
477.69	1670.88
477.908	1703.88
478.127	1682.88
478.346	1762.88
478.564	1781.88
478.783	1802.88
479.002	1824.88
479.22	1862.88
479.439	1857.88
479.658	1835.88
479.876	1873.88
480.095	1875.88
480.313	1958.88
480.532	1960.88
480.751	1989.88
480.969	1904.88
481.188	1912.88
481.406	1850.88
481.624	1849.88
481.843	1795.88
482.061	1831.88
482.28	1797.88
482.498	1811.88
482.717	1778.88
482.935	1813.88
483.153	1843.88
483.372	1849.88
483.59	1855.88
483.808	1858.88
484.027	1868.88
484.245	1856.88
484.463	1906.88
484.681	1913.88
484.9	1927.88
485.118	1939.88
485.336	1973.88
485.554	1972.88
485.772	2016.88
485.99	2014.88
486.209	1996.88
486.427	1988.88
486.645	1969.88
486.863	1979.88
487.081	2030.88
487.299	1956.88
487.517	1929.88
487.735	1930.88
487.953	1949.88
488.171	1956.88
488.389	1914.88
488.607	1901.88
488.825	1925.88
489.043	1901.88
489.261	1916.88
489.479	1886.88
489.696	1881.88
489.914	1882.88
490.132	1861.88
490.35	1848.88
490.568	1888.88
490.786	1878.88
491.003	1876.88
491.221	1859.88
491.439	1836.88
491.657	1863.88
491.874	1876.88
492.092	1856.88
492.31	1882.88
492.527	1869.88
492.745	1869.88
492.963	1896.88
493.18	1867.88
493.398	1920.88
493.615	1918.88
493.833	1900.88
494.05	1882.88
494.268	1869.88
494.485	1952.88
494.703	1922.88
494.92	1888.88
495.138	1910.88
495.355	1966.88
495.573	1895.88
495.79	1868.88
496.008	1922.88
496.225	1902.88
496.442	1955.88
496.66	2010.88
496.877	1986.88
497.094	2019.88
497.312	2075.88
497.529	2088.88
497.746	2152.88
497.963	2185.88
498.181	2290.88
498.398	2394.88
498.615	2506.88
498.832	2657.88
499.049	2794.88
499.267	2962.88
499.484	3261.88
499.701	3466.88
499.918	3798.88
500.135	4153.88
500.352	4546.88
500.569	4726.88
500.786	4670.88
501.003	4497.88
501.22	4152.88
501.437	3768.88
501.654	3354.88
501.871	3172.88
502.088	2950.88
502.305	2776.88
502.522	2653.88
502.739	2531.88
502.956	2408.88
503.172	2312.88
503.389	2264.88
503.606	2167.88
503.823	2111.88
504.04	2122.88
504.256	2087.88
504.473	2127.88
504.69	2113.88
504.907	2070.88
505.123	2018.88
505.34	1923.88
505.557	1849.88
505.773	1812.88
505.99	1772.88
506.207	1697.88
506.423	1690.88
506.64	1697.88
506.856	1654.88
507.073	1655.88
507.289	1628.88
507.506	1625.88
507.722	1650.88
507.939	1631.88
508.155	1556.88
508.372	1578.88
508.588	1557.88
508.805	1497.88
509.021	1535.88
509.238	1544.88
509.454	1534.88
509.67	1507.88
509.887	1493.88
510.103	1473.88
510.319	1465.88
510.536	1491.88
510.752	1485.88
510.968	1473.88
511.184	1488.88
511.401	1520.88
511.617	1489.88
511.833	1521.88
512.049	1483.88
512.265	1470.88
512.481	1490.88
512.698	1474.88
512.914	1454.88
513.13	1455.88
513.346	1464.88
513.562	1465.88
513.778	1467.88
513.994	1447.88
514.21	1500.88
514.426	1445.88
514.642	1502.88
514.858	1499.88
515.074	1495.88
515.29	1569.88
515.506	1556.88
515.721	1548.88
515.937	1585.88
516.153	1609.88
516.369	1609.88
516.585	1640.88
516.801	1695.88
517.016	1763.88
517.232	1830.88
517.448	1866.88
517.664	1932.88
517.879	1905.88
518.095	1905.88
518.311	1909.88
518.527	1820.88
518.742	1786.88
518.958	1733.88
519.173	1706.88
519.389	1662.88
519.605	1583.88
519.82	1583.88
520.036	1546.88
520.251	1525.88
520.467	1504.88
520.682	1490.88
520.898	1477.88
521.113	1457.88
521.329	1440.88
521.544	1407.88
521.76	1413.88
521.975	1377.88
522.19	1413.88
522.406	1377.88
522.621	1375.88
522.836	1398.88
523.052	1363.88
523.267	1373.88
523.482	1355.88
523.698	1360.88
523.913	1364.88
524.128	1346.88
524.343	1322.88
524.559	1303.88
524.774	1310.88
524.989	1326.88
525.204	1328.88
525.419	1304.88
525.634	1316.88
525.849	1312.88
526.064	1306.88
526.28	1311.88
526.495	1303.88
526.71	1292.88
526.925	1284.88
527.14	1283.88
527.355	1305.88
527.57	1265.88
527.785	1290.88
527.999	1309.88
528.214	1291.88
528.429	1280.88
528.644	1311.88
528.859	1311.88
529.074	1302.88
529.289	1293.88
529.503	1289.88
529.718	1293.88
529.933	1285.88
530.148	1303.88
530.363	1304.88
530.577	1273.88
530.792	1328.88
531.007	1249.88
531.221	1304.88
531.436	1295.88
531.651	1264.88
531.865	1267.88
532.08	1258.88
532.295	1276.88
532.509	1255.88
532.724	1276.88
532.938	1268.88
533.153	1304.88
533.367	1294.88
533.582	1267.88
533.796	1247.88
534.011	1285.88
534.225	1267.88
534.44	1253.88
534.654	1263.88
534.868	1238.88
535.083	1264.88
535.297	1250.88
535.511	1229.88
535.726	1207.88
535.94	1206.88
536.154	1228.88
536.369	1185.88
536.583	1208.88
536.797	1214.88
537.011	1213.88
537.225	1181.88
537.44	1202.88
537.654	1199.88
537.868	1181.88
538.082	1185.88
538.296	1175.88
538.51	1161.88
538.724	1174.88
538.938	1145.88
539.153	1142.88
539.367	1135.88
539.581	1143.88
539.795	1126.88
540.009	1142.88
540.222	1168.88
540.436	1152.88
540.65	1126.88
540.864	1129.88
541.078	1128.88
541.292	1136.88
541.506	1141.88
541.72	1136.88
541.934	1120.88
542.147	1149.88
542.361	1106.88
542.575	1126.88
542.789	1128.88
543.002	1102.88
543.216	1095.88
543.43	1137.88
543.644	1104.88
543.857	1129.88
544.071	1113.88
544.285	1125.88
544.498	1145.88
544.712	1101.88
544.925	1118.88
545.139	1095.88
545.352	1143.88
545.566	1157.88
545.779	1179.88
545.993	1152.88
546.206	1164.88
546.42	1143.88
546.633	1130.88
546.847	1095.88
547.06	1138.88
547.274	1132.88
547.487	1129.88
547.7	1136.88
547.914	1156.88
548.127	1125.88
548.34	1178.88
548.554	1114.88
548.767	1150.88
548.98	1169.88
549.193	1114.88
549.407	1171.88
549.62	1184.88
549.833	1189.88
550.046	1182.88
550.259	1158.88
550.473	1120.88
550.686	1125.88
550.899	1106.88
551.112	1127.88
551.325	1125.88
551.538	1144.88
551.751	1132.88
551.964	1159.88
552.177	1130.88
552.39	1141.88
552.603	1174.88
552.816	1205.88
553.029	1204.88
553.242	1223.88
553.455	1264.88
553.667	1232.88
553.88	1229.88
554.093	1190.88
554.306	1158.88
554.519	1144.88
554.732	1129.88
554.944	1125.88
555.157	1106.88
555.37	1097.88
555.583	1031.88
555.795	1044.88
556.008	1060.88
556.221	1043.88
556.433	1009.88
556.646	1008.88
556.859	999.88
557.071	970.88
557.284	1004.88
557.496	978.88
557.709	976.88
557.921	954.88
558.134	969.88
558.346	978.88
558.559	980.88
558.771	993.88
558.984	947.88
559.196	960.88
559.409	921.88
559.621	943.88
559.833	934.88
560.046	936.88
560.258	968.88
560.47	945.88
560.683	980.88
560.895	924.88
561.107	940.88
561.32	934.88
561.532	957.88
561.744	946.88
561.956	924.88
562.168	927.88
562.381	948.88
562.593	934.88
562.805	965.88
563.017	956.88
563.229	956.88
563.441	919.88
563.653	952.88
563.865	955.88
564.077	958.88
564.289	987.88
564.501	991.88
564.713	982.88
564.925	1028.88
565.137	1042.88
565.349	1050.88
565.561	1090.88
565.773	1132.88
565.985	1146.88
566.197	1198.88
566.408	1274.88
566.62	1383.88
566.832	1436.88
567.044	1449.88
567.255	1485.88
567.467	1489.88
567.679	1583.88
567.891	1636.88
568.102	1624.88
568.314	1611.88
568.526	1460.88
568.737	1320.88
568.949	1245.88
569.161	1195.88
569.372	1123.88
569.584	1052.88
569.795	1028.88
570.007	1027.88
570.218	976.88
570.43	959.88
570.641	961.88
570.853	959.88
571.064	969.88
571.276	913.88
571.487	928.88
571.698	898.88
571.91	866.88
572.121	868.88
572.333	856.88
572.544	824.88
572.755	813.88
572.966	808.88
573.178	775.88
573.389	812.88
573.6	777.88
573.811	793.88
574.023	784.88
574.234	797.88
574.445	776.88
574.656	755.88
574.867	764.88
575.078	782.88
575.289	760.88
575.501	732.88
575.712	739.88
575.923	738.88
576.134	735.88
576.345	753.88
576.556	753.88
576.767	718.88
576.978	718.88
577.188	717.88
577.399	694.88
577.61	704.88
577.821	708.88
578.032	704.88
578.243	692.88
578.454	695.88
578.665	706.88
578.875	691.88
579.086	670.88
579.297	675.88
579.508	690.88
579.718	674.88
579.929	663.88
580.14	662.88
580.35	640.88
580.561	651.88
580.772	644.88
580.982	645.88
581.193	650.88
581.403	661.88
581.614	650.88
581.825	650.88
582.035	649.88
582.246	636.88
582.456	628.88
582.667	641.88
582.877	646.88
583.087	621.88
583.298	632.88
583.508	654.88
583.719	620.88
583.929	626.88
584.139	622.88
584.35	602.88
584.56	634.88
584.77	626.88
584.981	605.88
585.191	605.88
585.401	614.88
585.611	625.88
585.821	618.88
586.032	638.88
586.242	625.88
586.452	624.88
586.662	609.88
586.872	615.88
587.082	611.88
587.292	617.88
587.502	610.88
587.713	629.88
587.923	589.88
588.133	604.88
588.343	610.88
588.553	608.88
588.762	604.88
588.972	617.88
589.182	614.88
589.392	626.88
589.602	603.88
589.812	622.88
590.022	630.88
590.232	605.88
590.441	619.88
590.651	596.88
590.861	617.88
591.071	604.88
591.281	614.88
591.49	643.88
591.7	648.88
591.91	668.88
592.119	651.88
592.329	687.88
592.539	646.88
592.748	701.88
592.958	684.88
593.167	729.88
593.377	732.88
593.587	762.88
593.796	720.88
594.006	732.88
594.215	742.88
594.424	750.88
594.634	724.88
594.843	690.88
595.053	679.88
595.262	670.88
595.472	620.88
595.681	622.88
595.89	614.88
596.1	602.88
596.309	597.88
596.518	586.88
596.727	574.88
596.937	561.88
597.146	575.88
597.355	565.88
597.564	553.88
597.774	550.88
597.983	541.88
598.192	532.88
598.401	541.88
598.61	515.88
598.819	536.88
599.028	511.88
599.237	501.88
599.446	515.88
599.655	509.88
599.864	538.88
600.073	508.88
600.282	512.88
600.491	496.88
600.7	492.88
600.909	508.88
601.118	502.88
601.327	508.88
601.536	484.88
601.745	482.88
601.953	486.88
602.162	502.88
602.371	495.88
602.58	470.88
602.789	484.88
602.997	471.88
603.206	490.88
603.415	493.88
603.623	474.88
603.832	469.88
604.041	479.88
604.249	469.88
604.458	486.88
604.666	471.88
604.875	479.88
605.084	451.88
605.292	486.88
605.501	470.88
605.709	473.88
605.918	444.88
606.126	435.88
606.334	457.88
606.543	464.88
606.751	457.88
606.96	468.88
607.168	467.88
607.376	471.88
607.585	437.88
607.793	435.88
608.001	428.88
608.21	448.88
608.418	471.88
608.626	451.88
608.834	449.88
609.043	454.88
609.251	446.88
609.459	435.88
609.667	451.88
609.875	425.88
610.083	424.88
610.291	461.88
610.499	435.88
610.707	425.88
610.916	462.88
611.124	431.88
611.332	429.88
611.54	453.88
611.748	434.88
611.955	439.88
612.163	437.88
612.371	425.88
612.579	430.88
612.787	437.88
612.995	404.88
613.203	424.88
613.411	438.88
613.618	434.88
613.826	432.88
614.034	426.88
614.242	431.88
614.449	416.88
614.657	441.88
614.865	408.88
615.072	410.88
615.28	426.88
615.488	417.88
615.695	435.88
615.903	440.88
616.111	424.88
616.318	419.88
616.526	432.88
616.733	448.88
616.941	427.88
617.148	417.88
617.356	414.88
617.563	425.88
617.771	406.88
617.978	421.88
618.185	404.88
618.393	394.88
618.6	423.88
618.807	431.88
619.015	415.88
619.222	406.88
619.429	409.88
619.637	403.88
619.844	406.88
620.051	414.88
620.258	424.88
620.466	405.88
620.673	378.88
620.88	401.88
621.087	385.88
621.294	391.88
621.501	378.88
621.708	377.88
621.915	380.88
622.122	373.88
622.329	403.88
622.536	394.88
622.743	375.88
622.95	391.88
623.157	373.88
623.364	373.88
623.571	378.88
623.778	375.88
623.985	387.88
624.192	376.88
624.399	357.88
624.606	366.88
624.812	363.88
625.019	371.88
625.226	361.88
625.433	345.88
625.639	362.88
625.846	366.88
626.053	342.88
626.259	353.88
626.466	367.88
626.673	364.88
626.879	344.88
627.086	342.88
627.293	368.88
627.499	360.88
627.706	344.88
627.912	353.88
628.119	371.88
628.325	337.88
628.532	348.88
628.738	325.88
628.945	342.88
629.151	367.88
629.357	346.88
629.564	341.88
629.77	324.88
629.976	334.88
630.183	317.88
630.389	322.88
630.595	340.88
630.802	342.88
631.008	319.88
631.214	318.88
631.42	317.88
631.627	314.88
631.833	322.88
632.039	319.88
632.245	309.88
632.451	321.88
632.657	309.88
632.863	312.88
633.069	322.88
633.275	318.88
633.481	314.88
633.688	316.88
633.893	314.88
634.099	321.88
634.305	322.88
634.511	315.88
634.717	281.88
634.923	306.88
635.129	322.88
635.335	308.88
635.541	297.88
635.747	314.88
635.952	313.88
636.158	321.88
636.364	302.88
636.57	308.88
636.775	286.88
636.981	320.88
637.187	300.88
637.392	301.88
637.598	314.88
637.804	282.88
638.009	292.88
638.215	293.88
638.421	289.88
638.626	300.88
638.832	312.88
639.037	303.88
639.243	310.88
639.448	302.88
639.654	302.88
639.859	307.88
640.065	286.88
640.27	286.88
640.475	297.88
640.681	297.88
640.886	288.88
641.091	291.88
641.297	291.88
641.502	279.88
641.707	287.88
641.913	276.88
642.118	264.88
642.323	298.88
642.528	282.88
642.733	275.88
642.939	284.88
643.144	273.88
643.349	276.88
643.554	290.88
643.759	286.88
643.964	285.88
644.169	295.88
644.374	279.88
644.579	274.88
644.784	276.88
644.989	285.88
645.194	272.88
645.399	283.88
645.604	288.88
645.809	285.88
646.014	290.88
646.219	281.88
646.423	289.88
646.628	293.88
646.833	292.88
647.038	289.88
647.243	289.88
647.447	302.88
647.652	291.88
647.857	285.88
648.062	296.88
648.266	312.88
648.471	310.88
648.676	320.88
648.88	297.88
649.085	317.88
649.289	308.88
649.494	306.88
649.698	321.88
649.903	292.88
650.107	288.88
650.312	309.88
650.516	293.88
650.721	295.88
650.925	275.88
651.13	281.88
651.334	281.88
651.539	293.88
651.743	282.88
651.947	276.88
652.152	274.88
652.356	275.88
652.56	280.88
652.764	288.88
652.969	279.88
653.173	290.88
653.377	279.88
653.581	274.88
653.785	275.88
653.99	287.88
654.194	272.88
654.398	286.88
654.602	288.88
654.806	284.88
655.01	308.88
655.214	307.88
655.418	309.88
655.622	326.88
655.826	335.88
656.03	366.88
656.234	378.88
656.438	412.88
656.642	405.88
656.846	372.88
657.049	347.88
657.253	310.88
657.457	276.88
657.661	250.88
657.865	234.88
658.068	215.88
658.272	198.88
658.476	203.88
658.68	175.88
658.883	169.88
659.087	156.88
659.291	142.88
659.494	143.88
659.698	149.88
659.901	122.88
660.105	128.88
660.309	116.88
660.512	121.88
660.716	121.88
660.919	125.88
661.123	101.88
661.326	100.88
661.53	101.88
661.733	102.88
661.936	103.88
662.14	100.88
662.343	95.88
662.546	102.88
662.75	81.88
662.953	92.88
663.156	93.88
663.36	86.88
663.563	78.88
663.766	87.88
663.969	66.88
664.173	97.88
664.376	84.88
664.579	101.88
664.782	74.88
664.985	70.88
665.188	78.88
665.391	60.88
665.594	88.88
665.797	64.88
666	77.88
666.203	71.88
666.406	70.88
666.609	83.88
666.812	85.88
667.015	74.88
667.218	74.88
667.421	79.88
667.624	56.88
667.827	82.88
668.03	78.88
668.232	65.88
668.435	75.88
668.638	78.88
668.841	70.88
669.043	78.88
669.246	84.88
669.449	76.88
669.651	74.88
669.854	68.88
670.057	83.88
670.259	74.88
670.462	73.88
670.665	81.88
670.867	64.88
671.07	75.88
671.272	86.88
671.475	88.88
671.677	77.88
671.88	77.88
672.082	62.88
672.284	92.88
672.487	79.88
672.689	71.88
672.892	87.88
