Data from NiCl2@0.125M.TitratingCurve.Agarose3%dH2O.NegLispCup.LampEnergy10.LIBS07252019_HRD10591_18-29-13-575.txt Node
Date: Thu Jul 25 18:29:13 EDT 2019
User: cochatt
Spectrometer: HR+D1059
Trigger mode: 1
Integration Time (sec): 1.000000E-1
Scans to average: 1
Electric dark correction enabled: true
Nonlinearity correction enabled: false
Boxcar width: 0
XAxis mode: Wavelengths
Number of Pixels in Spectrum: 2048
>>>>>Begin Spectral Data<<<<<
223.165	-26.5
223.4	-26.5
223.635	-26.5
223.869	-10.5
224.104	-27.5
224.338	-20.5
224.573	-3.5
224.808	-3.5
225.042	-17.5
225.277	7.5
225.511	-4.5
225.746	16.5
225.98	13.5
226.215	6.5
226.449	12.5
226.683	21.5
226.918	-0.5
227.152	36.5
227.387	38.5
227.621	36.5
227.856	40.5
228.09	53.5
228.324	53.5
228.559	66.5
228.793	64.5
229.027	109.5
229.262	117.5
229.496	104.5
229.73	115.5
229.964	135.5
230.199	129.5
230.433	147.5
230.667	137.5
230.901	134.5
231.136	141.5
231.37	140.5
231.604	137.5
231.838	124.5
232.072	151.5
232.306	137.5
232.541	151.5
232.775	146.5
233.009	137.5
233.243	149.5
233.477	147.5
233.711	138.5
233.945	143.5
234.179	133.5
234.413	145.5
234.647	143.5
234.881	151.5
235.115	178.5
235.349	163.5
235.583	147.5
235.817	144.5
236.051	159.5
236.285	163.5
236.519	163.5
236.753	170.5
236.987	161.5
237.221	159.5
237.455	152.5
237.689	150.5
237.922	153.5
238.156	157.5
238.39	175.5
238.624	162.5
238.858	175.5
239.091	184.5
239.325	188.5
239.559	190.5
239.793	194.5
240.027	162.5
240.26	167.5
240.494	175.5
240.728	178.5
240.961	184.5
241.195	183.5
241.429	192.5
241.662	184.5
241.896	193.5
242.13	187.5
242.363	209.5
242.597	205.5
242.83	199.5
243.064	179.5
243.298	218.5
243.531	207.5
243.765	209.5
243.998	208.5
244.232	209.5
244.465	198.5
244.699	194.5
244.932	207.5
245.166	228.5
245.399	227.5
245.633	217.5
245.866	234.5
246.099	224.5
246.333	210.5
246.566	248.5
246.8	243.5
247.033	232.5
247.266	225.5
247.5	222.5
247.733	238.5
247.966	238.5
248.2	242.5
248.433	253.5
248.666	236.5
248.899	245.5
249.133	244.5
249.366	255.5
249.599	263.5
249.832	249.5
250.066	260.5
250.299	242.5
250.532	253.5
250.765	276.5
250.998	256.5
251.231	267.5
251.465	251.5
251.698	270.5
251.931	275.5
252.164	252.5
252.397	283.5
252.63	292.5
252.863	277.5
253.096	281.5
253.329	281.5
253.562	279.5
253.795	280.5
254.028	275.5
254.261	296.5
254.494	292.5
254.727	285.5
254.96	289.5
255.193	268.5
255.426	287.5
255.659	270.5
255.892	282.5
256.124	298.5
256.357	303.5
256.59	296.5
256.823	297.5
257.056	282.5
257.289	297.5
257.521	291.5
257.754	287.5
257.987	311.5
258.22	303.5
258.452	306.5
258.685	312.5
258.918	320.5
259.151	310.5
259.383	316.5
259.616	311.5
259.849	317.5
260.081	301.5
260.314	320.5
260.547	337.5
260.779	331.5
261.012	333.5
261.244	329.5
261.477	336.5
261.71	323.5
261.942	337.5
262.175	342.5
262.407	330.5
262.64	314.5
262.872	332.5
263.105	345.5
263.337	320.5
263.57	335.5
263.802	351.5
264.035	356.5
264.267	349.5
264.499	331.5
264.732	337.5
264.964	350.5
265.197	360.5
265.429	382.5
265.661	367.5
265.894	333.5
266.126	342.5
266.358	367.5
266.591	363.5
266.823	364.5
267.055	375.5
267.287	385.5
267.52	367.5
267.752	362.5
267.984	389.5
268.216	387.5
268.448	373.5
268.681	385.5
268.913	367.5
269.145	365.5
269.377	389.5
269.609	359.5
269.841	375.5
270.073	381.5
270.306	369.5
270.538	394.5
270.77	379.5
271.002	376.5
271.234	371.5
271.466	389.5
271.698	398.5
271.93	392.5
272.162	389.5
272.394	361.5
272.626	394.5
272.858	395.5
273.09	395.5
273.322	414.5
273.553	395.5
273.785	410.5
274.017	401.5
274.249	413.5
274.481	400.5
274.713	419.5
274.945	412.5
275.176	429.5
275.408	419.5
275.64	424.5
275.872	399.5
276.104	406.5
276.335	423.5
276.567	416.5
276.799	416.5
277.031	439.5
277.262	433.5
277.494	428.5
277.726	433.5
277.957	432.5
278.189	443.5
278.421	443.5
278.652	437.5
278.884	461.5
279.115	456.5
279.347	449.5
279.579	436.5
279.81	436.5
280.042	455.5
280.273	455.5
280.505	450.5
280.736	466.5
280.968	452.5
281.199	455.5
281.431	480.5
281.662	469.5
281.894	448.5
282.125	470.5
282.356	465.5
282.588	488.5
282.819	495.5
283.051	477.5
283.282	499.5
283.513	483.5
283.745	477.5
283.976	487.5
284.207	463.5
284.439	474.5
284.67	495.5
284.901	492.5
285.132	492.5
285.364	497.5
285.595	497.5
285.826	490.5
286.057	498.5
286.288	513.5
286.52	492.5
286.751	477.5
286.982	501.5
287.213	488.5
287.444	499.5
287.675	515.5
287.906	509.5
288.138	509.5
288.369	510.5
288.6	530.5
288.831	512.5
289.062	524.5
289.293	524.5
289.524	525.5
289.755	554.5
289.986	512.5
290.217	524.5
290.448	516.5
290.679	512.5
290.91	542.5
291.141	541.5
291.371	520.5
291.602	522.5
291.833	517.5
292.064	511.5
292.295	533.5
292.526	534.5
292.757	543.5
292.987	552.5
293.218	542.5
293.449	538.5
293.68	551.5
293.91	529.5
294.141	531.5
294.372	543.5
294.603	536.5
294.833	541.5
295.064	546.5
295.295	564.5
295.525	527.5
295.756	539.5
295.987	553.5
296.217	559.5
296.448	560.5
296.679	561.5
296.909	561.5
297.14	572.5
297.37	578.5
297.601	573.5
297.831	576.5
298.062	567.5
298.292	587.5
298.523	599.5
298.753	602.5
298.984	583.5
299.214	587.5
299.445	579.5
299.675	578.5
299.905	580.5
300.136	574.5
300.366	576.5
300.597	595.5
300.827	595.5
301.057	608.5
301.288	615.5
301.518	627.5
301.748	635.5
301.979	643.5
302.209	621.5
302.439	606.5
302.669	598.5
302.9	619.5
303.13	602.5
303.36	608.5
303.59	615.5
303.82	579.5
304.051	603.5
304.281	604.5
304.511	601.5
304.741	597.5
304.971	583.5
305.201	605.5
305.431	601.5
305.661	568.5
305.891	601.5
306.121	582.5
306.352	604.5
306.582	580.5
306.812	573.5
307.042	602.5
307.272	593.5
307.502	583.5
307.731	583.5
307.961	572.5
308.191	575.5
308.421	563.5
308.651	564.5
308.881	586.5
309.111	581.5
309.341	573.5
309.571	591.5
309.8	581.5
310.03	572.5
310.26	569.5
310.49	585.5
310.72	551.5
310.949	573.5
311.179	575.5
311.409	589.5
311.639	598.5
311.868	586.5
312.098	609.5
312.328	574.5
312.557	599.5
312.787	600.5
313.017	600.5
313.246	612.5
313.476	607.5
313.706	627.5
313.935	638.5
314.165	617.5
314.394	629.5
314.624	612.5
314.853	618.5
315.083	614.5
315.312	599.5
315.542	588.5
315.771	602.5
316.001	610.5
316.23	608.5
316.46	622.5
316.689	597.5
316.919	595.5
317.148	594.5
317.377	604.5
317.607	597.5
317.836	595.5
318.065	590.5
318.295	610.5
318.524	608.5
318.753	607.5
318.983	600.5
319.212	581.5
319.441	595.5
319.67	597.5
319.9	597.5
320.129	623.5
320.358	607.5
320.587	613.5
320.816	615.5
321.046	616.5
321.275	610.5
321.504	628.5
321.733	601.5
321.962	608.5
322.191	599.5
322.42	624.5
322.649	603.5
322.878	612.5
323.108	597.5
323.337	618.5
323.566	602.5
323.795	627.5
324.024	625.5
324.253	609.5
324.482	631.5
324.71	626.5
324.939	627.5
325.168	632.5
325.397	616.5
325.626	632.5
325.855	647.5
326.084	666.5
326.313	668.5
326.542	672.5
326.77	667.5
326.999	659.5
327.228	633.5
327.457	643.5
327.686	643.5
327.914	664.5
328.143	665.5
328.372	653.5
328.6	659.5
328.829	648.5
329.058	649.5
329.287	672.5
329.515	657.5
329.744	693.5
329.972	657.5
330.201	672.5
330.43	667.5
330.658	654.5
330.887	668.5
331.115	668.5
331.344	674.5
331.572	682.5
331.801	721.5
332.03	749.5
332.258	746.5
332.486	791.5
332.715	796.5
332.943	795.5
333.172	855.5
333.4	907.5
333.629	922.5
333.857	922.5
334.085	894.5
334.314	875.5
334.542	879.5
334.771	870.5
334.999	849.5
335.227	812.5
335.455	825.5
335.684	812.5
335.912	806.5
336.14	806.5
336.369	788.5
336.597	825.5
336.825	815.5
337.053	800.5
337.281	770.5
337.51	781.5
337.738	775.5
337.966	753.5
338.194	734.5
338.422	700.5
338.65	719.5
338.878	716.5
339.106	706.5
339.334	719.5
339.562	707.5
339.79	680.5
340.018	683.5
340.246	693.5
340.474	678.5
340.702	675.5
340.93	682.5
341.158	679.5
341.386	685.5
341.614	691.5
341.842	700.5
342.07	663.5
342.298	678.5
342.526	694.5
342.754	676.5
342.981	663.5
343.209	690.5
343.437	744.5
343.665	799.5
343.893	829.5
344.12	893.5
344.348	854.5
344.576	804.5
344.804	722.5
345.031	731.5
345.259	722.5
345.487	700.5
345.714	691.5
345.942	690.5
346.17	698.5
346.397	696.5
346.625	684.5
346.853	669.5
347.08	692.5
347.308	668.5
347.535	675.5
347.763	681.5
347.99	684.5
348.218	685.5
348.445	676.5
348.673	666.5
348.9	647.5
349.128	653.5
349.355	660.5
349.583	665.5
349.81	650.5
350.037	649.5
350.265	634.5
350.492	631.5
350.72	631.5
350.947	636.5
351.174	646.5
351.402	644.5
351.629	654.5
351.856	644.5
352.083	642.5
352.311	632.5
352.538	625.5
352.765	619.5
352.992	627.5
353.22	618.5
353.447	620.5
353.674	613.5
353.901	640.5
354.128	638.5
354.355	636.5
354.583	657.5
354.81	619.5
355.037	640.5
355.264	629.5
355.491	623.5
355.718	641.5
355.945	627.5
356.172	656.5
356.399	637.5
356.626	639.5
356.853	640.5
357.08	644.5
357.307	661.5
357.534	643.5
357.761	617.5
357.988	641.5
358.215	644.5
358.441	633.5
358.668	661.5
358.895	645.5
359.122	638.5
359.349	642.5
359.576	609.5
359.802	635.5
360.029	638.5
360.256	632.5
360.483	657.5
360.709	643.5
360.936	633.5
361.163	633.5
361.39	629.5
361.616	627.5
361.843	627.5
362.07	630.5
362.296	644.5
362.523	635.5
362.749	644.5
362.976	635.5
363.203	637.5
363.429	604.5
363.656	632.5
363.882	640.5
364.109	641.5
364.335	630.5
364.562	659.5
364.788	634.5
365.015	640.5
365.241	641.5
365.468	616.5
365.694	621.5
365.92	645.5
366.147	629.5
366.373	658.5
366.599	636.5
366.826	639.5
367.052	632.5
367.278	639.5
367.505	660.5
367.731	677.5
367.957	656.5
368.184	627.5
368.41	653.5
368.636	646.5
368.862	653.5
369.089	666.5
369.315	655.5
369.541	637.5
369.767	673.5
369.993	669.5
370.219	664.5
370.445	679.5
370.672	699.5
370.898	673.5
371.124	689.5
371.35	703.5
371.576	715.5
371.802	714.5
372.028	673.5
372.254	671.5
372.48	706.5
372.706	715.5
372.932	742.5
373.158	717.5
373.384	709.5
373.61	709.5
373.835	713.5
374.061	696.5
374.287	714.5
374.513	703.5
374.739	757.5
374.965	774.5
375.191	789.5
375.416	765.5
375.642	752.5
375.868	757.5
376.094	728.5
376.319	712.5
376.545	724.5
376.771	703.5
376.997	729.5
377.222	699.5
377.448	701.5
377.674	704.5
377.899	682.5
378.125	668.5
378.35	692.5
378.576	684.5
378.802	682.5
379.027	700.5
379.253	681.5
379.478	701.5
379.704	682.5
379.929	689.5
380.155	707.5
380.38	705.5
380.606	672.5
380.831	665.5
381.057	689.5
381.282	678.5
381.507	708.5
381.733	690.5
381.958	711.5
382.184	714.5
382.409	683.5
382.634	748.5
382.86	730.5
383.085	736.5
383.31	745.5
383.535	760.5
383.761	790.5
383.986	787.5
384.211	806.5
384.436	826.5
384.662	832.5
384.887	866.5
385.112	840.5
385.337	868.5
385.562	843.5
385.787	860.5
386.013	847.5
386.238	870.5
386.463	848.5
386.688	859.5
386.913	852.5
387.138	808.5
387.363	819.5
387.588	811.5
387.813	812.5
388.038	819.5
388.263	808.5
388.488	839.5
388.713	827.5
388.938	811.5
389.163	811.5
389.387	836.5
389.612	840.5
389.837	831.5
390.062	792.5
390.287	808.5
390.512	789.5
390.736	831.5
390.961	843.5
391.186	851.5
391.411	852.5
391.636	903.5
391.86	924.5
392.085	949.5
392.31	948.5
392.534	927.5
392.759	883.5
392.984	872.5
393.208	881.5
393.433	884.5
393.658	900.5
393.882	884.5
394.107	920.5
394.331	924.5
394.556	901.5
394.78	887.5
395.005	889.5
395.229	894.5
395.454	927.5
395.678	943.5
395.903	954.5
396.127	919.5
396.352	905.5
396.576	864.5
396.801	863.5
397.025	846.5
397.249	886.5
397.474	933.5
397.698	919.5
397.922	947.5
398.147	939.5
398.371	962.5
398.595	979.5
398.82	1026.5
399.044	1107.5
399.268	1201.5
399.492	1422.5
399.717	1610.5
399.941	1635.5
400.165	1473.5
400.389	1305.5
400.613	1155.5
400.837	1105.5
401.062	1083.5
401.286	1052.5
401.51	1053.5
401.734	1043.5
401.958	1074.5
402.182	1074.5
402.406	1082.5
402.63	1116.5
402.854	1156.5
403.078	1155.5
403.302	1202.5
403.526	1229.5
403.75	1242.5
403.974	1260.5
404.198	1276.5
404.422	1274.5
404.645	1232.5
404.869	1210.5
405.093	1227.5
405.317	1194.5
405.541	1168.5
405.765	1189.5
405.988	1152.5
406.212	1174.5
406.436	1155.5
406.66	1180.5
406.883	1196.5
407.107	1251.5
407.331	1349.5
407.555	1413.5
407.778	1388.5
408.002	1375.5
408.226	1323.5
408.449	1268.5
408.673	1244.5
408.896	1191.5
409.12	1178.5
409.344	1215.5
409.567	1197.5
409.791	1242.5
410.014	1233.5
410.238	1191.5
410.461	1211.5
410.685	1198.5
410.908	1183.5
411.132	1147.5
411.355	1127.5
411.578	1105.5
411.802	1073.5
412.025	1101.5
412.249	1139.5
412.472	1115.5
412.695	1106.5
412.919	1076.5
413.142	1024.5
413.365	1048.5
413.589	1097.5
413.812	1087.5
414.035	1043.5
414.258	1052.5
414.482	1063.5
414.705	1084.5
414.928	1084.5
415.151	1087.5
415.374	1057.5
415.597	1089.5
415.821	1043.5
416.044	1041.5
416.267	1036.5
416.49	1031.5
416.713	1037.5
416.936	1067.5
417.159	1028.5
417.382	1042.5
417.605	1027.5
417.828	999.5
418.051	1081.5
418.274	1078.5
418.497	1043.5
418.72	1083.5
418.943	1091.5
419.166	1162.5
419.389	1226.5
419.611	1220.5
419.834	1146.5
420.057	1127.5
420.28	1101.5
420.503	1037.5
420.726	1041.5
420.948	1028.5
421.171	1014.5
421.394	1053.5
421.617	1038.5
421.839	1032.5
422.062	1057.5
422.285	1060.5
422.507	1062.5
422.73	1065.5
422.953	1067.5
423.175	1103.5
423.398	1092.5
423.621	1120.5
423.843	1164.5
424.066	1138.5
424.288	1143.5
424.511	1121.5
424.733	1081.5
424.956	1100.5
425.178	1102.5
425.401	1086.5
425.623	1043.5
425.846	1020.5
426.068	1032.5
426.291	1012.5
426.513	1000.5
426.735	1002.5
426.958	992.5
427.18	946.5
427.402	971.5
427.625	999.5
427.847	964.5
428.069	938.5
428.292	963.5
428.514	938.5
428.736	926.5
428.958	952.5
429.181	953.5
429.403	921.5
429.625	920.5
429.847	904.5
430.069	913.5
430.292	903.5
430.514	904.5
430.736	921.5
430.958	929.5
431.18	954.5
431.402	929.5
431.624	911.5
431.846	918.5
432.068	955.5
432.29	964.5
432.512	934.5
432.734	949.5
432.956	940.5
433.178	948.5
433.4	934.5
433.622	947.5
433.844	973.5
434.066	946.5
434.287	924.5
434.509	980.5
434.731	1027.5
434.953	1079.5
435.175	1085.5
435.397	1083.5
435.618	1024.5
435.84	982.5
436.062	973.5
436.284	974.5
436.505	930.5
436.727	959.5
436.949	943.5
437.17	927.5
437.392	932.5
437.614	929.5
437.835	903.5
438.057	900.5
438.278	896.5
438.5	892.5
438.721	904.5
438.943	915.5
439.165	913.5
439.386	949.5
439.608	933.5
439.829	933.5
440.05	955.5
440.272	949.5
440.493	935.5
440.715	963.5
440.936	994.5
441.158	1005.5
441.379	1030.5
441.6	1064.5
441.822	1126.5
442.043	1110.5
442.264	1097.5
442.486	1007.5
442.707	1042.5
442.928	1043.5
443.149	1067.5
443.371	1022.5
443.592	1073.5
443.813	1094.5
444.034	1095.5
444.255	1132.5
444.476	1210.5
444.698	1253.5
444.919	1311.5
445.14	1409.5
445.361	1250.5
445.582	1126.5
445.803	1047.5
446.024	1021.5
446.245	1020.5
446.466	954.5
446.687	963.5
446.908	948.5
447.129	929.5
447.35	913.5
447.571	938.5
447.792	889.5
448.013	893.5
448.234	872.5
448.455	903.5
448.675	883.5
448.896	887.5
449.117	873.5
449.338	862.5
449.559	890.5
449.779	840.5
450	870.5
450.221	855.5
450.442	889.5
450.662	876.5
450.883	889.5
451.104	927.5
451.324	905.5
451.545	913.5
451.766	895.5
451.986	882.5
452.207	893.5
452.428	898.5
452.648	893.5
452.869	865.5
453.089	844.5
453.31	860.5
453.53	878.5
453.751	836.5
453.971	842.5
454.192	839.5
454.412	829.5
454.633	850.5
454.853	842.5
455.073	821.5
455.294	855.5
455.514	807.5
455.734	807.5
455.955	779.5
456.175	826.5
456.395	831.5
456.616	805.5
456.836	837.5
457.056	823.5
457.276	781.5
457.497	793.5
457.717	803.5
457.937	832.5
458.157	839.5
458.377	826.5
458.598	877.5
458.818	864.5
459.038	905.5
459.258	959.5
459.478	932.5
459.698	983.5
459.918	1017.5
460.138	1049.5
460.358	1111.5
460.578	1106.5
460.798	1135.5
461.018	1176.5
461.238	1156.5
461.458	1111.5
461.678	1119.5
461.898	1133.5
462.118	1151.5
462.338	1189.5
462.558	1213.5
462.777	1305.5
462.997	1403.5
463.217	1566.5
463.437	1569.5
463.657	1419.5
463.876	1352.5
464.096	1369.5
464.316	1363.5
464.536	1366.5
464.755	1279.5
464.975	1219.5
465.195	1191.5
465.414	1106.5
465.634	1034.5
465.854	1001.5
466.073	975.5
466.293	951.5
466.512	973.5
466.732	924.5
466.951	899.5
467.171	929.5
467.391	948.5
467.61	920.5
467.829	929.5
468.049	889.5
468.268	884.5
468.488	877.5
468.707	852.5
468.927	871.5
469.146	873.5
469.365	898.5
469.585	859.5
469.804	893.5
470.023	915.5
470.243	944.5
470.462	943.5
470.681	941.5
470.901	940.5
471.12	924.5
471.339	926.5
471.558	903.5
471.777	876.5
471.997	867.5
472.216	858.5
472.435	868.5
472.654	857.5
472.873	862.5
473.092	843.5
473.311	856.5
473.53	831.5
473.749	855.5
473.968	861.5
474.187	846.5
474.406	853.5
474.625	840.5
474.844	839.5
475.063	850.5
475.282	849.5
475.501	856.5
475.72	864.5
475.939	866.5
476.158	873.5
476.377	861.5
476.596	860.5
476.814	913.5
477.033	905.5
477.252	901.5
477.471	930.5
477.69	957.5
477.908	984.5
478.127	972.5
478.346	1001.5
478.564	1034.5
478.783	1020.5
479.002	1068.5
479.22	1049.5
479.439	1042.5
479.658	1045.5
479.876	1058.5
480.095	1073.5
480.313	1124.5
480.532	1149.5
480.751	1141.5
480.969	1093.5
481.188	1064.5
481.406	1025.5
481.624	994.5
481.843	976.5
482.061	980.5
482.28	961.5
482.498	966.5
482.717	943.5
482.935	941.5
483.153	941.5
483.372	932.5
483.59	945.5
483.808	939.5
484.027	961.5
484.245	981.5
484.463	953.5
484.681	992.5
484.9	982.5
485.118	993.5
485.336	1007.5
485.554	996.5
485.772	1013.5
485.99	1043.5
486.209	1069.5
486.427	1050.5
486.645	1041.5
486.863	1009.5
487.081	1036.5
487.299	1039.5
487.517	1031.5
487.735	990.5
487.953	985.5
488.171	975.5
488.389	970.5
488.607	982.5
488.825	977.5
489.043	959.5
489.261	980.5
489.479	973.5
489.696	995.5
489.914	1007.5
490.132	1039.5
490.35	1009.5
490.568	1014.5
490.786	1012.5
491.003	1008.5
491.221	1020.5
491.439	1020.5
491.657	993.5
491.874	1027.5
492.092	1034.5
492.31	1041.5
492.527	1005.5
492.745	1050.5
492.963	1040.5
493.18	1024.5
493.398	1038.5
493.615	1058.5
493.833	1077.5
494.05	1043.5
494.268	1056.5
494.485	1051.5
494.703	1064.5
494.92	1084.5
495.138	1059.5
495.355	1062.5
495.573	1056.5
495.79	1068.5
496.008	1079.5
496.225	1058.5
496.442	1071.5
496.66	1095.5
496.877	1084.5
497.094	1125.5
497.312	1151.5
497.529	1147.5
497.746	1215.5
497.963	1213.5
498.181	1322.5
498.398	1324.5
498.615	1435.5
498.832	1525.5
499.049	1621.5
499.267	1759.5
499.484	1961.5
499.701	2210.5
499.918	2412.5
500.135	2800.5
500.352	3290.5
500.569	3469.5
500.786	3397.5
501.003	3133.5
501.22	2810.5
501.437	2427.5
501.654	2092.5
501.871	1929.5
502.088	1780.5
502.305	1651.5
502.522	1560.5
502.739	1473.5
502.956	1386.5
503.172	1303.5
503.389	1262.5
503.606	1253.5
503.823	1211.5
504.04	1217.5
504.256	1221.5
504.473	1272.5
504.69	1300.5
504.907	1272.5
505.123	1165.5
505.34	1113.5
505.557	1078.5
505.773	1030.5
505.99	1053.5
506.207	1025.5
506.423	986.5
506.64	970.5
506.856	956.5
507.073	982.5
507.289	959.5
507.506	964.5
507.722	945.5
507.939	930.5
508.155	927.5
508.372	908.5
508.588	892.5
508.805	897.5
509.021	899.5
509.238	871.5
509.454	885.5
509.67	866.5
509.887	862.5
510.103	893.5
510.319	845.5
510.536	878.5
510.752	893.5
510.968	858.5
511.184	869.5
511.401	875.5
511.617	883.5
511.833	858.5
512.049	844.5
512.265	842.5
512.481	865.5
512.698	823.5
512.914	874.5
513.13	848.5
513.346	853.5
513.562	867.5
513.778	864.5
513.994	870.5
514.21	873.5
514.426	848.5
514.642	864.5
514.858	867.5
515.074	870.5
515.29	892.5
515.506	895.5
515.721	917.5
515.937	889.5
516.153	896.5
516.369	931.5
516.585	986.5
516.801	1023.5
517.016	1091.5
517.232	1121.5
517.448	1170.5
517.664	1229.5
517.879	1226.5
518.095	1241.5
518.311	1231.5
518.527	1160.5
518.742	1093.5
518.958	1035.5
519.173	1011.5
519.389	989.5
519.605	953.5
519.82	960.5
520.036	928.5
520.251	885.5
520.467	863.5
520.682	865.5
520.898	859.5
521.113	874.5
521.329	864.5
521.544	851.5
521.76	845.5
521.975	837.5
522.19	836.5
522.406	825.5
522.621	786.5
522.836	846.5
523.052	816.5
523.267	795.5
523.482	795.5
523.698	800.5
523.913	815.5
524.128	789.5
524.343	797.5
524.559	774.5
524.774	819.5
524.989	818.5
525.204	784.5
525.419	797.5
525.634	794.5
525.849	792.5
526.064	766.5
526.28	781.5
526.495	817.5
526.71	777.5
526.925	788.5
527.14	773.5
527.355	773.5
527.57	781.5
527.785	790.5
527.999	767.5
528.214	775.5
528.429	776.5
528.644	797.5
528.859	794.5
529.074	755.5
529.289	775.5
529.503	781.5
529.718	776.5
529.933	755.5
530.148	772.5
530.363	777.5
530.577	765.5
530.792	771.5
531.007	786.5
531.221	791.5
531.436	765.5
531.651	782.5
531.865	777.5
532.08	779.5
532.295	788.5
532.509	809.5
532.724	759.5
532.938	780.5
533.153	769.5
533.367	746.5
533.582	779.5
533.796	780.5
534.011	793.5
534.225	776.5
534.44	764.5
534.654	792.5
534.868	770.5
535.083	755.5
535.297	748.5
535.511	748.5
535.726	746.5
535.94	722.5
536.154	746.5
536.369	731.5
536.583	733.5
536.797	746.5
537.011	713.5
537.225	714.5
537.44	717.5
537.654	707.5
537.868	709.5
538.082	716.5
538.296	726.5
538.51	732.5
538.724	744.5
538.938	723.5
539.153	702.5
539.367	698.5
539.581	699.5
539.795	709.5
540.009	710.5
540.222	713.5
540.436	708.5
540.65	715.5
540.864	690.5
541.078	688.5
541.292	696.5
541.506	705.5
541.72	700.5
541.934	727.5
542.147	696.5
542.361	714.5
542.575	673.5
542.789	680.5
543.002	679.5
543.216	697.5
543.43	688.5
543.644	696.5
543.857	698.5
544.071	691.5
544.285	693.5
544.498	675.5
544.712	714.5
544.925	705.5
545.139	703.5
545.352	701.5
545.566	701.5
545.779	712.5
545.993	735.5
546.206	706.5
546.42	705.5
546.633	712.5
546.847	709.5
547.06	701.5
547.274	714.5
547.487	695.5
547.7	707.5
547.914	741.5
548.127	734.5
548.34	717.5
548.554	725.5
548.767	737.5
548.98	741.5
549.193	740.5
549.407	721.5
549.62	734.5
549.833	726.5
550.046	733.5
550.259	721.5
550.473	707.5
550.686	706.5
550.899	710.5
551.112	696.5
551.325	711.5
551.538	708.5
551.751	715.5
551.964	699.5
552.177	704.5
552.39	712.5
552.603	716.5
552.816	754.5
553.029	748.5
553.242	792.5
553.455	796.5
553.667	818.5
553.88	767.5
554.093	755.5
554.306	724.5
554.519	739.5
554.732	745.5
554.944	716.5
555.157	689.5
555.37	699.5
555.583	702.5
555.795	670.5
556.008	654.5
556.221	628.5
556.433	620.5
556.646	642.5
556.859	616.5
557.071	620.5
557.284	619.5
557.496	621.5
557.709	624.5
557.921	611.5
558.134	619.5
558.346	605.5
558.559	618.5
558.771	596.5
558.984	598.5
559.196	578.5
559.409	599.5
559.621	573.5
559.833	609.5
560.046	605.5
560.258	586.5
560.47	594.5
560.683	584.5
560.895	585.5
561.107	589.5
561.32	601.5
561.532	592.5
561.744	596.5
561.956	585.5
562.168	608.5
562.381	600.5
562.593	596.5
562.805	588.5
563.017	610.5
563.229	594.5
563.441	604.5
563.653	590.5
563.865	609.5
564.077	619.5
564.289	625.5
564.501	637.5
564.713	646.5
564.925	633.5
565.137	634.5
565.349	658.5
565.561	670.5
565.773	695.5
565.985	737.5
566.197	769.5
566.408	851.5
566.62	923.5
566.832	985.5
567.044	991.5
567.255	1015.5
567.467	1022.5
567.679	1077.5
567.891	1203.5
568.102	1252.5
568.314	1191.5
568.526	1034.5
568.737	950.5
568.949	879.5
569.161	799.5
569.372	695.5
569.584	684.5
569.795	657.5
570.007	651.5
570.218	609.5
570.43	639.5
570.641	617.5
570.853	616.5
571.064	620.5
571.276	663.5
571.487	608.5
571.698	606.5
571.91	564.5
572.121	544.5
572.333	529.5
572.544	511.5
572.755	528.5
572.966	527.5
573.178	510.5
573.389	516.5
573.6	510.5
573.811	498.5
574.023	510.5
574.234	501.5
574.445	499.5
574.656	501.5
574.867	509.5
575.078	509.5
575.289	497.5
575.501	487.5
575.712	455.5
575.923	462.5
576.134	487.5
576.345	461.5
576.556	498.5
576.767	482.5
576.978	463.5
577.188	477.5
577.399	457.5
577.61	462.5
577.821	461.5
578.032	443.5
578.243	442.5
578.454	450.5
578.665	439.5
578.875	452.5
579.086	449.5
579.297	425.5
579.508	415.5
579.718	426.5
579.929	413.5
580.14	449.5
580.35	434.5
580.561	436.5
580.772	428.5
580.982	424.5
581.193	428.5
581.403	456.5
581.614	407.5
581.825	429.5
582.035	409.5
582.246	402.5
582.456	428.5
582.667	433.5
582.877	436.5
583.087	408.5
583.298	427.5
583.508	426.5
583.719	415.5
583.929	399.5
584.139	416.5
584.35	426.5
584.56	395.5
584.77	397.5
584.981	398.5
585.191	419.5
585.401	401.5
585.611	387.5
585.821	392.5
586.032	394.5
586.242	398.5
586.452	393.5
586.662	388.5
586.872	403.5
587.082	388.5
587.292	399.5
587.502	417.5
587.713	385.5
587.923	389.5
588.133	392.5
588.343	384.5
588.553	395.5
588.762	387.5
588.972	384.5
589.182	387.5
589.392	398.5
589.602	401.5
589.812	415.5
590.022	404.5
590.232	387.5
590.441	408.5
590.651	415.5
590.861	418.5
591.071	407.5
591.281	409.5
591.49	418.5
591.7	420.5
591.91	408.5
592.119	418.5
592.329	441.5
592.539	484.5
592.748	470.5
592.958	490.5
593.167	509.5
593.377	508.5
593.587	503.5
593.796	517.5
594.006	539.5
594.215	502.5
594.424	529.5
594.634	539.5
594.843	508.5
595.053	476.5
595.262	460.5
595.472	444.5
595.681	449.5
595.89	431.5
596.1	406.5
596.309	412.5
596.518	395.5
596.727	380.5
596.937	374.5
597.146	379.5
597.355	361.5
597.564	399.5
597.774	375.5
597.983	376.5
598.192	368.5
598.401	351.5
598.61	375.5
598.819	336.5
599.028	351.5
599.237	359.5
599.446	367.5
599.655	336.5
599.864	323.5
600.073	339.5
600.282	354.5
600.491	337.5
600.7	344.5
600.909	334.5
601.118	325.5
601.327	329.5
601.536	335.5
601.745	353.5
601.953	328.5
602.162	343.5
602.371	326.5
602.58	309.5
602.789	333.5
602.997	324.5
603.206	338.5
603.415	319.5
603.623	320.5
603.832	319.5
604.041	319.5
604.249	322.5
604.458	323.5
604.666	312.5
604.875	313.5
605.084	322.5
605.292	308.5
605.501	311.5
605.709	316.5
605.918	316.5
606.126	295.5
606.334	319.5
606.543	315.5
606.751	300.5
606.96	310.5
607.168	313.5
607.376	299.5
607.585	309.5
607.793	303.5
608.001	303.5
608.21	315.5
608.418	299.5
608.626	310.5
608.834	277.5
609.043	304.5
609.251	307.5
609.459	295.5
609.667	289.5
609.875	300.5
610.083	305.5
610.291	303.5
610.499	299.5
610.707	291.5
610.916	289.5
611.124	306.5
611.332	311.5
611.54	301.5
611.748	281.5
611.955	291.5
612.163	303.5
612.371	283.5
612.579	303.5
612.787	292.5
612.995	287.5
613.203	316.5
613.411	303.5
613.618	301.5
613.826	272.5
614.034	279.5
614.242	285.5
614.449	287.5
614.657	279.5
614.865	281.5
615.072	278.5
615.28	319.5
615.488	286.5
615.695	273.5
615.903	295.5
616.111	298.5
616.318	291.5
616.526	293.5
616.733	283.5
616.941	289.5
617.148	308.5
617.356	299.5
617.563	291.5
617.771	297.5
617.978	291.5
618.185	305.5
618.393	291.5
618.6	289.5
618.807	290.5
619.015	303.5
619.222	311.5
619.429	297.5
619.637	291.5
619.844	293.5
620.051	276.5
620.258	277.5
620.466	290.5
620.673	261.5
620.88	258.5
621.087	267.5
621.294	281.5
621.501	251.5
621.708	277.5
621.915	252.5
622.122	267.5
622.329	274.5
622.536	287.5
622.743	270.5
622.95	245.5
623.157	249.5
623.364	271.5
623.571	242.5
623.778	242.5
623.985	280.5
624.192	236.5
624.399	271.5
624.606	259.5
624.812	259.5
625.019	241.5
625.226	235.5
625.433	272.5
625.639	269.5
625.846	254.5
626.053	264.5
626.259	249.5
626.466	252.5
626.673	237.5
626.879	236.5
627.086	251.5
627.293	234.5
627.499	238.5
627.706	254.5
627.912	249.5
628.119	242.5
628.325	225.5
628.532	242.5
628.738	229.5
628.945	255.5
629.151	235.5
629.357	239.5
629.564	241.5
629.77	249.5
629.976	221.5
630.183	224.5
630.389	239.5
630.595	232.5
630.802	225.5
631.008	231.5
631.214	238.5
631.42	218.5
631.627	243.5
631.833	237.5
632.039	229.5
632.245	223.5
632.451	216.5
632.657	223.5
632.863	233.5
633.069	220.5
633.275	234.5
633.481	220.5
633.688	213.5
633.893	218.5
634.099	220.5
634.305	212.5
634.511	216.5
634.717	205.5
634.923	227.5
635.129	217.5
635.335	221.5
635.541	220.5
635.747	204.5
635.952	219.5
636.158	212.5
636.364	202.5
636.57	206.5
636.775	232.5
636.981	227.5
637.187	205.5
637.392	199.5
637.598	213.5
637.804	217.5
638.009	210.5
638.215	199.5
638.421	210.5
638.626	207.5
638.832	217.5
639.037	216.5
639.243	201.5
639.448	185.5
639.654	208.5
639.859	191.5
640.065	197.5
640.27	219.5
640.475	211.5
640.681	198.5
640.886	188.5
641.091	184.5
641.297	207.5
641.502	194.5
641.707	206.5
641.913	185.5
642.118	196.5
642.323	204.5
642.528	192.5
642.733	201.5
642.939	198.5
643.144	190.5
643.349	198.5
643.554	199.5
643.759	181.5
643.964	201.5
644.169	185.5
644.374	181.5
644.579	199.5
644.784	175.5
644.989	181.5
645.194	198.5
645.399	192.5
645.604	183.5
645.809	198.5
646.014	203.5
646.219	178.5
646.423	184.5
646.628	179.5
646.833	183.5
647.038	196.5
647.243	171.5
647.447	188.5
647.652	184.5
647.857	187.5
648.062	204.5
648.266	205.5
648.471	204.5
648.676	207.5
648.88	188.5
649.085	197.5
649.289	180.5
649.494	172.5
649.698	191.5
649.903	185.5
650.107	167.5
650.312	182.5
650.516	163.5
650.721	164.5
650.925	162.5
651.13	175.5
651.334	175.5
651.539	184.5
651.743	166.5
651.947	156.5
652.152	183.5
652.356	155.5
652.56	167.5
652.764	145.5
652.969	162.5
653.173	147.5
653.377	138.5
653.581	140.5
653.785	147.5
653.99	143.5
654.194	146.5
654.398	151.5
654.602	145.5
654.806	146.5
655.01	134.5
655.214	137.5
655.418	133.5
655.622	119.5
655.826	143.5
656.03	116.5
656.234	129.5
656.438	143.5
656.642	132.5
656.846	127.5
657.049	133.5
657.253	127.5
657.457	129.5
657.661	106.5
657.865	114.5
658.068	113.5
658.272	121.5
658.476	105.5
658.68	104.5
658.883	114.5
659.087	102.5
659.291	106.5
659.494	106.5
659.698	95.5
659.901	107.5
660.105	92.5
660.309	100.5
660.512	93.5
660.716	101.5
660.919	91.5
661.123	88.5
661.326	94.5
661.53	90.5
661.733	88.5
661.936	100.5
662.14	87.5
662.343	91.5
662.546	90.5
662.75	83.5
662.953	81.5
663.156	84.5
663.36	92.5
663.563	92.5
663.766	79.5
663.969	92.5
664.173	98.5
664.376	78.5
664.579	73.5
664.782	90.5
664.985	93.5
665.188	91.5
665.391	90.5
665.594	85.5
665.797	74.5
666	68.5
666.203	77.5
666.406	76.5
666.609	77.5
666.812	83.5
667.015	73.5
667.218	79.5
667.421	85.5
667.624	82.5
667.827	88.5
668.03	82.5
668.232	64.5
668.435	86.5
668.638	90.5
668.841	79.5
669.043	88.5
669.246	102.5
669.449	81.5
669.651	86.5
669.854	88.5
670.057	95.5
670.259	89.5
670.462	84.5
670.665	91.5
670.867	89.5
671.07	78.5
671.272	75.5
671.475	100.5
671.677	75.5
671.88	77.5
672.082	79.5
672.284	76.5
672.487	63.5
672.689	84.5
672.892	86.5
