Data from NiCl2@0.125M.TitratingCurve.Agarose3%dH2O.NegLispCup.LampEnergy10.LIBS07252019_HRD10591_18-28-06-574.txt Node
Date: Thu Jul 25 18:28:06 EDT 2019
User: cochatt
Spectrometer: HR+D1059
Trigger mode: 1
Integration Time (sec): 1.000000E-1
Scans to average: 1
Electric dark correction enabled: true
Nonlinearity correction enabled: false
Boxcar width: 0
XAxis mode: Wavelengths
Number of Pixels in Spectrum: 2048
>>>>>Begin Spectral Data<<<<<
223.165	-28.31
223.4	-28.31
223.635	-28.31
223.869	-21.31
224.104	-11.31
224.338	-10.31
224.573	-15.31
224.808	-20.31
225.042	-3.31
225.277	-0.31
225.511	5.69
225.746	9.69
225.98	-5.31
226.215	7.69
226.449	7.69
226.683	16.69
226.918	33.69
227.152	34.69
227.387	41.69
227.621	44.69
227.856	41.69
228.09	35.69
228.324	54.69
228.559	57.69
228.793	64.69
229.027	137.69
229.262	126.69
229.496	126.69
229.73	137.69
229.964	148.69
230.199	140.69
230.433	145.69
230.667	165.69
230.901	152.69
231.136	147.69
231.37	147.69
231.604	147.69
231.838	161.69
232.072	157.69
232.306	161.69
232.541	158.69
232.775	161.69
233.009	164.69
233.243	171.69
233.477	165.69
233.711	178.69
233.945	171.69
234.179	178.69
234.413	162.69
234.647	170.69
234.881	175.69
235.115	179.69
235.349	194.69
235.583	184.69
235.817	180.69
236.051	182.69
236.285	177.69
236.519	191.69
236.753	193.69
236.987	192.69
237.221	193.69
237.455	195.69
237.689	188.69
237.922	205.69
238.156	195.69
238.39	213.69
238.624	196.69
238.858	193.69
239.091	212.69
239.325	208.69
239.559	211.69
239.793	209.69
240.027	201.69
240.26	214.69
240.494	213.69
240.728	218.69
240.961	210.69
241.195	228.69
241.429	228.69
241.662	224.69
241.896	241.69
242.13	231.69
242.363	237.69
242.597	237.69
242.83	236.69
243.064	244.69
243.298	239.69
243.531	248.69
243.765	241.69
243.998	245.69
244.232	242.69
244.465	255.69
244.699	271.69
244.932	263.69
245.166	280.69
245.399	273.69
245.633	263.69
245.866	263.69
246.099	268.69
246.333	285.69
246.566	269.69
246.8	258.69
247.033	276.69
247.266	298.69
247.5	275.69
247.733	295.69
247.966	279.69
248.2	302.69
248.433	300.69
248.666	276.69
248.899	320.69
249.133	305.69
249.366	314.69
249.599	305.69
249.832	301.69
250.066	303.69
250.299	315.69
250.532	315.69
250.765	320.69
250.998	324.69
251.231	335.69
251.465	324.69
251.698	343.69
251.931	335.69
252.164	330.69
252.397	335.69
252.63	346.69
252.863	336.69
253.096	340.69
253.329	341.69
253.562	326.69
253.795	357.69
254.028	352.69
254.261	362.69
254.494	325.69
254.727	353.69
254.96	348.69
255.193	370.69
255.426	353.69
255.659	347.69
255.892	372.69
256.124	355.69
256.357	376.69
256.59	348.69
256.823	347.69
257.056	371.69
257.289	367.69
257.521	401.69
257.754	385.69
257.987	395.69
258.22	391.69
258.452	396.69
258.685	391.69
258.918	393.69
259.151	397.69
259.383	391.69
259.616	379.69
259.849	390.69
260.081	397.69
260.314	408.69
260.547	401.69
260.779	408.69
261.012	412.69
261.244	411.69
261.477	432.69
261.71	393.69
261.942	409.69
262.175	421.69
262.407	417.69
262.64	429.69
262.872	438.69
263.105	415.69
263.337	407.69
263.57	415.69
263.802	422.69
264.035	449.69
264.267	445.69
264.499	436.69
264.732	457.69
264.964	428.69
265.197	423.69
265.429	427.69
265.661	419.69
265.894	437.69
266.126	455.69
266.358	462.69
266.591	451.69
266.823	463.69
267.055	465.69
267.287	465.69
267.52	473.69
267.752	451.69
267.984	457.69
268.216	466.69
268.448	483.69
268.681	453.69
268.913	455.69
269.145	464.69
269.377	478.69
269.609	465.69
269.841	459.69
270.073	458.69
270.306	460.69
270.538	479.69
270.77	483.69
271.002	476.69
271.234	500.69
271.466	499.69
271.698	480.69
271.93	482.69
272.162	503.69
272.394	489.69
272.626	474.69
272.858	509.69
273.09	520.69
273.322	512.69
273.553	533.69
273.785	520.69
274.017	519.69
274.249	547.69
274.481	524.69
274.713	523.69
274.945	554.69
275.176	532.69
275.408	524.69
275.64	531.69
275.872	535.69
276.104	543.69
276.335	552.69
276.567	556.69
276.799	548.69
277.031	565.69
277.262	556.69
277.494	537.69
277.726	541.69
277.957	562.69
278.189	537.69
278.421	551.69
278.652	559.69
278.884	565.69
279.115	568.69
279.347	563.69
279.579	549.69
279.81	577.69
280.042	567.69
280.273	564.69
280.505	569.69
280.736	579.69
280.968	604.69
281.199	570.69
281.431	597.69
281.662	595.69
281.894	602.69
282.125	601.69
282.356	611.69
282.588	593.69
282.819	601.69
283.051	620.69
283.282	617.69
283.513	604.69
283.745	609.69
283.976	623.69
284.207	629.69
284.439	603.69
284.67	631.69
284.901	612.69
285.132	630.69
285.364	617.69
285.595	626.69
285.826	624.69
286.057	643.69
286.288	623.69
286.52	640.69
286.751	652.69
286.982	645.69
287.213	655.69
287.444	654.69
287.675	658.69
287.906	645.69
288.138	669.69
288.369	661.69
288.6	675.69
288.831	676.69
289.062	681.69
289.293	645.69
289.524	660.69
289.755	680.69
289.986	689.69
290.217	667.69
290.448	668.69
290.679	669.69
290.91	649.69
291.141	677.69
291.371	680.69
291.602	661.69
291.833	706.69
292.064	668.69
292.295	684.69
292.526	671.69
292.757	675.69
292.987	683.69
293.218	698.69
293.449	693.69
293.68	696.69
293.91	671.69
294.141	660.69
294.372	683.69
294.603	703.69
294.833	677.69
295.064	679.69
295.295	677.69
295.525	711.69
295.756	677.69
295.987	679.69
296.217	695.69
296.448	725.69
296.679	704.69
296.909	723.69
297.14	709.69
297.37	724.69
297.601	728.69
297.831	704.69
298.062	726.69
298.292	741.69
298.523	748.69
298.753	749.69
298.984	722.69
299.214	732.69
299.445	737.69
299.675	713.69
299.905	739.69
300.136	738.69
300.366	754.69
300.597	770.69
300.827	765.69
301.057	783.69
301.288	781.69
301.518	771.69
301.748	797.69
301.979	770.69
302.209	792.69
302.439	756.69
302.669	758.69
302.9	758.69
303.13	761.69
303.36	776.69
303.59	738.69
303.82	781.69
304.051	789.69
304.281	764.69
304.511	771.69
304.741	768.69
304.971	763.69
305.201	769.69
305.431	759.69
305.661	755.69
305.891	753.69
306.121	725.69
306.352	788.69
306.582	732.69
306.812	707.69
307.042	762.69
307.272	743.69
307.502	751.69
307.731	755.69
307.961	770.69
308.191	726.69
308.421	752.69
308.651	760.69
308.881	729.69
309.111	740.69
309.341	729.69
309.571	729.69
309.8	761.69
310.03	731.69
310.26	751.69
310.49	758.69
310.72	740.69
310.949	779.69
311.179	760.69
311.409	776.69
311.639	772.69
311.868	772.69
312.098	784.69
312.328	809.69
312.557	807.69
312.787	800.69
313.017	796.69
313.246	811.69
313.476	803.69
313.706	825.69
313.935	817.69
314.165	828.69
314.394	804.69
314.624	809.69
314.853	807.69
315.083	797.69
315.312	819.69
315.542	790.69
315.771	824.69
316.001	807.69
316.23	796.69
316.46	791.69
316.689	805.69
316.919	794.69
317.148	807.69
317.377	804.69
317.607	799.69
317.836	786.69
318.065	796.69
318.295	786.69
318.524	770.69
318.753	808.69
318.983	776.69
319.212	788.69
319.441	788.69
319.67	790.69
319.9	791.69
320.129	824.69
320.358	777.69
320.587	809.69
320.816	781.69
321.046	786.69
321.275	795.69
321.504	791.69
321.733	812.69
321.962	804.69
322.191	811.69
322.42	811.69
322.649	808.69
322.878	817.69
323.108	785.69
323.337	829.69
323.566	815.69
323.795	827.69
324.024	825.69
324.253	811.69
324.482	786.69
324.71	813.69
324.939	830.69
325.168	826.69
325.397	813.69
325.626	839.69
325.855	837.69
326.084	853.69
326.313	858.69
326.542	895.69
326.77	903.69
326.999	871.69
327.228	855.69
327.457	857.69
327.686	855.69
327.914	875.69
328.143	860.69
328.372	856.69
328.6	876.69
328.829	853.69
329.058	873.69
329.287	856.69
329.515	861.69
329.744	853.69
329.972	872.69
330.201	883.69
330.43	883.69
330.658	892.69
330.887	909.69
331.115	916.69
331.344	908.69
331.572	893.69
331.801	931.69
332.03	985.69
332.258	1016.69
332.486	1027.69
332.715	1035.69
332.943	1094.69
333.172	1136.69
333.4	1174.69
333.629	1220.69
333.857	1221.69
334.085	1217.69
334.314	1173.69
334.542	1143.69
334.771	1137.69
334.999	1117.69
335.227	1143.69
335.455	1112.69
335.684	1107.69
335.912	1114.69
336.14	1059.69
336.369	1066.69
336.597	1055.69
336.825	1068.69
337.053	1059.69
337.281	1043.69
337.51	1013.69
337.738	1010.69
337.966	975.69
338.194	965.69
338.422	964.69
338.65	929.69
338.878	932.69
339.106	940.69
339.334	967.69
339.562	961.69
339.79	912.69
340.018	910.69
340.246	885.69
340.474	902.69
340.702	897.69
340.93	888.69
341.158	920.69
341.386	909.69
341.614	923.69
341.842	899.69
342.07	898.69
342.298	907.69
342.526	898.69
342.754	894.69
342.981	927.69
343.209	900.69
343.437	948.69
343.665	1062.69
343.893	1111.69
344.12	1186.69
344.348	1111.69
344.576	1041.69
344.804	980.69
345.031	963.69
345.259	936.69
345.487	905.69
345.714	904.69
345.942	899.69
346.17	895.69
346.397	863.69
346.625	905.69
346.853	880.69
347.08	857.69
347.308	863.69
347.535	888.69
347.763	911.69
347.99	895.69
348.218	900.69
348.445	904.69
348.673	876.69
348.9	874.69
349.128	869.69
349.355	851.69
349.583	859.69
349.81	860.69
350.037	834.69
350.265	822.69
350.492	841.69
350.72	861.69
350.947	844.69
351.174	827.69
351.402	844.69
351.629	812.69
351.856	834.69
352.083	827.69
352.311	834.69
352.538	838.69
352.765	832.69
352.992	826.69
353.22	815.69
353.447	815.69
353.674	835.69
353.901	850.69
354.128	837.69
354.355	800.69
354.583	819.69
354.81	839.69
355.037	857.69
355.264	845.69
355.491	812.69
355.718	851.69
355.945	841.69
356.172	857.69
356.399	843.69
356.626	856.69
356.853	838.69
357.08	831.69
357.307	868.69
357.534	856.69
357.761	867.69
357.988	879.69
358.215	833.69
358.441	832.69
358.668	843.69
358.895	865.69
359.122	839.69
359.349	818.69
359.576	844.69
359.802	863.69
360.029	873.69
360.256	839.69
360.483	860.69
360.709	880.69
360.936	853.69
361.163	821.69
361.39	832.69
361.616	844.69
361.843	824.69
362.07	842.69
362.296	836.69
362.523	824.69
362.749	815.69
362.976	819.69
363.203	815.69
363.429	832.69
363.656	865.69
363.882	835.69
364.109	863.69
364.335	836.69
364.562	831.69
364.788	827.69
365.015	842.69
365.241	812.69
365.468	829.69
365.694	847.69
365.92	857.69
366.147	813.69
366.373	820.69
366.599	821.69
366.826	842.69
367.052	832.69
367.278	804.69
367.505	823.69
367.731	851.69
367.957	829.69
368.184	873.69
368.41	849.69
368.636	832.69
368.862	857.69
369.089	860.69
369.315	876.69
369.541	877.69
369.767	889.69
369.993	861.69
370.219	896.69
370.445	888.69
370.672	891.69
370.898	918.69
371.124	931.69
371.35	937.69
371.576	958.69
371.802	910.69
372.028	929.69
372.254	940.69
372.48	916.69
372.706	905.69
372.932	953.69
373.158	942.69
373.384	938.69
373.61	922.69
373.835	925.69
374.061	947.69
374.287	948.69
374.513	915.69
374.739	1013.69
374.965	1014.69
375.191	1009.69
375.416	1071.69
375.642	995.69
375.868	973.69
376.094	956.69
376.319	932.69
376.545	952.69
376.771	936.69
376.997	927.69
377.222	918.69
377.448	916.69
377.674	943.69
377.899	907.69
378.125	912.69
378.35	939.69
378.576	899.69
378.802	895.69
379.027	891.69
379.253	927.69
379.478	911.69
379.704	908.69
379.929	932.69
380.155	887.69
380.38	917.69
380.606	906.69
380.831	915.69
381.057	927.69
381.282	909.69
381.507	917.69
381.733	917.69
381.958	906.69
382.184	945.69
382.409	951.69
382.634	968.69
382.86	973.69
383.085	972.69
383.31	994.69
383.535	1025.69
383.761	1040.69
383.986	1056.69
384.211	1048.69
384.436	1071.69
384.662	1082.69
384.887	1102.69
385.112	1127.69
385.337	1140.69
385.562	1108.69
385.787	1157.69
386.013	1130.69
386.238	1140.69
386.463	1135.69
386.688	1115.69
386.913	1135.69
387.138	1123.69
387.363	1119.69
387.588	1101.69
387.813	1098.69
388.038	1101.69
388.263	1102.69
388.488	1113.69
388.713	1084.69
388.938	1082.69
389.163	1088.69
389.387	1109.69
389.612	1092.69
389.837	1077.69
390.062	1101.69
390.287	1083.69
390.512	1084.69
390.736	1088.69
390.961	1123.69
391.186	1112.69
391.411	1177.69
391.636	1212.69
391.86	1242.69
392.085	1288.69
392.31	1256.69
392.534	1274.69
392.759	1213.69
392.984	1193.69
393.208	1201.69
393.433	1180.69
393.658	1189.69
393.882	1188.69
394.107	1203.69
394.331	1199.69
394.556	1179.69
394.78	1187.69
395.005	1197.69
395.229	1213.69
395.454	1218.69
395.678	1258.69
395.903	1288.69
396.127	1244.69
396.352	1217.69
396.576	1203.69
396.801	1138.69
397.025	1201.69
397.249	1200.69
397.474	1236.69
397.698	1280.69
397.922	1268.69
398.147	1236.69
398.371	1281.69
398.595	1327.69
398.82	1357.69
399.044	1475.69
399.268	1642.69
399.492	1924.69
399.717	2240.69
399.941	2220.69
400.165	1919.69
400.389	1721.69
400.613	1581.69
400.837	1497.69
401.062	1440.69
401.286	1402.69
401.51	1410.69
401.734	1414.69
401.958	1415.69
402.182	1474.69
402.406	1469.69
402.63	1480.69
402.854	1514.69
403.078	1538.69
403.302	1579.69
403.526	1591.69
403.75	1618.69
403.974	1693.69
404.198	1695.69
404.422	1708.69
404.645	1625.69
404.869	1627.69
405.093	1654.69
405.317	1567.69
405.541	1585.69
405.765	1546.69
405.988	1543.69
406.212	1526.69
406.436	1559.69
406.66	1574.69
406.883	1575.69
407.107	1693.69
407.331	1817.69
407.555	1812.69
407.778	1887.69
408.002	1833.69
408.226	1764.69
408.449	1669.69
408.673	1637.69
408.896	1566.69
409.12	1573.69
409.344	1633.69
409.567	1614.69
409.791	1613.69
410.014	1630.69
410.238	1591.69
410.461	1563.69
410.685	1586.69
410.908	1548.69
411.132	1509.69
411.355	1491.69
411.578	1468.69
411.802	1439.69
412.025	1473.69
412.249	1499.69
412.472	1499.69
412.695	1451.69
412.919	1397.69
413.142	1383.69
413.365	1397.69
413.589	1457.69
413.812	1419.69
414.035	1384.69
414.258	1362.69
414.482	1384.69
414.705	1448.69
414.928	1420.69
415.151	1405.69
415.374	1407.69
415.597	1401.69
415.821	1369.69
416.044	1402.69
416.267	1377.69
416.49	1390.69
416.713	1395.69
416.936	1362.69
417.159	1368.69
417.382	1361.69
417.605	1380.69
417.828	1391.69
418.051	1427.69
418.274	1365.69
418.497	1427.69
418.72	1421.69
418.943	1440.69
419.166	1541.69
419.389	1667.69
419.611	1601.69
419.834	1512.69
420.057	1431.69
420.28	1425.69
420.503	1375.69
420.726	1420.69
420.948	1376.69
421.171	1385.69
421.394	1397.69
421.617	1372.69
421.839	1414.69
422.062	1413.69
422.285	1404.69
422.507	1462.69
422.73	1449.69
422.953	1458.69
423.175	1452.69
423.398	1493.69
423.621	1452.69
423.843	1484.69
424.066	1504.69
424.288	1478.69
424.511	1444.69
424.733	1457.69
424.956	1417.69
425.178	1422.69
425.401	1399.69
425.623	1407.69
425.846	1368.69
426.068	1355.69
426.291	1331.69
426.513	1339.69
426.735	1257.69
426.958	1290.69
427.18	1251.69
427.402	1249.69
427.625	1277.69
427.847	1243.69
428.069	1228.69
428.292	1264.69
428.514	1249.69
428.736	1224.69
428.958	1251.69
429.181	1172.69
429.403	1191.69
429.625	1250.69
429.847	1188.69
430.069	1209.69
430.292	1189.69
430.514	1190.69
430.736	1220.69
430.958	1206.69
431.18	1187.69
431.402	1202.69
431.624	1229.69
431.846	1224.69
432.068	1253.69
432.29	1282.69
432.512	1236.69
432.734	1255.69
432.956	1209.69
433.178	1226.69
433.4	1281.69
433.622	1241.69
433.844	1248.69
434.066	1245.69
434.287	1287.69
434.509	1279.69
434.731	1332.69
434.953	1378.69
435.175	1429.69
435.397	1400.69
435.618	1352.69
435.84	1281.69
436.062	1236.69
436.284	1269.69
436.505	1241.69
436.727	1263.69
436.949	1259.69
437.17	1268.69
437.392	1241.69
437.614	1237.69
437.835	1176.69
438.057	1220.69
438.278	1155.69
438.5	1156.69
438.721	1176.69
438.943	1196.69
439.165	1191.69
439.386	1207.69
439.608	1220.69
439.829	1204.69
440.05	1240.69
440.272	1254.69
440.493	1244.69
440.715	1272.69
440.936	1280.69
441.158	1330.69
441.379	1360.69
441.6	1411.69
441.822	1429.69
442.043	1407.69
442.264	1374.69
442.486	1322.69
442.707	1384.69
442.928	1377.69
443.149	1391.69
443.371	1379.69
443.592	1348.69
443.813	1407.69
444.034	1444.69
444.255	1468.69
444.476	1536.69
444.698	1662.69
444.919	1737.69
445.14	1779.69
445.361	1610.69
445.582	1461.69
445.803	1353.69
446.024	1311.69
446.245	1290.69
446.466	1299.69
446.687	1272.69
446.908	1282.69
447.129	1271.69
447.35	1173.69
447.571	1233.69
447.792	1183.69
448.013	1183.69
448.234	1175.69
448.455	1146.69
448.675	1124.69
448.896	1130.69
449.117	1124.69
449.338	1148.69
449.559	1124.69
449.779	1094.69
450	1142.69
450.221	1121.69
450.442	1135.69
450.662	1140.69
450.883	1162.69
451.104	1173.69
451.324	1163.69
451.545	1183.69
451.766	1147.69
451.986	1123.69
452.207	1102.69
452.428	1125.69
452.648	1128.69
452.869	1085.69
453.089	1087.69
453.31	1127.69
453.53	1098.69
453.751	1100.69
453.971	1072.69
454.192	1088.69
454.412	1111.69
454.633	1055.69
454.853	1079.69
455.073	1089.69
455.294	1040.69
455.514	1064.69
455.734	1044.69
455.955	1020.69
456.175	1024.69
456.395	1037.69
456.616	1052.69
456.836	1051.69
457.056	1049.69
457.276	1012.69
457.497	1073.69
457.717	1057.69
457.937	1051.69
458.157	1047.69
458.377	1090.69
458.598	1088.69
458.818	1091.69
459.038	1147.69
459.258	1214.69
459.478	1228.69
459.698	1299.69
459.918	1305.69
460.138	1342.69
460.358	1445.69
460.578	1467.69
460.798	1507.69
461.018	1498.69
461.238	1490.69
461.458	1461.69
461.678	1407.69
461.898	1503.69
462.118	1452.69
462.338	1553.69
462.558	1590.69
462.777	1664.69
462.997	1863.69
463.217	2014.69
463.437	2043.69
463.657	1885.69
463.876	1763.69
464.096	1713.69
464.316	1714.69
464.536	1772.69
464.755	1661.69
464.975	1599.69
465.195	1519.69
465.414	1433.69
465.634	1364.69
465.854	1300.69
466.073	1273.69
466.293	1229.69
466.512	1211.69
466.732	1204.69
466.951	1200.69
467.171	1201.69
467.391	1178.69
467.61	1201.69
467.829	1155.69
468.049	1186.69
468.268	1131.69
468.488	1116.69
468.707	1099.69
468.927	1103.69
469.146	1151.69
469.365	1151.69
469.585	1150.69
469.804	1183.69
470.023	1209.69
470.243	1210.69
470.462	1242.69
470.681	1258.69
470.901	1252.69
471.12	1203.69
471.339	1210.69
471.558	1143.69
471.777	1141.69
471.997	1138.69
472.216	1123.69
472.435	1115.69
472.654	1087.69
472.873	1073.69
473.092	1076.69
473.311	1094.69
473.53	1093.69
473.749	1092.69
473.968	1104.69
474.187	1090.69
474.406	1064.69
474.625	1101.69
474.844	1116.69
475.063	1091.69
475.282	1107.69
475.501	1107.69
475.72	1098.69
475.939	1139.69
476.158	1085.69
476.377	1143.69
476.596	1165.69
476.814	1142.69
477.033	1140.69
477.252	1164.69
477.471	1186.69
477.69	1243.69
477.908	1242.69
478.127	1271.69
478.346	1325.69
478.564	1314.69
478.783	1345.69
479.002	1392.69
479.22	1381.69
479.439	1386.69
479.658	1355.69
479.876	1367.69
480.095	1398.69
480.313	1434.69
480.532	1508.69
480.751	1488.69
480.969	1427.69
481.188	1369.69
481.406	1322.69
481.624	1255.69
481.843	1279.69
482.061	1306.69
482.28	1218.69
482.498	1229.69
482.717	1233.69
482.935	1258.69
483.153	1225.69
483.372	1226.69
483.59	1233.69
483.808	1247.69
484.027	1252.69
484.245	1257.69
484.463	1253.69
484.681	1279.69
484.9	1302.69
485.118	1280.69
485.336	1288.69
485.554	1267.69
485.772	1336.69
485.99	1329.69
486.209	1307.69
486.427	1314.69
486.645	1315.69
486.863	1359.69
487.081	1333.69
487.299	1314.69
487.517	1315.69
487.735	1329.69
487.953	1340.69
488.171	1290.69
488.389	1305.69
488.607	1282.69
488.825	1284.69
489.043	1291.69
489.261	1306.69
489.479	1281.69
489.696	1297.69
489.914	1347.69
490.132	1332.69
490.35	1309.69
490.568	1320.69
490.786	1306.69
491.003	1340.69
491.221	1328.69
491.439	1311.69
491.657	1314.69
491.874	1325.69
492.092	1302.69
492.31	1299.69
492.527	1318.69
492.745	1338.69
492.963	1373.69
493.18	1357.69
493.398	1336.69
493.615	1376.69
493.833	1380.69
494.05	1364.69
494.268	1377.69
494.485	1401.69
494.703	1375.69
494.92	1415.69
495.138	1363.69
495.355	1389.69
495.573	1362.69
495.79	1396.69
496.008	1385.69
496.225	1401.69
496.442	1429.69
496.66	1422.69
496.877	1430.69
497.094	1476.69
497.312	1496.69
497.529	1515.69
497.746	1552.69
497.963	1623.69
498.181	1692.69
498.398	1783.69
498.615	1863.69
498.832	1979.69
499.049	2166.69
499.267	2341.69
499.484	2567.69
499.701	2882.69
499.918	3200.69
500.135	3698.69
500.352	4291.69
500.569	4441.69
500.786	4485.69
501.003	4065.69
501.22	3588.69
501.437	3198.69
501.654	2743.69
501.871	2455.69
502.088	2304.69
502.305	2152.69
502.522	2019.69
502.739	1945.69
502.956	1829.69
503.172	1723.69
503.389	1691.69
503.606	1618.69
503.823	1578.69
504.04	1571.69
504.256	1581.69
504.473	1688.69
504.69	1735.69
504.907	1684.69
505.123	1565.69
505.34	1451.69
505.557	1395.69
505.773	1348.69
505.99	1343.69
506.207	1327.69
506.423	1306.69
506.64	1282.69
506.856	1226.69
507.073	1189.69
507.289	1236.69
507.506	1216.69
507.722	1169.69
507.939	1196.69
508.155	1173.69
508.372	1189.69
508.588	1149.69
508.805	1157.69
509.021	1138.69
509.238	1145.69
509.454	1125.69
509.67	1167.69
509.887	1142.69
510.103	1126.69
510.319	1130.69
510.536	1140.69
510.752	1111.69
510.968	1145.69
511.184	1095.69
511.401	1149.69
511.617	1113.69
511.833	1112.69
512.049	1139.69
512.265	1094.69
512.481	1106.69
512.698	1113.69
512.914	1135.69
513.13	1144.69
513.346	1137.69
513.562	1096.69
513.778	1139.69
513.994	1133.69
514.21	1150.69
514.426	1115.69
514.642	1142.69
514.858	1159.69
515.074	1173.69
515.29	1183.69
515.506	1158.69
515.721	1178.69
515.937	1211.69
516.153	1224.69
516.369	1255.69
516.585	1255.69
516.801	1368.69
517.016	1402.69
517.232	1474.69
517.448	1570.69
517.664	1610.69
517.879	1600.69
518.095	1641.69
518.311	1585.69
518.527	1483.69
518.742	1457.69
518.958	1382.69
519.173	1323.69
519.389	1290.69
519.605	1243.69
519.82	1207.69
520.036	1219.69
520.251	1145.69
520.467	1120.69
520.682	1137.69
520.898	1110.69
521.113	1129.69
521.329	1102.69
521.544	1081.69
521.76	1081.69
521.975	1065.69
522.19	1055.69
522.406	1072.69
522.621	1050.69
522.836	1036.69
523.052	1055.69
523.267	1027.69
523.482	1028.69
523.698	1037.69
523.913	1050.69
524.128	1036.69
524.343	1020.69
524.559	1033.69
524.774	1039.69
524.989	1029.69
525.204	1043.69
525.419	1007.69
525.634	1009.69
525.849	1007.69
526.064	1023.69
526.28	1007.69
526.495	1020.69
526.71	1033.69
526.925	1002.69
527.14	991.69
527.355	979.69
527.57	996.69
527.785	996.69
527.999	991.69
528.214	1014.69
528.429	1009.69
528.644	1023.69
528.859	992.69
529.074	1010.69
529.289	1026.69
529.503	998.69
529.718	1013.69
529.933	1002.69
530.148	1001.69
530.363	997.69
530.577	1011.69
530.792	1019.69
531.007	994.69
531.221	1014.69
531.436	1009.69
531.651	979.69
531.865	1018.69
532.08	1017.69
532.295	1027.69
532.509	975.69
532.724	1023.69
532.938	1048.69
533.153	1027.69
533.367	993.69
533.582	1007.69
533.796	985.69
534.011	978.69
534.225	988.69
534.44	977.69
534.654	993.69
534.868	990.69
535.083	978.69
535.297	979.69
535.511	973.69
535.726	956.69
535.94	935.69
536.154	938.69
536.369	976.69
536.583	924.69
536.797	929.69
537.011	927.69
537.225	933.69
537.44	936.69
537.654	914.69
537.868	947.69
538.082	935.69
538.296	916.69
538.51	919.69
538.724	913.69
538.938	909.69
539.153	927.69
539.367	893.69
539.581	895.69
539.795	921.69
540.009	896.69
540.222	884.69
540.436	904.69
540.65	918.69
540.864	903.69
541.078	874.69
541.292	883.69
541.506	895.69
541.72	904.69
541.934	876.69
542.147	925.69
542.361	903.69
542.575	882.69
542.789	863.69
543.002	877.69
543.216	870.69
543.43	899.69
543.644	876.69
543.857	888.69
544.071	903.69
544.285	904.69
544.498	893.69
544.712	901.69
544.925	902.69
545.139	921.69
545.352	935.69
545.566	939.69
545.779	915.69
545.993	934.69
546.206	938.69
546.42	935.69
546.633	909.69
546.847	904.69
547.06	909.69
547.274	897.69
547.487	901.69
547.7	938.69
547.914	884.69
548.127	949.69
548.34	925.69
548.554	916.69
548.767	916.69
548.98	902.69
549.193	908.69
549.407	899.69
549.62	932.69
549.833	964.69
550.046	949.69
550.259	934.69
550.473	917.69
550.686	884.69
550.899	903.69
551.112	896.69
551.325	890.69
551.538	887.69
551.751	893.69
551.964	875.69
552.177	917.69
552.39	896.69
552.603	970.69
552.816	986.69
553.029	983.69
553.242	991.69
553.455	1045.69
553.667	1019.69
553.88	985.69
554.093	992.69
554.306	949.69
554.519	967.69
554.732	923.69
554.944	896.69
555.157	890.69
555.37	866.69
555.583	868.69
555.795	857.69
556.008	827.69
556.221	820.69
556.433	821.69
556.646	793.69
556.859	802.69
557.071	775.69
557.284	787.69
557.496	785.69
557.709	766.69
557.921	775.69
558.134	765.69
558.346	811.69
558.559	784.69
558.771	779.69
558.984	768.69
559.196	749.69
559.409	772.69
559.621	732.69
559.833	751.69
560.046	751.69
560.258	767.69
560.47	755.69
560.683	739.69
560.895	759.69
561.107	740.69
561.32	743.69
561.532	741.69
561.744	760.69
561.956	762.69
562.168	743.69
562.381	733.69
562.593	740.69
562.805	741.69
563.017	765.69
563.229	732.69
563.441	757.69
563.653	790.69
563.865	764.69
564.077	760.69
564.289	780.69
564.501	804.69
564.713	790.69
564.925	799.69
565.137	801.69
565.349	847.69
565.561	858.69
565.773	865.69
565.985	925.69
566.197	996.69
566.408	1105.69
566.62	1148.69
566.832	1258.69
567.044	1254.69
567.255	1320.69
567.467	1291.69
567.679	1413.69
567.891	1491.69
568.102	1581.69
568.314	1508.69
568.526	1320.69
568.737	1202.69
568.949	1089.69
569.161	1000.69
569.372	924.69
569.584	852.69
569.795	831.69
570.007	799.69
570.218	808.69
570.43	779.69
570.641	769.69
570.853	776.69
571.064	795.69
571.276	803.69
571.487	760.69
571.698	735.69
571.91	731.69
572.121	678.69
572.333	661.69
572.544	652.69
572.755	653.69
572.966	663.69
573.178	628.69
573.389	635.69
573.6	615.69
573.811	611.69
574.023	620.69
574.234	637.69
574.445	615.69
574.656	603.69
574.867	641.69
575.078	625.69
575.289	617.69
575.501	599.69
575.712	592.69
575.923	610.69
576.134	595.69
576.345	579.69
576.556	603.69
576.767	604.69
576.978	597.69
577.188	580.69
577.399	570.69
577.61	569.69
577.821	563.69
578.032	568.69
578.243	553.69
578.454	551.69
578.665	572.69
578.875	554.69
579.086	550.69
579.297	548.69
579.508	555.69
579.718	536.69
579.929	545.69
580.14	546.69
580.35	539.69
580.561	546.69
580.772	539.69
580.982	549.69
581.193	518.69
581.403	523.69
581.614	507.69
581.825	522.69
582.035	518.69
582.246	533.69
582.456	511.69
582.667	509.69
582.877	509.69
583.087	520.69
583.298	506.69
583.508	516.69
583.719	499.69
583.929	520.69
584.139	480.69
584.35	499.69
584.56	505.69
584.77	504.69
584.981	493.69
585.191	509.69
585.401	501.69
585.611	489.69
585.821	499.69
586.032	473.69
586.242	493.69
586.452	500.69
586.662	483.69
586.872	497.69
587.082	485.69
587.292	477.69
587.502	508.69
587.713	475.69
587.923	491.69
588.133	492.69
588.343	494.69
588.553	474.69
588.762	495.69
588.972	475.69
589.182	490.69
589.392	492.69
589.602	476.69
589.812	486.69
590.022	473.69
590.232	489.69
590.441	463.69
590.651	494.69
590.861	520.69
591.071	491.69
591.281	509.69
591.49	521.69
591.7	537.69
591.91	536.69
592.119	533.69
592.329	556.69
592.539	583.69
592.748	577.69
592.958	618.69
593.167	643.69
593.377	639.69
593.587	664.69
593.796	647.69
594.006	663.69
594.215	645.69
594.424	657.69
594.634	650.69
594.843	599.69
595.053	597.69
595.262	566.69
595.472	561.69
595.681	536.69
595.89	507.69
596.1	502.69
596.309	482.69
596.518	483.69
596.727	461.69
596.937	479.69
597.146	470.69
597.355	451.69
597.564	435.69
597.774	438.69
597.983	435.69
598.192	445.69
598.401	438.69
598.61	447.69
598.819	430.69
599.028	421.69
599.237	408.69
599.446	433.69
599.655	422.69
599.864	407.69
600.073	418.69
600.282	417.69
600.491	412.69
600.7	417.69
600.909	433.69
601.118	408.69
601.327	409.69
601.536	395.69
601.745	401.69
601.953	405.69
602.162	380.69
602.371	389.69
602.58	393.69
602.789	405.69
602.997	384.69
603.206	403.69
603.415	412.69
603.623	385.69
603.832	394.69
604.041	378.69
604.249	385.69
604.458	377.69
604.666	365.69
604.875	393.69
605.084	405.69
605.292	375.69
605.501	393.69
605.709	379.69
605.918	387.69
606.126	403.69
606.334	379.69
606.543	373.69
606.751	401.69
606.96	369.69
607.168	371.69
607.376	389.69
607.585	371.69
607.793	396.69
608.001	364.69
608.21	372.69
608.418	355.69
608.626	383.69
608.834	373.69
609.043	375.69
609.251	375.69
609.459	369.69
609.667	357.69
609.875	352.69
610.083	364.69
610.291	366.69
610.499	356.69
610.707	371.69
610.916	364.69
611.124	339.69
611.332	347.69
611.54	354.69
611.748	368.69
611.955	361.69
612.163	339.69
612.371	360.69
612.579	349.69
612.787	364.69
612.995	356.69
613.203	354.69
613.411	352.69
613.618	349.69
613.826	351.69
614.034	341.69
614.242	347.69
614.449	321.69
614.657	350.69
614.865	353.69
615.072	359.69
615.28	355.69
615.488	345.69
615.695	369.69
615.903	347.69
616.111	356.69
616.318	369.69
616.526	346.69
616.733	357.69
616.941	351.69
617.148	361.69
617.356	350.69
617.563	339.69
617.771	351.69
617.978	368.69
618.185	369.69
618.393	370.69
618.6	355.69
618.807	341.69
619.015	368.69
619.222	369.69
619.429	354.69
619.637	338.69
619.844	349.69
620.051	341.69
620.258	331.69
620.466	323.69
620.673	315.69
620.88	313.69
621.087	321.69
621.294	304.69
621.501	346.69
621.708	322.69
621.915	323.69
622.122	320.69
622.329	327.69
622.536	324.69
622.743	344.69
622.95	318.69
623.157	313.69
623.364	311.69
623.571	324.69
623.778	316.69
623.985	332.69
624.192	327.69
624.399	324.69
624.606	308.69
624.812	311.69
625.019	317.69
625.226	287.69
625.433	293.69
625.639	301.69
625.846	311.69
626.053	284.69
626.259	285.69
626.466	291.69
626.673	289.69
626.879	285.69
627.086	308.69
627.293	299.69
627.499	298.69
627.706	303.69
627.912	293.69
628.119	282.69
628.325	281.69
628.532	283.69
628.738	281.69
628.945	264.69
629.151	260.69
629.357	273.69
629.564	283.69
629.77	287.69
629.976	256.69
630.183	267.69
630.389	294.69
630.595	278.69
630.802	263.69
631.008	261.69
631.214	265.69
631.42	275.69
631.627	281.69
631.833	272.69
632.039	264.69
632.245	265.69
632.451	270.69
632.657	256.69
632.863	260.69
633.069	266.69
633.275	272.69
633.481	263.69
633.688	240.69
633.893	248.69
634.099	274.69
634.305	265.69
634.511	264.69
634.717	264.69
634.923	256.69
635.129	227.69
635.335	249.69
635.541	249.69
635.747	239.69
635.952	258.69
636.158	230.69
636.364	235.69
636.57	247.69
636.775	256.69
636.981	265.69
637.187	260.69
637.392	229.69
637.598	223.69
637.804	244.69
638.009	239.69
638.215	247.69
638.421	242.69
638.626	235.69
638.832	234.69
639.037	233.69
639.243	240.69
639.448	240.69
639.654	236.69
639.859	234.69
640.065	236.69
640.27	243.69
640.475	240.69
640.681	236.69
640.886	236.69
641.091	225.69
641.297	243.69
641.502	223.69
641.707	215.69
641.913	235.69
642.118	229.69
642.323	225.69
642.528	219.69
642.733	251.69
642.939	232.69
643.144	225.69
643.349	223.69
643.554	229.69
643.759	225.69
643.964	215.69
644.169	227.69
644.374	216.69
644.579	223.69
644.784	221.69
644.989	219.69
645.194	215.69
645.399	226.69
645.604	215.69
645.809	215.69
646.014	216.69
646.219	229.69
646.423	213.69
646.628	220.69
646.833	217.69
647.038	231.69
647.243	217.69
647.447	229.69
647.652	243.69
647.857	226.69
648.062	239.69
648.266	246.69
648.471	235.69
648.676	240.69
648.88	219.69
649.085	225.69
649.289	230.69
649.494	212.69
649.698	232.69
649.903	230.69
650.107	231.69
650.312	211.69
650.516	204.69
650.721	195.69
650.925	197.69
651.13	185.69
651.334	189.69
651.539	197.69
651.743	184.69
651.947	190.69
652.152	189.69
652.356	185.69
652.56	189.69
652.764	195.69
652.969	178.69
653.173	189.69
653.377	175.69
653.581	173.69
653.785	157.69
653.99	156.69
654.194	176.69
654.398	155.69
654.602	169.69
654.806	173.69
655.01	168.69
655.214	157.69
655.418	152.69
655.622	153.69
655.826	155.69
656.03	137.69
656.234	150.69
656.438	167.69
656.642	152.69
656.846	167.69
657.049	137.69
657.253	150.69
657.457	138.69
657.661	127.69
657.865	120.69
658.068	121.69
658.272	125.69
658.476	116.69
658.68	112.69
658.883	113.69
659.087	100.69
659.291	97.69
659.494	95.69
659.698	91.69
659.901	99.69
660.105	113.69
660.309	103.69
660.512	102.69
660.716	114.69
660.919	82.69
661.123	81.69
661.326	97.69
661.53	98.69
661.733	94.69
661.936	88.69
662.14	91.69
662.343	92.69
662.546	96.69
662.75	98.69
662.953	79.69
663.156	77.69
663.36	81.69
663.563	95.69
663.766	80.69
663.969	96.69
664.173	83.69
664.376	98.69
664.579	88.69
664.782	95.69
664.985	87.69
665.188	80.69
665.391	85.69
665.594	81.69
665.797	77.69
666	62.69
666.203	93.69
666.406	85.69
666.609	85.69
666.812	80.69
667.015	90.69
667.218	82.69
667.421	63.69
667.624	65.69
667.827	73.69
668.03	83.69
668.232	90.69
668.435	68.69
668.638	88.69
668.841	88.69
669.043	89.69
669.246	84.69
669.449	90.69
669.651	83.69
669.854	85.69
670.057	91.69
670.259	79.69
670.462	83.69
670.665	77.69
670.867	92.69
671.07	80.69
671.272	76.69
671.475	73.69
671.677	74.69
671.88	74.69
672.082	72.69
672.284	92.69
672.487	86.69
672.689	85.69
672.892	71.69
