Data from NiCl2@0.125M.TitratingCurve.Agarose3%dH2O.NegLispCup.LampEnergy10.LIBS07252019_HRD10591_18-28-25-576.txt Node
Date: Thu Jul 25 18:28:25 EDT 2019
User: cochatt
Spectrometer: HR+D1059
Trigger mode: 1
Integration Time (sec): 1.000000E-1
Scans to average: 1
Electric dark correction enabled: true
Nonlinearity correction enabled: false
Boxcar width: 0
XAxis mode: Wavelengths
Number of Pixels in Spectrum: 2048
>>>>>Begin Spectral Data<<<<<
223.165	-14.06
223.4	-14.06
223.635	-14.06
223.869	-19.06
224.104	-34.06
224.338	-11.06
224.573	-3.06
224.808	0.94
225.042	0.94
225.277	-11.06
225.511	4.94
225.746	5.94
225.98	8.94
226.215	-3.06
226.449	7.94
226.683	22.94
226.918	25.94
227.152	16.94
227.387	29.94
227.621	22.94
227.856	41.94
228.09	41.94
228.324	31.94
228.559	48.94
228.793	72.94
229.027	97.94
229.262	117.94
229.496	119.94
229.73	118.94
229.964	122.94
230.199	127.94
230.433	130.94
230.667	137.94
230.901	142.94
231.136	134.94
231.37	134.94
231.604	140.94
231.838	137.94
232.072	152.94
232.306	156.94
232.541	158.94
232.775	154.94
233.009	162.94
233.243	157.94
233.477	164.94
233.711	165.94
233.945	162.94
234.179	181.94
234.413	155.94
234.647	162.94
234.881	154.94
235.115	161.94
235.349	161.94
235.583	164.94
235.817	156.94
236.051	148.94
236.285	160.94
236.519	146.94
236.753	156.94
236.987	158.94
237.221	173.94
237.455	159.94
237.689	176.94
237.922	183.94
238.156	177.94
238.39	185.94
238.624	182.94
238.858	184.94
239.091	176.94
239.325	183.94
239.559	190.94
239.793	185.94
240.027	206.94
240.26	211.94
240.494	194.94
240.728	202.94
240.961	190.94
241.195	197.94
241.429	227.94
241.662	226.94
241.896	218.94
242.13	208.94
242.363	205.94
242.597	206.94
242.83	242.94
243.064	208.94
243.298	210.94
243.531	223.94
243.765	223.94
243.998	226.94
244.232	226.94
244.465	223.94
244.699	236.94
244.932	245.94
245.166	251.94
245.399	250.94
245.633	250.94
245.866	233.94
246.099	230.94
246.333	247.94
246.566	260.94
246.8	265.94
247.033	261.94
247.266	255.94
247.5	259.94
247.733	257.94
247.966	248.94
248.2	259.94
248.433	255.94
248.666	268.94
248.899	278.94
249.133	273.94
249.366	263.94
249.599	270.94
249.832	281.94
250.066	275.94
250.299	266.94
250.532	285.94
250.765	295.94
250.998	302.94
251.231	298.94
251.465	300.94
251.698	300.94
251.931	292.94
252.164	295.94
252.397	293.94
252.63	321.94
252.863	309.94
253.096	308.94
253.329	303.94
253.562	326.94
253.795	328.94
254.028	330.94
254.261	303.94
254.494	326.94
254.727	325.94
254.96	325.94
255.193	324.94
255.426	341.94
255.659	334.94
255.892	337.94
256.124	352.94
256.357	340.94
256.59	354.94
256.823	325.94
257.056	325.94
257.289	342.94
257.521	341.94
257.754	340.94
257.987	356.94
258.22	334.94
258.452	343.94
258.685	348.94
258.918	329.94
259.151	352.94
259.383	349.94
259.616	364.94
259.849	364.94
260.081	361.94
260.314	350.94
260.547	376.94
260.779	369.94
261.012	383.94
261.244	372.94
261.477	392.94
261.71	383.94
261.942	370.94
262.175	363.94
262.407	373.94
262.64	372.94
262.872	388.94
263.105	387.94
263.337	376.94
263.57	373.94
263.802	403.94
264.035	378.94
264.267	396.94
264.499	410.94
264.732	402.94
264.964	405.94
265.197	421.94
265.429	408.94
265.661	416.94
265.894	387.94
266.126	409.94
266.358	409.94
266.591	422.94
266.823	420.94
267.055	417.94
267.287	407.94
267.52	410.94
267.752	411.94
267.984	422.94
268.216	423.94
268.448	421.94
268.681	418.94
268.913	423.94
269.145	412.94
269.377	416.94
269.609	428.94
269.841	437.94
270.073	426.94
270.306	430.94
270.538	420.94
270.77	402.94
271.002	419.94
271.234	444.94
271.466	448.94
271.698	458.94
271.93	450.94
272.162	440.94
272.394	450.94
272.626	440.94
272.858	458.94
273.09	488.94
273.322	457.94
273.553	453.94
273.785	472.94
274.017	470.94
274.249	476.94
274.481	469.94
274.713	468.94
274.945	476.94
275.176	503.94
275.408	464.94
275.64	489.94
275.872	478.94
276.104	500.94
276.335	473.94
276.567	488.94
276.799	456.94
277.031	504.94
277.262	502.94
277.494	493.94
277.726	498.94
277.957	486.94
278.189	503.94
278.421	505.94
278.652	500.94
278.884	486.94
279.115	504.94
279.347	521.94
279.579	526.94
279.81	523.94
280.042	532.94
280.273	516.94
280.505	543.94
280.736	512.94
280.968	511.94
281.199	541.94
281.431	551.94
281.662	532.94
281.894	540.94
282.125	542.94
282.356	546.94
282.588	562.94
282.819	524.94
283.051	528.94
283.282	549.94
283.513	532.94
283.745	560.94
283.976	552.94
284.207	552.94
284.439	557.94
284.67	568.94
284.901	579.94
285.132	560.94
285.364	566.94
285.595	590.94
285.826	568.94
286.057	553.94
286.288	582.94
286.52	586.94
286.751	569.94
286.982	595.94
287.213	582.94
287.444	597.94
287.675	581.94
287.906	601.94
288.138	586.94
288.369	616.94
288.6	602.94
288.831	586.94
289.062	602.94
289.293	595.94
289.524	591.94
289.755	608.94
289.986	619.94
290.217	606.94
290.448	596.94
290.679	605.94
290.91	611.94
291.141	611.94
291.371	601.94
291.602	605.94
291.833	602.94
292.064	615.94
292.295	616.94
292.526	597.94
292.757	613.94
292.987	626.94
293.218	596.94
293.449	623.94
293.68	625.94
293.91	609.94
294.141	611.94
294.372	607.94
294.603	634.94
294.833	626.94
295.064	624.94
295.295	621.94
295.525	617.94
295.756	654.94
295.987	634.94
296.217	635.94
296.448	639.94
296.679	647.94
296.909	641.94
297.14	632.94
297.37	654.94
297.601	654.94
297.831	665.94
298.062	665.94
298.292	668.94
298.523	700.94
298.753	696.94
298.984	674.94
299.214	700.94
299.445	673.94
299.675	644.94
299.905	681.94
300.136	652.94
300.366	661.94
300.597	670.94
300.827	701.94
301.057	686.94
301.288	701.94
301.518	722.94
301.748	705.94
301.979	729.94
302.209	700.94
302.439	699.94
302.669	719.94
302.9	676.94
303.13	683.94
303.36	678.94
303.59	681.94
303.82	680.94
304.051	683.94
304.281	718.94
304.511	684.94
304.741	680.94
304.971	694.94
305.201	684.94
305.431	680.94
305.661	679.94
305.891	688.94
306.121	673.94
306.352	692.94
306.582	688.94
306.812	686.94
307.042	695.94
307.272	697.94
307.502	658.94
307.731	671.94
307.961	709.94
308.191	674.94
308.421	688.94
308.651	688.94
308.881	661.94
309.111	668.94
309.341	669.94
309.571	674.94
309.8	673.94
310.03	648.94
310.26	639.94
310.49	659.94
310.72	681.94
310.949	688.94
311.179	670.94
311.409	690.94
311.639	690.94
311.868	695.94
312.098	724.94
312.328	687.94
312.557	710.94
312.787	680.94
313.017	702.94
313.246	714.94
313.476	712.94
313.706	719.94
313.935	722.94
314.165	735.94
314.394	736.94
314.624	712.94
314.853	723.94
315.083	718.94
315.312	721.94
315.542	730.94
315.771	715.94
316.001	712.94
316.23	697.94
316.46	698.94
316.689	702.94
316.919	713.94
317.148	738.94
317.377	718.94
317.607	719.94
317.836	713.94
318.065	701.94
318.295	702.94
318.524	730.94
318.753	714.94
318.983	716.94
319.212	709.94
319.441	708.94
319.67	715.94
319.9	694.94
320.129	692.94
320.358	688.94
320.587	699.94
320.816	730.94
321.046	716.94
321.275	714.94
321.504	694.94
321.733	708.94
321.962	697.94
322.191	712.94
322.42	717.94
322.649	697.94
322.878	713.94
323.108	709.94
323.337	734.94
323.566	729.94
323.795	721.94
324.024	722.94
324.253	717.94
324.482	713.94
324.71	737.94
324.939	741.94
325.168	752.94
325.397	724.94
325.626	753.94
325.855	782.94
326.084	789.94
326.313	770.94
326.542	790.94
326.77	802.94
326.999	768.94
327.228	753.94
327.457	754.94
327.686	772.94
327.914	794.94
328.143	771.94
328.372	766.94
328.6	772.94
328.829	789.94
329.058	790.94
329.287	769.94
329.515	789.94
329.744	790.94
329.972	779.94
330.201	794.94
330.43	801.94
330.658	807.94
330.887	820.94
331.115	836.94
331.344	837.94
331.572	852.94
331.801	852.94
332.03	836.94
332.258	864.94
332.486	900.94
332.715	916.94
332.943	979.94
333.172	1005.94
333.4	1007.94
333.629	1048.94
333.857	1076.94
334.085	1044.94
334.314	1045.94
334.542	1035.94
334.771	1040.94
334.999	981.94
335.227	972.94
335.455	958.94
335.684	946.94
335.912	974.94
336.14	966.94
336.369	922.94
336.597	964.94
336.825	921.94
337.053	939.94
337.281	922.94
337.51	898.94
337.738	903.94
337.966	861.94
338.194	880.94
338.422	852.94
338.65	840.94
338.878	854.94
339.106	851.94
339.334	869.94
339.562	864.94
339.79	817.94
340.018	826.94
340.246	810.94
340.474	825.94
340.702	795.94
340.93	842.94
341.158	845.94
341.386	838.94
341.614	838.94
341.842	812.94
342.07	808.94
342.298	791.94
342.526	788.94
342.754	800.94
342.981	837.94
343.209	804.94
343.437	870.94
343.665	909.94
343.893	994.94
344.12	1026.94
344.348	954.94
344.576	910.94
344.804	897.94
345.031	869.94
345.259	847.94
345.487	826.94
345.714	822.94
345.942	816.94
346.17	810.94
346.397	816.94
346.625	809.94
346.853	804.94
347.08	798.94
347.308	830.94
347.535	808.94
347.763	820.94
347.99	824.94
348.218	805.94
348.445	796.94
348.673	784.94
348.9	806.94
349.128	777.94
349.355	770.94
349.583	804.94
349.81	818.94
350.037	764.94
350.265	790.94
350.492	761.94
350.72	758.94
350.947	750.94
351.174	757.94
351.402	748.94
351.629	763.94
351.856	781.94
352.083	771.94
352.311	759.94
352.538	762.94
352.765	784.94
352.992	773.94
353.22	743.94
353.447	760.94
353.674	742.94
353.901	759.94
354.128	749.94
354.355	710.94
354.583	752.94
354.81	782.94
355.037	784.94
355.264	748.94
355.491	777.94
355.718	752.94
355.945	750.94
356.172	781.94
356.399	788.94
356.626	771.94
356.853	769.94
357.08	738.94
357.307	762.94
357.534	754.94
357.761	745.94
357.988	768.94
358.215	759.94
358.441	751.94
358.668	745.94
358.895	764.94
359.122	790.94
359.349	768.94
359.576	754.94
359.802	763.94
360.029	731.94
360.256	751.94
360.483	757.94
360.709	756.94
360.936	746.94
361.163	768.94
361.39	737.94
361.616	762.94
361.843	752.94
362.07	773.94
362.296	764.94
362.523	757.94
362.749	760.94
362.976	742.94
363.203	756.94
363.429	764.94
363.656	776.94
363.882	760.94
364.109	742.94
364.335	764.94
364.562	753.94
364.788	764.94
365.015	764.94
365.241	755.94
365.468	748.94
365.694	745.94
365.92	745.94
366.147	726.94
366.373	774.94
366.599	759.94
366.826	771.94
367.052	746.94
367.278	780.94
367.505	772.94
367.731	781.94
367.957	751.94
368.184	766.94
368.41	763.94
368.636	733.94
368.862	792.94
369.089	792.94
369.315	800.94
369.541	783.94
369.767	792.94
369.993	813.94
370.219	774.94
370.445	777.94
370.672	806.94
370.898	814.94
371.124	812.94
371.35	820.94
371.576	823.94
371.802	831.94
372.028	824.94
372.254	806.94
372.48	825.94
372.706	847.94
372.932	869.94
373.158	887.94
373.384	846.94
373.61	843.94
373.835	839.94
374.061	815.94
374.287	845.94
374.513	837.94
374.739	852.94
374.965	908.94
375.191	912.94
375.416	920.94
375.642	894.94
375.868	888.94
376.094	889.94
376.319	860.94
376.545	837.94
376.771	822.94
376.997	841.94
377.222	828.94
377.448	847.94
377.674	836.94
377.899	818.94
378.125	804.94
378.35	831.94
378.576	834.94
378.802	820.94
379.027	837.94
379.253	825.94
379.478	809.94
379.704	807.94
379.929	824.94
380.155	815.94
380.38	799.94
380.606	824.94
380.831	836.94
381.057	828.94
381.282	822.94
381.507	833.94
381.733	812.94
381.958	818.94
382.184	827.94
382.409	849.94
382.634	869.94
382.86	878.94
383.085	862.94
383.31	890.94
383.535	919.94
383.761	905.94
383.986	943.94
384.211	958.94
384.436	985.94
384.662	984.94
384.887	1022.94
385.112	1009.94
385.337	1006.94
385.562	1013.94
385.787	1000.94
386.013	1026.94
386.238	1017.94
386.463	1010.94
386.688	1024.94
386.913	996.94
387.138	972.94
387.363	998.94
387.588	978.94
387.813	975.94
388.038	992.94
388.263	1025.94
388.488	1004.94
388.713	1000.94
388.938	975.94
389.163	1001.94
389.387	961.94
389.612	943.94
389.837	1004.94
390.062	978.94
390.287	945.94
390.512	973.94
390.736	1020.94
390.961	1000.94
391.186	1023.94
391.411	1056.94
391.636	1072.94
391.86	1123.94
392.085	1128.94
392.31	1115.94
392.534	1097.94
392.759	1097.94
392.984	1056.94
393.208	1046.94
393.433	1032.94
393.658	1055.94
393.882	1032.94
394.107	1088.94
394.331	1076.94
394.556	1070.94
394.78	1093.94
395.005	1093.94
395.229	1070.94
395.454	1104.94
395.678	1138.94
395.903	1120.94
396.127	1140.94
396.352	1086.94
396.576	1077.94
396.801	1039.94
397.025	1051.94
397.249	1094.94
397.474	1122.94
397.698	1109.94
397.922	1117.94
398.147	1108.94
398.371	1122.94
398.595	1132.94
398.82	1244.94
399.044	1305.94
399.268	1460.94
399.492	1692.94
399.717	1900.94
399.941	1948.94
400.165	1757.94
400.389	1536.94
400.613	1404.94
400.837	1312.94
401.062	1271.94
401.286	1281.94
401.51	1234.94
401.734	1256.94
401.958	1263.94
402.182	1289.94
402.406	1308.94
402.63	1330.94
402.854	1349.94
403.078	1363.94
403.302	1392.94
403.526	1418.94
403.75	1436.94
403.974	1475.94
404.198	1471.94
404.422	1485.94
404.645	1462.94
404.869	1428.94
405.093	1454.94
405.317	1407.94
405.541	1414.94
405.765	1366.94
405.988	1364.94
406.212	1361.94
406.436	1358.94
406.66	1417.94
406.883	1392.94
407.107	1508.94
407.331	1559.94
407.555	1597.94
407.778	1619.94
408.002	1606.94
408.226	1523.94
408.449	1521.94
408.673	1428.94
408.896	1424.94
409.12	1371.94
409.344	1431.94
409.567	1416.94
409.791	1431.94
410.014	1437.94
410.238	1410.94
410.461	1408.94
410.685	1402.94
410.908	1352.94
411.132	1324.94
411.355	1313.94
411.578	1302.94
411.802	1320.94
412.025	1336.94
412.249	1320.94
412.472	1328.94
412.695	1284.94
412.919	1267.94
413.142	1237.94
413.365	1229.94
413.589	1258.94
413.812	1257.94
414.035	1215.94
414.258	1251.94
414.482	1260.94
414.705	1268.94
414.928	1263.94
415.151	1284.94
415.374	1234.94
415.597	1263.94
415.821	1223.94
416.044	1213.94
416.267	1214.94
416.49	1212.94
416.713	1223.94
416.936	1232.94
417.159	1193.94
417.382	1218.94
417.605	1232.94
417.828	1212.94
418.051	1273.94
418.274	1272.94
418.497	1247.94
418.72	1276.94
418.943	1282.94
419.166	1349.94
419.389	1435.94
419.611	1430.94
419.834	1337.94
420.057	1311.94
420.28	1272.94
420.503	1224.94
420.726	1221.94
420.948	1226.94
421.171	1228.94
421.394	1212.94
421.617	1242.94
421.839	1224.94
422.062	1247.94
422.285	1229.94
422.507	1247.94
422.73	1252.94
422.953	1281.94
423.175	1277.94
423.398	1294.94
423.621	1324.94
423.843	1351.94
424.066	1320.94
424.288	1298.94
424.511	1312.94
424.733	1286.94
424.956	1272.94
425.178	1269.94
425.401	1265.94
425.623	1261.94
425.846	1187.94
426.068	1180.94
426.291	1193.94
426.513	1192.94
426.735	1168.94
426.958	1151.94
427.18	1129.94
427.402	1132.94
427.625	1133.94
427.847	1106.94
428.069	1102.94
428.292	1126.94
428.514	1113.94
428.736	1125.94
428.958	1110.94
429.181	1084.94
429.403	1087.94
429.625	1043.94
429.847	1062.94
430.069	1067.94
430.292	1088.94
430.514	1067.94
430.736	1073.94
430.958	1093.94
431.18	1094.94
431.402	1068.94
431.624	1074.94
431.846	1107.94
432.068	1101.94
432.29	1130.94
432.512	1100.94
432.734	1115.94
432.956	1094.94
433.178	1135.94
433.4	1096.94
433.622	1109.94
433.844	1136.94
434.066	1112.94
434.287	1135.94
434.509	1170.94
434.731	1199.94
434.953	1268.94
435.175	1280.94
435.397	1279.94
435.618	1184.94
435.84	1144.94
436.062	1113.94
436.284	1109.94
436.505	1118.94
436.727	1117.94
436.949	1128.94
437.17	1112.94
437.392	1083.94
437.614	1082.94
437.835	1049.94
438.057	1044.94
438.278	1058.94
438.5	1039.94
438.721	1058.94
438.943	1068.94
439.165	1076.94
439.386	1065.94
439.608	1107.94
439.829	1117.94
440.05	1089.94
440.272	1126.94
440.493	1113.94
440.715	1141.94
440.936	1153.94
441.158	1178.94
441.379	1212.94
441.6	1256.94
441.822	1274.94
442.043	1276.94
442.264	1258.94
442.486	1222.94
442.707	1224.94
442.928	1229.94
443.149	1257.94
443.371	1220.94
443.592	1230.94
443.813	1235.94
444.034	1238.94
444.255	1292.94
444.476	1363.94
444.698	1437.94
444.919	1533.94
445.14	1609.94
445.361	1416.94
445.582	1296.94
445.803	1232.94
446.024	1182.94
446.245	1155.94
446.466	1143.94
446.687	1122.94
446.908	1114.94
447.129	1119.94
447.35	1079.94
447.571	1072.94
447.792	1072.94
448.013	1071.94
448.234	1035.94
448.455	1027.94
448.675	1019.94
448.896	1034.94
449.117	1017.94
449.338	1006.94
449.559	1019.94
449.779	1012.94
450	1004.94
450.221	1006.94
450.442	1011.94
450.662	1020.94
450.883	1046.94
451.104	1055.94
451.324	1043.94
451.545	1028.94
451.766	1063.94
451.986	1048.94
452.207	1022.94
452.428	1029.94
452.648	997.94
452.869	1007.94
453.089	988.94
453.31	1014.94
453.53	1007.94
453.751	1012.94
453.971	965.94
454.192	960.94
454.412	968.94
454.633	979.94
454.853	953.94
455.073	969.94
455.294	982.94
455.514	947.94
455.734	973.94
455.955	946.94
456.175	937.94
456.395	948.94
456.616	933.94
456.836	944.94
457.056	956.94
457.276	936.94
457.497	1004.94
457.717	973.94
457.937	984.94
458.157	961.94
458.377	968.94
458.598	1004.94
458.818	1000.94
459.038	1058.94
459.258	1092.94
459.478	1127.94
459.698	1124.94
459.918	1184.94
460.138	1251.94
460.358	1305.94
460.578	1295.94
460.798	1317.94
461.018	1348.94
461.238	1280.94
461.458	1300.94
461.678	1281.94
461.898	1316.94
462.118	1323.94
462.338	1369.94
462.558	1436.94
462.777	1506.94
462.997	1611.94
463.217	1800.94
463.437	1860.94
463.657	1644.94
463.876	1564.94
464.096	1568.94
464.316	1512.94
464.536	1573.94
464.755	1545.94
464.975	1482.94
465.195	1357.94
465.414	1313.94
465.634	1192.94
465.854	1160.94
466.073	1138.94
466.293	1169.94
466.512	1112.94
466.732	1072.94
466.951	1080.94
467.171	1066.94
467.391	1060.94
467.61	1088.94
467.829	1078.94
468.049	1063.94
468.268	1005.94
468.488	1004.94
468.707	991.94
468.927	1024.94
469.146	1009.94
469.365	1032.94
469.585	1037.94
469.804	1092.94
470.023	1092.94
470.243	1109.94
470.462	1116.94
470.681	1095.94
470.901	1117.94
471.12	1085.94
471.339	1061.94
471.558	1072.94
471.777	1034.94
471.997	1028.94
472.216	1032.94
472.435	1000.94
472.654	998.94
472.873	972.94
473.092	981.94
473.311	1020.94
473.53	985.94
473.749	1001.94
473.968	992.94
474.187	986.94
474.406	970.94
474.625	1029.94
474.844	982.94
475.063	1018.94
475.282	991.94
475.501	1033.94
475.72	1044.94
475.939	997.94
476.158	1013.94
476.377	1041.94
476.596	1027.94
476.814	1056.94
477.033	1052.94
477.252	1073.94
477.471	1099.94
477.69	1123.94
477.908	1114.94
478.127	1167.94
478.346	1216.94
478.564	1174.94
478.783	1199.94
479.002	1247.94
479.22	1255.94
479.439	1237.94
479.658	1224.94
479.876	1243.94
480.095	1291.94
480.313	1328.94
480.532	1353.94
480.751	1388.94
480.969	1322.94
481.188	1234.94
481.406	1228.94
481.624	1188.94
481.843	1146.94
482.061	1173.94
482.28	1112.94
482.498	1136.94
482.717	1151.94
482.935	1126.94
483.153	1132.94
483.372	1134.94
483.59	1150.94
483.808	1140.94
484.027	1120.94
484.245	1127.94
484.463	1147.94
484.681	1182.94
484.9	1168.94
485.118	1178.94
485.336	1173.94
485.554	1223.94
485.772	1198.94
485.99	1198.94
486.209	1253.94
486.427	1228.94
486.645	1216.94
486.863	1192.94
487.081	1221.94
487.299	1236.94
487.517	1187.94
487.735	1210.94
487.953	1160.94
488.171	1202.94
488.389	1190.94
488.607	1180.94
488.825	1198.94
489.043	1163.94
489.261	1183.94
489.479	1186.94
489.696	1183.94
489.914	1196.94
490.132	1216.94
490.35	1205.94
490.568	1185.94
490.786	1206.94
491.003	1209.94
491.221	1244.94
491.439	1191.94
491.657	1181.94
491.874	1206.94
492.092	1212.94
492.31	1239.94
492.527	1241.94
492.745	1253.94
492.963	1213.94
493.18	1236.94
493.398	1256.94
493.615	1223.94
493.833	1255.94
494.05	1264.94
494.268	1262.94
494.485	1238.94
494.703	1260.94
494.92	1286.94
495.138	1240.94
495.355	1261.94
495.573	1274.94
495.79	1277.94
496.008	1307.94
496.225	1307.94
496.442	1274.94
496.66	1334.94
496.877	1301.94
497.094	1363.94
497.312	1373.94
497.529	1408.94
497.746	1406.94
497.963	1466.94
498.181	1520.94
498.398	1606.94
498.615	1684.94
498.832	1811.94
499.049	1948.94
499.267	2082.94
499.484	2295.94
499.701	2539.94
499.918	2848.94
500.135	3254.94
500.352	3837.94
500.569	3953.94
500.786	3847.94
501.003	3596.94
501.22	3215.94
501.437	2869.94
501.654	2518.94
501.871	2271.94
502.088	2066.94
502.305	1955.94
502.522	1829.94
502.739	1776.94
502.956	1681.94
503.172	1599.94
503.389	1521.94
503.606	1478.94
503.823	1453.94
504.04	1432.94
504.256	1481.94
504.473	1506.94
504.69	1549.94
504.907	1523.94
505.123	1429.94
505.34	1334.94
505.557	1262.94
505.773	1238.94
505.99	1238.94
506.207	1203.94
506.423	1162.94
506.64	1152.94
506.856	1160.94
507.073	1127.94
507.289	1146.94
507.506	1106.94
507.722	1123.94
507.939	1109.94
508.155	1094.94
508.372	1068.94
508.588	1118.94
508.805	1070.94
509.021	1050.94
509.238	1065.94
509.454	1049.94
509.67	1019.94
509.887	1062.94
510.103	1032.94
510.319	1025.94
510.536	1033.94
510.752	1011.94
510.968	997.94
511.184	991.94
511.401	1026.94
511.617	988.94
511.833	1033.94
512.049	1029.94
512.265	1005.94
512.481	1026.94
512.698	1029.94
512.914	1023.94
513.13	1025.94
513.346	991.94
513.562	1032.94
513.778	1045.94
513.994	1031.94
514.21	1027.94
514.426	1040.94
514.642	1020.94
514.858	1035.94
515.074	1070.94
515.29	1060.94
515.506	1060.94
515.721	1076.94
515.937	1088.94
516.153	1103.94
516.369	1150.94
516.585	1171.94
516.801	1196.94
517.016	1253.94
517.232	1293.94
517.448	1377.94
517.664	1439.94
517.879	1442.94
518.095	1427.94
518.311	1426.94
518.527	1337.94
518.742	1295.94
518.958	1240.94
519.173	1191.94
519.389	1175.94
519.605	1082.94
519.82	1112.94
520.036	1100.94
520.251	1044.94
520.467	1028.94
520.682	1040.94
520.898	1050.94
521.113	1028.94
521.329	1005.94
521.544	972.94
521.76	1011.94
521.975	980.94
522.19	986.94
522.406	969.94
522.621	982.94
522.836	950.94
523.052	970.94
523.267	983.94
523.482	962.94
523.698	932.94
523.913	946.94
524.128	943.94
524.343	943.94
524.559	917.94
524.774	932.94
524.989	958.94
525.204	956.94
525.419	938.94
525.634	940.94
525.849	936.94
526.064	960.94
526.28	926.94
526.495	913.94
526.71	915.94
526.925	934.94
527.14	924.94
527.355	926.94
527.57	891.94
527.785	919.94
527.999	930.94
528.214	936.94
528.429	925.94
528.644	937.94
528.859	950.94
529.074	929.94
529.289	931.94
529.503	910.94
529.718	901.94
529.933	925.94
530.148	938.94
530.363	920.94
530.577	894.94
530.792	923.94
531.007	910.94
531.221	958.94
531.436	938.94
531.651	914.94
531.865	936.94
532.08	924.94
532.295	944.94
532.509	912.94
532.724	911.94
532.938	916.94
533.153	930.94
533.367	934.94
533.582	910.94
533.796	915.94
534.011	903.94
534.225	898.94
534.44	907.94
534.654	947.94
534.868	890.94
535.083	882.94
535.297	904.94
535.511	880.94
535.726	897.94
535.94	879.94
536.154	895.94
536.369	862.94
536.583	870.94
536.797	854.94
537.011	852.94
537.225	842.94
537.44	874.94
537.654	877.94
537.868	836.94
538.082	830.94
538.296	875.94
538.51	878.94
538.724	840.94
538.938	842.94
539.153	841.94
539.367	843.94
539.581	847.94
539.795	808.94
540.009	814.94
540.222	858.94
540.436	827.94
540.65	820.94
540.864	836.94
541.078	839.94
541.292	848.94
541.506	800.94
541.72	818.94
541.934	839.94
542.147	844.94
542.361	813.94
542.575	821.94
542.789	796.94
543.002	828.94
543.216	812.94
543.43	801.94
543.644	804.94
543.857	834.94
544.071	797.94
544.285	836.94
544.498	806.94
544.712	837.94
544.925	855.94
545.139	879.94
545.352	855.94
545.566	881.94
545.779	852.94
545.993	854.94
546.206	865.94
546.42	852.94
546.633	834.94
546.847	802.94
547.06	855.94
547.274	854.94
547.487	838.94
547.7	846.94
547.914	856.94
548.127	851.94
548.34	863.94
548.554	840.94
548.767	841.94
548.98	863.94
549.193	846.94
549.407	848.94
549.62	879.94
549.833	902.94
550.046	869.94
550.259	846.94
550.473	841.94
550.686	846.94
550.899	833.94
551.112	828.94
551.325	821.94
551.538	828.94
551.751	826.94
551.964	824.94
552.177	833.94
552.39	829.94
552.603	846.94
552.816	909.94
553.029	910.94
553.242	913.94
553.455	916.94
553.667	958.94
553.88	933.94
554.093	920.94
554.306	871.94
554.519	865.94
554.732	861.94
554.944	820.94
555.157	802.94
555.37	810.94
555.583	794.94
555.795	784.94
556.008	735.94
556.221	760.94
556.433	732.94
556.646	709.94
556.859	758.94
557.071	733.94
557.284	739.94
557.496	709.94
557.709	728.94
557.921	730.94
558.134	718.94
558.346	701.94
558.559	702.94
558.771	716.94
558.984	729.94
559.196	693.94
559.409	728.94
559.621	713.94
559.833	699.94
560.046	692.94
560.258	690.94
560.47	683.94
560.683	687.94
560.895	668.94
561.107	664.94
561.32	709.94
561.532	710.94
561.744	707.94
561.956	714.94
562.168	721.94
562.381	688.94
562.593	679.94
562.805	728.94
563.017	709.94
563.229	713.94
563.441	701.94
563.653	708.94
563.865	733.94
564.077	714.94
564.289	723.94
564.501	728.94
564.713	735.94
564.925	759.94
565.137	768.94
565.349	801.94
565.561	817.94
565.773	825.94
565.985	870.94
566.197	919.94
566.408	964.94
566.62	1028.94
566.832	1156.94
567.044	1180.94
567.255	1168.94
567.467	1171.94
567.679	1260.94
567.891	1378.94
568.102	1412.94
568.314	1337.94
568.526	1186.94
568.737	1065.94
568.949	993.94
569.161	896.94
569.372	860.94
569.584	799.94
569.795	759.94
570.007	739.94
570.218	733.94
570.43	721.94
570.641	686.94
570.853	725.94
571.064	734.94
571.276	729.94
571.487	681.94
571.698	671.94
571.91	672.94
572.121	657.94
572.333	628.94
572.544	624.94
572.755	605.94
572.966	600.94
573.178	594.94
573.389	597.94
573.6	581.94
573.811	579.94
574.023	585.94
574.234	579.94
574.445	588.94
574.656	590.94
574.867	586.94
575.078	560.94
575.289	576.94
575.501	577.94
575.712	572.94
575.923	578.94
576.134	537.94
576.345	553.94
576.556	549.94
576.767	542.94
576.978	552.94
577.188	540.94
577.399	539.94
577.61	536.94
577.821	531.94
578.032	518.94
578.243	528.94
578.454	504.94
578.665	522.94
578.875	499.94
579.086	498.94
579.297	528.94
579.508	506.94
579.718	510.94
579.929	501.94
580.14	486.94
580.35	504.94
580.561	493.94
580.772	517.94
580.982	482.94
581.193	484.94
581.403	492.94
581.614	508.94
581.825	500.94
582.035	496.94
582.246	480.94
582.456	480.94
582.667	473.94
582.877	488.94
583.087	484.94
583.298	475.94
583.508	499.94
583.719	480.94
583.929	480.94
584.139	477.94
584.35	488.94
584.56	478.94
584.77	475.94
584.981	478.94
585.191	471.94
585.401	472.94
585.611	469.94
585.821	484.94
586.032	474.94
586.242	472.94
586.452	480.94
586.662	461.94
586.872	474.94
587.082	464.94
587.292	449.94
587.502	456.94
587.713	479.94
587.923	478.94
588.133	465.94
588.343	471.94
588.553	458.94
588.762	463.94
588.972	451.94
589.182	488.94
589.392	461.94
589.602	480.94
589.812	485.94
590.022	476.94
590.232	440.94
590.441	478.94
590.651	458.94
590.861	478.94
591.071	488.94
591.281	465.94
591.49	472.94
591.7	486.94
591.91	497.94
592.119	515.94
592.329	522.94
592.539	540.94
592.748	535.94
592.958	572.94
593.167	588.94
593.377	567.94
593.587	599.94
593.796	612.94
594.006	590.94
594.215	613.94
594.424	602.94
594.634	581.94
594.843	569.94
595.053	527.94
595.262	524.94
595.472	506.94
595.681	504.94
595.89	486.94
596.1	442.94
596.309	476.94
596.518	459.94
596.727	439.94
596.937	453.94
597.146	410.94
597.355	411.94
597.564	417.94
597.774	416.94
597.983	419.94
598.192	418.94
598.401	408.94
598.61	398.94
598.819	384.94
599.028	390.94
599.237	394.94
599.446	390.94
599.655	392.94
599.864	403.94
600.073	386.94
600.282	402.94
600.491	384.94
600.7	416.94
600.909	398.94
601.118	404.94
601.327	413.94
601.536	404.94
601.745	402.94
601.953	392.94
602.162	383.94
602.371	368.94
602.58	385.94
602.789	390.94
602.997	372.94
603.206	360.94
603.415	374.94
603.623	344.94
603.832	364.94
604.041	368.94
604.249	355.94
604.458	356.94
604.666	356.94
604.875	380.94
605.084	356.94
605.292	360.94
605.501	347.94
605.709	367.94
605.918	357.94
606.126	361.94
606.334	356.94
606.543	351.94
606.751	350.94
606.96	372.94
607.168	358.94
607.376	338.94
607.585	353.94
607.793	343.94
608.001	354.94
608.21	347.94
608.418	321.94
608.626	329.94
608.834	356.94
609.043	357.94
609.251	368.94
609.459	352.94
609.667	349.94
609.875	343.94
610.083	339.94
610.291	348.94
610.499	329.94
610.707	341.94
610.916	359.94
611.124	333.94
611.332	331.94
611.54	344.94
611.748	323.94
611.955	357.94
612.163	320.94
612.371	340.94
612.579	345.94
612.787	332.94
612.995	346.94
613.203	331.94
613.411	343.94
613.618	337.94
613.826	342.94
614.034	335.94
614.242	336.94
614.449	342.94
614.657	332.94
614.865	340.94
615.072	342.94
615.28	320.94
615.488	329.94
615.695	329.94
615.903	353.94
616.111	338.94
616.318	330.94
616.526	336.94
616.733	330.94
616.941	336.94
617.148	344.94
617.356	338.94
617.563	351.94
617.771	328.94
617.978	325.94
618.185	347.94
618.393	317.94
618.6	337.94
618.807	309.94
619.015	314.94
619.222	334.94
619.429	313.94
619.637	321.94
619.844	308.94
620.051	320.94
620.258	322.94
620.466	304.94
620.673	292.94
620.88	292.94
621.087	308.94
621.294	312.94
621.501	328.94
621.708	310.94
621.915	320.94
622.122	324.94
622.329	301.94
622.536	304.94
622.743	294.94
622.95	306.94
623.157	305.94
623.364	303.94
623.571	298.94
623.778	293.94
623.985	303.94
624.192	296.94
624.399	284.94
624.606	297.94
624.812	289.94
625.019	273.94
625.226	302.94
625.433	268.94
625.639	277.94
625.846	282.94
626.053	294.94
626.259	282.94
626.466	289.94
626.673	281.94
626.879	270.94
627.086	273.94
627.293	283.94
627.499	283.94
627.706	280.94
627.912	264.94
628.119	287.94
628.325	276.94
628.532	286.94
628.738	263.94
628.945	252.94
629.151	285.94
629.357	272.94
629.564	257.94
629.77	260.94
629.976	264.94
630.183	257.94
630.389	255.94
630.595	265.94
630.802	261.94
631.008	273.94
631.214	258.94
631.42	264.94
631.627	243.94
631.833	260.94
632.039	252.94
632.245	240.94
632.451	238.94
632.657	238.94
632.863	252.94
633.069	240.94
633.275	251.94
633.481	248.94
633.688	236.94
633.893	244.94
634.099	239.94
634.305	239.94
634.511	237.94
634.717	258.94
634.923	233.94
635.129	242.94
635.335	254.94
635.541	253.94
635.747	242.94
635.952	238.94
636.158	220.94
636.364	218.94
636.57	249.94
636.775	254.94
636.981	236.94
637.187	242.94
637.392	218.94
637.598	232.94
637.804	246.94
638.009	232.94
638.215	238.94
638.421	220.94
638.626	236.94
638.832	242.94
639.037	213.94
639.243	234.94
639.448	215.94
639.654	226.94
639.859	228.94
640.065	220.94
640.27	223.94
640.475	230.94
640.681	213.94
640.886	219.94
641.091	223.94
641.297	213.94
641.502	220.94
641.707	211.94
641.913	229.94
642.118	233.94
642.323	209.94
642.528	212.94
642.733	216.94
642.939	211.94
643.144	212.94
643.349	206.94
643.554	217.94
643.759	228.94
643.964	224.94
644.169	212.94
644.374	217.94
644.579	201.94
644.784	216.94
644.989	213.94
645.194	212.94
645.399	217.94
645.604	220.94
645.809	218.94
646.014	208.94
646.219	201.94
646.423	217.94
646.628	211.94
646.833	197.94
647.038	221.94
647.243	210.94
647.447	204.94
647.652	228.94
647.857	238.94
648.062	225.94
648.266	230.94
648.471	254.94
648.676	224.94
648.88	240.94
649.085	235.94
649.289	210.94
649.494	216.94
649.698	210.94
649.903	207.94
650.107	213.94
650.312	207.94
650.516	209.94
650.721	219.94
650.925	186.94
651.13	198.94
651.334	184.94
651.539	196.94
651.743	178.94
651.947	181.94
652.152	193.94
652.356	172.94
652.56	174.94
652.764	185.94
652.969	173.94
653.173	179.94
653.377	159.94
653.581	159.94
653.785	183.94
653.99	177.94
654.194	165.94
654.398	144.94
654.602	156.94
654.806	168.94
655.01	179.94
655.214	146.94
655.418	150.94
655.622	158.94
655.826	152.94
656.03	151.94
656.234	149.94
656.438	166.94
656.642	163.94
656.846	150.94
657.049	133.94
657.253	132.94
657.457	120.94
657.661	140.94
657.865	122.94
658.068	113.94
658.272	116.94
658.476	112.94
658.68	122.94
658.883	118.94
659.087	114.94
659.291	112.94
659.494	98.94
659.698	107.94
659.901	108.94
660.105	94.94
660.309	93.94
660.512	89.94
660.716	96.94
660.919	103.94
661.123	97.94
661.326	95.94
661.53	104.94
661.733	85.94
661.936	93.94
662.14	101.94
662.343	70.94
662.546	83.94
662.75	92.94
662.953	78.94
663.156	83.94
663.36	88.94
663.563	79.94
663.766	81.94
663.969	99.94
664.173	77.94
664.376	77.94
664.579	72.94
664.782	71.94
664.985	74.94
665.188	89.94
665.391	95.94
665.594	80.94
665.797	85.94
666	81.94
666.203	78.94
666.406	85.94
666.609	77.94
666.812	76.94
667.015	74.94
667.218	95.94
667.421	80.94
667.624	72.94
667.827	78.94
668.03	73.94
668.232	70.94
668.435	85.94
668.638	84.94
668.841	78.94
669.043	81.94
669.246	81.94
669.449	77.94
669.651	78.94
669.854	79.94
670.057	75.94
670.259	77.94
670.462	90.94
670.665	64.94
670.867	76.94
671.07	93.94
671.272	76.94
671.475	83.94
671.677	81.94
671.88	66.94
672.082	78.94
672.284	63.94
672.487	70.94
672.689	79.94
672.892	84.94
