Data from NiCl2@0.125M.TitratingCurve.Agarose3%dH2O.NegLispCup.LampEnergy10.LIBS07252019_HRD10591_18-30-13-575.txt Node
Date: Thu Jul 25 18:30:13 EDT 2019
User: cochatt
Spectrometer: HR+D1059
Trigger mode: 1
Integration Time (sec): 1.000000E-1
Scans to average: 1
Electric dark correction enabled: true
Nonlinearity correction enabled: false
Boxcar width: 0
XAxis mode: Wavelengths
Number of Pixels in Spectrum: 2048
>>>>>Begin Spectral Data<<<<<
223.165	-20.88
223.4	-20.88
223.635	-20.88
223.869	-1.88
224.104	-18.88
224.338	-21.88
224.573	-23.88
224.808	-13.88
225.042	-19.88
225.277	-14.88
225.511	11.12
225.746	7.12
225.98	7.12
226.215	18.12
226.449	26.12
226.683	27.12
226.918	30.12
227.152	9.12
227.387	25.12
227.621	38.12
227.856	38.12
228.09	48.12
228.324	47.12
228.559	55.12
228.793	71.12
229.027	107.12
229.262	107.12
229.496	108.12
229.73	131.12
229.964	135.12
230.199	125.12
230.433	138.12
230.667	118.12
230.901	132.12
231.136	134.12
231.37	119.12
231.604	142.12
231.838	136.12
232.072	148.12
232.306	140.12
232.541	140.12
232.775	139.12
233.009	148.12
233.243	158.12
233.477	141.12
233.711	153.12
233.945	147.12
234.179	135.12
234.413	150.12
234.647	152.12
234.881	151.12
235.115	170.12
235.349	151.12
235.583	164.12
235.817	151.12
236.051	144.12
236.285	143.12
236.519	157.12
236.753	171.12
236.987	154.12
237.221	167.12
237.455	164.12
237.689	149.12
237.922	158.12
238.156	164.12
238.39	164.12
238.624	167.12
238.858	163.12
239.091	171.12
239.325	172.12
239.559	196.12
239.793	187.12
240.027	174.12
240.26	166.12
240.494	182.12
240.728	186.12
240.961	187.12
241.195	184.12
241.429	192.12
241.662	183.12
241.896	166.12
242.13	202.12
242.363	185.12
242.597	183.12
242.83	193.12
243.064	206.12
243.298	202.12
243.531	198.12
243.765	190.12
243.998	207.12
244.232	204.12
244.465	207.12
244.699	192.12
244.932	217.12
245.166	196.12
245.399	226.12
245.633	226.12
245.866	224.12
246.099	226.12
246.333	225.12
246.566	233.12
246.8	219.12
247.033	232.12
247.266	227.12
247.5	233.12
247.733	229.12
247.966	253.12
248.2	240.12
248.433	238.12
248.666	229.12
248.899	242.12
249.133	244.12
249.366	254.12
249.599	242.12
249.832	242.12
250.066	249.12
250.299	233.12
250.532	247.12
250.765	240.12
250.998	238.12
251.231	256.12
251.465	278.12
251.698	258.12
251.931	280.12
252.164	247.12
252.397	268.12
252.63	271.12
252.863	263.12
253.096	279.12
253.329	268.12
253.562	280.12
253.795	274.12
254.028	275.12
254.261	285.12
254.494	278.12
254.727	262.12
254.96	288.12
255.193	281.12
255.426	278.12
255.659	262.12
255.892	275.12
256.124	276.12
256.357	292.12
256.59	299.12
256.823	272.12
257.056	287.12
257.289	282.12
257.521	286.12
257.754	295.12
257.987	295.12
258.22	323.12
258.452	307.12
258.685	302.12
258.918	274.12
259.151	297.12
259.383	332.12
259.616	310.12
259.849	307.12
260.081	313.12
260.314	303.12
260.547	300.12
260.779	317.12
261.012	317.12
261.244	339.12
261.477	331.12
261.71	329.12
261.942	322.12
262.175	324.12
262.407	329.12
262.64	312.12
262.872	325.12
263.105	313.12
263.337	353.12
263.57	313.12
263.802	329.12
264.035	352.12
264.267	338.12
264.499	348.12
264.732	350.12
264.964	355.12
265.197	355.12
265.429	345.12
265.661	372.12
265.894	369.12
266.126	352.12
266.358	350.12
266.591	368.12
266.823	346.12
267.055	364.12
267.287	355.12
267.52	362.12
267.752	364.12
267.984	377.12
268.216	384.12
268.448	363.12
268.681	378.12
268.913	358.12
269.145	377.12
269.377	373.12
269.609	355.12
269.841	374.12
270.073	361.12
270.306	384.12
270.538	363.12
270.77	370.12
271.002	378.12
271.234	368.12
271.466	366.12
271.698	368.12
271.93	389.12
272.162	387.12
272.394	378.12
272.626	378.12
272.858	382.12
273.09	385.12
273.322	391.12
273.553	395.12
273.785	382.12
274.017	396.12
274.249	387.12
274.481	422.12
274.713	407.12
274.945	399.12
275.176	385.12
275.408	412.12
275.64	416.12
275.872	425.12
276.104	405.12
276.335	421.12
276.567	400.12
276.799	396.12
277.031	422.12
277.262	417.12
277.494	422.12
277.726	419.12
277.957	424.12
278.189	428.12
278.421	428.12
278.652	421.12
278.884	420.12
279.115	438.12
279.347	447.12
279.579	436.12
279.81	440.12
280.042	446.12
280.273	440.12
280.505	462.12
280.736	452.12
280.968	452.12
281.199	444.12
281.431	456.12
281.662	443.12
281.894	467.12
282.125	461.12
282.356	460.12
282.588	458.12
282.819	480.12
283.051	462.12
283.282	477.12
283.513	450.12
283.745	452.12
283.976	475.12
284.207	474.12
284.439	467.12
284.67	478.12
284.901	475.12
285.132	492.12
285.364	478.12
285.595	470.12
285.826	473.12
286.057	478.12
286.288	479.12
286.52	487.12
286.751	498.12
286.982	486.12
287.213	484.12
287.444	512.12
287.675	512.12
287.906	500.12
288.138	510.12
288.369	517.12
288.6	530.12
288.831	508.12
289.062	517.12
289.293	518.12
289.524	490.12
289.755	513.12
289.986	498.12
290.217	532.12
290.448	532.12
290.679	534.12
290.91	536.12
291.141	523.12
291.371	538.12
291.602	522.12
291.833	509.12
292.064	524.12
292.295	554.12
292.526	546.12
292.757	523.12
292.987	510.12
293.218	532.12
293.449	519.12
293.68	533.12
293.91	550.12
294.141	520.12
294.372	522.12
294.603	541.12
294.833	539.12
295.064	531.12
295.295	525.12
295.525	524.12
295.756	555.12
295.987	543.12
296.217	532.12
296.448	526.12
296.679	558.12
296.909	564.12
297.14	547.12
297.37	544.12
297.601	571.12
297.831	566.12
298.062	579.12
298.292	567.12
298.523	592.12
298.753	607.12
298.984	587.12
299.214	581.12
299.445	567.12
299.675	565.12
299.905	571.12
300.136	582.12
300.366	582.12
300.597	607.12
300.827	596.12
301.057	607.12
301.288	587.12
301.518	595.12
301.748	618.12
301.979	597.12
302.209	588.12
302.439	610.12
302.669	613.12
302.9	587.12
303.13	606.12
303.36	605.12
303.59	589.12
303.82	573.12
304.051	574.12
304.281	591.12
304.511	606.12
304.741	596.12
304.971	597.12
305.201	589.12
305.431	584.12
305.661	578.12
305.891	575.12
306.121	568.12
306.352	590.12
306.582	565.12
306.812	570.12
307.042	562.12
307.272	566.12
307.502	585.12
307.731	591.12
307.961	577.12
308.191	559.12
308.421	574.12
308.651	575.12
308.881	567.12
309.111	565.12
309.341	587.12
309.571	568.12
309.8	564.12
310.03	582.12
310.26	581.12
310.49	577.12
310.72	581.12
310.949	592.12
311.179	610.12
311.409	591.12
311.639	578.12
311.868	579.12
312.098	567.12
312.328	604.12
312.557	608.12
312.787	614.12
313.017	611.12
313.246	612.12
313.476	604.12
313.706	608.12
313.935	635.12
314.165	636.12
314.394	617.12
314.624	617.12
314.853	592.12
315.083	611.12
315.312	614.12
315.542	630.12
315.771	599.12
316.001	619.12
316.23	610.12
316.46	603.12
316.689	608.12
316.919	610.12
317.148	594.12
317.377	597.12
317.607	607.12
317.836	572.12
318.065	596.12
318.295	604.12
318.524	602.12
318.753	604.12
318.983	593.12
319.212	604.12
319.441	600.12
319.67	615.12
319.9	606.12
320.129	594.12
320.358	603.12
320.587	592.12
320.816	601.12
321.046	587.12
321.275	577.12
321.504	598.12
321.733	578.12
321.962	589.12
322.191	600.12
322.42	604.12
322.649	614.12
322.878	618.12
323.108	624.12
323.337	626.12
323.566	623.12
323.795	621.12
324.024	595.12
324.253	638.12
324.482	614.12
324.71	641.12
324.939	634.12
325.168	632.12
325.397	626.12
325.626	618.12
325.855	660.12
326.084	649.12
326.313	654.12
326.542	679.12
326.77	660.12
326.999	651.12
327.228	659.12
327.457	658.12
327.686	666.12
327.914	636.12
328.143	645.12
328.372	661.12
328.6	647.12
328.829	665.12
329.058	676.12
329.287	642.12
329.515	662.12
329.744	666.12
329.972	662.12
330.201	660.12
330.43	664.12
330.658	696.12
330.887	680.12
331.115	691.12
331.344	680.12
331.572	706.12
331.801	702.12
332.03	725.12
332.258	715.12
332.486	750.12
332.715	755.12
332.943	815.12
333.172	826.12
333.4	893.12
333.629	878.12
333.857	911.12
334.085	902.12
334.314	880.12
334.542	852.12
334.771	842.12
334.999	832.12
335.227	819.12
335.455	817.12
335.684	827.12
335.912	834.12
336.14	789.12
336.369	786.12
336.597	811.12
336.825	807.12
337.053	802.12
337.281	788.12
337.51	742.12
337.738	746.12
337.966	726.12
338.194	728.12
338.422	695.12
338.65	698.12
338.878	726.12
339.106	724.12
339.334	714.12
339.562	723.12
339.79	694.12
340.018	681.12
340.246	659.12
340.474	683.12
340.702	694.12
340.93	670.12
341.158	696.12
341.386	707.12
341.614	718.12
341.842	689.12
342.07	672.12
342.298	687.12
342.526	656.12
342.754	669.12
342.981	697.12
343.209	699.12
343.437	709.12
343.665	766.12
343.893	842.12
344.12	872.12
344.348	842.12
344.576	790.12
344.804	755.12
345.031	743.12
345.259	713.12
345.487	714.12
345.714	692.12
345.942	674.12
346.17	704.12
346.397	680.12
346.625	676.12
346.853	690.12
347.08	676.12
347.308	660.12
347.535	675.12
347.763	690.12
347.99	674.12
348.218	686.12
348.445	690.12
348.673	680.12
348.9	668.12
349.128	683.12
349.355	648.12
349.583	648.12
349.81	659.12
350.037	640.12
350.265	651.12
350.492	645.12
350.72	612.12
350.947	643.12
351.174	632.12
351.402	649.12
351.629	656.12
351.856	661.12
352.083	650.12
352.311	641.12
352.538	648.12
352.765	677.12
352.992	644.12
353.22	635.12
353.447	615.12
353.674	623.12
353.901	633.12
354.128	655.12
354.355	644.12
354.583	620.12
354.81	648.12
355.037	644.12
355.264	652.12
355.491	663.12
355.718	646.12
355.945	649.12
356.172	640.12
356.399	646.12
356.626	646.12
356.853	664.12
357.08	655.12
357.307	630.12
357.534	652.12
357.761	649.12
357.988	651.12
358.215	653.12
358.441	658.12
358.668	620.12
358.895	642.12
359.122	632.12
359.349	640.12
359.576	648.12
359.802	629.12
360.029	644.12
360.256	651.12
360.483	639.12
360.709	660.12
360.936	644.12
361.163	635.12
361.39	664.12
361.616	652.12
361.843	649.12
362.07	634.12
362.296	677.12
362.523	657.12
362.749	644.12
362.976	655.12
363.203	630.12
363.429	628.12
363.656	652.12
363.882	629.12
364.109	623.12
364.335	638.12
364.562	652.12
364.788	662.12
365.015	633.12
365.241	649.12
365.468	642.12
365.694	652.12
365.92	644.12
366.147	643.12
366.373	635.12
366.599	658.12
366.826	658.12
367.052	628.12
367.278	644.12
367.505	629.12
367.731	656.12
367.957	643.12
368.184	639.12
368.41	652.12
368.636	670.12
368.862	662.12
369.089	666.12
369.315	682.12
369.541	668.12
369.767	656.12
369.993	673.12
370.219	662.12
370.445	702.12
370.672	689.12
370.898	708.12
371.124	676.12
371.35	709.12
371.576	712.12
371.802	702.12
372.028	683.12
372.254	702.12
372.48	710.12
372.706	716.12
372.932	737.12
373.158	715.12
373.384	707.12
373.61	710.12
373.835	704.12
374.061	708.12
374.287	691.12
374.513	722.12
374.739	731.12
374.965	747.12
375.191	788.12
375.416	776.12
375.642	759.12
375.868	766.12
376.094	745.12
376.319	718.12
376.545	722.12
376.771	712.12
376.997	696.12
377.222	718.12
377.448	694.12
377.674	725.12
377.899	699.12
378.125	691.12
378.35	690.12
378.576	684.12
378.802	693.12
379.027	667.12
379.253	693.12
379.478	681.12
379.704	709.12
379.929	690.12
380.155	676.12
380.38	706.12
380.606	687.12
380.831	730.12
381.057	702.12
381.282	702.12
381.507	707.12
381.733	704.12
381.958	698.12
382.184	704.12
382.409	715.12
382.634	752.12
382.86	738.12
383.085	748.12
383.31	758.12
383.535	795.12
383.761	787.12
383.986	781.12
384.211	812.12
384.436	797.12
384.662	835.12
384.887	885.12
385.112	864.12
385.337	856.12
385.562	854.12
385.787	840.12
386.013	846.12
386.238	876.12
386.463	835.12
386.688	866.12
386.913	824.12
387.138	848.12
387.363	840.12
387.588	820.12
387.813	810.12
388.038	830.12
388.263	830.12
388.488	822.12
388.713	851.12
388.938	807.12
389.163	826.12
389.387	816.12
389.612	832.12
389.837	825.12
390.062	831.12
390.287	835.12
390.512	823.12
390.736	832.12
390.961	856.12
391.186	835.12
391.411	914.12
391.636	900.12
391.86	914.12
392.085	959.12
392.31	982.12
392.534	909.12
392.759	930.12
392.984	913.12
393.208	882.12
393.433	901.12
393.658	891.12
393.882	871.12
394.107	878.12
394.331	914.12
394.556	889.12
394.78	924.12
395.005	908.12
395.229	880.12
395.454	915.12
395.678	923.12
395.903	960.12
396.127	912.12
396.352	911.12
396.576	881.12
396.801	864.12
397.025	879.12
397.249	898.12
397.474	954.12
397.698	954.12
397.922	932.12
398.147	934.12
398.371	958.12
398.595	989.12
398.82	1020.12
399.044	1114.12
399.268	1202.12
399.492	1400.12
399.717	1598.12
399.941	1668.12
400.165	1440.12
400.389	1254.12
400.613	1186.12
400.837	1122.12
401.062	1092.12
401.286	1091.12
401.51	1073.12
401.734	1042.12
401.958	1066.12
402.182	1074.12
402.406	1104.12
402.63	1087.12
402.854	1136.12
403.078	1159.12
403.302	1195.12
403.526	1201.12
403.75	1223.12
403.974	1250.12
404.198	1234.12
404.422	1249.12
404.645	1241.12
404.869	1221.12
405.093	1208.12
405.317	1160.12
405.541	1153.12
405.765	1152.12
405.988	1143.12
406.212	1175.12
406.436	1168.12
406.66	1198.12
406.883	1187.12
407.107	1269.12
407.331	1338.12
407.555	1413.12
407.778	1414.12
408.002	1386.12
408.226	1302.12
408.449	1271.12
408.673	1252.12
408.896	1212.12
409.12	1190.12
409.344	1206.12
409.567	1268.12
409.791	1244.12
410.014	1207.12
410.238	1220.12
410.461	1179.12
410.685	1192.12
410.908	1168.12
411.132	1144.12
411.355	1103.12
411.578	1082.12
411.802	1100.12
412.025	1106.12
412.249	1131.12
412.472	1102.12
412.695	1097.12
412.919	1042.12
413.142	1063.12
413.365	1076.12
413.589	1062.12
413.812	1064.12
414.035	1049.12
414.258	1061.12
414.482	1068.12
414.705	1086.12
414.928	1106.12
415.151	1067.12
415.374	1074.12
415.597	1072.12
415.821	1038.12
416.044	1012.12
416.267	1018.12
416.49	1042.12
416.713	1037.12
416.936	1040.12
417.159	1071.12
417.382	1036.12
417.605	1022.12
417.828	1031.12
418.051	1057.12
418.274	1043.12
418.497	1064.12
418.72	1078.12
418.943	1104.12
419.166	1174.12
419.389	1223.12
419.611	1196.12
419.834	1142.12
420.057	1090.12
420.28	1074.12
420.503	1050.12
420.726	1050.12
420.948	1028.12
421.171	1025.12
421.394	1040.12
421.617	1046.12
421.839	1060.12
422.062	1077.12
422.285	1043.12
422.507	1087.12
422.73	1072.12
422.953	1065.12
423.175	1103.12
423.398	1121.12
423.621	1132.12
423.843	1127.12
424.066	1147.12
424.288	1108.12
424.511	1105.12
424.733	1123.12
424.956	1099.12
425.178	1055.12
425.401	1063.12
425.623	1047.12
425.846	1024.12
426.068	1035.12
426.291	1012.12
426.513	1034.12
426.735	995.12
426.958	1002.12
427.18	979.12
427.402	969.12
427.625	949.12
427.847	953.12
428.069	957.12
428.292	949.12
428.514	928.12
428.736	919.12
428.958	935.12
429.181	922.12
429.403	895.12
429.625	921.12
429.847	940.12
430.069	930.12
430.292	940.12
430.514	913.12
430.736	926.12
430.958	934.12
431.18	922.12
431.402	921.12
431.624	947.12
431.846	951.12
432.068	970.12
432.29	975.12
432.512	953.12
432.734	933.12
432.956	923.12
433.178	939.12
433.4	956.12
433.622	936.12
433.844	988.12
434.066	970.12
434.287	1003.12
434.509	983.12
434.731	1062.12
434.953	1082.12
435.175	1075.12
435.397	1066.12
435.618	1002.12
435.84	1001.12
436.062	962.12
436.284	966.12
436.505	933.12
436.727	958.12
436.949	940.12
437.17	922.12
437.392	932.12
437.614	928.12
437.835	898.12
438.057	929.12
438.278	897.12
438.5	917.12
438.721	896.12
438.943	929.12
439.165	924.12
439.386	927.12
439.608	958.12
439.829	936.12
440.05	950.12
440.272	954.12
440.493	953.12
440.715	981.12
440.936	988.12
441.158	983.12
441.379	1027.12
441.6	1118.12
441.822	1088.12
442.043	1124.12
442.264	1063.12
442.486	1039.12
442.707	1048.12
442.928	1039.12
443.149	1067.12
443.371	1054.12
443.592	1066.12
443.813	1075.12
444.034	1109.12
444.255	1115.12
444.476	1154.12
444.698	1228.12
444.919	1318.12
445.14	1400.12
445.361	1228.12
445.582	1110.12
445.803	1066.12
446.024	1001.12
446.245	988.12
446.466	1000.12
446.687	975.12
446.908	970.12
447.129	931.12
447.35	918.12
447.571	905.12
447.792	882.12
448.013	899.12
448.234	914.12
448.455	890.12
448.675	878.12
448.896	872.12
449.117	837.12
449.338	874.12
449.559	873.12
449.779	882.12
450	885.12
450.221	835.12
450.442	909.12
450.662	900.12
450.883	907.12
451.104	920.12
451.324	911.12
451.545	909.12
451.766	914.12
451.986	889.12
452.207	888.12
452.428	880.12
452.648	866.12
452.869	856.12
453.089	853.12
453.31	867.12
453.53	870.12
453.751	847.12
453.971	855.12
454.192	844.12
454.412	827.12
454.633	849.12
454.853	848.12
455.073	859.12
455.294	852.12
455.514	839.12
455.734	826.12
455.955	832.12
456.175	824.12
456.395	835.12
456.616	816.12
456.836	812.12
457.056	821.12
457.276	817.12
457.497	831.12
457.717	837.12
457.937	828.12
458.157	821.12
458.377	863.12
458.598	843.12
458.818	871.12
459.038	887.12
459.258	949.12
459.478	950.12
459.698	1022.12
459.918	1043.12
460.138	1058.12
460.358	1115.12
460.578	1138.12
460.798	1136.12
461.018	1184.12
461.238	1128.12
461.458	1121.12
461.678	1128.12
461.898	1143.12
462.118	1158.12
462.338	1174.12
462.558	1283.12
462.777	1309.12
462.997	1372.12
463.217	1538.12
463.437	1564.12
463.657	1409.12
463.876	1349.12
464.096	1368.12
464.316	1330.12
464.536	1365.12
464.755	1278.12
464.975	1229.12
465.195	1156.12
465.414	1101.12
465.634	1058.12
465.854	994.12
466.073	972.12
466.293	970.12
466.512	943.12
466.732	920.12
466.951	931.12
467.171	904.12
467.391	937.12
467.61	914.12
467.829	902.12
468.049	910.12
468.268	872.12
468.488	864.12
468.707	891.12
468.927	886.12
469.146	887.12
469.365	908.12
469.585	898.12
469.804	908.12
470.023	948.12
470.243	950.12
470.462	938.12
470.681	952.12
470.901	961.12
471.12	958.12
471.339	926.12
471.558	912.12
471.777	912.12
471.997	876.12
472.216	885.12
472.435	894.12
472.654	866.12
472.873	866.12
473.092	871.12
473.311	861.12
473.53	867.12
473.749	876.12
473.968	858.12
474.187	837.12
474.406	841.12
474.625	887.12
474.844	875.12
475.063	877.12
475.282	864.12
475.501	880.12
475.72	888.12
475.939	891.12
476.158	887.12
476.377	905.12
476.596	931.12
476.814	914.12
477.033	914.12
477.252	939.12
477.471	951.12
477.69	979.12
477.908	1002.12
478.127	1036.12
478.346	1027.12
478.564	1039.12
478.783	1057.12
479.002	1105.12
479.22	1107.12
479.439	1091.12
479.658	1063.12
479.876	1083.12
480.095	1095.12
480.313	1127.12
480.532	1169.12
480.751	1173.12
480.969	1127.12
481.188	1105.12
481.406	1065.12
481.624	1020.12
481.843	1013.12
482.061	990.12
482.28	1006.12
482.498	1032.12
482.717	999.12
482.935	1008.12
483.153	1023.12
483.372	1003.12
483.59	1041.12
483.808	1014.12
484.027	1025.12
484.245	1024.12
484.463	1018.12
484.681	1022.12
484.9	1047.12
485.118	1066.12
485.336	1044.12
485.554	1073.12
485.772	1077.12
485.99	1060.12
486.209	1091.12
486.427	1044.12
486.645	1084.12
486.863	1097.12
487.081	1089.12
487.299	1056.12
487.517	1050.12
487.735	1049.12
487.953	1031.12
488.171	1065.12
488.389	1013.12
488.607	1050.12
488.825	1042.12
489.043	1011.12
489.261	1036.12
489.479	1069.12
489.696	1038.12
489.914	1039.12
490.132	1024.12
490.35	1055.12
490.568	1019.12
490.786	1042.12
491.003	1066.12
491.221	1042.12
491.439	1048.12
491.657	1068.12
491.874	1083.12
492.092	1034.12
492.31	1086.12
492.527	1082.12
492.745	1107.12
492.963	1084.12
493.18	1064.12
493.398	1072.12
493.615	1086.12
493.833	1087.12
494.05	1103.12
494.268	1100.12
494.485	1121.12
494.703	1119.12
494.92	1120.12
495.138	1088.12
495.355	1077.12
495.573	1114.12
495.79	1076.12
496.008	1128.12
496.225	1107.12
496.442	1103.12
496.66	1120.12
496.877	1152.12
497.094	1164.12
497.312	1167.12
497.529	1212.12
497.746	1207.12
497.963	1239.12
498.181	1322.12
498.398	1391.12
498.615	1456.12
498.832	1569.12
499.049	1652.12
499.267	1784.12
499.484	1988.12
499.701	2190.12
499.918	2390.12
500.135	2781.12
500.352	3124.12
500.569	3344.12
500.786	3290.12
501.003	3074.12
501.22	2746.12
501.437	2390.12
501.654	2132.12
501.871	1918.12
502.088	1751.12
502.305	1659.12
502.522	1582.12
502.739	1490.12
502.956	1454.12
503.172	1370.12
503.389	1315.12
503.606	1253.12
503.823	1227.12
504.04	1238.12
504.256	1254.12
504.473	1311.12
504.69	1314.12
504.907	1287.12
505.123	1190.12
505.34	1148.12
505.557	1112.12
505.773	1075.12
505.99	1059.12
506.207	1004.12
506.423	1010.12
506.64	987.12
506.856	969.12
507.073	985.12
507.289	959.12
507.506	974.12
507.722	965.12
507.939	942.12
508.155	908.12
508.372	919.12
508.588	926.12
508.805	951.12
509.021	916.12
509.238	914.12
509.454	912.12
509.67	914.12
509.887	887.12
510.103	888.12
510.319	880.12
510.536	885.12
510.752	872.12
510.968	891.12
511.184	886.12
511.401	911.12
511.617	889.12
511.833	904.12
512.049	884.12
512.265	891.12
512.481	886.12
512.698	868.12
512.914	904.12
513.13	896.12
513.346	892.12
513.562	872.12
513.778	880.12
513.994	896.12
514.21	905.12
514.426	895.12
514.642	887.12
514.858	929.12
515.074	915.12
515.29	911.12
515.506	905.12
515.721	933.12
515.937	951.12
516.153	960.12
516.369	972.12
516.585	1019.12
516.801	1014.12
517.016	1081.12
517.232	1118.12
517.448	1176.12
517.664	1223.12
517.879	1236.12
518.095	1226.12
518.311	1224.12
518.527	1140.12
518.742	1100.12
518.958	1077.12
519.173	1042.12
519.389	1023.12
519.605	972.12
519.82	958.12
520.036	931.12
520.251	894.12
520.467	935.12
520.682	912.12
520.898	927.12
521.113	881.12
521.329	878.12
521.544	843.12
521.76	860.12
521.975	850.12
522.19	825.12
522.406	839.12
522.621	845.12
522.836	825.12
523.052	870.12
523.267	852.12
523.482	839.12
523.698	814.12
523.913	811.12
524.128	819.12
524.343	842.12
524.559	822.12
524.774	789.12
524.989	803.12
525.204	834.12
525.419	804.12
525.634	784.12
525.849	821.12
526.064	786.12
526.28	845.12
526.495	810.12
526.71	809.12
526.925	786.12
527.14	816.12
527.355	802.12
527.57	817.12
527.785	812.12
527.999	794.12
528.214	807.12
528.429	810.12
528.644	795.12
528.859	821.12
529.074	778.12
529.289	827.12
529.503	810.12
529.718	799.12
529.933	794.12
530.148	796.12
530.363	806.12
530.577	804.12
530.792	798.12
531.007	810.12
531.221	804.12
531.436	825.12
531.651	834.12
531.865	794.12
532.08	806.12
532.295	800.12
532.509	811.12
532.724	804.12
532.938	811.12
533.153	775.12
533.367	823.12
533.582	817.12
533.796	793.12
534.011	804.12
534.225	782.12
534.44	807.12
534.654	799.12
534.868	778.12
535.083	791.12
535.297	787.12
535.511	765.12
535.726	779.12
535.94	796.12
536.154	768.12
536.369	762.12
536.583	743.12
536.797	746.12
537.011	763.12
537.225	771.12
537.44	734.12
537.654	745.12
537.868	731.12
538.082	729.12
538.296	719.12
538.51	730.12
538.724	725.12
538.938	739.12
539.153	717.12
539.367	720.12
539.581	707.12
539.795	749.12
540.009	720.12
540.222	736.12
540.436	708.12
540.65	719.12
540.864	724.12
541.078	720.12
541.292	739.12
541.506	726.12
541.72	692.12
541.934	730.12
542.147	736.12
542.361	726.12
542.575	720.12
542.789	707.12
543.002	719.12
543.216	696.12
543.43	695.12
543.644	704.12
543.857	702.12
544.071	712.12
544.285	719.12
544.498	730.12
544.712	712.12
544.925	715.12
545.139	731.12
545.352	736.12
545.566	716.12
545.779	724.12
545.993	747.12
546.206	733.12
546.42	707.12
546.633	736.12
546.847	713.12
547.06	724.12
547.274	727.12
547.487	708.12
547.7	731.12
547.914	735.12
548.127	717.12
548.34	718.12
548.554	745.12
548.767	742.12
548.98	743.12
549.193	743.12
549.407	755.12
549.62	775.12
549.833	760.12
550.046	746.12
550.259	724.12
550.473	713.12
550.686	722.12
550.899	708.12
551.112	699.12
551.325	707.12
551.538	695.12
551.751	743.12
551.964	711.12
552.177	735.12
552.39	720.12
552.603	746.12
552.816	751.12
553.029	768.12
553.242	799.12
553.455	788.12
553.667	806.12
553.88	824.12
554.093	766.12
554.306	738.12
554.519	740.12
554.732	737.12
554.944	726.12
555.157	729.12
555.37	705.12
555.583	702.12
555.795	683.12
556.008	636.12
556.221	668.12
556.433	642.12
556.646	640.12
556.859	648.12
557.071	645.12
557.284	641.12
557.496	657.12
557.709	648.12
557.921	636.12
558.134	631.12
558.346	608.12
558.559	604.12
558.771	610.12
558.984	620.12
559.196	616.12
559.409	603.12
559.621	609.12
559.833	616.12
560.046	603.12
560.258	607.12
560.47	632.12
560.683	597.12
560.895	608.12
561.107	567.12
561.32	586.12
561.532	609.12
561.744	616.12
561.956	593.12
562.168	608.12
562.381	603.12
562.593	609.12
562.805	601.12
563.017	616.12
563.229	632.12
563.441	601.12
563.653	630.12
563.865	621.12
564.077	630.12
564.289	650.12
564.501	634.12
564.713	628.12
564.925	641.12
565.137	640.12
565.349	668.12
565.561	690.12
565.773	733.12
565.985	766.12
566.197	793.12
566.408	851.12
566.62	886.12
566.832	976.12
567.044	989.12
567.255	983.12
567.467	1042.12
567.679	1096.12
567.891	1187.12
568.102	1190.12
568.314	1136.12
568.526	1034.12
568.737	916.12
568.949	861.12
569.161	757.12
569.372	730.12
569.584	684.12
569.795	674.12
570.007	667.12
570.218	643.12
570.43	623.12
570.641	649.12
570.853	631.12
571.064	658.12
571.276	678.12
571.487	649.12
571.698	574.12
571.91	593.12
572.121	535.12
572.333	542.12
572.544	552.12
572.755	528.12
572.966	544.12
573.178	531.12
573.389	511.12
573.6	516.12
573.811	501.12
574.023	542.12
574.234	497.12
574.445	501.12
574.656	512.12
574.867	506.12
575.078	513.12
575.289	490.12
575.501	504.12
575.712	484.12
575.923	499.12
576.134	477.12
576.345	488.12
576.556	470.12
576.767	468.12
576.978	490.12
577.188	490.12
577.399	478.12
577.61	457.12
577.821	469.12
578.032	460.12
578.243	465.12
578.454	454.12
578.665	450.12
578.875	466.12
579.086	459.12
579.297	452.12
579.508	451.12
579.718	469.12
579.929	434.12
580.14	459.12
580.35	460.12
580.561	432.12
580.772	436.12
580.982	435.12
581.193	425.12
581.403	452.12
581.614	434.12
581.825	451.12
582.035	435.12
582.246	440.12
582.456	418.12
582.667	425.12
582.877	449.12
583.087	425.12
583.298	420.12
583.508	445.12
583.719	433.12
583.929	431.12
584.139	413.12
584.35	410.12
584.56	417.12
584.77	434.12
584.981	439.12
585.191	421.12
585.401	410.12
585.611	408.12
585.821	422.12
586.032	409.12
586.242	407.12
586.452	410.12
586.662	409.12
586.872	411.12
587.082	420.12
587.292	422.12
587.502	420.12
587.713	403.12
587.923	396.12
588.133	399.12
588.343	417.12
588.553	423.12
588.762	404.12
588.972	420.12
589.182	430.12
589.392	417.12
589.602	413.12
589.812	428.12
590.022	426.12
590.232	397.12
590.441	406.12
590.651	411.12
590.861	437.12
591.071	422.12
591.281	418.12
591.49	427.12
591.7	443.12
591.91	455.12
592.119	437.12
592.329	453.12
592.539	482.12
592.748	492.12
592.958	489.12
593.167	499.12
593.377	529.12
593.587	517.12
593.796	526.12
594.006	539.12
594.215	539.12
594.424	552.12
594.634	528.12
594.843	482.12
595.053	491.12
595.262	478.12
595.472	432.12
595.681	435.12
595.89	409.12
596.1	404.12
596.309	424.12
596.518	402.12
596.727	400.12
596.937	385.12
597.146	402.12
597.355	377.12
597.564	392.12
597.774	391.12
597.983	361.12
598.192	386.12
598.401	376.12
598.61	369.12
598.819	374.12
599.028	354.12
599.237	369.12
599.446	384.12
599.655	358.12
599.864	343.12
600.073	350.12
600.282	367.12
600.491	356.12
600.7	340.12
600.909	332.12
601.118	365.12
601.327	354.12
601.536	335.12
601.745	364.12
601.953	367.12
602.162	356.12
602.371	356.12
602.58	334.12
602.789	337.12
602.997	350.12
603.206	337.12
603.415	347.12
603.623	342.12
603.832	344.12
604.041	323.12
604.249	343.12
604.458	344.12
604.666	328.12
604.875	329.12
605.084	314.12
605.292	319.12
605.501	336.12
605.709	332.12
605.918	340.12
606.126	324.12
606.334	314.12
606.543	322.12
606.751	321.12
606.96	309.12
607.168	331.12
607.376	311.12
607.585	331.12
607.793	312.12
608.001	329.12
608.21	310.12
608.418	321.12
608.626	306.12
608.834	315.12
609.043	319.12
609.251	309.12
609.459	308.12
609.667	299.12
609.875	325.12
610.083	326.12
610.291	311.12
610.499	318.12
610.707	306.12
610.916	314.12
611.124	318.12
611.332	303.12
611.54	284.12
611.748	310.12
611.955	304.12
612.163	315.12
612.371	304.12
612.579	309.12
612.787	302.12
612.995	311.12
613.203	302.12
613.411	314.12
613.618	286.12
613.826	286.12
614.034	310.12
614.242	290.12
614.449	300.12
614.657	299.12
614.865	298.12
615.072	290.12
615.28	305.12
615.488	300.12
615.695	309.12
615.903	308.12
616.111	325.12
616.318	296.12
616.526	303.12
616.733	304.12
616.941	293.12
617.148	302.12
617.356	312.12
617.563	293.12
617.771	306.12
617.978	296.12
618.185	303.12
618.393	306.12
618.6	332.12
618.807	290.12
619.015	310.12
619.222	319.12
619.429	301.12
619.637	314.12
619.844	271.12
620.051	282.12
620.258	288.12
620.466	278.12
620.673	280.12
620.88	268.12
621.087	292.12
621.294	284.12
621.501	291.12
621.708	287.12
621.915	291.12
622.122	281.12
622.329	265.12
622.536	280.12
622.743	283.12
622.95	282.12
623.157	263.12
623.364	277.12
623.571	255.12
623.778	299.12
623.985	291.12
624.192	276.12
624.399	279.12
624.606	280.12
624.812	272.12
625.019	257.12
625.226	262.12
625.433	259.12
625.639	265.12
625.846	268.12
626.053	254.12
626.259	266.12
626.466	260.12
626.673	239.12
626.879	239.12
627.086	271.12
627.293	278.12
627.499	261.12
627.706	244.12
627.912	270.12
628.119	250.12
628.325	229.12
628.532	262.12
628.738	249.12
628.945	243.12
629.151	235.12
629.357	232.12
629.564	241.12
629.77	242.12
629.976	229.12
630.183	247.12
630.389	247.12
630.595	241.12
630.802	256.12
631.008	232.12
631.214	214.12
631.42	227.12
631.627	233.12
631.833	241.12
632.039	222.12
632.245	230.12
632.451	245.12
632.657	226.12
632.863	238.12
633.069	238.12
633.275	223.12
633.481	218.12
633.688	231.12
633.893	226.12
634.099	236.12
634.305	231.12
634.511	228.12
634.717	233.12
634.923	235.12
635.129	225.12
635.335	228.12
635.541	222.12
635.747	227.12
635.952	209.12
636.158	202.12
636.364	227.12
636.57	226.12
636.775	205.12
636.981	223.12
637.187	204.12
637.392	217.12
637.598	202.12
637.804	208.12
638.009	219.12
638.215	217.12
638.421	210.12
638.626	225.12
638.832	215.12
639.037	208.12
639.243	215.12
639.448	218.12
639.654	222.12
639.859	226.12
640.065	217.12
640.27	211.12
640.475	191.12
640.681	201.12
640.886	203.12
641.091	198.12
641.297	212.12
641.502	206.12
641.707	215.12
641.913	210.12
642.118	208.12
642.323	197.12
642.528	203.12
642.733	218.12
642.939	204.12
643.144	207.12
643.349	221.12
643.554	202.12
643.759	213.12
643.964	200.12
644.169	204.12
644.374	208.12
644.579	211.12
644.784	196.12
644.989	203.12
645.194	206.12
645.399	202.12
645.604	202.12
645.809	203.12
646.014	203.12
646.219	200.12
646.423	194.12
646.628	195.12
646.833	202.12
647.038	209.12
647.243	219.12
647.447	198.12
647.652	202.12
647.857	218.12
648.062	217.12
648.266	206.12
648.471	222.12
648.676	229.12
648.88	213.12
649.085	217.12
649.289	204.12
649.494	202.12
649.698	197.12
649.903	190.12
650.107	202.12
650.312	205.12
650.516	199.12
650.721	190.12
650.925	196.12
651.13	187.12
651.334	187.12
651.539	188.12
651.743	193.12
651.947	174.12
652.152	183.12
652.356	186.12
652.56	185.12
652.764	181.12
652.969	182.12
653.173	177.12
653.377	179.12
653.581	163.12
653.785	165.12
653.99	174.12
654.194	183.12
654.398	167.12
654.602	162.12
654.806	171.12
655.01	176.12
655.214	170.12
655.418	162.12
655.622	147.12
655.826	174.12
656.03	153.12
656.234	171.12
656.438	161.12
656.642	163.12
656.846	150.12
657.049	156.12
657.253	139.12
657.457	141.12
657.661	134.12
657.865	147.12
658.068	120.12
658.272	140.12
658.476	130.12
658.68	124.12
658.883	126.12
659.087	128.12
659.291	115.12
659.494	96.12
659.698	103.12
659.901	101.12
660.105	108.12
660.309	98.12
660.512	100.12
660.716	97.12
660.919	98.12
661.123	86.12
661.326	93.12
661.53	96.12
661.733	98.12
661.936	98.12
662.14	94.12
662.343	95.12
662.546	87.12
662.75	97.12
662.953	86.12
663.156	79.12
663.36	80.12
663.563	82.12
663.766	89.12
663.969	84.12
664.173	87.12
664.376	75.12
664.579	71.12
664.782	63.12
664.985	90.12
665.188	81.12
665.391	96.12
665.594	81.12
665.797	83.12
666	67.12
666.203	80.12
666.406	83.12
666.609	65.12
666.812	64.12
667.015	78.12
667.218	83.12
667.421	82.12
667.624	68.12
667.827	83.12
668.03	93.12
668.232	78.12
668.435	92.12
668.638	89.12
668.841	76.12
669.043	74.12
669.246	79.12
669.449	87.12
669.651	79.12
669.854	67.12
670.057	82.12
670.259	60.12
670.462	75.12
670.665	76.12
670.867	85.12
671.07	70.12
671.272	64.12
671.475	87.12
671.677	66.12
671.88	73.12
672.082	70.12
672.284	90.12
672.487	76.12
672.689	74.12
672.892	74.12
