Data from NiCl2@0.5M.TitratingCurve.Agarose3%dH2O.NegLispCup.LampEnergy10.LIBS07252019_HRD10591_18-21-32-571.txt Node
Date: Thu Jul 25 18:21:32 EDT 2019
User: cochatt
Spectrometer: HR+D1059
Trigger mode: 1
Integration Time (sec): 1.000000E-1
Scans to average: 1
Electric dark correction enabled: true
Nonlinearity correction enabled: false
Boxcar width: 0
XAxis mode: Wavelengths
Number of Pixels in Spectrum: 2048
>>>>>Begin Spectral Data<<<<<
223.165	-23.12
223.4	-23.12
223.635	-23.12
223.869	-22.12
224.104	-32.12
224.338	-22.12
224.573	-22.12
224.808	-12.12
225.042	-8.12
225.277	3.88
225.511	0.88
225.746	2.88
225.98	4.88
226.215	11.88
226.449	22.88
226.683	31.88
226.918	28.88
227.152	33.88
227.387	31.88
227.621	41.88
227.856	35.88
228.09	35.88
228.324	49.88
228.559	51.88
228.793	64.88
229.027	87.88
229.262	96.88
229.496	105.88
229.73	103.88
229.964	119.88
230.199	113.88
230.433	122.88
230.667	125.88
230.901	129.88
231.136	132.88
231.37	132.88
231.604	128.88
231.838	126.88
232.072	145.88
232.306	145.88
232.541	131.88
232.775	125.88
233.009	139.88
233.243	147.88
233.477	128.88
233.711	132.88
233.945	139.88
234.179	141.88
234.413	127.88
234.647	128.88
234.881	137.88
235.115	142.88
235.349	134.88
235.583	135.88
235.817	151.88
236.051	121.88
236.285	125.88
236.519	137.88
236.753	146.88
236.987	137.88
237.221	161.88
237.455	146.88
237.689	146.88
237.922	145.88
238.156	142.88
238.39	148.88
238.624	139.88
238.858	145.88
239.091	153.88
239.325	159.88
239.559	156.88
239.793	153.88
240.027	161.88
240.26	132.88
240.494	168.88
240.728	170.88
240.961	159.88
241.195	165.88
241.429	167.88
241.662	163.88
241.896	155.88
242.13	174.88
242.363	166.88
242.597	169.88
242.83	164.88
243.064	178.88
243.298	192.88
243.531	181.88
243.765	181.88
243.998	189.88
244.232	176.88
244.465	169.88
244.699	202.88
244.932	197.88
245.166	199.88
245.399	201.88
245.633	199.88
245.866	199.88
246.099	202.88
246.333	213.88
246.566	205.88
246.8	195.88
247.033	193.88
247.266	212.88
247.5	216.88
247.733	203.88
247.966	186.88
248.2	207.88
248.433	204.88
248.666	214.88
248.899	208.88
249.133	219.88
249.366	218.88
249.599	223.88
249.832	225.88
250.066	204.88
250.299	231.88
250.532	225.88
250.765	207.88
250.998	222.88
251.231	235.88
251.465	233.88
251.698	225.88
251.931	240.88
252.164	214.88
252.397	228.88
252.63	205.88
252.863	229.88
253.096	232.88
253.329	212.88
253.562	236.88
253.795	252.88
254.028	234.88
254.261	221.88
254.494	245.88
254.727	265.88
254.96	254.88
255.193	251.88
255.426	231.88
255.659	253.88
255.892	274.88
256.124	265.88
256.357	241.88
256.59	234.88
256.823	251.88
257.056	267.88
257.289	271.88
257.521	264.88
257.754	280.88
257.987	271.88
258.22	265.88
258.452	278.88
258.685	272.88
258.918	266.88
259.151	276.88
259.383	287.88
259.616	272.88
259.849	261.88
260.081	271.88
260.314	284.88
260.547	270.88
260.779	275.88
261.012	272.88
261.244	261.88
261.477	282.88
261.71	284.88
261.942	288.88
262.175	279.88
262.407	259.88
262.64	290.88
262.872	277.88
263.105	306.88
263.337	294.88
263.57	296.88
263.802	286.88
264.035	275.88
264.267	314.88
264.499	307.88
264.732	330.88
264.964	306.88
265.197	334.88
265.429	310.88
265.661	301.88
265.894	314.88
266.126	307.88
266.358	312.88
266.591	317.88
266.823	298.88
267.055	305.88
267.287	312.88
267.52	311.88
267.752	312.88
267.984	322.88
268.216	316.88
268.448	343.88
268.681	336.88
268.913	321.88
269.145	321.88
269.377	311.88
269.609	338.88
269.841	317.88
270.073	320.88
270.306	333.88
270.538	333.88
270.77	316.88
271.002	332.88
271.234	345.88
271.466	324.88
271.698	338.88
271.93	351.88
272.162	341.88
272.394	347.88
272.626	369.88
272.858	339.88
273.09	347.88
273.322	359.88
273.553	347.88
273.785	327.88
274.017	355.88
274.249	367.88
274.481	360.88
274.713	367.88
274.945	354.88
275.176	356.88
275.408	354.88
275.64	367.88
275.872	369.88
276.104	384.88
276.335	355.88
276.567	356.88
276.799	360.88
277.031	362.88
277.262	376.88
277.494	369.88
277.726	390.88
277.957	385.88
278.189	368.88
278.421	378.88
278.652	381.88
278.884	367.88
279.115	374.88
279.347	372.88
279.579	395.88
279.81	405.88
280.042	399.88
280.273	398.88
280.505	376.88
280.736	393.88
280.968	388.88
281.199	400.88
281.431	410.88
281.662	403.88
281.894	409.88
282.125	415.88
282.356	420.88
282.588	396.88
282.819	425.88
283.051	395.88
283.282	414.88
283.513	413.88
283.745	420.88
283.976	419.88
284.207	416.88
284.439	433.88
284.67	428.88
284.901	451.88
285.132	431.88
285.364	425.88
285.595	435.88
285.826	431.88
286.057	436.88
286.288	423.88
286.52	437.88
286.751	445.88
286.982	445.88
287.213	412.88
287.444	423.88
287.675	424.88
287.906	443.88
288.138	440.88
288.369	470.88
288.6	452.88
288.831	431.88
289.062	435.88
289.293	455.88
289.524	457.88
289.755	444.88
289.986	459.88
290.217	457.88
290.448	463.88
290.679	445.88
290.91	466.88
291.141	460.88
291.371	443.88
291.602	450.88
291.833	469.88
292.064	464.88
292.295	467.88
292.526	442.88
292.757	467.88
292.987	459.88
293.218	445.88
293.449	472.88
293.68	465.88
293.91	459.88
294.141	465.88
294.372	456.88
294.603	455.88
294.833	471.88
295.064	467.88
295.295	456.88
295.525	454.88
295.756	477.88
295.987	476.88
296.217	470.88
296.448	476.88
296.679	489.88
296.909	483.88
297.14	473.88
297.37	509.88
297.601	478.88
297.831	471.88
298.062	480.88
298.292	501.88
298.523	515.88
298.753	514.88
298.984	512.88
299.214	506.88
299.445	514.88
299.675	502.88
299.905	521.88
300.136	505.88
300.366	511.88
300.597	506.88
300.827	522.88
301.057	535.88
301.288	519.88
301.518	527.88
301.748	520.88
301.979	523.88
302.209	519.88
302.439	529.88
302.669	529.88
302.9	505.88
303.13	511.88
303.36	544.88
303.59	539.88
303.82	536.88
304.051	551.88
304.281	529.88
304.511	540.88
304.741	504.88
304.971	539.88
305.201	551.88
305.431	548.88
305.661	515.88
305.891	517.88
306.121	534.88
306.352	527.88
306.582	512.88
306.812	523.88
307.042	517.88
307.272	523.88
307.502	497.88
307.731	520.88
307.961	524.88
308.191	498.88
308.421	523.88
308.651	501.88
308.881	515.88
309.111	512.88
309.341	501.88
309.571	518.88
309.8	537.88
310.03	525.88
310.26	544.88
310.49	547.88
310.72	543.88
310.949	527.88
311.179	525.88
311.409	523.88
311.639	538.88
311.868	541.88
312.098	535.88
312.328	545.88
312.557	524.88
312.787	542.88
313.017	552.88
313.246	557.88
313.476	547.88
313.706	591.88
313.935	564.88
314.165	588.88
314.394	539.88
314.624	559.88
314.853	557.88
315.083	561.88
315.312	553.88
315.542	549.88
315.771	527.88
316.001	580.88
316.23	555.88
316.46	561.88
316.689	557.88
316.919	539.88
317.148	549.88
317.377	580.88
317.607	557.88
317.836	552.88
318.065	556.88
318.295	573.88
318.524	532.88
318.753	554.88
318.983	546.88
319.212	555.88
319.441	532.88
319.67	537.88
319.9	566.88
320.129	561.88
320.358	572.88
320.587	564.88
320.816	561.88
321.046	570.88
321.275	561.88
321.504	562.88
321.733	563.88
321.962	566.88
322.191	553.88
322.42	548.88
322.649	565.88
322.878	566.88
323.108	577.88
323.337	569.88
323.566	570.88
323.795	573.88
324.024	550.88
324.253	565.88
324.482	567.88
324.71	561.88
324.939	580.88
325.168	591.88
325.397	587.88
325.626	592.88
325.855	603.88
326.084	598.88
326.313	595.88
326.542	596.88
326.77	627.88
326.999	617.88
327.228	599.88
327.457	620.88
327.686	617.88
327.914	608.88
328.143	598.88
328.372	604.88
328.6	625.88
328.829	615.88
329.058	615.88
329.287	614.88
329.515	599.88
329.744	617.88
329.972	623.88
330.201	628.88
330.43	627.88
330.658	611.88
330.887	609.88
331.115	604.88
331.344	642.88
331.572	635.88
331.801	663.88
332.03	655.88
332.258	689.88
332.486	700.88
332.715	703.88
332.943	737.88
333.172	732.88
333.4	748.88
333.629	782.88
333.857	781.88
334.085	785.88
334.314	793.88
334.542	768.88
334.771	744.88
334.999	733.88
335.227	765.88
335.455	756.88
335.684	759.88
335.912	745.88
336.14	742.88
336.369	755.88
336.597	761.88
336.825	752.88
337.053	731.88
337.281	723.88
337.51	722.88
337.738	717.88
337.966	681.88
338.194	713.88
338.422	701.88
338.65	669.88
338.878	676.88
339.106	668.88
339.334	681.88
339.562	660.88
339.79	640.88
340.018	633.88
340.246	636.88
340.474	645.88
340.702	620.88
340.93	650.88
341.158	641.88
341.386	669.88
341.614	669.88
341.842	658.88
342.07	651.88
342.298	655.88
342.526	638.88
342.754	657.88
342.981	636.88
343.209	651.88
343.437	671.88
343.665	704.88
343.893	712.88
344.12	757.88
344.348	735.88
344.576	702.88
344.804	712.88
345.031	673.88
345.259	677.88
345.487	645.88
345.714	648.88
345.942	657.88
346.17	661.88
346.397	661.88
346.625	645.88
346.853	613.88
347.08	605.88
347.308	627.88
347.535	617.88
347.763	630.88
347.99	658.88
348.218	606.88
348.445	603.88
348.673	617.88
348.9	605.88
349.128	618.88
349.355	641.88
349.583	611.88
349.81	600.88
350.037	595.88
350.265	611.88
350.492	590.88
350.72	587.88
350.947	579.88
351.174	616.88
351.402	593.88
351.629	615.88
351.856	617.88
352.083	599.88
352.311	605.88
352.538	615.88
352.765	608.88
352.992	575.88
353.22	581.88
353.447	605.88
353.674	575.88
353.901	561.88
354.128	572.88
354.355	567.88
354.583	589.88
354.81	595.88
355.037	580.88
355.264	601.88
355.491	591.88
355.718	599.88
355.945	604.88
356.172	605.88
356.399	585.88
356.626	610.88
356.853	611.88
357.08	588.88
357.307	595.88
357.534	590.88
357.761	586.88
357.988	581.88
358.215	595.88
358.441	582.88
358.668	585.88
358.895	611.88
359.122	602.88
359.349	587.88
359.576	576.88
359.802	576.88
360.029	576.88
360.256	568.88
360.483	578.88
360.709	588.88
360.936	577.88
361.163	603.88
361.39	589.88
361.616	560.88
361.843	610.88
362.07	631.88
362.296	615.88
362.523	573.88
362.749	594.88
362.976	585.88
363.203	571.88
363.429	603.88
363.656	581.88
363.882	565.88
364.109	575.88
364.335	581.88
364.562	596.88
364.788	563.88
365.015	588.88
365.241	567.88
365.468	579.88
365.694	581.88
365.92	567.88
366.147	604.88
366.373	577.88
366.599	575.88
366.826	579.88
367.052	602.88
367.278	589.88
367.505	565.88
367.731	572.88
367.957	581.88
368.184	562.88
368.41	568.88
368.636	579.88
368.862	567.88
369.089	603.88
369.315	590.88
369.541	613.88
369.767	602.88
369.993	589.88
370.219	603.88
370.445	616.88
370.672	607.88
370.898	629.88
371.124	615.88
371.35	621.88
371.576	614.88
371.802	631.88
372.028	646.88
372.254	628.88
372.48	654.88
372.706	633.88
372.932	657.88
373.158	653.88
373.384	651.88
373.61	635.88
373.835	634.88
374.061	656.88
374.287	649.88
374.513	643.88
374.739	672.88
374.965	669.88
375.191	703.88
375.416	681.88
375.642	661.88
375.868	665.88
376.094	631.88
376.319	645.88
376.545	621.88
376.771	628.88
376.997	641.88
377.222	647.88
377.448	641.88
377.674	629.88
377.899	625.88
378.125	601.88
378.35	616.88
378.576	616.88
378.802	608.88
379.027	612.88
379.253	624.88
379.478	609.88
379.704	604.88
379.929	635.88
380.155	602.88
380.38	615.88
380.606	632.88
380.831	607.88
381.057	623.88
381.282	610.88
381.507	607.88
381.733	605.88
381.958	617.88
382.184	661.88
382.409	630.88
382.634	653.88
382.86	664.88
383.085	643.88
383.31	663.88
383.535	677.88
383.761	663.88
383.986	677.88
384.211	715.88
384.436	703.88
384.662	708.88
384.887	720.88
385.112	728.88
385.337	711.88
385.562	709.88
385.787	732.88
386.013	765.88
386.238	728.88
386.463	730.88
386.688	728.88
386.913	722.88
387.138	723.88
387.363	728.88
387.588	718.88
387.813	752.88
388.038	718.88
388.263	744.88
388.488	725.88
388.713	724.88
388.938	744.88
389.163	731.88
389.387	729.88
389.612	731.88
389.837	705.88
390.062	735.88
390.287	752.88
390.512	722.88
390.736	711.88
390.961	747.88
391.186	767.88
391.411	786.88
391.636	793.88
391.86	824.88
392.085	832.88
392.31	836.88
392.534	789.88
392.759	785.88
392.984	770.88
393.208	782.88
393.433	771.88
393.658	767.88
393.882	805.88
394.107	808.88
394.331	797.88
394.556	803.88
394.78	746.88
395.005	795.88
395.229	812.88
395.454	824.88
395.678	845.88
395.903	811.88
396.127	800.88
396.352	779.88
396.576	796.88
396.801	808.88
397.025	795.88
397.249	801.88
397.474	835.88
397.698	815.88
397.922	833.88
398.147	844.88
398.371	894.88
398.595	868.88
398.82	916.88
399.044	967.88
399.268	1049.88
399.492	1178.88
399.717	1275.88
399.941	1287.88
400.165	1156.88
400.389	1081.88
400.613	1057.88
400.837	966.88
401.062	964.88
401.286	972.88
401.51	909.88
401.734	930.88
401.958	929.88
402.182	939.88
402.406	947.88
402.63	925.88
402.854	965.88
403.078	943.88
403.302	965.88
403.526	1017.88
403.75	1026.88
403.974	1039.88
404.198	1018.88
404.422	1038.88
404.645	1003.88
404.869	975.88
405.093	999.88
405.317	1011.88
405.541	1010.88
405.765	996.88
405.988	969.88
406.212	1000.88
406.436	987.88
406.66	1030.88
406.883	1054.88
407.107	1104.88
407.331	1136.88
407.555	1199.88
407.778	1132.88
408.002	1118.88
408.226	1128.88
408.449	1091.88
408.673	1060.88
408.896	1072.88
409.12	1059.88
409.344	1049.88
409.567	1027.88
409.791	1084.88
410.014	1044.88
410.238	1030.88
410.461	1002.88
410.685	1039.88
410.908	1029.88
411.132	981.88
411.355	958.88
411.578	961.88
411.802	965.88
412.025	978.88
412.249	986.88
412.472	968.88
412.695	950.88
412.919	945.88
413.142	944.88
413.365	958.88
413.589	924.88
413.812	926.88
414.035	909.88
414.258	930.88
414.482	926.88
414.705	953.88
414.928	954.88
415.151	943.88
415.374	921.88
415.597	943.88
415.821	951.88
416.044	922.88
416.267	941.88
416.49	897.88
416.713	898.88
416.936	902.88
417.159	893.88
417.382	909.88
417.605	928.88
417.828	907.88
418.051	910.88
418.274	910.88
418.497	924.88
418.72	931.88
418.943	919.88
419.166	994.88
419.389	1033.88
419.611	1043.88
419.834	1024.88
420.057	963.88
420.28	955.88
420.503	913.88
420.726	933.88
420.948	900.88
421.171	922.88
421.394	919.88
421.617	924.88
421.839	908.88
422.062	921.88
422.285	909.88
422.507	940.88
422.73	944.88
422.953	941.88
423.175	931.88
423.398	960.88
423.621	947.88
423.843	959.88
424.066	962.88
424.288	917.88
424.511	914.88
424.733	924.88
424.956	917.88
425.178	892.88
425.401	949.88
425.623	942.88
425.846	897.88
426.068	919.88
426.291	873.88
426.513	871.88
426.735	911.88
426.958	883.88
427.18	872.88
427.402	867.88
427.625	856.88
427.847	836.88
428.069	837.88
428.292	836.88
428.514	845.88
428.736	831.88
428.958	845.88
429.181	861.88
429.403	822.88
429.625	851.88
429.847	826.88
430.069	828.88
430.292	834.88
430.514	844.88
430.736	845.88
430.958	828.88
431.18	848.88
431.402	841.88
431.624	843.88
431.846	867.88
432.068	850.88
432.29	874.88
432.512	841.88
432.734	843.88
432.956	833.88
433.178	871.88
433.4	847.88
433.622	858.88
433.844	871.88
434.066	844.88
434.287	871.88
434.509	879.88
434.731	911.88
434.953	904.88
435.175	937.88
435.397	923.88
435.618	900.88
435.84	853.88
436.062	867.88
436.284	859.88
436.505	850.88
436.727	820.88
436.949	835.88
437.17	849.88
437.392	845.88
437.614	818.88
437.835	831.88
438.057	813.88
438.278	823.88
438.5	795.88
438.721	807.88
438.943	846.88
439.165	815.88
439.386	835.88
439.608	844.88
439.829	861.88
440.05	842.88
440.272	850.88
440.493	844.88
440.715	882.88
440.936	891.88
441.158	929.88
441.379	899.88
441.6	931.88
441.822	935.88
442.043	932.88
442.264	928.88
442.486	915.88
442.707	922.88
442.928	928.88
443.149	929.88
443.371	915.88
443.592	925.88
443.813	957.88
444.034	967.88
444.255	966.88
444.476	1007.88
444.698	1033.88
444.919	1073.88
445.14	1155.88
445.361	1052.88
445.582	971.88
445.803	916.88
446.024	921.88
446.245	930.88
446.466	881.88
446.687	877.88
446.908	873.88
447.129	853.88
447.35	838.88
447.571	843.88
447.792	810.88
448.013	803.88
448.234	817.88
448.455	779.88
448.675	781.88
448.896	803.88
449.117	774.88
449.338	801.88
449.559	779.88
449.779	791.88
450	801.88
450.221	780.88
450.442	825.88
450.662	793.88
450.883	799.88
451.104	810.88
451.324	787.88
451.545	820.88
451.766	784.88
451.986	801.88
452.207	799.88
452.428	810.88
452.648	768.88
452.869	756.88
453.089	775.88
453.31	777.88
453.53	807.88
453.751	763.88
453.971	743.88
454.192	757.88
454.412	772.88
454.633	748.88
454.853	769.88
455.073	760.88
455.294	744.88
455.514	723.88
455.734	754.88
455.955	739.88
456.175	777.88
456.395	736.88
456.616	720.88
456.836	756.88
457.056	738.88
457.276	739.88
457.497	741.88
457.717	744.88
457.937	731.88
458.157	791.88
458.377	777.88
458.598	820.88
458.818	793.88
459.038	810.88
459.258	822.88
459.478	874.88
459.698	863.88
459.918	923.88
460.138	901.88
460.358	965.88
460.578	993.88
460.798	999.88
461.018	1036.88
461.238	998.88
461.458	1006.88
461.678	981.88
461.898	996.88
462.118	1023.88
462.338	1085.88
462.558	1084.88
462.777	1105.88
462.997	1189.88
463.217	1256.88
463.437	1264.88
463.657	1183.88
463.876	1147.88
464.096	1166.88
464.316	1126.88
464.536	1151.88
464.755	1101.88
464.975	1083.88
465.195	1050.88
465.414	998.88
465.634	919.88
465.854	907.88
466.073	890.88
466.293	852.88
466.512	858.88
466.732	842.88
466.951	841.88
467.171	833.88
467.391	819.88
467.61	820.88
467.829	781.88
468.049	809.88
468.268	791.88
468.488	793.88
468.707	803.88
468.927	803.88
469.146	803.88
469.365	821.88
469.585	835.88
469.804	855.88
470.023	858.88
470.243	858.88
470.462	863.88
470.681	866.88
470.901	882.88
471.12	856.88
471.339	850.88
471.558	825.88
471.777	824.88
471.997	820.88
472.216	805.88
472.435	794.88
472.654	811.88
472.873	791.88
473.092	789.88
473.311	772.88
473.53	767.88
473.749	777.88
473.968	793.88
474.187	778.88
474.406	778.88
474.625	820.88
474.844	794.88
475.063	812.88
475.282	770.88
475.501	789.88
475.72	853.88
475.939	801.88
476.158	826.88
476.377	848.88
476.596	799.88
476.814	833.88
477.033	842.88
477.252	841.88
477.471	876.88
477.69	886.88
477.908	899.88
478.127	908.88
478.346	946.88
478.564	948.88
478.783	957.88
479.002	968.88
479.22	982.88
479.439	980.88
479.658	960.88
479.876	968.88
480.095	957.88
480.313	1023.88
480.532	1041.88
480.751	1025.88
480.969	980.88
481.188	947.88
481.406	965.88
481.624	923.88
481.843	920.88
482.061	883.88
482.28	911.88
482.498	908.88
482.717	882.88
482.935	895.88
483.153	920.88
483.372	917.88
483.59	920.88
483.808	913.88
484.027	903.88
484.245	901.88
484.463	904.88
484.681	937.88
484.9	957.88
485.118	924.88
485.336	952.88
485.554	956.88
485.772	954.88
485.99	895.88
486.209	924.88
486.427	935.88
486.645	949.88
486.863	959.88
487.081	955.88
487.299	945.88
487.517	932.88
487.735	942.88
487.953	956.88
488.171	949.88
488.389	933.88
488.607	931.88
488.825	906.88
489.043	915.88
489.261	949.88
489.479	931.88
489.696	930.88
489.914	929.88
490.132	913.88
490.35	944.88
490.568	956.88
490.786	979.88
491.003	945.88
491.221	985.88
491.439	966.88
491.657	970.88
491.874	973.88
492.092	997.88
492.31	983.88
492.527	996.88
492.745	987.88
492.963	1002.88
493.18	998.88
493.398	976.88
493.615	1023.88
493.833	1000.88
494.05	999.88
494.268	1013.88
494.485	995.88
494.703	1015.88
494.92	1007.88
495.138	1014.88
495.355	1000.88
495.573	1028.88
495.79	1029.88
496.008	1022.88
496.225	1032.88
496.442	1021.88
496.66	1061.88
496.877	1087.88
497.094	1090.88
497.312	1092.88
497.529	1131.88
497.746	1124.88
497.963	1222.88
498.181	1206.88
498.398	1260.88
498.615	1349.88
498.832	1397.88
499.049	1512.88
499.267	1590.88
499.484	1760.88
499.701	1954.88
499.918	2080.88
500.135	2274.88
500.352	2504.88
500.569	2609.88
500.786	2600.88
501.003	2491.88
501.22	2285.88
501.437	2058.88
501.654	1867.88
501.871	1722.88
502.088	1613.88
502.305	1496.88
502.522	1422.88
502.739	1366.88
502.956	1332.88
503.172	1268.88
503.389	1165.88
503.606	1170.88
503.823	1179.88
504.04	1139.88
504.256	1136.88
504.473	1143.88
504.69	1171.88
504.907	1167.88
505.123	1080.88
505.34	1009.88
505.557	1012.88
505.773	979.88
505.99	971.88
506.207	945.88
506.423	929.88
506.64	949.88
506.856	888.88
507.073	893.88
507.289	880.88
507.506	865.88
507.722	871.88
507.939	859.88
508.155	884.88
508.372	860.88
508.588	851.88
508.805	848.88
509.021	829.88
509.238	836.88
509.454	823.88
509.67	809.88
509.887	806.88
510.103	794.88
510.319	805.88
510.536	803.88
510.752	799.88
510.968	806.88
511.184	779.88
511.401	833.88
511.617	815.88
511.833	811.88
512.049	808.88
512.265	817.88
512.481	823.88
512.698	754.88
512.914	769.88
513.13	805.88
513.346	810.88
513.562	812.88
513.778	802.88
513.994	791.88
514.21	810.88
514.426	816.88
514.642	821.88
514.858	806.88
515.074	811.88
515.29	820.88
515.506	840.88
515.721	849.88
515.937	845.88
516.153	876.88
516.369	899.88
516.585	927.88
516.801	917.88
517.016	993.88
517.232	1001.88
517.448	1067.88
517.664	1050.88
517.879	1084.88
518.095	1072.88
518.311	1045.88
518.527	1013.88
518.742	986.88
518.958	965.88
519.173	964.88
519.389	903.88
519.605	864.88
519.82	844.88
520.036	849.88
520.251	826.88
520.467	801.88
520.682	797.88
520.898	813.88
521.113	786.88
521.329	758.88
521.544	742.88
521.76	764.88
521.975	744.88
522.19	771.88
522.406	757.88
522.621	771.88
522.836	770.88
523.052	749.88
523.267	757.88
523.482	773.88
523.698	717.88
523.913	747.88
524.128	731.88
524.343	705.88
524.559	715.88
524.774	739.88
524.989	725.88
525.204	724.88
525.419	726.88
525.634	707.88
525.849	746.88
526.064	746.88
526.28	727.88
526.495	711.88
526.71	701.88
526.925	700.88
527.14	707.88
527.355	698.88
527.57	685.88
527.785	727.88
527.999	684.88
528.214	701.88
528.429	716.88
528.644	725.88
528.859	716.88
529.074	727.88
529.289	739.88
529.503	732.88
529.718	728.88
529.933	693.88
530.148	716.88
530.363	726.88
530.577	723.88
530.792	699.88
531.007	706.88
531.221	706.88
531.436	682.88
531.651	690.88
531.865	716.88
532.08	729.88
532.295	693.88
532.509	732.88
532.724	714.88
532.938	712.88
533.153	724.88
533.367	720.88
533.582	696.88
533.796	738.88
534.011	708.88
534.225	695.88
534.44	710.88
534.654	698.88
534.868	672.88
535.083	708.88
535.297	666.88
535.511	692.88
535.726	684.88
535.94	682.88
536.154	675.88
536.369	672.88
536.583	655.88
536.797	671.88
537.011	660.88
537.225	637.88
537.44	668.88
537.654	659.88
537.868	638.88
538.082	657.88
538.296	655.88
538.51	647.88
538.724	655.88
538.938	661.88
539.153	665.88
539.367	654.88
539.581	652.88
539.795	645.88
540.009	635.88
540.222	658.88
540.436	636.88
540.65	644.88
540.864	628.88
541.078	628.88
541.292	647.88
541.506	635.88
541.72	671.88
541.934	623.88
542.147	656.88
542.361	657.88
542.575	632.88
542.789	643.88
543.002	625.88
543.216	646.88
543.43	645.88
543.644	634.88
543.857	631.88
544.071	639.88
544.285	642.88
544.498	632.88
544.712	625.88
544.925	661.88
545.139	661.88
545.352	659.88
545.566	651.88
545.779	649.88
545.993	664.88
546.206	669.88
546.42	650.88
546.633	641.88
546.847	666.88
547.06	657.88
547.274	656.88
547.487	670.88
547.7	687.88
547.914	676.88
548.127	670.88
548.34	648.88
548.554	663.88
548.767	648.88
548.98	644.88
549.193	658.88
549.407	661.88
549.62	656.88
549.833	652.88
550.046	668.88
550.259	642.88
550.473	651.88
550.686	665.88
550.899	667.88
551.112	675.88
551.325	657.88
551.538	665.88
551.751	651.88
551.964	633.88
552.177	656.88
552.39	665.88
552.603	672.88
552.816	692.88
553.029	689.88
553.242	703.88
553.455	700.88
553.667	716.88
553.88	699.88
554.093	681.88
554.306	688.88
554.519	663.88
554.732	667.88
554.944	642.88
555.157	612.88
555.37	628.88
555.583	623.88
555.795	608.88
556.008	612.88
556.221	580.88
556.433	568.88
556.646	588.88
556.859	570.88
557.071	578.88
557.284	568.88
557.496	559.88
557.709	571.88
557.921	566.88
558.134	573.88
558.346	541.88
558.559	568.88
558.771	555.88
558.984	571.88
559.196	532.88
559.409	534.88
559.621	536.88
559.833	550.88
560.046	559.88
560.258	529.88
560.47	560.88
560.683	550.88
560.895	525.88
561.107	535.88
561.32	533.88
561.532	543.88
561.744	536.88
561.956	556.88
562.168	546.88
562.381	537.88
562.593	548.88
562.805	547.88
563.017	551.88
563.229	562.88
563.441	533.88
563.653	538.88
563.865	572.88
564.077	577.88
564.289	551.88
564.501	578.88
564.713	587.88
564.925	603.88
565.137	616.88
565.349	608.88
565.561	612.88
565.773	639.88
565.985	656.88
566.197	680.88
566.408	712.88
566.62	778.88
566.832	827.88
567.044	813.88
567.255	825.88
567.467	851.88
567.679	879.88
567.891	933.88
568.102	939.88
568.314	900.88
568.526	823.88
568.737	788.88
568.949	718.88
569.161	661.88
569.372	644.88
569.584	624.88
569.795	597.88
570.007	559.88
570.218	555.88
570.43	553.88
570.641	554.88
570.853	545.88
571.064	561.88
571.276	530.88
571.487	537.88
571.698	509.88
571.91	502.88
572.121	506.88
572.333	476.88
572.544	481.88
572.755	480.88
572.966	466.88
573.178	468.88
573.389	474.88
573.6	474.88
573.811	460.88
574.023	447.88
574.234	471.88
574.445	448.88
574.656	453.88
574.867	432.88
575.078	434.88
575.289	444.88
575.501	440.88
575.712	438.88
575.923	423.88
576.134	403.88
576.345	411.88
576.556	422.88
576.767	430.88
576.978	422.88
577.188	421.88
577.399	405.88
577.61	395.88
577.821	408.88
578.032	410.88
578.243	395.88
578.454	390.88
578.665	417.88
578.875	395.88
579.086	388.88
579.297	412.88
579.508	412.88
579.718	390.88
579.929	395.88
580.14	385.88
580.35	384.88
580.561	389.88
580.772	389.88
580.982	386.88
581.193	381.88
581.403	383.88
581.614	399.88
581.825	383.88
582.035	378.88
582.246	396.88
582.456	361.88
582.667	383.88
582.877	354.88
583.087	375.88
583.298	369.88
583.508	385.88
583.719	378.88
583.929	366.88
584.139	377.88
584.35	364.88
584.56	364.88
584.77	378.88
584.981	375.88
585.191	379.88
585.401	367.88
585.611	351.88
585.821	367.88
586.032	381.88
586.242	353.88
586.452	377.88
586.662	354.88
586.872	363.88
587.082	375.88
587.292	369.88
587.502	370.88
587.713	373.88
587.923	356.88
588.133	360.88
588.343	361.88
588.553	346.88
588.762	356.88
588.972	363.88
589.182	396.88
589.392	397.88
589.602	366.88
589.812	399.88
590.022	380.88
590.232	371.88
590.441	373.88
590.651	370.88
590.861	368.88
591.071	378.88
591.281	372.88
591.49	373.88
591.7	369.88
591.91	374.88
592.119	379.88
592.329	392.88
592.539	395.88
592.748	412.88
592.958	406.88
593.167	412.88
593.377	444.88
593.587	451.88
593.796	442.88
594.006	423.88
594.215	457.88
594.424	450.88
594.634	445.88
594.843	419.88
595.053	395.88
595.262	384.88
595.472	390.88
595.681	362.88
595.89	353.88
596.1	350.88
596.309	352.88
596.518	355.88
596.727	351.88
596.937	338.88
597.146	336.88
597.355	336.88
597.564	330.88
597.774	320.88
597.983	319.88
598.192	311.88
598.401	299.88
598.61	320.88
598.819	340.88
599.028	300.88
599.237	315.88
599.446	304.88
599.655	303.88
599.864	328.88
600.073	307.88
600.282	296.88
600.491	313.88
600.7	300.88
600.909	287.88
601.118	295.88
601.327	315.88
601.536	309.88
601.745	296.88
601.953	287.88
602.162	322.88
602.371	298.88
602.58	294.88
602.789	286.88
602.997	288.88
603.206	294.88
603.415	294.88
603.623	276.88
603.832	287.88
604.041	295.88
604.249	273.88
604.458	280.88
604.666	279.88
604.875	275.88
605.084	282.88
605.292	290.88
605.501	291.88
605.709	277.88
605.918	288.88
606.126	273.88
606.334	296.88
606.543	279.88
606.751	272.88
606.96	300.88
607.168	265.88
607.376	282.88
607.585	273.88
607.793	265.88
608.001	274.88
608.21	264.88
608.418	275.88
608.626	279.88
608.834	263.88
609.043	284.88
609.251	258.88
609.459	269.88
609.667	284.88
609.875	273.88
610.083	269.88
610.291	261.88
610.499	270.88
610.707	270.88
610.916	251.88
611.124	260.88
611.332	256.88
611.54	266.88
611.748	242.88
611.955	262.88
612.163	261.88
612.371	255.88
612.579	280.88
612.787	256.88
612.995	265.88
613.203	255.88
613.411	278.88
613.618	260.88
613.826	264.88
614.034	264.88
614.242	277.88
614.449	282.88
614.657	261.88
614.865	248.88
615.072	257.88
615.28	259.88
615.488	272.88
615.695	244.88
615.903	258.88
616.111	267.88
616.318	279.88
616.526	261.88
616.733	251.88
616.941	257.88
617.148	263.88
617.356	251.88
617.563	272.88
617.771	269.88
617.978	261.88
618.185	255.88
618.393	265.88
618.6	263.88
618.807	248.88
619.015	242.88
619.222	260.88
619.429	245.88
619.637	250.88
619.844	241.88
620.051	250.88
620.258	256.88
620.466	237.88
620.673	219.88
620.88	242.88
621.087	250.88
621.294	236.88
621.501	222.88
621.708	244.88
621.915	216.88
622.122	234.88
622.329	245.88
622.536	251.88
622.743	234.88
622.95	236.88
623.157	228.88
623.364	230.88
623.571	226.88
623.778	233.88
623.985	237.88
624.192	213.88
624.399	210.88
624.606	255.88
624.812	244.88
625.019	212.88
625.226	221.88
625.433	240.88
625.639	218.88
625.846	200.88
626.053	212.88
626.259	223.88
626.466	236.88
626.673	223.88
626.879	204.88
627.086	234.88
627.293	209.88
627.499	214.88
627.706	207.88
627.912	228.88
628.119	238.88
628.325	215.88
628.532	228.88
628.738	224.88
628.945	218.88
629.151	232.88
629.357	223.88
629.564	201.88
629.77	215.88
629.976	200.88
630.183	220.88
630.389	220.88
630.595	195.88
630.802	198.88
631.008	197.88
631.214	219.88
631.42	221.88
631.627	216.88
631.833	219.88
632.039	201.88
632.245	191.88
632.451	204.88
632.657	197.88
632.863	214.88
633.069	215.88
633.275	194.88
633.481	200.88
633.688	202.88
633.893	201.88
634.099	210.88
634.305	210.88
634.511	192.88
634.717	200.88
634.923	195.88
635.129	199.88
635.335	196.88
635.541	187.88
635.747	205.88
635.952	200.88
636.158	181.88
636.364	184.88
636.57	203.88
636.775	193.88
636.981	200.88
637.187	185.88
637.392	191.88
637.598	191.88
637.804	177.88
638.009	175.88
638.215	173.88
638.421	187.88
638.626	204.88
638.832	200.88
639.037	191.88
639.243	180.88
639.448	184.88
639.654	184.88
639.859	187.88
640.065	175.88
640.27	181.88
640.475	197.88
640.681	193.88
640.886	190.88
641.091	178.88
641.297	179.88
641.502	176.88
641.707	179.88
641.913	189.88
642.118	185.88
642.323	181.88
642.528	162.88
642.733	196.88
642.939	186.88
643.144	189.88
643.349	184.88
643.554	185.88
643.759	189.88
643.964	189.88
644.169	177.88
644.374	165.88
644.579	169.88
644.784	164.88
644.989	156.88
645.194	170.88
645.399	184.88
645.604	169.88
645.809	185.88
646.014	175.88
646.219	176.88
646.423	184.88
646.628	157.88
646.833	171.88
647.038	179.88
647.243	177.88
647.447	183.88
647.652	185.88
647.857	173.88
648.062	184.88
648.266	177.88
648.471	175.88
648.676	195.88
648.88	158.88
649.085	177.88
649.289	172.88
649.494	175.88
649.698	171.88
649.903	185.88
650.107	175.88
650.312	164.88
650.516	172.88
650.721	161.88
650.925	150.88
651.13	148.88
651.334	176.88
651.539	168.88
651.743	164.88
651.947	148.88
652.152	163.88
652.356	149.88
652.56	155.88
652.764	148.88
652.969	140.88
653.173	136.88
653.377	144.88
653.581	149.88
653.785	157.88
653.99	137.88
654.194	152.88
654.398	138.88
654.602	138.88
654.806	134.88
655.01	146.88
655.214	142.88
655.418	158.88
655.622	135.88
655.826	130.88
656.03	151.88
656.234	145.88
656.438	136.88
656.642	121.88
656.846	132.88
657.049	129.88
657.253	124.88
657.457	121.88
657.661	123.88
657.865	105.88
658.068	113.88
658.272	100.88
658.476	112.88
658.68	109.88
658.883	111.88
659.087	119.88
659.291	106.88
659.494	91.88
659.698	80.88
659.901	106.88
660.105	95.88
660.309	98.88
660.512	108.88
660.716	105.88
660.919	97.88
661.123	94.88
661.326	91.88
661.53	86.88
661.733	96.88
661.936	102.88
662.14	92.88
662.343	94.88
662.546	89.88
662.75	93.88
662.953	83.88
663.156	78.88
663.36	70.88
663.563	89.88
663.766	89.88
663.969	71.88
664.173	85.88
664.376	88.88
664.579	88.88
664.782	72.88
664.985	80.88
665.188	72.88
665.391	78.88
665.594	78.88
665.797	75.88
666	83.88
666.203	88.88
666.406	78.88
666.609	82.88
666.812	88.88
667.015	85.88
667.218	73.88
667.421	84.88
667.624	86.88
667.827	85.88
668.03	76.88
668.232	83.88
668.435	84.88
668.638	85.88
668.841	89.88
669.043	85.88
669.246	79.88
669.449	90.88
669.651	78.88
669.854	91.88
670.057	77.88
670.259	80.88
670.462	84.88
670.665	76.88
670.867	76.88
671.07	81.88
671.272	75.88
671.475	83.88
671.677	74.88
671.88	98.88
672.082	87.88
672.284	82.88
672.487	70.88
672.689	75.88
672.892	80.88
