Data from NiCl2@0.5M.TitratingCurve.Agarose3%dH2O.NegLispCup.LampEnergy10.LIBS07252019_HRD10591_18-20-42-571.txt Node
Date: Thu Jul 25 18:20:42 EDT 2019
User: cochatt
Spectrometer: HR+D1059
Trigger mode: 1
Integration Time (sec): 1.000000E-1
Scans to average: 1
Electric dark correction enabled: true
Nonlinearity correction enabled: false
Boxcar width: 0
XAxis mode: Wavelengths
Number of Pixels in Spectrum: 2048
>>>>>Begin Spectral Data<<<<<
223.165	-20.94
223.4	-20.94
223.635	-20.94
223.869	-15.94
224.104	-16.94
224.338	-13.94
224.573	-25.94
224.808	-24.94
225.042	-14.94
225.277	2.06
225.511	10.06
225.746	7.06
225.98	8.06
226.215	12.06
226.449	9.06
226.683	24.06
226.918	32.06
227.152	29.06
227.387	40.06
227.621	30.06
227.856	46.06
228.09	51.06
228.324	45.06
228.559	64.06
228.793	49.06
229.027	87.06
229.262	94.06
229.496	86.06
229.73	120.06
229.964	100.06
230.199	96.06
230.433	116.06
230.667	116.06
230.901	108.06
231.136	119.06
231.37	119.06
231.604	132.06
231.838	126.06
232.072	130.06
232.306	121.06
232.541	129.06
232.775	128.06
233.009	115.06
233.243	121.06
233.477	131.06
233.711	138.06
233.945	115.06
234.179	129.06
234.413	114.06
234.647	120.06
234.881	114.06
235.115	117.06
235.349	134.06
235.583	128.06
235.817	132.06
236.051	133.06
236.285	131.06
236.519	137.06
236.753	132.06
236.987	132.06
237.221	109.06
237.455	126.06
237.689	115.06
237.922	133.06
238.156	138.06
238.39	129.06
238.624	137.06
238.858	142.06
239.091	128.06
239.325	124.06
239.559	137.06
239.793	138.06
240.027	151.06
240.26	141.06
240.494	153.06
240.728	144.06
240.961	152.06
241.195	150.06
241.429	146.06
241.662	151.06
241.896	151.06
242.13	161.06
242.363	152.06
242.597	156.06
242.83	143.06
243.064	142.06
243.298	145.06
243.531	151.06
243.765	154.06
243.998	172.06
244.232	151.06
244.465	155.06
244.699	154.06
244.932	151.06
245.166	177.06
245.399	166.06
245.633	165.06
245.866	181.06
246.099	175.06
246.333	167.06
246.566	168.06
246.8	165.06
247.033	175.06
247.266	172.06
247.5	179.06
247.733	163.06
247.966	175.06
248.2	172.06
248.433	185.06
248.666	181.06
248.899	172.06
249.133	182.06
249.366	194.06
249.599	195.06
249.832	183.06
250.066	192.06
250.299	199.06
250.532	192.06
250.765	181.06
250.998	199.06
251.231	200.06
251.465	190.06
251.698	183.06
251.931	181.06
252.164	215.06
252.397	198.06
252.63	194.06
252.863	183.06
253.096	192.06
253.329	203.06
253.562	198.06
253.795	226.06
254.028	210.06
254.261	216.06
254.494	203.06
254.727	200.06
254.96	215.06
255.193	231.06
255.426	224.06
255.659	201.06
255.892	202.06
256.124	219.06
256.357	211.06
256.59	188.06
256.823	237.06
257.056	220.06
257.289	216.06
257.521	213.06
257.754	220.06
257.987	232.06
258.22	246.06
258.452	232.06
258.685	220.06
258.918	224.06
259.151	227.06
259.383	228.06
259.616	228.06
259.849	225.06
260.081	234.06
260.314	223.06
260.547	225.06
260.779	232.06
261.012	227.06
261.244	233.06
261.477	229.06
261.71	255.06
261.942	253.06
262.175	245.06
262.407	238.06
262.64	238.06
262.872	231.06
263.105	246.06
263.337	239.06
263.57	245.06
263.802	228.06
264.035	250.06
264.267	231.06
264.499	248.06
264.732	242.06
264.964	273.06
265.197	268.06
265.429	241.06
265.661	264.06
265.894	263.06
266.126	256.06
266.358	258.06
266.591	252.06
266.823	245.06
267.055	241.06
267.287	247.06
267.52	246.06
267.752	277.06
267.984	275.06
268.216	255.06
268.448	267.06
268.681	265.06
268.913	269.06
269.145	274.06
269.377	284.06
269.609	272.06
269.841	285.06
270.073	267.06
270.306	269.06
270.538	265.06
270.77	276.06
271.002	258.06
271.234	282.06
271.466	282.06
271.698	263.06
271.93	281.06
272.162	296.06
272.394	282.06
272.626	288.06
272.858	296.06
273.09	298.06
273.322	309.06
273.553	280.06
273.785	297.06
274.017	280.06
274.249	311.06
274.481	303.06
274.713	286.06
274.945	310.06
275.176	301.06
275.408	307.06
275.64	307.06
275.872	311.06
276.104	320.06
276.335	299.06
276.567	320.06
276.799	279.06
277.031	309.06
277.262	307.06
277.494	311.06
277.726	309.06
277.957	319.06
278.189	305.06
278.421	303.06
278.652	314.06
278.884	313.06
279.115	337.06
279.347	328.06
279.579	319.06
279.81	327.06
280.042	297.06
280.273	325.06
280.505	344.06
280.736	337.06
280.968	325.06
281.199	329.06
281.431	344.06
281.662	338.06
281.894	313.06
282.125	361.06
282.356	343.06
282.588	323.06
282.819	338.06
283.051	337.06
283.282	349.06
283.513	361.06
283.745	351.06
283.976	351.06
284.207	352.06
284.439	342.06
284.67	367.06
284.901	353.06
285.132	373.06
285.364	339.06
285.595	358.06
285.826	339.06
286.057	360.06
286.288	352.06
286.52	351.06
286.751	364.06
286.982	361.06
287.213	373.06
287.444	362.06
287.675	352.06
287.906	363.06
288.138	396.06
288.369	373.06
288.6	360.06
288.831	377.06
289.062	393.06
289.293	376.06
289.524	381.06
289.755	398.06
289.986	381.06
290.217	376.06
290.448	372.06
290.679	379.06
290.91	367.06
291.141	383.06
291.371	388.06
291.602	371.06
291.833	375.06
292.064	389.06
292.295	359.06
292.526	382.06
292.757	396.06
292.987	380.06
293.218	369.06
293.449	395.06
293.68	371.06
293.91	379.06
294.141	384.06
294.372	392.06
294.603	386.06
294.833	397.06
295.064	369.06
295.295	401.06
295.525	381.06
295.756	394.06
295.987	419.06
296.217	408.06
296.448	371.06
296.679	387.06
296.909	385.06
297.14	396.06
297.37	420.06
297.601	405.06
297.831	398.06
298.062	417.06
298.292	422.06
298.523	416.06
298.753	419.06
298.984	413.06
299.214	416.06
299.445	409.06
299.675	411.06
299.905	426.06
300.136	415.06
300.366	397.06
300.597	423.06
300.827	438.06
301.057	451.06
301.288	445.06
301.518	441.06
301.748	454.06
301.979	433.06
302.209	438.06
302.439	440.06
302.669	455.06
302.9	443.06
303.13	436.06
303.36	434.06
303.59	427.06
303.82	448.06
304.051	452.06
304.281	445.06
304.511	436.06
304.741	441.06
304.971	458.06
305.201	456.06
305.431	440.06
305.661	456.06
305.891	435.06
306.121	447.06
306.352	412.06
306.582	415.06
306.812	423.06
307.042	437.06
307.272	451.06
307.502	429.06
307.731	423.06
307.961	427.06
308.191	417.06
308.421	434.06
308.651	444.06
308.881	435.06
309.111	419.06
309.341	426.06
309.571	438.06
309.8	432.06
310.03	438.06
310.26	435.06
310.49	429.06
310.72	436.06
310.949	427.06
311.179	445.06
311.409	436.06
311.639	420.06
311.868	450.06
312.098	437.06
312.328	425.06
312.557	445.06
312.787	446.06
313.017	447.06
313.246	477.06
313.476	480.06
313.706	459.06
313.935	474.06
314.165	466.06
314.394	479.06
314.624	480.06
314.853	474.06
315.083	452.06
315.312	481.06
315.542	483.06
315.771	468.06
316.001	458.06
316.23	456.06
316.46	465.06
316.689	465.06
316.919	471.06
317.148	471.06
317.377	453.06
317.607	458.06
317.836	458.06
318.065	443.06
318.295	454.06
318.524	439.06
318.753	429.06
318.983	447.06
319.212	466.06
319.441	476.06
319.67	455.06
319.9	447.06
320.129	446.06
320.358	445.06
320.587	467.06
320.816	446.06
321.046	470.06
321.275	464.06
321.504	446.06
321.733	476.06
321.962	461.06
322.191	468.06
322.42	461.06
322.649	480.06
322.878	475.06
323.108	482.06
323.337	489.06
323.566	471.06
323.795	495.06
324.024	489.06
324.253	479.06
324.482	495.06
324.71	483.06
324.939	480.06
325.168	485.06
325.397	481.06
325.626	493.06
325.855	477.06
326.084	503.06
326.313	528.06
326.542	488.06
326.77	513.06
326.999	498.06
327.228	492.06
327.457	483.06
327.686	493.06
327.914	504.06
328.143	511.06
328.372	501.06
328.6	475.06
328.829	487.06
329.058	496.06
329.287	515.06
329.515	516.06
329.744	490.06
329.972	508.06
330.201	506.06
330.43	519.06
330.658	522.06
330.887	521.06
331.115	531.06
331.344	521.06
331.572	567.06
331.801	531.06
332.03	576.06
332.258	550.06
332.486	566.06
332.715	596.06
332.943	627.06
333.172	631.06
333.4	639.06
333.629	660.06
333.857	684.06
334.085	652.06
334.314	645.06
334.542	645.06
334.771	643.06
334.999	619.06
335.227	620.06
335.455	619.06
335.684	638.06
335.912	621.06
336.14	613.06
336.369	603.06
336.597	624.06
336.825	616.06
337.053	611.06
337.281	586.06
337.51	594.06
337.738	596.06
337.966	553.06
338.194	569.06
338.422	539.06
338.65	544.06
338.878	557.06
339.106	556.06
339.334	557.06
339.562	551.06
339.79	523.06
340.018	561.06
340.246	527.06
340.474	524.06
340.702	513.06
340.93	526.06
341.158	534.06
341.386	538.06
341.614	543.06
341.842	545.06
342.07	519.06
342.298	496.06
342.526	514.06
342.754	511.06
342.981	523.06
343.209	573.06
343.437	541.06
343.665	595.06
343.893	610.06
344.12	627.06
344.348	615.06
344.576	575.06
344.804	604.06
345.031	572.06
345.259	555.06
345.487	533.06
345.714	539.06
345.942	530.06
346.17	526.06
346.397	524.06
346.625	510.06
346.853	500.06
347.08	510.06
347.308	516.06
347.535	509.06
347.763	523.06
347.99	525.06
348.218	527.06
348.445	495.06
348.673	511.06
348.9	499.06
349.128	514.06
349.355	506.06
349.583	512.06
349.81	488.06
350.037	496.06
350.265	497.06
350.492	503.06
350.72	477.06
350.947	489.06
351.174	482.06
351.402	486.06
351.629	492.06
351.856	479.06
352.083	484.06
352.311	490.06
352.538	492.06
352.765	514.06
352.992	491.06
353.22	487.06
353.447	488.06
353.674	470.06
353.901	487.06
354.128	511.06
354.355	492.06
354.583	499.06
354.81	475.06
355.037	490.06
355.264	501.06
355.491	500.06
355.718	479.06
355.945	497.06
356.172	493.06
356.399	483.06
356.626	504.06
356.853	494.06
357.08	513.06
357.307	492.06
357.534	490.06
357.761	507.06
357.988	487.06
358.215	483.06
358.441	496.06
358.668	490.06
358.895	491.06
359.122	493.06
359.349	484.06
359.576	491.06
359.802	479.06
360.029	485.06
360.256	506.06
360.483	482.06
360.709	485.06
360.936	478.06
361.163	497.06
361.39	497.06
361.616	487.06
361.843	492.06
362.07	492.06
362.296	503.06
362.523	468.06
362.749	483.06
362.976	491.06
363.203	483.06
363.429	469.06
363.656	496.06
363.882	503.06
364.109	482.06
364.335	493.06
364.562	469.06
364.788	484.06
365.015	476.06
365.241	493.06
365.468	490.06
365.694	475.06
365.92	498.06
366.147	487.06
366.373	483.06
366.599	485.06
366.826	483.06
367.052	491.06
367.278	488.06
367.505	479.06
367.731	485.06
367.957	490.06
368.184	489.06
368.41	487.06
368.636	505.06
368.862	468.06
369.089	495.06
369.315	503.06
369.541	513.06
369.767	508.06
369.993	531.06
370.219	512.06
370.445	523.06
370.672	522.06
370.898	506.06
371.124	513.06
371.35	527.06
371.576	517.06
371.802	513.06
372.028	554.06
372.254	505.06
372.48	543.06
372.706	512.06
372.932	537.06
373.158	563.06
373.384	536.06
373.61	523.06
373.835	529.06
374.061	516.06
374.287	541.06
374.513	532.06
374.739	537.06
374.965	562.06
375.191	577.06
375.416	584.06
375.642	579.06
375.868	570.06
376.094	540.06
376.319	535.06
376.545	526.06
376.771	499.06
376.997	512.06
377.222	518.06
377.448	539.06
377.674	532.06
377.899	538.06
378.125	515.06
378.35	523.06
378.576	501.06
378.802	507.06
379.027	512.06
379.253	515.06
379.478	513.06
379.704	486.06
379.929	507.06
380.155	515.06
380.38	519.06
380.606	503.06
380.831	524.06
381.057	533.06
381.282	529.06
381.507	515.06
381.733	518.06
381.958	544.06
382.184	523.06
382.409	513.06
382.634	530.06
382.86	539.06
383.085	556.06
383.31	567.06
383.535	551.06
383.761	565.06
383.986	608.06
384.211	586.06
384.436	580.06
384.662	603.06
384.887	633.06
385.112	607.06
385.337	620.06
385.562	609.06
385.787	592.06
386.013	629.06
386.238	605.06
386.463	620.06
386.688	628.06
386.913	620.06
387.138	602.06
387.363	603.06
387.588	569.06
387.813	613.06
388.038	611.06
388.263	625.06
388.488	620.06
388.713	631.06
388.938	600.06
389.163	586.06
389.387	601.06
389.612	581.06
389.837	586.06
390.062	615.06
390.287	586.06
390.512	603.06
390.736	603.06
390.961	602.06
391.186	640.06
391.411	649.06
391.636	658.06
391.86	670.06
392.085	697.06
392.31	670.06
392.534	677.06
392.759	644.06
392.984	630.06
393.208	620.06
393.433	657.06
393.658	651.06
393.882	629.06
394.107	653.06
394.331	647.06
394.556	626.06
394.78	654.06
395.005	670.06
395.229	676.06
395.454	680.06
395.678	700.06
395.903	703.06
396.127	688.06
396.352	658.06
396.576	658.06
396.801	662.06
397.025	648.06
397.249	657.06
397.474	682.06
397.698	669.06
397.922	689.06
398.147	667.06
398.371	705.06
398.595	713.06
398.82	732.06
399.044	811.06
399.268	846.06
399.492	992.06
399.717	1122.06
399.941	1096.06
400.165	1004.06
400.389	919.06
400.613	829.06
400.837	787.06
401.062	769.06
401.286	769.06
401.51	747.06
401.734	740.06
401.958	789.06
402.182	807.06
402.406	797.06
402.63	835.06
402.854	801.06
403.078	814.06
403.302	820.06
403.526	859.06
403.75	884.06
403.974	849.06
404.198	870.06
404.422	902.06
404.645	875.06
404.869	844.06
405.093	888.06
405.317	881.06
405.541	854.06
405.765	811.06
405.988	837.06
406.212	822.06
406.436	804.06
406.66	868.06
406.883	852.06
407.107	901.06
407.331	970.06
407.555	984.06
407.778	980.06
408.002	966.06
408.226	929.06
408.449	899.06
408.673	890.06
408.896	861.06
409.12	866.06
409.344	859.06
409.567	856.06
409.791	862.06
410.014	860.06
410.238	872.06
410.461	873.06
410.685	835.06
410.908	835.06
411.132	808.06
411.355	821.06
411.578	807.06
411.802	793.06
412.025	811.06
412.249	826.06
412.472	810.06
412.695	767.06
412.919	788.06
413.142	795.06
413.365	792.06
413.589	782.06
413.812	767.06
414.035	799.06
414.258	781.06
414.482	794.06
414.705	788.06
414.928	805.06
415.151	800.06
415.374	773.06
415.597	792.06
415.821	753.06
416.044	771.06
416.267	753.06
416.49	760.06
416.713	755.06
416.936	757.06
417.159	755.06
417.382	744.06
417.605	755.06
417.828	735.06
418.051	759.06
418.274	783.06
418.497	785.06
418.72	756.06
418.943	778.06
419.166	808.06
419.389	856.06
419.611	854.06
419.834	828.06
420.057	816.06
420.28	776.06
420.503	761.06
420.726	767.06
420.948	756.06
421.171	777.06
421.394	769.06
421.617	742.06
421.839	759.06
422.062	777.06
422.285	754.06
422.507	783.06
422.73	780.06
422.953	778.06
423.175	809.06
423.398	797.06
423.621	823.06
423.843	827.06
424.066	826.06
424.288	801.06
424.511	815.06
424.733	809.06
424.956	792.06
425.178	802.06
425.401	786.06
425.623	753.06
425.846	748.06
426.068	747.06
426.291	723.06
426.513	720.06
426.735	723.06
426.958	746.06
427.18	725.06
427.402	727.06
427.625	706.06
427.847	692.06
428.069	710.06
428.292	721.06
428.514	708.06
428.736	698.06
428.958	733.06
429.181	698.06
429.403	697.06
429.625	681.06
429.847	697.06
430.069	679.06
430.292	688.06
430.514	697.06
430.736	664.06
430.958	695.06
431.18	675.06
431.402	704.06
431.624	703.06
431.846	720.06
432.068	716.06
432.29	729.06
432.512	707.06
432.734	721.06
432.956	718.06
433.178	749.06
433.4	700.06
433.622	727.06
433.844	712.06
434.066	706.06
434.287	712.06
434.509	768.06
434.731	774.06
434.953	783.06
435.175	784.06
435.397	779.06
435.618	781.06
435.84	721.06
436.062	705.06
436.284	700.06
436.505	708.06
436.727	725.06
436.949	701.06
437.17	726.06
437.392	708.06
437.614	675.06
437.835	675.06
438.057	676.06
438.278	657.06
438.5	699.06
438.721	695.06
438.943	697.06
439.165	700.06
439.386	697.06
439.608	714.06
439.829	702.06
440.05	709.06
440.272	731.06
440.493	731.06
440.715	726.06
440.936	727.06
441.158	744.06
441.379	767.06
441.6	801.06
441.822	809.06
442.043	800.06
442.264	783.06
442.486	771.06
442.707	804.06
442.928	760.06
443.149	770.06
443.371	784.06
443.592	775.06
443.813	789.06
444.034	810.06
444.255	844.06
444.476	881.06
444.698	874.06
444.919	898.06
445.14	956.06
445.361	885.06
445.582	828.06
445.803	781.06
446.024	767.06
446.245	753.06
446.466	767.06
446.687	720.06
446.908	729.06
447.129	711.06
447.35	697.06
447.571	705.06
447.792	662.06
448.013	667.06
448.234	680.06
448.455	647.06
448.675	683.06
448.896	681.06
449.117	657.06
449.338	658.06
449.559	648.06
449.779	670.06
450	644.06
450.221	635.06
450.442	662.06
450.662	656.06
450.883	679.06
451.104	676.06
451.324	673.06
451.545	677.06
451.766	678.06
451.986	661.06
452.207	648.06
452.428	649.06
452.648	640.06
452.869	637.06
453.089	632.06
453.31	639.06
453.53	639.06
453.751	630.06
453.971	628.06
454.192	632.06
454.412	611.06
454.633	627.06
454.853	597.06
455.073	629.06
455.294	627.06
455.514	607.06
455.734	617.06
455.955	627.06
456.175	607.06
456.395	617.06
456.616	595.06
456.836	635.06
457.056	615.06
457.276	617.06
457.497	635.06
457.717	603.06
457.937	622.06
458.157	643.06
458.377	640.06
458.598	643.06
458.818	666.06
459.038	683.06
459.258	694.06
459.478	722.06
459.698	731.06
459.918	757.06
460.138	794.06
460.358	832.06
460.578	839.06
460.798	827.06
461.018	825.06
461.238	842.06
461.458	845.06
461.678	834.06
461.898	826.06
462.118	865.06
462.338	866.06
462.558	916.06
462.777	936.06
462.997	1037.06
463.217	1125.06
463.437	1108.06
463.657	996.06
463.876	969.06
464.096	990.06
464.316	971.06
464.536	979.06
464.755	920.06
464.975	904.06
465.195	824.06
465.414	830.06
465.634	757.06
465.854	748.06
466.073	741.06
466.293	725.06
466.512	728.06
466.732	722.06
466.951	733.06
467.171	703.06
467.391	697.06
467.61	690.06
467.829	691.06
468.049	717.06
468.268	690.06
468.488	675.06
468.707	668.06
468.927	683.06
469.146	670.06
469.365	696.06
469.585	678.06
469.804	706.06
470.023	723.06
470.243	715.06
470.462	714.06
470.681	707.06
470.901	724.06
471.12	725.06
471.339	712.06
471.558	676.06
471.777	649.06
471.997	692.06
472.216	659.06
472.435	666.06
472.654	658.06
472.873	660.06
473.092	663.06
473.311	631.06
473.53	627.06
473.749	664.06
473.968	629.06
474.187	633.06
474.406	661.06
474.625	669.06
474.844	668.06
475.063	666.06
475.282	665.06
475.501	672.06
475.72	685.06
475.939	662.06
476.158	675.06
476.377	671.06
476.596	662.06
476.814	684.06
477.033	687.06
477.252	699.06
477.471	740.06
477.69	733.06
477.908	751.06
478.127	767.06
478.346	781.06
478.564	803.06
478.783	776.06
479.002	825.06
479.22	805.06
479.439	788.06
479.658	779.06
479.876	815.06
480.095	787.06
480.313	836.06
480.532	844.06
480.751	863.06
480.969	819.06
481.188	796.06
481.406	774.06
481.624	775.06
481.843	759.06
482.061	741.06
482.28	745.06
482.498	755.06
482.717	729.06
482.935	739.06
483.153	741.06
483.372	741.06
483.59	792.06
483.808	769.06
484.027	745.06
484.245	773.06
484.463	770.06
484.681	761.06
484.9	801.06
485.118	787.06
485.336	764.06
485.554	793.06
485.772	793.06
485.99	785.06
486.209	810.06
486.427	770.06
486.645	772.06
486.863	793.06
487.081	788.06
487.299	771.06
487.517	804.06
487.735	785.06
487.953	816.06
488.171	801.06
488.389	783.06
488.607	758.06
488.825	757.06
489.043	759.06
489.261	778.06
489.479	780.06
489.696	776.06
489.914	776.06
490.132	760.06
490.35	799.06
490.568	808.06
490.786	800.06
491.003	813.06
491.221	813.06
491.439	815.06
491.657	797.06
491.874	787.06
492.092	837.06
492.31	845.06
492.527	832.06
492.745	851.06
492.963	823.06
493.18	827.06
493.398	839.06
493.615	862.06
493.833	840.06
494.05	829.06
494.268	818.06
494.485	837.06
494.703	838.06
494.92	848.06
495.138	827.06
495.355	831.06
495.573	849.06
495.79	850.06
496.008	844.06
496.225	861.06
496.442	847.06
496.66	874.06
496.877	905.06
497.094	874.06
497.312	907.06
497.529	945.06
497.746	929.06
497.963	1001.06
498.181	990.06
498.398	1049.06
498.615	1099.06
498.832	1188.06
499.049	1261.06
499.267	1343.06
499.484	1495.06
499.701	1604.06
499.918	1749.06
500.135	2028.06
500.352	2232.06
500.569	2333.06
500.786	2273.06
501.003	2146.06
501.22	1969.06
501.437	1715.06
501.654	1519.06
501.871	1416.06
502.088	1331.06
502.305	1237.06
502.522	1168.06
502.739	1159.06
502.956	1092.06
503.172	1051.06
503.389	1001.06
503.606	976.06
503.823	937.06
504.04	925.06
504.256	950.06
504.473	956.06
504.69	992.06
504.907	991.06
505.123	891.06
505.34	866.06
505.557	807.06
505.773	803.06
505.99	789.06
506.207	789.06
506.423	761.06
506.64	746.06
506.856	741.06
507.073	735.06
507.289	743.06
507.506	722.06
507.722	739.06
507.939	722.06
508.155	716.06
508.372	684.06
508.588	682.06
508.805	715.06
509.021	674.06
509.238	694.06
509.454	671.06
509.67	649.06
509.887	688.06
510.103	667.06
510.319	660.06
510.536	663.06
510.752	651.06
510.968	650.06
511.184	642.06
511.401	643.06
511.617	655.06
511.833	661.06
512.049	671.06
512.265	660.06
512.481	671.06
512.698	653.06
512.914	660.06
513.13	666.06
513.346	673.06
513.562	657.06
513.778	656.06
513.994	667.06
514.21	665.06
514.426	669.06
514.642	680.06
514.858	684.06
515.074	681.06
515.29	709.06
515.506	695.06
515.721	695.06
515.937	691.06
516.153	698.06
516.369	741.06
516.585	779.06
516.801	769.06
517.016	789.06
517.232	843.06
517.448	855.06
517.664	897.06
517.879	913.06
518.095	908.06
518.311	891.06
518.527	860.06
518.742	815.06
518.958	775.06
519.173	757.06
519.389	731.06
519.605	709.06
519.82	705.06
520.036	674.06
520.251	682.06
520.467	679.06
520.682	673.06
520.898	667.06
521.113	665.06
521.329	671.06
521.544	630.06
521.76	661.06
521.975	617.06
522.19	632.06
522.406	641.06
522.621	617.06
522.836	638.06
523.052	623.06
523.267	615.06
523.482	631.06
523.698	633.06
523.913	609.06
524.128	613.06
524.343	596.06
524.559	619.06
524.774	621.06
524.989	609.06
525.204	630.06
525.419	625.06
525.634	621.06
525.849	606.06
526.064	613.06
526.28	627.06
526.495	591.06
526.71	604.06
526.925	597.06
527.14	620.06
527.355	607.06
527.57	593.06
527.785	613.06
527.999	600.06
528.214	609.06
528.429	590.06
528.644	618.06
528.859	605.06
529.074	596.06
529.289	590.06
529.503	623.06
529.718	634.06
529.933	597.06
530.148	573.06
530.363	581.06
530.577	566.06
530.792	610.06
531.007	589.06
531.221	604.06
531.436	603.06
531.651	572.06
531.865	593.06
532.08	589.06
532.295	583.06
532.509	589.06
532.724	600.06
532.938	597.06
533.153	606.06
533.367	584.06
533.582	596.06
533.796	595.06
534.011	586.06
534.225	609.06
534.44	583.06
534.654	594.06
534.868	587.06
535.083	569.06
535.297	589.06
535.511	584.06
535.726	580.06
535.94	568.06
536.154	579.06
536.369	559.06
536.583	553.06
536.797	554.06
537.011	540.06
537.225	548.06
537.44	549.06
537.654	559.06
537.868	549.06
538.082	528.06
538.296	541.06
538.51	537.06
538.724	564.06
538.938	549.06
539.153	525.06
539.367	537.06
539.581	552.06
539.795	537.06
540.009	529.06
540.222	556.06
540.436	511.06
540.65	536.06
540.864	546.06
541.078	548.06
541.292	552.06
541.506	551.06
541.72	553.06
541.934	542.06
542.147	547.06
542.361	557.06
542.575	529.06
542.789	548.06
543.002	531.06
543.216	514.06
543.43	540.06
543.644	514.06
543.857	545.06
544.071	559.06
544.285	569.06
544.498	554.06
544.712	552.06
544.925	553.06
545.139	571.06
545.352	560.06
545.566	555.06
545.779	555.06
545.993	569.06
546.206	551.06
546.42	539.06
546.633	560.06
546.847	556.06
547.06	543.06
547.274	573.06
547.487	559.06
547.7	569.06
547.914	581.06
548.127	584.06
548.34	573.06
548.554	569.06
548.767	548.06
548.98	556.06
549.193	581.06
549.407	569.06
549.62	581.06
549.833	579.06
550.046	551.06
550.259	568.06
550.473	547.06
550.686	559.06
550.899	537.06
551.112	555.06
551.325	548.06
551.538	538.06
551.751	549.06
551.964	557.06
552.177	575.06
552.39	548.06
552.603	580.06
552.816	590.06
553.029	583.06
553.242	587.06
553.455	612.06
553.667	594.06
553.88	603.06
554.093	587.06
554.306	569.06
554.519	558.06
554.732	556.06
554.944	541.06
555.157	537.06
555.37	512.06
555.583	516.06
555.795	520.06
556.008	520.06
556.221	516.06
556.433	516.06
556.646	496.06
556.859	484.06
557.071	480.06
557.284	490.06
557.496	499.06
557.709	461.06
557.921	488.06
558.134	468.06
558.346	464.06
558.559	471.06
558.771	489.06
558.984	474.06
559.196	452.06
559.409	462.06
559.621	455.06
559.833	466.06
560.046	460.06
560.258	457.06
560.47	461.06
560.683	449.06
560.895	439.06
561.107	455.06
561.32	472.06
561.532	470.06
561.744	447.06
561.956	466.06
562.168	458.06
562.381	479.06
562.593	461.06
562.805	484.06
563.017	469.06
563.229	463.06
563.441	469.06
563.653	456.06
563.865	474.06
564.077	468.06
564.289	469.06
564.501	499.06
564.713	477.06
564.925	476.06
565.137	500.06
565.349	515.06
565.561	512.06
565.773	533.06
565.985	559.06
566.197	569.06
566.408	623.06
566.62	658.06
566.832	680.06
567.044	733.06
567.255	702.06
567.467	755.06
567.679	758.06
567.891	820.06
568.102	832.06
568.314	800.06
568.526	735.06
568.737	648.06
568.949	626.06
569.161	569.06
569.372	520.06
569.584	506.06
569.795	489.06
570.007	484.06
570.218	461.06
570.43	475.06
570.641	471.06
570.853	455.06
571.064	464.06
571.276	487.06
571.487	450.06
571.698	436.06
571.91	419.06
572.121	416.06
572.333	404.06
572.544	384.06
572.755	413.06
572.966	391.06
573.178	395.06
573.389	397.06
573.6	373.06
573.811	391.06
574.023	369.06
574.234	369.06
574.445	367.06
574.656	367.06
574.867	387.06
575.078	372.06
575.289	362.06
575.501	363.06
575.712	363.06
575.923	363.06
576.134	358.06
576.345	347.06
576.556	351.06
576.767	353.06
576.978	349.06
577.188	353.06
577.399	344.06
577.61	331.06
577.821	339.06
578.032	339.06
578.243	362.06
578.454	351.06
578.665	342.06
578.875	337.06
579.086	319.06
579.297	333.06
579.508	329.06
579.718	352.06
579.929	330.06
580.14	320.06
580.35	314.06
580.561	339.06
580.772	329.06
580.982	331.06
581.193	325.06
581.403	316.06
581.614	325.06
581.825	325.06
582.035	313.06
582.246	309.06
582.456	338.06
582.667	311.06
582.877	322.06
583.087	331.06
583.298	312.06
583.508	331.06
583.719	315.06
583.929	324.06
584.139	328.06
584.35	312.06
584.56	317.06
584.77	307.06
584.981	308.06
585.191	320.06
585.401	307.06
585.611	322.06
585.821	312.06
586.032	310.06
586.242	319.06
586.452	304.06
586.662	313.06
586.872	302.06
587.082	316.06
587.292	311.06
587.502	309.06
587.713	319.06
587.923	312.06
588.133	307.06
588.343	304.06
588.553	305.06
588.762	323.06
588.972	315.06
589.182	350.06
589.392	337.06
589.602	308.06
589.812	320.06
590.022	319.06
590.232	310.06
590.441	319.06
590.651	315.06
590.861	306.06
591.071	313.06
591.281	322.06
591.49	320.06
591.7	322.06
591.91	334.06
592.119	340.06
592.329	330.06
592.539	342.06
592.748	362.06
592.958	361.06
593.167	357.06
593.377	376.06
593.587	395.06
593.796	394.06
594.006	385.06
594.215	377.06
594.424	375.06
594.634	371.06
594.843	364.06
595.053	347.06
595.262	337.06
595.472	324.06
595.681	316.06
595.89	308.06
596.1	305.06
596.309	296.06
596.518	295.06
596.727	306.06
596.937	296.06
597.146	281.06
597.355	267.06
597.564	298.06
597.774	287.06
597.983	268.06
598.192	279.06
598.401	275.06
598.61	280.06
598.819	266.06
599.028	275.06
599.237	275.06
599.446	264.06
599.655	248.06
599.864	266.06
600.073	272.06
600.282	277.06
600.491	260.06
600.7	263.06
600.909	273.06
601.118	267.06
601.327	263.06
601.536	247.06
601.745	259.06
601.953	253.06
602.162	258.06
602.371	255.06
602.58	269.06
602.789	257.06
602.997	258.06
603.206	252.06
603.415	251.06
603.623	241.06
603.832	263.06
604.041	235.06
604.249	250.06
604.458	246.06
604.666	249.06
604.875	247.06
605.084	245.06
605.292	234.06
605.501	232.06
605.709	248.06
605.918	225.06
606.126	257.06
606.334	250.06
606.543	258.06
606.751	231.06
606.96	216.06
607.168	243.06
607.376	210.06
607.585	223.06
607.793	246.06
608.001	235.06
608.21	240.06
608.418	228.06
608.626	223.06
608.834	232.06
609.043	233.06
609.251	230.06
609.459	233.06
609.667	217.06
609.875	233.06
610.083	215.06
610.291	236.06
610.499	220.06
610.707	243.06
610.916	241.06
611.124	218.06
611.332	239.06
611.54	232.06
611.748	223.06
611.955	232.06
612.163	250.06
612.371	241.06
612.579	228.06
612.787	211.06
612.995	218.06
613.203	229.06
613.411	218.06
613.618	236.06
613.826	256.06
614.034	221.06
614.242	224.06
614.449	232.06
614.657	222.06
614.865	226.06
615.072	231.06
615.28	217.06
615.488	207.06
615.695	237.06
615.903	228.06
616.111	240.06
616.318	230.06
616.526	245.06
616.733	243.06
616.941	225.06
617.148	234.06
617.356	215.06
617.563	224.06
617.771	217.06
617.978	242.06
618.185	225.06
618.393	229.06
618.6	226.06
618.807	212.06
619.015	209.06
619.222	213.06
619.429	223.06
619.637	219.06
619.844	237.06
620.051	233.06
620.258	212.06
620.466	212.06
620.673	206.06
620.88	212.06
621.087	222.06
621.294	207.06
621.501	210.06
621.708	207.06
621.915	214.06
622.122	216.06
622.329	211.06
622.536	212.06
622.743	192.06
622.95	214.06
623.157	209.06
623.364	217.06
623.571	214.06
623.778	196.06
623.985	215.06
624.192	202.06
624.399	204.06
624.606	204.06
624.812	203.06
625.019	192.06
625.226	200.06
625.433	204.06
625.639	192.06
625.846	205.06
626.053	200.06
626.259	198.06
626.466	200.06
626.673	190.06
626.879	185.06
627.086	193.06
627.293	197.06
627.499	171.06
627.706	189.06
627.912	201.06
628.119	199.06
628.325	185.06
628.532	189.06
628.738	188.06
628.945	186.06
629.151	183.06
629.357	180.06
629.564	183.06
629.77	203.06
629.976	173.06
630.183	203.06
630.389	199.06
630.595	196.06
630.802	193.06
631.008	178.06
631.214	203.06
631.42	193.06
631.627	177.06
631.833	167.06
632.039	185.06
632.245	185.06
632.451	189.06
632.657	178.06
632.863	176.06
633.069	170.06
633.275	173.06
633.481	183.06
633.688	168.06
633.893	167.06
634.099	159.06
634.305	170.06
634.511	168.06
634.717	188.06
634.923	186.06
635.129	179.06
635.335	175.06
635.541	166.06
635.747	153.06
635.952	154.06
636.158	170.06
636.364	169.06
636.57	181.06
636.775	183.06
636.981	170.06
637.187	177.06
637.392	168.06
637.598	180.06
637.804	180.06
638.009	186.06
638.215	168.06
638.421	161.06
638.626	179.06
638.832	179.06
639.037	154.06
639.243	159.06
639.448	173.06
639.654	168.06
639.859	180.06
640.065	161.06
640.27	175.06
640.475	170.06
640.681	153.06
640.886	164.06
641.091	163.06
641.297	159.06
641.502	163.06
641.707	161.06
641.913	170.06
642.118	179.06
642.323	168.06
642.528	179.06
642.733	151.06
642.939	152.06
643.144	165.06
643.349	157.06
643.554	169.06
643.759	183.06
643.964	162.06
644.169	164.06
644.374	154.06
644.579	148.06
644.784	162.06
644.989	151.06
645.194	156.06
645.399	162.06
645.604	165.06
645.809	159.06
646.014	150.06
646.219	162.06
646.423	155.06
646.628	159.06
646.833	159.06
647.038	165.06
647.243	173.06
647.447	172.06
647.652	161.06
647.857	141.06
648.062	171.06
648.266	172.06
648.471	170.06
648.676	172.06
648.88	182.06
649.085	162.06
649.289	155.06
649.494	157.06
649.698	145.06
649.903	176.06
650.107	164.06
650.312	158.06
650.516	139.06
650.721	155.06
650.925	158.06
651.13	152.06
651.334	153.06
651.539	155.06
651.743	143.06
651.947	148.06
652.152	149.06
652.356	135.06
652.56	124.06
652.764	148.06
652.969	149.06
653.173	127.06
653.377	143.06
653.581	134.06
653.785	128.06
653.99	138.06
654.194	130.06
654.398	134.06
654.602	140.06
654.806	143.06
655.01	119.06
655.214	119.06
655.418	141.06
655.622	139.06
655.826	133.06
656.03	138.06
656.234	135.06
656.438	132.06
656.642	137.06
656.846	129.06
657.049	124.06
657.253	137.06
657.457	123.06
657.661	127.06
657.865	128.06
658.068	104.06
658.272	108.06
658.476	108.06
658.68	106.06
658.883	99.06
659.087	102.06
659.291	114.06
659.494	98.06
659.698	99.06
659.901	105.06
660.105	95.06
660.309	91.06
660.512	97.06
660.716	81.06
660.919	92.06
661.123	100.06
661.326	97.06
661.53	83.06
661.733	89.06
661.936	94.06
662.14	89.06
662.343	89.06
662.546	66.06
662.75	77.06
662.953	86.06
663.156	87.06
663.36	76.06
663.563	84.06
663.766	74.06
663.969	77.06
664.173	88.06
664.376	81.06
664.579	90.06
664.782	104.06
664.985	89.06
665.188	80.06
665.391	75.06
665.594	85.06
665.797	84.06
666	95.06
666.203	86.06
666.406	78.06
666.609	70.06
666.812	85.06
667.015	89.06
667.218	98.06
667.421	81.06
667.624	79.06
667.827	85.06
668.03	77.06
668.232	89.06
668.435	91.06
668.638	82.06
668.841	71.06
669.043	83.06
669.246	96.06
669.449	80.06
669.651	87.06
669.854	79.06
670.057	74.06
670.259	92.06
670.462	89.06
670.665	83.06
670.867	82.06
671.07	69.06
671.272	86.06
671.475	86.06
671.677	81.06
671.88	91.06
672.082	90.06
672.284	80.06
672.487	88.06
672.689	79.06
672.892	79.06
