Data from NiCl2@0.0625M.TitratingCurve.Agarose3%dH2O.NegLispCup.LampEnergy10.LIBS07252019_HRD10591_18-34-51-577.txt Node
Date: Thu Jul 25 18:34:51 EDT 2019
User: cochatt
Spectrometer: HR+D1059
Trigger mode: 1
Integration Time (sec): 1.000000E-1
Scans to average: 1
Electric dark correction enabled: true
Nonlinearity correction enabled: false
Boxcar width: 0
XAxis mode: Wavelengths
Number of Pixels in Spectrum: 2048
>>>>>Begin Spectral Data<<<<<
223.165	-18.25
223.4	-18.25
223.635	-18.25
223.869	-28.25
224.104	-23.25
224.338	-4.25
224.573	-13.25
224.808	-2.25
225.042	-7.25
225.277	-12.25
225.511	8.75
225.746	10.75
225.98	-7.25
226.215	15.75
226.449	7.75
226.683	18.75
226.918	29.75
227.152	24.75
227.387	25.75
227.621	39.75
227.856	31.75
228.09	49.75
228.324	39.75
228.559	60.75
228.793	75.75
229.027	101.75
229.262	125.75
229.496	147.75
229.73	135.75
229.964	125.75
230.199	147.75
230.433	156.75
230.667	153.75
230.901	147.75
231.136	146.75
231.37	154.75
231.604	153.75
231.838	170.75
232.072	169.75
232.306	162.75
232.541	165.75
232.775	169.75
233.009	177.75
233.243	170.75
233.477	183.75
233.711	163.75
233.945	184.75
234.179	178.75
234.413	181.75
234.647	170.75
234.881	158.75
235.115	161.75
235.349	177.75
235.583	166.75
235.817	188.75
236.051	184.75
236.285	201.75
236.519	194.75
236.753	188.75
236.987	173.75
237.221	190.75
237.455	186.75
237.689	186.75
237.922	177.75
238.156	182.75
238.39	179.75
238.624	187.75
238.858	193.75
239.091	186.75
239.325	195.75
239.559	189.75
239.793	211.75
240.027	221.75
240.26	215.75
240.494	214.75
240.728	218.75
240.961	190.75
241.195	215.75
241.429	236.75
241.662	213.75
241.896	219.75
242.13	233.75
242.363	227.75
242.597	232.75
242.83	253.75
243.064	233.75
243.298	245.75
243.531	254.75
243.765	254.75
243.998	257.75
244.232	251.75
244.465	265.75
244.699	259.75
244.932	257.75
245.166	255.75
245.399	265.75
245.633	259.75
245.866	283.75
246.099	260.75
246.333	289.75
246.566	269.75
246.8	284.75
247.033	277.75
247.266	269.75
247.5	272.75
247.733	293.75
247.966	279.75
248.2	304.75
248.433	295.75
248.666	286.75
248.899	304.75
249.133	305.75
249.366	311.75
249.599	298.75
249.832	298.75
250.066	308.75
250.299	312.75
250.532	317.75
250.765	307.75
250.998	321.75
251.231	326.75
251.465	315.75
251.698	324.75
251.931	325.75
252.164	319.75
252.397	333.75
252.63	328.75
252.863	327.75
253.096	341.75
253.329	327.75
253.562	352.75
253.795	322.75
254.028	356.75
254.261	332.75
254.494	365.75
254.727	354.75
254.96	343.75
255.193	348.75
255.426	352.75
255.659	351.75
255.892	381.75
256.124	345.75
256.357	365.75
256.59	360.75
256.823	348.75
257.056	378.75
257.289	358.75
257.521	349.75
257.754	370.75
257.987	372.75
258.22	389.75
258.452	399.75
258.685	401.75
258.918	387.75
259.151	394.75
259.383	386.75
259.616	365.75
259.849	387.75
260.081	387.75
260.314	389.75
260.547	406.75
260.779	400.75
261.012	396.75
261.244	401.75
261.477	395.75
261.71	400.75
261.942	407.75
262.175	415.75
262.407	422.75
262.64	417.75
262.872	421.75
263.105	420.75
263.337	421.75
263.57	423.75
263.802	453.75
264.035	425.75
264.267	447.75
264.499	438.75
264.732	433.75
264.964	431.75
265.197	427.75
265.429	440.75
265.661	429.75
265.894	441.75
266.126	444.75
266.358	450.75
266.591	465.75
266.823	462.75
267.055	461.75
267.287	459.75
267.52	462.75
267.752	463.75
267.984	457.75
268.216	481.75
268.448	482.75
268.681	489.75
268.913	474.75
269.145	457.75
269.377	471.75
269.609	486.75
269.841	477.75
270.073	473.75
270.306	480.75
270.538	472.75
270.77	468.75
271.002	503.75
271.234	478.75
271.466	483.75
271.698	505.75
271.93	495.75
272.162	499.75
272.394	487.75
272.626	491.75
272.858	495.75
273.09	504.75
273.322	479.75
273.553	509.75
273.785	519.75
274.017	497.75
274.249	521.75
274.481	509.75
274.713	535.75
274.945	548.75
275.176	534.75
275.408	538.75
275.64	529.75
275.872	535.75
276.104	529.75
276.335	530.75
276.567	554.75
276.799	536.75
277.031	540.75
277.262	543.75
277.494	533.75
277.726	542.75
277.957	561.75
278.189	559.75
278.421	541.75
278.652	557.75
278.884	562.75
279.115	538.75
279.347	562.75
279.579	562.75
279.81	550.75
280.042	562.75
280.273	592.75
280.505	590.75
280.736	606.75
280.968	582.75
281.199	610.75
281.431	579.75
281.662	606.75
281.894	578.75
282.125	602.75
282.356	613.75
282.588	586.75
282.819	598.75
283.051	613.75
283.282	617.75
283.513	631.75
283.745	612.75
283.976	621.75
284.207	603.75
284.439	616.75
284.67	615.75
284.901	631.75
285.132	623.75
285.364	636.75
285.595	641.75
285.826	627.75
286.057	621.75
286.288	619.75
286.52	627.75
286.751	640.75
286.982	627.75
287.213	615.75
287.444	639.75
287.675	665.75
287.906	627.75
288.138	615.75
288.369	641.75
288.6	639.75
288.831	655.75
289.062	664.75
289.293	664.75
289.524	648.75
289.755	648.75
289.986	678.75
290.217	680.75
290.448	679.75
290.679	653.75
290.91	664.75
291.141	669.75
291.371	667.75
291.602	680.75
291.833	666.75
292.064	697.75
292.295	641.75
292.526	669.75
292.757	681.75
292.987	652.75
293.218	678.75
293.449	691.75
293.68	695.75
293.91	681.75
294.141	671.75
294.372	680.75
294.603	664.75
294.833	681.75
295.064	669.75
295.295	673.75
295.525	663.75
295.756	693.75
295.987	675.75
296.217	681.75
296.448	675.75
296.679	707.75
296.909	726.75
297.14	713.75
297.37	697.75
297.601	720.75
297.831	705.75
298.062	700.75
298.292	694.75
298.523	739.75
298.753	741.75
298.984	724.75
299.214	723.75
299.445	730.75
299.675	715.75
299.905	717.75
300.136	734.75
300.366	725.75
300.597	722.75
300.827	742.75
301.057	765.75
301.288	773.75
301.518	755.75
301.748	753.75
301.979	770.75
302.209	782.75
302.439	769.75
302.669	754.75
302.9	753.75
303.13	769.75
303.36	763.75
303.59	791.75
303.82	755.75
304.051	780.75
304.281	756.75
304.511	754.75
304.741	774.75
304.971	755.75
305.201	751.75
305.431	747.75
305.661	766.75
305.891	775.75
306.121	772.75
306.352	750.75
306.582	735.75
306.812	771.75
307.042	753.75
307.272	735.75
307.502	752.75
307.731	738.75
307.961	741.75
308.191	755.75
308.421	764.75
308.651	769.75
308.881	751.75
309.111	710.75
309.341	756.75
309.571	742.75
309.8	765.75
310.03	756.75
310.26	783.75
310.49	738.75
310.72	746.75
310.949	757.75
311.179	774.75
311.409	743.75
311.639	762.75
311.868	786.75
312.098	773.75
312.328	808.75
312.557	780.75
312.787	779.75
313.017	798.75
313.246	779.75
313.476	786.75
313.706	797.75
313.935	794.75
314.165	799.75
314.394	797.75
314.624	834.75
314.853	814.75
315.083	804.75
315.312	825.75
315.542	829.75
315.771	808.75
316.001	791.75
316.23	797.75
316.46	791.75
316.689	790.75
316.919	809.75
317.148	825.75
317.377	803.75
317.607	794.75
317.836	792.75
318.065	791.75
318.295	798.75
318.524	790.75
318.753	790.75
318.983	815.75
319.212	796.75
319.441	818.75
319.67	786.75
319.9	814.75
320.129	794.75
320.358	814.75
320.587	815.75
320.816	803.75
321.046	826.75
321.275	825.75
321.504	821.75
321.733	826.75
321.962	824.75
322.191	825.75
322.42	835.75
322.649	801.75
322.878	803.75
323.108	815.75
323.337	818.75
323.566	843.75
323.795	826.75
324.024	825.75
324.253	818.75
324.482	820.75
324.71	817.75
324.939	826.75
325.168	809.75
325.397	837.75
325.626	834.75
325.855	858.75
326.084	880.75
326.313	855.75
326.542	872.75
326.77	900.75
326.999	869.75
327.228	845.75
327.457	837.75
327.686	847.75
327.914	851.75
328.143	867.75
328.372	864.75
328.6	884.75
328.829	869.75
329.058	865.75
329.287	849.75
329.515	884.75
329.744	854.75
329.972	923.75
330.201	890.75
330.43	857.75
330.658	914.75
330.887	887.75
331.115	913.75
331.344	911.75
331.572	910.75
331.801	916.75
332.03	930.75
332.258	968.75
332.486	958.75
332.715	999.75
332.943	1005.75
333.172	1063.75
333.4	1066.75
333.629	1081.75
333.857	1104.75
334.085	1106.75
334.314	1096.75
334.542	1079.75
334.771	1107.75
334.999	1065.75
335.227	1095.75
335.455	1097.75
335.684	1095.75
335.912	1054.75
336.14	1058.75
336.369	1061.75
336.597	1061.75
336.825	1039.75
337.053	1025.75
337.281	1060.75
337.51	1033.75
337.738	1001.75
337.966	1001.75
338.194	957.75
338.422	962.75
338.65	965.75
338.878	953.75
339.106	983.75
339.334	968.75
339.562	943.75
339.79	952.75
340.018	929.75
340.246	929.75
340.474	946.75
340.702	909.75
340.93	950.75
341.158	936.75
341.386	935.75
341.614	921.75
341.842	885.75
342.07	914.75
342.298	916.75
342.526	908.75
342.754	899.75
342.981	932.75
343.209	931.75
343.437	963.75
343.665	1033.75
343.893	1052.75
344.12	1088.75
344.348	1085.75
344.576	1034.75
344.804	980.75
345.031	959.75
345.259	946.75
345.487	919.75
345.714	904.75
345.942	927.75
346.17	915.75
346.397	911.75
346.625	912.75
346.853	882.75
347.08	894.75
347.308	873.75
347.535	882.75
347.763	888.75
347.99	872.75
348.218	866.75
348.445	878.75
348.673	881.75
348.9	878.75
349.128	904.75
349.355	862.75
349.583	849.75
349.81	893.75
350.037	837.75
350.265	830.75
350.492	873.75
350.72	844.75
350.947	839.75
351.174	846.75
351.402	891.75
351.629	831.75
351.856	859.75
352.083	846.75
352.311	846.75
352.538	843.75
352.765	844.75
352.992	849.75
353.22	844.75
353.447	862.75
353.674	837.75
353.901	832.75
354.128	832.75
354.355	826.75
354.583	829.75
354.81	861.75
355.037	845.75
355.264	872.75
355.491	874.75
355.718	838.75
355.945	858.75
356.172	844.75
356.399	857.75
356.626	864.75
356.853	851.75
357.08	863.75
357.307	853.75
357.534	864.75
357.761	820.75
357.988	850.75
358.215	849.75
358.441	835.75
358.668	849.75
358.895	865.75
359.122	856.75
359.349	848.75
359.576	869.75
359.802	852.75
360.029	843.75
360.256	855.75
360.483	847.75
360.709	854.75
360.936	849.75
361.163	862.75
361.39	854.75
361.616	845.75
361.843	856.75
362.07	862.75
362.296	859.75
362.523	857.75
362.749	851.75
362.976	849.75
363.203	875.75
363.429	858.75
363.656	862.75
363.882	869.75
364.109	863.75
364.335	882.75
364.562	851.75
364.788	865.75
365.015	878.75
365.241	849.75
365.468	828.75
365.694	855.75
365.92	843.75
366.147	847.75
366.373	867.75
366.599	855.75
366.826	868.75
367.052	851.75
367.278	878.75
367.505	850.75
367.731	863.75
367.957	899.75
368.184	856.75
368.41	897.75
368.636	879.75
368.862	864.75
369.089	864.75
369.315	919.75
369.541	899.75
369.767	893.75
369.993	890.75
370.219	920.75
370.445	901.75
370.672	901.75
370.898	920.75
371.124	910.75
371.35	946.75
371.576	934.75
371.802	915.75
372.028	945.75
372.254	897.75
372.48	923.75
372.706	954.75
372.932	951.75
373.158	954.75
373.384	915.75
373.61	902.75
373.835	943.75
374.061	961.75
374.287	918.75
374.513	936.75
374.739	967.75
374.965	1002.75
375.191	1009.75
375.416	988.75
375.642	997.75
375.868	981.75
376.094	934.75
376.319	935.75
376.545	946.75
376.771	953.75
376.997	903.75
377.222	926.75
377.448	893.75
377.674	914.75
377.899	933.75
378.125	890.75
378.35	901.75
378.576	866.75
378.802	899.75
379.027	891.75
379.253	898.75
379.478	908.75
379.704	934.75
379.929	899.75
380.155	903.75
380.38	896.75
380.606	947.75
380.831	915.75
381.057	934.75
381.282	930.75
381.507	929.75
381.733	933.75
381.958	919.75
382.184	956.75
382.409	937.75
382.634	947.75
382.86	965.75
383.085	947.75
383.31	988.75
383.535	994.75
383.761	966.75
383.986	993.75
384.211	1005.75
384.436	1039.75
384.662	1042.75
384.887	1056.75
385.112	1069.75
385.337	1050.75
385.562	1079.75
385.787	1073.75
386.013	1107.75
386.238	1092.75
386.463	1054.75
386.688	1104.75
386.913	1054.75
387.138	1086.75
387.363	1066.75
387.588	1092.75
387.813	1094.75
388.038	1074.75
388.263	1066.75
388.488	1081.75
388.713	1102.75
388.938	1122.75
389.163	1107.75
389.387	1085.75
389.612	1060.75
389.837	1085.75
390.062	1022.75
390.287	1090.75
390.512	1095.75
390.736	1098.75
390.961	1122.75
391.186	1108.75
391.411	1100.75
391.636	1167.75
391.86	1205.75
392.085	1199.75
392.31	1192.75
392.534	1196.75
392.759	1173.75
392.984	1183.75
393.208	1168.75
393.433	1143.75
393.658	1156.75
393.882	1149.75
394.107	1152.75
394.331	1122.75
394.556	1159.75
394.78	1179.75
395.005	1155.75
395.229	1168.75
395.454	1184.75
395.678	1233.75
395.903	1209.75
396.127	1197.75
396.352	1162.75
396.576	1190.75
396.801	1141.75
397.025	1199.75
397.249	1211.75
397.474	1218.75
397.698	1182.75
397.922	1247.75
398.147	1243.75
398.371	1256.75
398.595	1271.75
398.82	1341.75
399.044	1401.75
399.268	1499.75
399.492	1635.75
399.717	1767.75
399.941	1825.75
400.165	1693.75
400.389	1624.75
400.613	1493.75
400.837	1447.75
401.062	1367.75
401.286	1337.75
401.51	1349.75
401.734	1354.75
401.958	1362.75
402.182	1358.75
402.406	1352.75
402.63	1348.75
402.854	1399.75
403.078	1397.75
403.302	1403.75
403.526	1434.75
403.75	1450.75
403.974	1447.75
404.198	1467.75
404.422	1468.75
404.645	1446.75
404.869	1471.75
405.093	1461.75
405.317	1432.75
405.541	1433.75
405.765	1453.75
405.988	1441.75
406.212	1451.75
406.436	1468.75
406.66	1495.75
406.883	1523.75
407.107	1583.75
407.331	1649.75
407.555	1695.75
407.778	1685.75
408.002	1631.75
408.226	1633.75
408.449	1605.75
408.673	1552.75
408.896	1523.75
409.12	1495.75
409.344	1512.75
409.567	1480.75
409.791	1487.75
410.014	1479.75
410.238	1463.75
410.461	1497.75
410.685	1456.75
410.908	1446.75
411.132	1420.75
411.355	1445.75
411.578	1415.75
411.802	1392.75
412.025	1413.75
412.249	1441.75
412.472	1405.75
412.695	1387.75
412.919	1369.75
413.142	1357.75
413.365	1371.75
413.589	1366.75
413.812	1354.75
414.035	1345.75
414.258	1317.75
414.482	1346.75
414.705	1354.75
414.928	1378.75
415.151	1341.75
415.374	1347.75
415.597	1351.75
415.821	1305.75
416.044	1311.75
416.267	1323.75
416.49	1311.75
416.713	1321.75
416.936	1334.75
417.159	1298.75
417.382	1311.75
417.605	1231.75
417.828	1282.75
418.051	1328.75
418.274	1314.75
418.497	1336.75
418.72	1333.75
418.943	1313.75
419.166	1365.75
419.389	1477.75
419.611	1457.75
419.834	1392.75
420.057	1370.75
420.28	1311.75
420.503	1277.75
420.726	1275.75
420.948	1303.75
421.171	1278.75
421.394	1272.75
421.617	1320.75
421.839	1338.75
422.062	1279.75
422.285	1268.75
422.507	1321.75
422.73	1331.75
422.953	1319.75
423.175	1288.75
423.398	1313.75
423.621	1295.75
423.843	1340.75
424.066	1373.75
424.288	1316.75
424.511	1317.75
424.733	1318.75
424.956	1318.75
425.178	1288.75
425.401	1295.75
425.623	1307.75
425.846	1269.75
426.068	1265.75
426.291	1269.75
426.513	1250.75
426.735	1249.75
426.958	1247.75
427.18	1222.75
427.402	1206.75
427.625	1225.75
427.847	1201.75
428.069	1183.75
428.292	1198.75
428.514	1175.75
428.736	1185.75
428.958	1189.75
429.181	1169.75
429.403	1173.75
429.625	1174.75
429.847	1148.75
430.069	1171.75
430.292	1169.75
430.514	1161.75
430.736	1174.75
430.958	1176.75
431.18	1170.75
431.402	1178.75
431.624	1181.75
431.846	1210.75
432.068	1235.75
432.29	1210.75
432.512	1197.75
432.734	1215.75
432.956	1183.75
433.178	1183.75
433.4	1191.75
433.622	1216.75
433.844	1213.75
434.066	1227.75
434.287	1223.75
434.509	1227.75
434.731	1312.75
434.953	1290.75
435.175	1305.75
435.397	1286.75
435.618	1218.75
435.84	1237.75
436.062	1199.75
436.284	1169.75
436.505	1202.75
436.727	1188.75
436.949	1185.75
437.17	1198.75
437.392	1155.75
437.614	1158.75
437.835	1108.75
438.057	1138.75
438.278	1118.75
438.5	1151.75
438.721	1149.75
438.943	1152.75
439.165	1149.75
439.386	1173.75
439.608	1152.75
439.829	1153.75
440.05	1175.75
440.272	1167.75
440.493	1165.75
440.715	1177.75
440.936	1189.75
441.158	1237.75
441.379	1234.75
441.6	1292.75
441.822	1297.75
442.043	1277.75
442.264	1291.75
442.486	1254.75
442.707	1237.75
442.928	1224.75
443.149	1272.75
443.371	1239.75
443.592	1291.75
443.813	1294.75
444.034	1269.75
444.255	1313.75
444.476	1347.75
444.698	1380.75
444.919	1428.75
445.14	1557.75
445.361	1442.75
445.582	1323.75
445.803	1287.75
446.024	1255.75
446.245	1256.75
446.466	1213.75
446.687	1176.75
446.908	1181.75
447.129	1121.75
447.35	1153.75
447.571	1115.75
447.792	1087.75
448.013	1095.75
448.234	1090.75
448.455	1097.75
448.675	1086.75
448.896	1089.75
449.117	1055.75
449.338	1065.75
449.559	1062.75
449.779	1024.75
450	1046.75
450.221	1079.75
450.442	1041.75
450.662	1046.75
450.883	1050.75
451.104	1080.75
451.324	1075.75
451.545	1085.75
451.766	1089.75
451.986	1032.75
452.207	1047.75
452.428	1039.75
452.648	1100.75
452.869	1024.75
453.089	1024.75
453.31	1046.75
453.53	1046.75
453.751	1019.75
453.971	996.75
454.192	1031.75
454.412	994.75
454.633	1011.75
454.853	1023.75
455.073	986.75
455.294	1023.75
455.514	1008.75
455.734	980.75
455.955	993.75
456.175	980.75
456.395	980.75
456.616	986.75
456.836	989.75
457.056	992.75
457.276	1024.75
457.497	993.75
457.717	995.75
457.937	999.75
458.157	1032.75
458.377	1044.75
458.598	1038.75
458.818	1097.75
459.038	1144.75
459.258	1154.75
459.478	1168.75
459.698	1191.75
459.918	1209.75
460.138	1240.75
460.358	1261.75
460.578	1295.75
460.798	1303.75
461.018	1344.75
461.238	1351.75
461.458	1325.75
461.678	1322.75
461.898	1328.75
462.118	1360.75
462.338	1413.75
462.558	1419.75
462.777	1464.75
462.997	1573.75
463.217	1608.75
463.437	1665.75
463.657	1576.75
463.876	1530.75
464.096	1518.75
464.316	1494.75
464.536	1538.75
464.755	1494.75
464.975	1447.75
465.195	1360.75
465.414	1322.75
465.634	1263.75
465.854	1241.75
466.073	1191.75
466.293	1192.75
466.512	1133.75
466.732	1125.75
466.951	1124.75
467.171	1124.75
467.391	1121.75
467.61	1113.75
467.829	1123.75
468.049	1080.75
468.268	1093.75
468.488	1076.75
468.707	1071.75
468.927	1096.75
469.146	1095.75
469.365	1130.75
469.585	1104.75
469.804	1098.75
470.023	1143.75
470.243	1157.75
470.462	1149.75
470.681	1147.75
470.901	1130.75
471.12	1119.75
471.339	1137.75
471.558	1103.75
471.777	1100.75
471.997	1109.75
472.216	1093.75
472.435	1107.75
472.654	1077.75
472.873	1089.75
473.092	1093.75
473.311	1083.75
473.53	1040.75
473.749	1087.75
473.968	1034.75
474.187	1059.75
474.406	1057.75
474.625	1088.75
474.844	1070.75
475.063	1093.75
475.282	1081.75
475.501	1112.75
475.72	1108.75
475.939	1118.75
476.158	1127.75
476.377	1167.75
476.596	1097.75
476.814	1155.75
477.033	1140.75
477.252	1146.75
477.471	1146.75
477.69	1183.75
477.908	1213.75
478.127	1238.75
478.346	1257.75
478.564	1282.75
478.783	1264.75
479.002	1308.75
479.22	1312.75
479.439	1381.75
479.658	1352.75
479.876	1355.75
480.095	1317.75
480.313	1344.75
480.532	1391.75
480.751	1383.75
480.969	1375.75
481.188	1358.75
481.406	1291.75
481.624	1318.75
481.843	1270.75
482.061	1295.75
482.28	1287.75
482.498	1277.75
482.717	1257.75
482.935	1290.75
483.153	1318.75
483.372	1265.75
483.59	1315.75
483.808	1330.75
484.027	1321.75
484.245	1312.75
484.463	1375.75
484.681	1365.75
484.9	1337.75
485.118	1370.75
485.336	1384.75
485.554	1390.75
485.772	1364.75
485.99	1361.75
486.209	1378.75
486.427	1397.75
486.645	1402.75
486.863	1382.75
487.081	1367.75
487.299	1399.75
487.517	1375.75
487.735	1381.75
487.953	1364.75
488.171	1360.75
488.389	1353.75
488.607	1343.75
488.825	1347.75
489.043	1338.75
489.261	1322.75
489.479	1362.75
489.696	1322.75
489.914	1339.75
490.132	1351.75
490.35	1325.75
490.568	1342.75
490.786	1327.75
491.003	1320.75
491.221	1351.75
491.439	1354.75
491.657	1325.75
491.874	1329.75
492.092	1351.75
492.31	1329.75
492.527	1344.75
492.745	1344.75
492.963	1318.75
493.18	1337.75
493.398	1335.75
493.615	1368.75
493.833	1359.75
494.05	1354.75
494.268	1331.75
494.485	1354.75
494.703	1362.75
494.92	1364.75
495.138	1358.75
495.355	1370.75
495.573	1359.75
495.79	1381.75
496.008	1375.75
496.225	1395.75
496.442	1409.75
496.66	1429.75
496.877	1427.75
497.094	1478.75
497.312	1515.75
497.529	1494.75
497.746	1513.75
497.963	1589.75
498.181	1616.75
498.398	1703.75
498.615	1760.75
498.832	1860.75
499.049	1962.75
499.267	2108.75
499.484	2285.75
499.701	2475.75
499.918	2682.75
500.135	2937.75
500.352	3228.75
500.569	3297.75
500.786	3297.75
501.003	3090.75
501.22	2898.75
501.437	2621.75
501.654	2431.75
501.871	2236.75
502.088	2097.75
502.305	1956.75
502.522	1895.75
502.739	1786.75
502.956	1695.75
503.172	1680.75
503.389	1577.75
503.606	1568.75
503.823	1531.75
504.04	1503.75
504.256	1506.75
504.473	1506.75
504.69	1533.75
504.907	1484.75
505.123	1410.75
505.34	1360.75
505.557	1281.75
505.773	1273.75
505.99	1275.75
506.207	1227.75
506.423	1224.75
506.64	1216.75
506.856	1181.75
507.073	1192.75
507.289	1179.75
507.506	1187.75
507.722	1161.75
507.939	1171.75
508.155	1143.75
508.372	1136.75
508.588	1115.75
508.805	1112.75
509.021	1125.75
509.238	1109.75
509.454	1112.75
509.67	1137.75
509.887	1086.75
510.103	1062.75
510.319	1071.75
510.536	1077.75
510.752	1057.75
510.968	1067.75
511.184	1041.75
511.401	1031.75
511.617	1045.75
511.833	1065.75
512.049	1035.75
512.265	1033.75
512.481	1057.75
512.698	1046.75
512.914	1041.75
513.13	1046.75
513.346	1082.75
513.562	1050.75
513.778	1040.75
513.994	1056.75
514.21	1077.75
514.426	1057.75
514.642	1043.75
514.858	1093.75
515.074	1086.75
515.29	1124.75
515.506	1085.75
515.721	1103.75
515.937	1150.75
516.153	1197.75
516.369	1152.75
516.585	1208.75
516.801	1262.75
517.016	1245.75
517.232	1284.75
517.448	1305.75
517.664	1401.75
517.879	1371.75
518.095	1356.75
518.311	1346.75
518.527	1290.75
518.742	1259.75
518.958	1227.75
519.173	1202.75
519.389	1145.75
519.605	1122.75
519.82	1134.75
520.036	1104.75
520.251	1074.75
520.467	1072.75
520.682	1089.75
520.898	1058.75
521.113	1036.75
521.329	1021.75
521.544	998.75
521.76	1032.75
521.975	992.75
522.19	982.75
522.406	1011.75
522.621	978.75
522.836	986.75
523.052	980.75
523.267	956.75
523.482	980.75
523.698	947.75
523.913	988.75
524.128	964.75
524.343	963.75
524.559	957.75
524.774	967.75
524.989	975.75
525.204	947.75
525.419	949.75
525.634	906.75
525.849	941.75
526.064	963.75
526.28	925.75
526.495	957.75
526.71	936.75
526.925	909.75
527.14	911.75
527.355	903.75
527.57	938.75
527.785	919.75
527.999	920.75
528.214	941.75
528.429	953.75
528.644	949.75
528.859	920.75
529.074	927.75
529.289	919.75
529.503	926.75
529.718	929.75
529.933	918.75
530.148	901.75
530.363	922.75
530.577	914.75
530.792	923.75
531.007	898.75
531.221	921.75
531.436	902.75
531.651	897.75
531.865	895.75
532.08	933.75
532.295	901.75
532.509	897.75
532.724	921.75
532.938	906.75
533.153	927.75
533.367	916.75
533.582	950.75
533.796	930.75
534.011	910.75
534.225	911.75
534.44	903.75
534.654	888.75
534.868	898.75
535.083	873.75
535.297	872.75
535.511	901.75
535.726	897.75
535.94	890.75
536.154	856.75
536.369	843.75
536.583	850.75
536.797	859.75
537.011	878.75
537.225	883.75
537.44	858.75
537.654	855.75
537.868	869.75
538.082	858.75
538.296	855.75
538.51	863.75
538.724	823.75
538.938	823.75
539.153	825.75
539.367	856.75
539.581	837.75
539.795	858.75
540.009	852.75
540.222	815.75
540.436	810.75
540.65	807.75
540.864	821.75
541.078	831.75
541.292	804.75
541.506	807.75
541.72	805.75
541.934	800.75
542.147	809.75
542.361	817.75
542.575	795.75
542.789	787.75
543.002	819.75
543.216	802.75
543.43	819.75
543.644	818.75
543.857	814.75
544.071	838.75
544.285	807.75
544.498	807.75
544.712	809.75
544.925	841.75
545.139	856.75
545.352	838.75
545.566	847.75
545.779	823.75
545.993	833.75
546.206	819.75
546.42	817.75
546.633	839.75
546.847	828.75
547.06	815.75
547.274	815.75
547.487	816.75
547.7	811.75
547.914	829.75
548.127	823.75
548.34	852.75
548.554	815.75
548.767	843.75
548.98	840.75
549.193	846.75
549.407	851.75
549.62	849.75
549.833	863.75
550.046	829.75
550.259	831.75
550.473	819.75
550.686	798.75
550.899	835.75
551.112	835.75
551.325	812.75
551.538	829.75
551.751	805.75
551.964	826.75
552.177	829.75
552.39	838.75
552.603	819.75
552.816	856.75
553.029	866.75
553.242	875.75
553.455	874.75
553.667	885.75
553.88	868.75
554.093	853.75
554.306	821.75
554.519	839.75
554.732	821.75
554.944	800.75
555.157	785.75
555.37	782.75
555.583	790.75
555.795	789.75
556.008	765.75
556.221	720.75
556.433	738.75
556.646	728.75
556.859	756.75
557.071	722.75
557.284	721.75
557.496	755.75
557.709	695.75
557.921	722.75
558.134	692.75
558.346	688.75
558.559	719.75
558.771	696.75
558.984	687.75
559.196	687.75
559.409	689.75
559.621	702.75
559.833	702.75
560.046	699.75
560.258	709.75
560.47	702.75
560.683	681.75
560.895	701.75
561.107	694.75
561.32	687.75
561.532	693.75
561.744	706.75
561.956	686.75
562.168	665.75
562.381	682.75
562.593	687.75
562.805	691.75
563.017	706.75
563.229	702.75
563.441	699.75
563.653	736.75
563.865	733.75
564.077	722.75
564.289	722.75
564.501	727.75
564.713	730.75
564.925	766.75
565.137	753.75
565.349	750.75
565.561	788.75
565.773	832.75
565.985	842.75
566.197	890.75
566.408	913.75
566.62	999.75
566.832	1014.75
567.044	1029.75
567.255	1025.75
567.467	1081.75
567.679	1111.75
567.891	1139.75
568.102	1182.75
568.314	1094.75
568.526	1031.75
568.737	936.75
568.949	893.75
569.161	862.75
569.372	813.75
569.584	776.75
569.795	757.75
570.007	747.75
570.218	726.75
570.43	713.75
570.641	737.75
570.853	676.75
571.064	689.75
571.276	677.75
571.487	665.75
571.698	644.75
571.91	624.75
572.121	641.75
572.333	639.75
572.544	609.75
572.755	606.75
572.966	588.75
573.178	587.75
573.389	575.75
573.6	565.75
573.811	581.75
574.023	568.75
574.234	567.75
574.445	569.75
574.656	585.75
574.867	564.75
575.078	575.75
575.289	554.75
575.501	543.75
575.712	548.75
575.923	547.75
576.134	521.75
576.345	534.75
576.556	540.75
576.767	526.75
576.978	536.75
577.188	541.75
577.399	522.75
577.61	523.75
577.821	508.75
578.032	517.75
578.243	499.75
578.454	527.75
578.665	522.75
578.875	503.75
579.086	498.75
579.297	510.75
579.508	495.75
579.718	510.75
579.929	504.75
580.14	497.75
580.35	489.75
580.561	500.75
580.772	488.75
580.982	490.75
581.193	479.75
581.403	509.75
581.614	493.75
581.825	489.75
582.035	484.75
582.246	462.75
582.456	475.75
582.667	484.75
582.877	458.75
583.087	478.75
583.298	470.75
583.508	473.75
583.719	463.75
583.929	472.75
584.139	471.75
584.35	473.75
584.56	438.75
584.77	455.75
584.981	462.75
585.191	468.75
585.401	451.75
585.611	469.75
585.821	468.75
586.032	455.75
586.242	447.75
586.452	467.75
586.662	461.75
586.872	471.75
587.082	442.75
587.292	441.75
587.502	455.75
587.713	457.75
587.923	456.75
588.133	450.75
588.343	450.75
588.553	450.75
588.762	419.75
588.972	458.75
589.182	443.75
589.392	474.75
589.602	444.75
589.812	458.75
590.022	492.75
590.232	463.75
590.441	452.75
590.651	455.75
590.861	447.75
591.071	478.75
591.281	455.75
591.49	483.75
591.7	477.75
591.91	471.75
592.119	513.75
592.329	476.75
592.539	511.75
592.748	499.75
592.958	521.75
593.167	520.75
593.377	551.75
593.587	513.75
593.796	561.75
594.006	549.75
594.215	561.75
594.424	533.75
594.634	533.75
594.843	525.75
595.053	497.75
595.262	514.75
595.472	490.75
595.681	466.75
595.89	463.75
596.1	475.75
596.309	440.75
596.518	451.75
596.727	442.75
596.937	413.75
597.146	408.75
597.355	420.75
597.564	396.75
597.774	423.75
597.983	407.75
598.192	389.75
598.401	387.75
598.61	395.75
598.819	399.75
599.028	410.75
599.237	390.75
599.446	377.75
599.655	377.75
599.864	372.75
600.073	387.75
600.282	387.75
600.491	372.75
600.7	356.75
600.909	381.75
601.118	375.75
601.327	368.75
601.536	379.75
601.745	373.75
601.953	365.75
602.162	381.75
602.371	377.75
602.58	368.75
602.789	366.75
602.997	385.75
603.206	366.75
603.415	365.75
603.623	356.75
603.832	345.75
604.041	363.75
604.249	360.75
604.458	352.75
604.666	353.75
604.875	351.75
605.084	364.75
605.292	367.75
605.501	381.75
605.709	372.75
605.918	356.75
606.126	353.75
606.334	348.75
606.543	359.75
606.751	359.75
606.96	347.75
607.168	342.75
607.376	344.75
607.585	340.75
607.793	341.75
608.001	354.75
608.21	335.75
608.418	338.75
608.626	352.75
608.834	323.75
609.043	327.75
609.251	345.75
609.459	321.75
609.667	355.75
609.875	352.75
610.083	338.75
610.291	331.75
610.499	320.75
610.707	320.75
610.916	327.75
611.124	337.75
611.332	323.75
611.54	337.75
611.748	329.75
611.955	337.75
612.163	325.75
612.371	341.75
612.579	310.75
612.787	332.75
612.995	305.75
613.203	325.75
613.411	342.75
613.618	314.75
613.826	314.75
614.034	324.75
614.242	321.75
614.449	334.75
614.657	327.75
614.865	324.75
615.072	317.75
615.28	319.75
615.488	331.75
615.695	337.75
615.903	307.75
616.111	323.75
616.318	318.75
616.526	335.75
616.733	316.75
616.941	310.75
617.148	307.75
617.356	296.75
617.563	312.75
617.771	310.75
617.978	303.75
618.185	311.75
618.393	304.75
618.6	306.75
618.807	309.75
619.015	314.75
619.222	304.75
619.429	310.75
619.637	307.75
619.844	308.75
620.051	302.75
620.258	288.75
620.466	300.75
620.673	276.75
620.88	283.75
621.087	306.75
621.294	297.75
621.501	294.75
621.708	298.75
621.915	284.75
622.122	302.75
622.329	274.75
622.536	291.75
622.743	298.75
622.95	300.75
623.157	285.75
623.364	278.75
623.571	294.75
623.778	305.75
623.985	289.75
624.192	290.75
624.399	294.75
624.606	281.75
624.812	278.75
625.019	277.75
625.226	270.75
625.433	285.75
625.639	276.75
625.846	266.75
626.053	289.75
626.259	275.75
626.466	281.75
626.673	271.75
626.879	273.75
627.086	279.75
627.293	268.75
627.499	267.75
627.706	259.75
627.912	274.75
628.119	279.75
628.325	265.75
628.532	266.75
628.738	279.75
628.945	269.75
629.151	270.75
629.357	273.75
629.564	275.75
629.77	261.75
629.976	263.75
630.183	265.75
630.389	264.75
630.595	249.75
630.802	248.75
631.008	237.75
631.214	253.75
631.42	258.75
631.627	243.75
631.833	255.75
632.039	247.75
632.245	231.75
632.451	257.75
632.657	245.75
632.863	268.75
633.069	277.75
633.275	247.75
633.481	255.75
633.688	226.75
633.893	241.75
634.099	241.75
634.305	237.75
634.511	246.75
634.717	232.75
634.923	241.75
635.129	232.75
635.335	231.75
635.541	225.75
635.747	230.75
635.952	239.75
636.158	227.75
636.364	222.75
636.57	241.75
636.775	236.75
636.981	229.75
637.187	235.75
637.392	243.75
637.598	237.75
637.804	235.75
638.009	214.75
638.215	233.75
638.421	227.75
638.626	240.75
638.832	220.75
639.037	223.75
639.243	198.75
639.448	232.75
639.654	219.75
639.859	219.75
640.065	219.75
640.27	230.75
640.475	220.75
640.681	231.75
640.886	231.75
641.091	210.75
641.297	215.75
641.502	223.75
641.707	214.75
641.913	198.75
642.118	243.75
642.323	243.75
642.528	210.75
642.733	213.75
642.939	221.75
643.144	228.75
643.349	233.75
643.554	229.75
643.759	220.75
643.964	230.75
644.169	221.75
644.374	211.75
644.579	230.75
644.784	217.75
644.989	206.75
645.194	218.75
645.399	233.75
645.604	216.75
645.809	227.75
646.014	226.75
646.219	240.75
646.423	233.75
646.628	212.75
646.833	219.75
647.038	223.75
647.243	227.75
647.447	226.75
647.652	245.75
647.857	239.75
648.062	238.75
648.266	243.75
648.471	238.75
648.676	227.75
648.88	245.75
649.085	230.75
649.289	210.75
649.494	238.75
649.698	234.75
649.903	222.75
650.107	245.75
650.312	223.75
650.516	228.75
650.721	235.75
650.925	230.75
651.13	231.75
651.334	216.75
651.539	194.75
651.743	228.75
651.947	231.75
652.152	213.75
652.356	225.75
652.56	221.75
652.764	219.75
652.969	207.75
653.173	221.75
653.377	213.75
653.581	224.75
653.785	212.75
653.99	205.75
654.194	205.75
654.398	222.75
654.602	219.75
654.806	229.75
655.01	234.75
655.214	218.75
655.418	226.75
655.622	229.75
655.826	249.75
656.03	252.75
656.234	261.75
656.438	267.75
656.642	256.75
656.846	266.75
657.049	223.75
657.253	217.75
657.457	207.75
657.661	176.75
657.865	175.75
658.068	152.75
658.272	148.75
658.476	146.75
658.68	145.75
658.883	133.75
659.087	131.75
659.291	111.75
659.494	133.75
659.698	121.75
659.901	117.75
660.105	107.75
660.309	116.75
660.512	102.75
660.716	94.75
660.919	107.75
661.123	98.75
661.326	110.75
661.53	90.75
661.733	83.75
661.936	100.75
662.14	97.75
662.343	85.75
662.546	70.75
662.75	89.75
662.953	90.75
663.156	85.75
663.36	85.75
663.563	88.75
663.766	79.75
663.969	83.75
664.173	84.75
664.376	80.75
664.579	85.75
664.782	84.75
664.985	76.75
665.188	75.75
665.391	82.75
665.594	81.75
665.797	85.75
666	94.75
666.203	81.75
666.406	65.75
666.609	73.75
666.812	89.75
667.015	96.75
667.218	72.75
667.421	75.75
667.624	79.75
667.827	94.75
668.03	80.75
668.232	73.75
668.435	91.75
668.638	92.75
668.841	77.75
669.043	85.75
669.246	82.75
669.449	89.75
669.651	95.75
669.854	84.75
670.057	74.75
670.259	66.75
670.462	80.75
670.665	82.75
670.867	74.75
671.07	74.75
671.272	80.75
671.475	92.75
671.677	76.75
671.88	90.75
672.082	75.75
672.284	75.75
672.487	66.75
672.689	78.75
672.892	85.75
