Data from NiCl2@0.125M.TitratingCurve.Agarose3%dH2O.NegLispCup.LampEnergy10.LIBS07252019_HRD10591_18-28-51-574.txt Node
Date: Thu Jul 25 18:28:51 EDT 2019
User: cochatt
Spectrometer: HR+D1059
Trigger mode: 1
Integration Time (sec): 1.000000E-1
Scans to average: 1
Electric dark correction enabled: true
Nonlinearity correction enabled: false
Boxcar width: 0
XAxis mode: Wavelengths
Number of Pixels in Spectrum: 2048
>>>>>Begin Spectral Data<<<<<
223.165	-19.19
223.4	-19.19
223.635	-19.19
223.869	-20.19
224.104	-17.19
224.338	-20.19
224.573	-16.19
224.808	-22.19
225.042	-5.19
225.277	-0.19
225.511	-6.19
225.746	14.81
225.98	6.81
226.215	13.81
226.449	15.81
226.683	26.81
226.918	24.81
227.152	23.81
227.387	51.81
227.621	53.81
227.856	39.81
228.09	41.81
228.324	59.81
228.559	71.81
228.793	57.81
229.027	113.81
229.262	119.81
229.496	117.81
229.73	126.81
229.964	129.81
230.199	141.81
230.433	129.81
230.667	152.81
230.901	147.81
231.136	139.81
231.37	157.81
231.604	143.81
231.838	157.81
232.072	156.81
232.306	151.81
232.541	133.81
232.775	149.81
233.009	153.81
233.243	148.81
233.477	156.81
233.711	146.81
233.945	152.81
234.179	173.81
234.413	167.81
234.647	151.81
234.881	175.81
235.115	173.81
235.349	164.81
235.583	162.81
235.817	169.81
236.051	158.81
236.285	177.81
236.519	167.81
236.753	171.81
236.987	177.81
237.221	168.81
237.455	162.81
237.689	166.81
237.922	186.81
238.156	174.81
238.39	163.81
238.624	184.81
238.858	186.81
239.091	178.81
239.325	180.81
239.559	200.81
239.793	187.81
240.027	201.81
240.26	198.81
240.494	195.81
240.728	189.81
240.961	195.81
241.195	202.81
241.429	208.81
241.662	212.81
241.896	199.81
242.13	214.81
242.363	210.81
242.597	209.81
242.83	209.81
243.064	222.81
243.298	219.81
243.531	197.81
243.765	209.81
243.998	227.81
244.232	226.81
244.465	213.81
244.699	237.81
244.932	250.81
245.166	234.81
245.399	235.81
245.633	230.81
245.866	229.81
246.099	249.81
246.333	243.81
246.566	241.81
246.8	247.81
247.033	233.81
247.266	244.81
247.5	234.81
247.733	261.81
247.966	247.81
248.2	253.81
248.433	262.81
248.666	255.81
248.899	239.81
249.133	261.81
249.366	277.81
249.599	277.81
249.832	263.81
250.066	270.81
250.299	279.81
250.532	296.81
250.765	270.81
250.998	281.81
251.231	284.81
251.465	293.81
251.698	277.81
251.931	285.81
252.164	290.81
252.397	285.81
252.63	304.81
252.863	298.81
253.096	325.81
253.329	303.81
253.562	291.81
253.795	301.81
254.028	289.81
254.261	321.81
254.494	307.81
254.727	299.81
254.96	293.81
255.193	299.81
255.426	305.81
255.659	316.81
255.892	335.81
256.124	306.81
256.357	320.81
256.59	331.81
256.823	318.81
257.056	312.81
257.289	317.81
257.521	323.81
257.754	317.81
257.987	326.81
258.22	335.81
258.452	339.81
258.685	316.81
258.918	342.81
259.151	339.81
259.383	341.81
259.616	343.81
259.849	343.81
260.081	330.81
260.314	329.81
260.547	346.81
260.779	356.81
261.012	343.81
261.244	375.81
261.477	350.81
261.71	362.81
261.942	331.81
262.175	326.81
262.407	358.81
262.64	370.81
262.872	357.81
263.105	354.81
263.337	362.81
263.57	370.81
263.802	385.81
264.035	369.81
264.267	366.81
264.499	382.81
264.732	387.81
264.964	393.81
265.197	387.81
265.429	400.81
265.661	390.81
265.894	384.81
266.126	380.81
266.358	374.81
266.591	384.81
266.823	407.81
267.055	387.81
267.287	392.81
267.52	399.81
267.752	398.81
267.984	418.81
268.216	383.81
268.448	410.81
268.681	399.81
268.913	385.81
269.145	406.81
269.377	391.81
269.609	399.81
269.841	417.81
270.073	425.81
270.306	413.81
270.538	417.81
270.77	414.81
271.002	416.81
271.234	418.81
271.466	426.81
271.698	406.81
271.93	438.81
272.162	415.81
272.394	425.81
272.626	419.81
272.858	421.81
273.09	433.81
273.322	455.81
273.553	435.81
273.785	454.81
274.017	455.81
274.249	440.81
274.481	453.81
274.713	453.81
274.945	467.81
275.176	445.81
275.408	449.81
275.64	462.81
275.872	454.81
276.104	458.81
276.335	473.81
276.567	447.81
276.799	469.81
277.031	456.81
277.262	449.81
277.494	470.81
277.726	476.81
277.957	478.81
278.189	458.81
278.421	476.81
278.652	448.81
278.884	462.81
279.115	478.81
279.347	466.81
279.579	493.81
279.81	484.81
280.042	477.81
280.273	501.81
280.505	486.81
280.736	491.81
280.968	499.81
281.199	490.81
281.431	505.81
281.662	507.81
281.894	500.81
282.125	514.81
282.356	519.81
282.588	505.81
282.819	519.81
283.051	499.81
283.282	518.81
283.513	529.81
283.745	526.81
283.976	513.81
284.207	528.81
284.439	537.81
284.67	527.81
284.901	530.81
285.132	537.81
285.364	547.81
285.595	538.81
285.826	539.81
286.057	536.81
286.288	538.81
286.52	544.81
286.751	567.81
286.982	558.81
287.213	541.81
287.444	549.81
287.675	550.81
287.906	543.81
288.138	557.81
288.369	546.81
288.6	571.81
288.831	571.81
289.062	552.81
289.293	580.81
289.524	556.81
289.755	578.81
289.986	569.81
290.217	580.81
290.448	564.81
290.679	557.81
290.91	585.81
291.141	572.81
291.371	570.81
291.602	571.81
291.833	570.81
292.064	571.81
292.295	617.81
292.526	572.81
292.757	564.81
292.987	545.81
293.218	565.81
293.449	590.81
293.68	585.81
293.91	579.81
294.141	578.81
294.372	569.81
294.603	569.81
294.833	585.81
295.064	563.81
295.295	601.81
295.525	607.81
295.756	591.81
295.987	596.81
296.217	606.81
296.448	600.81
296.679	614.81
296.909	596.81
297.14	611.81
297.37	605.81
297.601	634.81
297.831	611.81
298.062	611.81
298.292	643.81
298.523	631.81
298.753	642.81
298.984	652.81
299.214	644.81
299.445	651.81
299.675	625.81
299.905	638.81
300.136	636.81
300.366	640.81
300.597	663.81
300.827	667.81
301.057	659.81
301.288	648.81
301.518	667.81
301.748	670.81
301.979	695.81
302.209	698.81
302.439	648.81
302.669	664.81
302.9	653.81
303.13	629.81
303.36	649.81
303.59	635.81
303.82	642.81
304.051	662.81
304.281	645.81
304.511	664.81
304.741	617.81
304.971	652.81
305.201	652.81
305.431	661.81
305.661	625.81
305.891	639.81
306.121	651.81
306.352	648.81
306.582	654.81
306.812	631.81
307.042	626.81
307.272	641.81
307.502	631.81
307.731	632.81
307.961	609.81
308.191	625.81
308.421	633.81
308.651	620.81
308.881	627.81
309.111	629.81
309.341	595.81
309.571	615.81
309.8	626.81
310.03	641.81
310.26	648.81
310.49	659.81
310.72	608.81
310.949	623.81
311.179	653.81
311.409	655.81
311.639	656.81
311.868	643.81
312.098	638.81
312.328	655.81
312.557	666.81
312.787	663.81
313.017	684.81
313.246	694.81
313.476	661.81
313.706	694.81
313.935	666.81
314.165	703.81
314.394	692.81
314.624	681.81
314.853	655.81
315.083	657.81
315.312	664.81
315.542	670.81
315.771	660.81
316.001	659.81
316.23	658.81
316.46	677.81
316.689	678.81
316.919	653.81
317.148	663.81
317.377	669.81
317.607	646.81
317.836	655.81
318.065	660.81
318.295	652.81
318.524	683.81
318.753	663.81
318.983	670.81
319.212	635.81
319.441	653.81
319.67	659.81
319.9	666.81
320.129	650.81
320.358	637.81
320.587	654.81
320.816	656.81
321.046	659.81
321.275	658.81
321.504	663.81
321.733	653.81
321.962	638.81
322.191	667.81
322.42	690.81
322.649	680.81
322.878	662.81
323.108	665.81
323.337	679.81
323.566	680.81
323.795	687.81
324.024	686.81
324.253	689.81
324.482	660.81
324.71	675.81
324.939	696.81
325.168	682.81
325.397	671.81
325.626	702.81
325.855	698.81
326.084	737.81
326.313	718.81
326.542	714.81
326.77	735.81
326.999	749.81
327.228	715.81
327.457	727.81
327.686	707.81
327.914	730.81
328.143	726.81
328.372	747.81
328.6	722.81
328.829	761.81
329.058	745.81
329.287	749.81
329.515	738.81
329.744	726.81
329.972	718.81
330.201	711.81
330.43	728.81
330.658	739.81
330.887	758.81
331.115	747.81
331.344	759.81
331.572	761.81
331.801	788.81
332.03	807.81
332.258	803.81
332.486	835.81
332.715	877.81
332.943	882.81
333.172	959.81
333.4	983.81
333.629	997.81
333.857	1012.81
334.085	1016.81
334.314	1001.81
334.542	925.81
334.771	963.81
334.999	910.81
335.227	922.81
335.455	937.81
335.684	906.81
335.912	912.81
336.14	886.81
336.369	859.81
336.597	879.81
336.825	893.81
337.053	855.81
337.281	893.81
337.51	849.81
337.738	839.81
337.966	822.81
338.194	807.81
338.422	774.81
338.65	777.81
338.878	788.81
339.106	776.81
339.334	796.81
339.562	804.81
339.79	763.81
340.018	751.81
340.246	774.81
340.474	737.81
340.702	722.81
340.93	756.81
341.158	770.81
341.386	755.81
341.614	762.81
341.842	767.81
342.07	735.81
342.298	744.81
342.526	747.81
342.754	758.81
342.981	733.81
343.209	763.81
343.437	778.81
343.665	838.81
343.893	886.81
344.12	959.81
344.348	900.81
344.576	886.81
344.804	860.81
345.031	801.81
345.259	797.81
345.487	782.81
345.714	733.81
345.942	757.81
346.17	732.81
346.397	754.81
346.625	733.81
346.853	721.81
347.08	734.81
347.308	739.81
347.535	746.81
347.763	750.81
347.99	769.81
348.218	758.81
348.445	737.81
348.673	722.81
348.9	718.81
349.128	703.81
349.355	724.81
349.583	708.81
349.81	727.81
350.037	725.81
350.265	720.81
350.492	707.81
350.72	697.81
350.947	705.81
351.174	717.81
351.402	711.81
351.629	708.81
351.856	705.81
352.083	709.81
352.311	722.81
352.538	712.81
352.765	707.81
352.992	689.81
353.22	706.81
353.447	689.81
353.674	702.81
353.901	697.81
354.128	675.81
354.355	705.81
354.583	698.81
354.81	707.81
355.037	700.81
355.264	750.81
355.491	697.81
355.718	697.81
355.945	703.81
356.172	693.81
356.399	718.81
356.626	724.81
356.853	727.81
357.08	712.81
357.307	720.81
357.534	691.81
357.761	709.81
357.988	718.81
358.215	723.81
358.441	705.81
358.668	716.81
358.895	722.81
359.122	703.81
359.349	693.81
359.576	702.81
359.802	733.81
360.029	689.81
360.256	717.81
360.483	710.81
360.709	692.81
360.936	721.81
361.163	723.81
361.39	729.81
361.616	741.81
361.843	722.81
362.07	716.81
362.296	706.81
362.523	718.81
362.749	682.81
362.976	684.81
363.203	706.81
363.429	713.81
363.656	710.81
363.882	694.81
364.109	685.81
364.335	698.81
364.562	705.81
364.788	722.81
365.015	695.81
365.241	703.81
365.468	708.81
365.694	697.81
365.92	717.81
366.147	707.81
366.373	703.81
366.599	708.81
366.826	706.81
367.052	699.81
367.278	710.81
367.505	696.81
367.731	711.81
367.957	701.81
368.184	721.81
368.41	709.81
368.636	721.81
368.862	720.81
369.089	724.81
369.315	735.81
369.541	715.81
369.767	707.81
369.993	751.81
370.219	716.81
370.445	746.81
370.672	762.81
370.898	755.81
371.124	760.81
371.35	787.81
371.576	748.81
371.802	767.81
372.028	751.81
372.254	780.81
372.48	787.81
372.706	785.81
372.932	800.81
373.158	807.81
373.384	793.81
373.61	791.81
373.835	800.81
374.061	755.81
374.287	794.81
374.513	787.81
374.739	814.81
374.965	834.81
375.191	859.81
375.416	863.81
375.642	833.81
375.868	817.81
376.094	797.81
376.319	813.81
376.545	804.81
376.771	778.81
376.997	782.81
377.222	772.81
377.448	785.81
377.674	776.81
377.899	747.81
378.125	747.81
378.35	768.81
378.576	750.81
378.802	778.81
379.027	741.81
379.253	788.81
379.478	758.81
379.704	774.81
379.929	757.81
380.155	758.81
380.38	763.81
380.606	793.81
380.831	757.81
381.057	783.81
381.282	789.81
381.507	754.81
381.733	777.81
381.958	771.81
382.184	781.81
382.409	794.81
382.634	808.81
382.86	813.81
383.085	818.81
383.31	842.81
383.535	848.81
383.761	865.81
383.986	867.81
384.211	871.81
384.436	905.81
384.662	921.81
384.887	936.81
385.112	916.81
385.337	951.81
385.562	953.81
385.787	909.81
386.013	969.81
386.238	954.81
386.463	927.81
386.688	957.81
386.913	921.81
387.138	922.81
387.363	929.81
387.588	929.81
387.813	922.81
388.038	919.81
388.263	935.81
388.488	933.81
388.713	941.81
388.938	912.81
389.163	929.81
389.387	931.81
389.612	890.81
389.837	894.81
390.062	917.81
390.287	884.81
390.512	885.81
390.736	926.81
390.961	927.81
391.186	952.81
391.411	961.81
391.636	1032.81
391.86	1055.81
392.085	1045.81
392.31	1071.81
392.534	1041.81
392.759	1014.81
392.984	1002.81
393.208	995.81
393.433	1009.81
393.658	995.81
393.882	967.81
394.107	1020.81
394.331	1024.81
394.556	981.81
394.78	993.81
395.005	1009.81
395.229	1022.81
395.454	1028.81
395.678	1046.81
395.903	1057.81
396.127	1047.81
396.352	1014.81
396.576	1001.81
396.801	996.81
397.025	999.81
397.249	993.81
397.474	1032.81
397.698	1042.81
397.922	1024.81
398.147	1042.81
398.371	1047.81
398.595	1105.81
398.82	1150.81
399.044	1236.81
399.268	1374.81
399.492	1585.81
399.717	1841.81
399.941	1881.81
400.165	1640.81
400.389	1472.81
400.613	1352.81
400.837	1240.81
401.062	1222.81
401.286	1221.81
401.51	1190.81
401.734	1181.81
401.958	1198.81
402.182	1188.81
402.406	1201.81
402.63	1253.81
402.854	1266.81
403.078	1291.81
403.302	1343.81
403.526	1345.81
403.75	1358.81
403.974	1397.81
404.198	1395.81
404.422	1368.81
404.645	1400.81
404.869	1397.81
405.093	1358.81
405.317	1326.81
405.541	1333.81
405.765	1323.81
405.988	1263.81
406.212	1299.81
406.436	1299.81
406.66	1357.81
406.883	1355.81
407.107	1451.81
407.331	1508.81
407.555	1569.81
407.778	1539.81
408.002	1510.81
408.226	1464.81
408.449	1413.81
408.673	1372.81
408.896	1339.81
409.12	1322.81
409.344	1339.81
409.567	1345.81
409.791	1348.81
410.014	1345.81
410.238	1331.81
410.461	1338.81
410.685	1303.81
410.908	1303.81
411.132	1258.81
411.355	1211.81
411.578	1194.81
411.802	1237.81
412.025	1205.81
412.249	1282.81
412.472	1220.81
412.695	1205.81
412.919	1177.81
413.142	1190.81
413.365	1171.81
413.589	1208.81
413.812	1167.81
414.035	1131.81
414.258	1151.81
414.482	1185.81
414.705	1178.81
414.928	1215.81
415.151	1211.81
415.374	1176.81
415.597	1182.81
415.821	1155.81
416.044	1137.81
416.267	1150.81
416.49	1139.81
416.713	1173.81
416.936	1158.81
417.159	1150.81
417.382	1143.81
417.605	1158.81
417.828	1190.81
418.051	1172.81
418.274	1182.81
418.497	1186.81
418.72	1227.81
418.943	1226.81
419.166	1294.81
419.389	1395.81
419.611	1361.81
419.834	1250.81
420.057	1248.81
420.28	1211.81
420.503	1168.81
420.726	1161.81
420.948	1166.81
421.171	1160.81
421.394	1151.81
421.617	1140.81
421.839	1185.81
422.062	1155.81
422.285	1143.81
422.507	1216.81
422.73	1175.81
422.953	1207.81
423.175	1213.81
423.398	1239.81
423.621	1207.81
423.843	1261.81
424.066	1254.81
424.288	1271.81
424.511	1230.81
424.733	1244.81
424.956	1206.81
425.178	1231.81
425.401	1230.81
425.623	1207.81
425.846	1141.81
426.068	1131.81
426.291	1119.81
426.513	1113.81
426.735	1116.81
426.958	1098.81
427.18	1073.81
427.402	1029.81
427.625	1061.81
427.847	1058.81
428.069	1058.81
428.292	1045.81
428.514	1032.81
428.736	1042.81
428.958	1045.81
429.181	1013.81
429.403	1020.81
429.625	1011.81
429.847	1031.81
430.069	992.81
430.292	1031.81
430.514	996.81
430.736	1025.81
430.958	1035.81
431.18	1033.81
431.402	1033.81
431.624	1031.81
431.846	1050.81
432.068	1059.81
432.29	1094.81
432.512	1048.81
432.734	1075.81
432.956	1028.81
433.178	1039.81
433.4	1077.81
433.622	1067.81
433.844	1054.81
434.066	1051.81
434.287	1072.81
434.509	1097.81
434.731	1117.81
434.953	1149.81
435.175	1199.81
435.397	1204.81
435.618	1109.81
435.84	1115.81
436.062	1071.81
436.284	1048.81
436.505	1019.81
436.727	1081.81
436.949	1053.81
437.17	1042.81
437.392	1021.81
437.614	1043.81
437.835	981.81
438.057	1010.81
438.278	1001.81
438.5	1035.81
438.721	996.81
438.943	1015.81
439.165	1015.81
439.386	1026.81
439.608	1043.81
439.829	1046.81
440.05	1038.81
440.272	1053.81
440.493	1077.81
440.715	1115.81
440.936	1091.81
441.158	1127.81
441.379	1151.81
441.6	1198.81
441.822	1209.81
442.043	1189.81
442.264	1169.81
442.486	1155.81
442.707	1149.81
442.928	1145.81
443.149	1128.81
443.371	1133.81
443.592	1142.81
443.813	1187.81
444.034	1185.81
444.255	1228.81
444.476	1283.81
444.698	1400.81
444.919	1453.81
445.14	1557.81
445.361	1374.81
445.582	1253.81
445.803	1187.81
446.024	1137.81
446.245	1125.81
446.466	1103.81
446.687	1092.81
446.908	1062.81
447.129	1045.81
447.35	1014.81
447.571	1039.81
447.792	1001.81
448.013	1004.81
448.234	1021.81
448.455	986.81
448.675	952.81
448.896	959.81
449.117	935.81
449.338	955.81
449.559	963.81
449.779	969.81
450	965.81
450.221	957.81
450.442	986.81
450.662	968.81
450.883	971.81
451.104	990.81
451.324	1015.81
451.545	998.81
451.766	991.81
451.986	985.81
452.207	973.81
452.428	986.81
452.648	996.81
452.869	961.81
453.089	951.81
453.31	980.81
453.53	917.81
453.751	941.81
453.971	937.81
454.192	924.81
454.412	903.81
454.633	919.81
454.853	941.81
455.073	939.81
455.294	949.81
455.514	915.81
455.734	931.81
455.955	885.81
456.175	902.81
456.395	899.81
456.616	900.81
456.836	921.81
457.056	902.81
457.276	865.81
457.497	909.81
457.717	906.81
457.937	933.81
458.157	937.81
458.377	950.81
458.598	953.81
458.818	987.81
459.038	1010.81
459.258	1039.81
459.478	1082.81
459.698	1082.81
459.918	1119.81
460.138	1203.81
460.358	1246.81
460.578	1277.81
460.798	1278.81
461.018	1250.81
461.238	1278.81
461.458	1277.81
461.678	1247.81
461.898	1253.81
462.118	1293.81
462.338	1349.81
462.558	1372.81
462.777	1468.81
462.997	1536.81
463.217	1720.81
463.437	1804.81
463.657	1589.81
463.876	1518.81
464.096	1514.81
464.316	1501.81
464.536	1526.81
464.755	1440.81
464.975	1403.81
465.195	1287.81
465.414	1203.81
465.634	1177.81
465.854	1119.81
466.073	1089.81
466.293	1047.81
466.512	1033.81
466.732	1020.81
466.951	1031.81
467.171	1026.81
467.391	1018.81
467.61	1002.81
467.829	985.81
468.049	998.81
468.268	998.81
468.488	950.81
468.707	972.81
468.927	971.81
469.146	950.81
469.365	993.81
469.585	968.81
469.804	993.81
470.023	1010.81
470.243	1037.81
470.462	1045.81
470.681	1056.81
470.901	1059.81
471.12	1039.81
471.339	1050.81
471.558	975.81
471.777	989.81
471.997	986.81
472.216	971.81
472.435	974.81
472.654	936.81
472.873	941.81
473.092	947.81
473.311	954.81
473.53	922.81
473.749	941.81
473.968	947.81
474.187	929.81
474.406	954.81
474.625	923.81
474.844	945.81
475.063	966.81
475.282	961.81
475.501	991.81
475.72	978.81
475.939	964.81
476.158	1001.81
476.377	972.81
476.596	988.81
476.814	1017.81
477.033	1003.81
477.252	1036.81
477.471	1043.81
477.69	1047.81
477.908	1136.81
478.127	1128.81
478.346	1157.81
478.564	1142.81
478.783	1121.81
479.002	1202.81
479.22	1198.81
479.439	1229.81
479.658	1210.81
479.876	1217.81
480.095	1174.81
480.313	1235.81
480.532	1275.81
480.751	1297.81
480.969	1245.81
481.188	1178.81
481.406	1146.81
481.624	1152.81
481.843	1113.81
482.061	1097.81
482.28	1101.81
482.498	1062.81
482.717	1055.81
482.935	1075.81
483.153	1047.81
483.372	1070.81
483.59	1072.81
483.808	1095.81
484.027	1074.81
484.245	1057.81
484.463	1099.81
484.681	1101.81
484.9	1093.81
485.118	1114.81
485.336	1102.81
485.554	1147.81
485.772	1151.81
485.99	1152.81
486.209	1125.81
486.427	1182.81
486.645	1145.81
486.863	1145.81
487.081	1128.81
487.299	1145.81
487.517	1126.81
487.735	1104.81
487.953	1105.81
488.171	1140.81
488.389	1117.81
488.607	1078.81
488.825	1087.81
489.043	1102.81
489.261	1119.81
489.479	1110.81
489.696	1113.81
489.914	1086.81
490.132	1094.81
490.35	1110.81
490.568	1112.81
490.786	1174.81
491.003	1098.81
491.221	1195.81
491.439	1137.81
491.657	1124.81
491.874	1125.81
492.092	1162.81
492.31	1171.81
492.527	1142.81
492.745	1184.81
492.963	1141.81
493.18	1164.81
493.398	1178.81
493.615	1150.81
493.833	1217.81
494.05	1203.81
494.268	1216.81
494.485	1195.81
494.703	1208.81
494.92	1211.81
495.138	1218.81
495.355	1189.81
495.573	1205.81
495.79	1241.81
496.008	1205.81
496.225	1199.81
496.442	1231.81
496.66	1235.81
496.877	1240.81
497.094	1283.81
497.312	1337.81
497.529	1326.81
497.746	1373.81
497.963	1395.81
498.181	1465.81
498.398	1498.81
498.615	1626.81
498.832	1747.81
499.049	1841.81
499.267	2014.81
499.484	2203.81
499.701	2411.81
499.918	2760.81
500.135	3116.81
500.352	3570.81
500.569	3772.81
500.786	3782.81
501.003	3531.81
501.22	3122.81
501.437	2766.81
501.654	2422.81
501.871	2191.81
502.088	1969.81
502.305	1849.81
502.522	1772.81
502.739	1678.81
502.956	1611.81
503.172	1520.81
503.389	1442.81
503.606	1405.81
503.823	1381.81
504.04	1389.81
504.256	1374.81
504.473	1433.81
504.69	1465.81
504.907	1443.81
505.123	1354.81
505.34	1231.81
505.557	1196.81
505.773	1171.81
505.99	1166.81
506.207	1142.81
506.423	1125.81
506.64	1126.81
506.856	1099.81
507.073	1078.81
507.289	1073.81
507.506	1075.81
507.722	1073.81
507.939	1037.81
508.155	1056.81
508.372	1020.81
508.588	1005.81
508.805	1013.81
509.021	1004.81
509.238	1002.81
509.454	1004.81
509.67	993.81
509.887	984.81
510.103	983.81
510.319	990.81
510.536	1011.81
510.752	974.81
510.968	990.81
511.184	978.81
511.401	994.81
511.617	961.81
511.833	987.81
512.049	959.81
512.265	957.81
512.481	1017.81
512.698	942.81
512.914	955.81
513.13	977.81
513.346	950.81
513.562	955.81
513.778	967.81
513.994	987.81
514.21	955.81
514.426	997.81
514.642	988.81
514.858	972.81
515.074	975.81
515.29	1019.81
515.506	1015.81
515.721	1030.81
515.937	1040.81
516.153	1039.81
516.369	1057.81
516.585	1121.81
516.801	1141.81
517.016	1203.81
517.232	1290.81
517.448	1355.81
517.664	1368.81
517.879	1390.81
518.095	1407.81
518.311	1366.81
518.527	1293.81
518.742	1244.81
518.958	1191.81
519.173	1143.81
519.389	1111.81
519.605	1101.81
519.82	1041.81
520.036	1030.81
520.251	1032.81
520.467	995.81
520.682	973.81
520.898	963.81
521.113	951.81
521.329	940.81
521.544	954.81
521.76	960.81
521.975	919.81
522.19	897.81
522.406	921.81
522.621	935.81
522.836	907.81
523.052	943.81
523.267	908.81
523.482	912.81
523.698	911.81
523.913	913.81
524.128	910.81
524.343	905.81
524.559	881.81
524.774	889.81
524.989	899.81
525.204	892.81
525.419	903.81
525.634	898.81
525.849	902.81
526.064	904.81
526.28	896.81
526.495	879.81
526.71	893.81
526.925	889.81
527.14	852.81
527.355	889.81
527.57	866.81
527.785	877.81
527.999	876.81
528.214	891.81
528.429	865.81
528.644	896.81
528.859	911.81
529.074	872.81
529.289	902.81
529.503	891.81
529.718	895.81
529.933	874.81
530.148	882.81
530.363	885.81
530.577	863.81
530.792	862.81
531.007	861.81
531.221	886.81
531.436	893.81
531.651	911.81
531.865	892.81
532.08	895.81
532.295	867.81
532.509	863.81
532.724	909.81
532.938	887.81
533.153	879.81
533.367	870.81
533.582	862.81
533.796	863.81
534.011	876.81
534.225	882.81
534.44	867.81
534.654	884.81
534.868	857.81
535.083	847.81
535.297	864.81
535.511	850.81
535.726	851.81
535.94	869.81
536.154	832.81
536.369	835.81
536.583	843.81
536.797	829.81
537.011	826.81
537.225	834.81
537.44	826.81
537.654	830.81
537.868	799.81
538.082	827.81
538.296	787.81
538.51	814.81
538.724	819.81
538.938	807.81
539.153	779.81
539.367	824.81
539.581	761.81
539.795	796.81
540.009	755.81
540.222	791.81
540.436	777.81
540.65	772.81
540.864	791.81
541.078	788.81
541.292	804.81
541.506	783.81
541.72	782.81
541.934	795.81
542.147	801.81
542.361	774.81
542.575	777.81
542.789	785.81
543.002	784.81
543.216	757.81
543.43	773.81
543.644	773.81
543.857	774.81
544.071	761.81
544.285	783.81
544.498	810.81
544.712	791.81
544.925	795.81
545.139	773.81
545.352	820.81
545.566	804.81
545.779	808.81
545.993	815.81
546.206	799.81
546.42	818.81
546.633	788.81
546.847	796.81
547.06	797.81
547.274	804.81
547.487	804.81
547.7	814.81
547.914	804.81
548.127	814.81
548.34	800.81
548.554	811.81
548.767	827.81
548.98	834.81
549.193	809.81
549.407	836.81
549.62	819.81
549.833	850.81
550.046	831.81
550.259	832.81
550.473	807.81
550.686	806.81
550.899	823.81
551.112	790.81
551.325	811.81
551.538	805.81
551.751	797.81
551.964	788.81
552.177	796.81
552.39	828.81
552.603	834.81
552.816	878.81
553.029	891.81
553.242	885.81
553.455	864.81
553.667	904.81
553.88	895.81
554.093	861.81
554.306	828.81
554.519	814.81
554.732	806.81
554.944	810.81
555.157	787.81
555.37	743.81
555.583	775.81
555.795	753.81
556.008	749.81
556.221	740.81
556.433	703.81
556.646	731.81
556.859	694.81
557.071	697.81
557.284	694.81
557.496	674.81
557.709	693.81
557.921	704.81
558.134	671.81
558.346	689.81
558.559	675.81
558.771	690.81
558.984	685.81
559.196	675.81
559.409	701.81
559.621	672.81
559.833	669.81
560.046	692.81
560.258	638.81
560.47	662.81
560.683	642.81
560.895	681.81
561.107	653.81
561.32	659.81
561.532	693.81
561.744	666.81
561.956	659.81
562.168	673.81
562.381	645.81
562.593	675.81
562.805	645.81
563.017	670.81
563.229	701.81
563.441	684.81
563.653	675.81
563.865	694.81
564.077	724.81
564.289	675.81
564.501	679.81
564.713	718.81
564.925	718.81
565.137	756.81
565.349	770.81
565.561	780.81
565.773	813.81
565.985	829.81
566.197	872.81
566.408	924.81
566.62	1043.81
566.832	1131.81
567.044	1140.81
567.255	1125.81
567.467	1176.81
567.679	1247.81
567.891	1323.81
568.102	1383.81
568.314	1269.81
568.526	1191.81
568.737	1059.81
568.949	952.81
569.161	890.81
569.372	839.81
569.584	807.81
569.795	755.81
570.007	727.81
570.218	716.81
570.43	685.81
570.641	701.81
570.853	720.81
571.064	700.81
571.276	727.81
571.487	693.81
571.698	677.81
571.91	615.81
572.121	641.81
572.333	613.81
572.544	593.81
572.755	579.81
572.966	587.81
573.178	571.81
573.389	564.81
573.6	590.81
573.811	566.81
574.023	542.81
574.234	561.81
574.445	549.81
574.656	547.81
574.867	571.81
575.078	559.81
575.289	559.81
575.501	555.81
575.712	537.81
575.923	539.81
576.134	509.81
576.345	524.81
576.556	526.81
576.767	553.81
576.978	528.81
577.188	538.81
577.399	523.81
577.61	527.81
577.821	509.81
578.032	497.81
578.243	499.81
578.454	502.81
578.665	515.81
578.875	517.81
579.086	504.81
579.297	513.81
579.508	495.81
579.718	483.81
579.929	495.81
580.14	470.81
580.35	503.81
580.561	477.81
580.772	472.81
580.982	471.81
581.193	489.81
581.403	483.81
581.614	480.81
581.825	481.81
582.035	475.81
582.246	461.81
582.456	484.81
582.667	487.81
582.877	489.81
583.087	462.81
583.298	472.81
583.508	459.81
583.719	439.81
583.929	453.81
584.139	461.81
584.35	446.81
584.56	482.81
584.77	471.81
584.981	456.81
585.191	468.81
585.401	452.81
585.611	458.81
585.821	493.81
586.032	451.81
586.242	453.81
586.452	437.81
586.662	454.81
586.872	446.81
587.082	448.81
587.292	435.81
587.502	441.81
587.713	435.81
587.923	454.81
588.133	435.81
588.343	451.81
588.553	458.81
588.762	449.81
588.972	450.81
589.182	472.81
589.392	472.81
589.602	455.81
589.812	458.81
590.022	455.81
590.232	441.81
590.441	463.81
590.651	449.81
590.861	442.81
591.071	467.81
591.281	469.81
591.49	457.81
591.7	463.81
591.91	485.81
592.119	479.81
592.329	531.81
592.539	513.81
592.748	541.81
592.958	537.81
593.167	566.81
593.377	561.81
593.587	555.81
593.796	588.81
594.006	572.81
594.215	605.81
594.424	595.81
594.634	575.81
594.843	545.81
595.053	523.81
595.262	525.81
595.472	514.81
595.681	488.81
595.89	477.81
596.1	459.81
596.309	450.81
596.518	451.81
596.727	436.81
596.937	426.81
597.146	424.81
597.355	412.81
597.564	403.81
597.774	393.81
597.983	389.81
598.192	403.81
598.401	403.81
598.61	388.81
598.819	397.81
599.028	398.81
599.237	398.81
599.446	378.81
599.655	409.81
599.864	399.81
600.073	386.81
600.282	386.81
600.491	372.81
600.7	367.81
600.909	390.81
601.118	385.81
601.327	377.81
601.536	401.81
601.745	373.81
601.953	371.81
602.162	390.81
602.371	360.81
602.58	364.81
602.789	380.81
602.997	371.81
603.206	366.81
603.415	359.81
603.623	372.81
603.832	365.81
604.041	349.81
604.249	358.81
604.458	346.81
604.666	358.81
604.875	349.81
605.084	369.81
605.292	348.81
605.501	350.81
605.709	361.81
605.918	347.81
606.126	354.81
606.334	331.81
606.543	351.81
606.751	373.81
606.96	361.81
607.168	349.81
607.376	348.81
607.585	346.81
607.793	355.81
608.001	357.81
608.21	328.81
608.418	337.81
608.626	341.81
608.834	355.81
609.043	362.81
609.251	346.81
609.459	357.81
609.667	336.81
609.875	329.81
610.083	326.81
610.291	335.81
610.499	334.81
610.707	337.81
610.916	317.81
611.124	337.81
611.332	354.81
611.54	338.81
611.748	341.81
611.955	316.81
612.163	341.81
612.371	331.81
612.579	340.81
612.787	335.81
612.995	313.81
613.203	338.81
613.411	338.81
613.618	322.81
613.826	310.81
614.034	323.81
614.242	327.81
614.449	309.81
614.657	328.81
614.865	321.81
615.072	328.81
615.28	326.81
615.488	326.81
615.695	326.81
615.903	328.81
616.111	332.81
616.318	345.81
616.526	323.81
616.733	325.81
616.941	335.81
617.148	317.81
617.356	328.81
617.563	347.81
617.771	334.81
617.978	318.81
618.185	334.81
618.393	334.81
618.6	338.81
618.807	329.81
619.015	340.81
619.222	321.81
619.429	315.81
619.637	332.81
619.844	310.81
620.051	321.81
620.258	306.81
620.466	311.81
620.673	309.81
620.88	304.81
621.087	291.81
621.294	301.81
621.501	307.81
621.708	296.81
621.915	295.81
622.122	315.81
622.329	291.81
622.536	298.81
622.743	284.81
622.95	329.81
623.157	291.81
623.364	289.81
623.571	297.81
623.778	293.81
623.985	296.81
624.192	287.81
624.399	300.81
624.606	283.81
624.812	302.81
625.019	292.81
625.226	284.81
625.433	294.81
625.639	279.81
625.846	280.81
626.053	289.81
626.259	270.81
626.466	281.81
626.673	283.81
626.879	281.81
627.086	293.81
627.293	266.81
627.499	282.81
627.706	246.81
627.912	286.81
628.119	267.81
628.325	273.81
628.532	262.81
628.738	277.81
628.945	275.81
629.151	266.81
629.357	271.81
629.564	270.81
629.77	272.81
629.976	273.81
630.183	252.81
630.389	262.81
630.595	258.81
630.802	262.81
631.008	246.81
631.214	243.81
631.42	253.81
631.627	245.81
631.833	255.81
632.039	241.81
632.245	248.81
632.451	245.81
632.657	231.81
632.863	246.81
633.069	248.81
633.275	230.81
633.481	255.81
633.688	250.81
633.893	252.81
634.099	234.81
634.305	238.81
634.511	246.81
634.717	250.81
634.923	241.81
635.129	251.81
635.335	228.81
635.541	229.81
635.747	245.81
635.952	245.81
636.158	233.81
636.364	232.81
636.57	243.81
636.775	247.81
636.981	250.81
637.187	220.81
637.392	230.81
637.598	255.81
637.804	234.81
638.009	214.81
638.215	232.81
638.421	228.81
638.626	215.81
638.832	222.81
639.037	221.81
639.243	238.81
639.448	231.81
639.654	225.81
639.859	233.81
640.065	211.81
640.27	225.81
640.475	217.81
640.681	215.81
640.886	217.81
641.091	206.81
641.297	224.81
641.502	212.81
641.707	206.81
641.913	223.81
642.118	219.81
642.323	213.81
642.528	216.81
642.733	212.81
642.939	212.81
643.144	221.81
643.349	202.81
643.554	225.81
643.759	213.81
643.964	195.81
644.169	216.81
644.374	216.81
644.579	212.81
644.784	196.81
644.989	205.81
645.194	219.81
645.399	215.81
645.604	201.81
645.809	204.81
646.014	214.81
646.219	209.81
646.423	193.81
646.628	206.81
646.833	223.81
647.038	222.81
647.243	206.81
647.447	209.81
647.652	219.81
647.857	216.81
648.062	235.81
648.266	218.81
648.471	221.81
648.676	233.81
648.88	227.81
649.085	226.81
649.289	217.81
649.494	210.81
649.698	213.81
649.903	198.81
650.107	204.81
650.312	209.81
650.516	211.81
650.721	192.81
650.925	190.81
651.13	181.81
651.334	171.81
651.539	184.81
651.743	183.81
651.947	174.81
652.152	199.81
652.356	181.81
652.56	181.81
652.764	169.81
652.969	186.81
653.173	169.81
653.377	178.81
653.581	164.81
653.785	172.81
653.99	167.81
654.194	171.81
654.398	164.81
654.602	153.81
654.806	144.81
655.01	151.81
655.214	134.81
655.418	143.81
655.622	152.81
655.826	166.81
656.03	159.81
656.234	146.81
656.438	143.81
656.642	154.81
656.846	130.81
657.049	134.81
657.253	126.81
657.457	129.81
657.661	134.81
657.865	125.81
658.068	130.81
658.272	117.81
658.476	110.81
658.68	108.81
658.883	99.81
659.087	115.81
659.291	121.81
659.494	120.81
659.698	118.81
659.901	117.81
660.105	92.81
660.309	100.81
660.512	109.81
660.716	88.81
660.919	102.81
661.123	108.81
661.326	93.81
661.53	90.81
661.733	101.81
661.936	87.81
662.14	88.81
662.343	91.81
662.546	81.81
662.75	85.81
662.953	100.81
663.156	76.81
663.36	76.81
663.563	89.81
663.766	91.81
663.969	92.81
664.173	79.81
664.376	84.81
664.579	86.81
664.782	88.81
664.985	70.81
665.188	87.81
665.391	95.81
665.594	87.81
665.797	75.81
666	105.81
666.203	73.81
666.406	74.81
666.609	75.81
666.812	98.81
667.015	77.81
667.218	69.81
667.421	83.81
667.624	82.81
667.827	94.81
668.03	84.81
668.232	87.81
668.435	94.81
668.638	89.81
668.841	90.81
669.043	78.81
669.246	79.81
669.449	77.81
669.651	85.81
669.854	78.81
670.057	85.81
670.259	89.81
670.462	79.81
670.665	81.81
670.867	88.81
671.07	65.81
671.272	84.81
671.475	94.81
671.677	85.81
671.88	87.81
672.082	84.81
672.284	91.81
672.487	81.81
672.689	85.81
672.892	85.81
