Data from NiCl2@0.125M.TitratingCurve.Agarose3%dH2O.NegLispCup.LampEnergy10.LIBS07252019_HRD10591_18-30-26-575.txt Node
Date: Thu Jul 25 18:30:26 EDT 2019
User: cochatt
Spectrometer: HR+D1059
Trigger mode: 1
Integration Time (sec): 1.000000E-1
Scans to average: 1
Electric dark correction enabled: true
Nonlinearity correction enabled: false
Boxcar width: 0
XAxis mode: Wavelengths
Number of Pixels in Spectrum: 2048
>>>>>Begin Spectral Data<<<<<
223.165	-17.44
223.4	-17.44
223.635	-17.44
223.869	-29.44
224.104	-13.44
224.338	-3.44
224.573	-15.44
224.808	-24.44
225.042	-1.44
225.277	-19.44
225.511	2.56
225.746	7.56
225.98	18.56
226.215	11.56
226.449	13.56
226.683	8.56
226.918	25.56
227.152	36.56
227.387	36.56
227.621	47.56
227.856	42.56
228.09	38.56
228.324	46.56
228.559	52.56
228.793	58.56
229.027	103.56
229.262	96.56
229.496	99.56
229.73	116.56
229.964	116.56
230.199	147.56
230.433	129.56
230.667	131.56
230.901	133.56
231.136	131.56
231.37	129.56
231.604	125.56
231.838	138.56
232.072	150.56
232.306	140.56
232.541	152.56
232.775	140.56
233.009	152.56
233.243	150.56
233.477	138.56
233.711	136.56
233.945	140.56
234.179	133.56
234.413	143.56
234.647	140.56
234.881	152.56
235.115	141.56
235.349	143.56
235.583	137.56
235.817	147.56
236.051	162.56
236.285	144.56
236.519	148.56
236.753	156.56
236.987	146.56
237.221	150.56
237.455	153.56
237.689	159.56
237.922	148.56
238.156	157.56
238.39	148.56
238.624	144.56
238.858	166.56
239.091	170.56
239.325	159.56
239.559	161.56
239.793	181.56
240.027	169.56
240.26	174.56
240.494	180.56
240.728	165.56
240.961	156.56
241.195	179.56
241.429	167.56
241.662	170.56
241.896	184.56
242.13	179.56
242.363	188.56
242.597	175.56
242.83	176.56
243.064	189.56
243.298	196.56
243.531	183.56
243.765	170.56
243.998	197.56
244.232	182.56
244.465	201.56
244.699	199.56
244.932	220.56
245.166	229.56
245.399	198.56
245.633	180.56
245.866	202.56
246.099	207.56
246.333	208.56
246.566	206.56
246.8	211.56
247.033	211.56
247.266	202.56
247.5	208.56
247.733	230.56
247.966	208.56
248.2	225.56
248.433	213.56
248.666	228.56
248.899	232.56
249.133	233.56
249.366	223.56
249.599	240.56
249.832	242.56
250.066	250.56
250.299	259.56
250.532	231.56
250.765	238.56
250.998	238.56
251.231	222.56
251.465	232.56
251.698	247.56
251.931	259.56
252.164	250.56
252.397	241.56
252.63	256.56
252.863	255.56
253.096	248.56
253.329	267.56
253.562	244.56
253.795	256.56
254.028	266.56
254.261	264.56
254.494	266.56
254.727	256.56
254.96	251.56
255.193	238.56
255.426	240.56
255.659	261.56
255.892	269.56
256.124	276.56
256.357	278.56
256.59	262.56
256.823	284.56
257.056	275.56
257.289	282.56
257.521	274.56
257.754	272.56
257.987	275.56
258.22	279.56
258.452	269.56
258.685	291.56
258.918	274.56
259.151	296.56
259.383	269.56
259.616	286.56
259.849	306.56
260.081	291.56
260.314	283.56
260.547	287.56
260.779	294.56
261.012	302.56
261.244	295.56
261.477	305.56
261.71	302.56
261.942	279.56
262.175	320.56
262.407	298.56
262.64	289.56
262.872	310.56
263.105	299.56
263.337	307.56
263.57	296.56
263.802	311.56
264.035	297.56
264.267	312.56
264.499	320.56
264.732	331.56
264.964	323.56
265.197	302.56
265.429	331.56
265.661	315.56
265.894	313.56
266.126	321.56
266.358	312.56
266.591	312.56
266.823	340.56
267.055	323.56
267.287	332.56
267.52	314.56
267.752	315.56
267.984	339.56
268.216	351.56
268.448	327.56
268.681	347.56
268.913	343.56
269.145	336.56
269.377	346.56
269.609	324.56
269.841	361.56
270.073	337.56
270.306	324.56
270.538	330.56
270.77	346.56
271.002	353.56
271.234	329.56
271.466	350.56
271.698	366.56
271.93	354.56
272.162	364.56
272.394	354.56
272.626	357.56
272.858	362.56
273.09	346.56
273.322	375.56
273.553	368.56
273.785	351.56
274.017	362.56
274.249	386.56
274.481	388.56
274.713	359.56
274.945	368.56
275.176	372.56
275.408	359.56
275.64	382.56
275.872	377.56
276.104	363.56
276.335	390.56
276.567	386.56
276.799	367.56
277.031	386.56
277.262	393.56
277.494	387.56
277.726	388.56
277.957	383.56
278.189	400.56
278.421	395.56
278.652	408.56
278.884	400.56
279.115	413.56
279.347	390.56
279.579	402.56
279.81	405.56
280.042	399.56
280.273	403.56
280.505	406.56
280.736	421.56
280.968	402.56
281.199	419.56
281.431	419.56
281.662	415.56
281.894	423.56
282.125	416.56
282.356	421.56
282.588	431.56
282.819	430.56
283.051	432.56
283.282	443.56
283.513	432.56
283.745	430.56
283.976	421.56
284.207	431.56
284.439	425.56
284.67	441.56
284.901	471.56
285.132	429.56
285.364	455.56
285.595	467.56
285.826	441.56
286.057	455.56
286.288	453.56
286.52	463.56
286.751	453.56
286.982	452.56
287.213	467.56
287.444	472.56
287.675	462.56
287.906	467.56
288.138	489.56
288.369	469.56
288.6	463.56
288.831	459.56
289.062	480.56
289.293	470.56
289.524	472.56
289.755	469.56
289.986	464.56
290.217	454.56
290.448	491.56
290.679	482.56
290.91	482.56
291.141	474.56
291.371	490.56
291.602	475.56
291.833	466.56
292.064	498.56
292.295	453.56
292.526	494.56
292.757	478.56
292.987	486.56
293.218	485.56
293.449	500.56
293.68	475.56
293.91	488.56
294.141	483.56
294.372	487.56
294.603	491.56
294.833	469.56
295.064	510.56
295.295	492.56
295.525	484.56
295.756	511.56
295.987	496.56
296.217	502.56
296.448	520.56
296.679	496.56
296.909	508.56
297.14	516.56
297.37	524.56
297.601	519.56
297.831	517.56
298.062	528.56
298.292	534.56
298.523	549.56
298.753	524.56
298.984	547.56
299.214	520.56
299.445	539.56
299.675	543.56
299.905	512.56
300.136	541.56
300.366	516.56
300.597	551.56
300.827	551.56
301.057	543.56
301.288	554.56
301.518	552.56
301.748	563.56
301.979	562.56
302.209	554.56
302.439	560.56
302.669	553.56
302.9	548.56
303.13	543.56
303.36	538.56
303.59	537.56
303.82	536.56
304.051	535.56
304.281	545.56
304.511	542.56
304.741	539.56
304.971	550.56
305.201	549.56
305.431	533.56
305.661	541.56
305.891	535.56
306.121	526.56
306.352	534.56
306.582	538.56
306.812	511.56
307.042	523.56
307.272	510.56
307.502	532.56
307.731	528.56
307.961	529.56
308.191	524.56
308.421	515.56
308.651	535.56
308.881	522.56
309.111	536.56
309.341	537.56
309.571	530.56
309.8	537.56
310.03	516.56
310.26	540.56
310.49	529.56
310.72	534.56
310.949	522.56
311.179	524.56
311.409	534.56
311.639	538.56
311.868	534.56
312.098	562.56
312.328	554.56
312.557	543.56
312.787	544.56
313.017	574.56
313.246	564.56
313.476	540.56
313.706	547.56
313.935	577.56
314.165	569.56
314.394	583.56
314.624	559.56
314.853	581.56
315.083	563.56
315.312	546.56
315.542	562.56
315.771	548.56
316.001	543.56
316.23	550.56
316.46	555.56
316.689	546.56
316.919	568.56
317.148	532.56
317.377	543.56
317.607	549.56
317.836	534.56
318.065	545.56
318.295	549.56
318.524	548.56
318.753	564.56
318.983	561.56
319.212	547.56
319.441	532.56
319.67	548.56
319.9	553.56
320.129	548.56
320.358	551.56
320.587	575.56
320.816	535.56
321.046	561.56
321.275	544.56
321.504	562.56
321.733	565.56
321.962	538.56
322.191	548.56
322.42	540.56
322.649	549.56
322.878	547.56
323.108	559.56
323.337	556.56
323.566	545.56
323.795	569.56
324.024	577.56
324.253	568.56
324.482	565.56
324.71	565.56
324.939	594.56
325.168	587.56
325.397	574.56
325.626	585.56
325.855	619.56
326.084	602.56
326.313	608.56
326.542	618.56
326.77	632.56
326.999	600.56
327.228	583.56
327.457	586.56
327.686	590.56
327.914	622.56
328.143	626.56
328.372	602.56
328.6	598.56
328.829	595.56
329.058	584.56
329.287	594.56
329.515	599.56
329.744	606.56
329.972	602.56
330.201	610.56
330.43	601.56
330.658	617.56
330.887	626.56
331.115	628.56
331.344	641.56
331.572	649.56
331.801	665.56
332.03	661.56
332.258	698.56
332.486	676.56
332.715	720.56
332.943	743.56
333.172	747.56
333.4	796.56
333.629	840.56
333.857	805.56
334.085	824.56
334.314	796.56
334.542	776.56
334.771	768.56
334.999	744.56
335.227	758.56
335.455	746.56
335.684	759.56
335.912	752.56
336.14	713.56
336.369	732.56
336.597	756.56
336.825	704.56
337.053	728.56
337.281	734.56
337.51	700.56
337.738	693.56
337.966	694.56
338.194	637.56
338.422	673.56
338.65	630.56
338.878	659.56
339.106	645.56
339.334	663.56
339.562	627.56
339.79	616.56
340.018	628.56
340.246	627.56
340.474	623.56
340.702	616.56
340.93	632.56
341.158	644.56
341.386	642.56
341.614	653.56
341.842	612.56
342.07	622.56
342.298	606.56
342.526	610.56
342.754	616.56
342.981	622.56
343.209	650.56
343.437	649.56
343.665	715.56
343.893	751.56
344.12	805.56
344.348	764.56
344.576	666.56
344.804	694.56
345.031	649.56
345.259	651.56
345.487	625.56
345.714	637.56
345.942	626.56
346.17	632.56
346.397	598.56
346.625	616.56
346.853	616.56
347.08	603.56
347.308	610.56
347.535	626.56
347.763	640.56
347.99	638.56
348.218	614.56
348.445	622.56
348.673	635.56
348.9	600.56
349.128	606.56
349.355	595.56
349.583	598.56
349.81	599.56
350.037	606.56
350.265	596.56
350.492	582.56
350.72	592.56
350.947	592.56
351.174	599.56
351.402	595.56
351.629	603.56
351.856	579.56
352.083	590.56
352.311	574.56
352.538	562.56
352.765	569.56
352.992	581.56
353.22	587.56
353.447	559.56
353.674	594.56
353.901	581.56
354.128	577.56
354.355	579.56
354.583	603.56
354.81	579.56
355.037	589.56
355.264	592.56
355.491	592.56
355.718	603.56
355.945	611.56
356.172	611.56
356.399	593.56
356.626	576.56
356.853	603.56
357.08	598.56
357.307	593.56
357.534	585.56
357.761	590.56
357.988	588.56
358.215	585.56
358.441	575.56
358.668	581.56
358.895	601.56
359.122	593.56
359.349	587.56
359.576	606.56
359.802	579.56
360.029	586.56
360.256	614.56
360.483	622.56
360.709	591.56
360.936	580.56
361.163	586.56
361.39	577.56
361.616	570.56
361.843	614.56
362.07	593.56
362.296	598.56
362.523	595.56
362.749	603.56
362.976	595.56
363.203	612.56
363.429	588.56
363.656	601.56
363.882	578.56
364.109	579.56
364.335	581.56
364.562	578.56
364.788	580.56
365.015	575.56
365.241	587.56
365.468	572.56
365.694	599.56
365.92	574.56
366.147	602.56
366.373	586.56
366.599	592.56
366.826	596.56
367.052	591.56
367.278	599.56
367.505	597.56
367.731	583.56
367.957	587.56
368.184	579.56
368.41	592.56
368.636	602.56
368.862	606.56
369.089	557.56
369.315	625.56
369.541	598.56
369.767	601.56
369.993	604.56
370.219	609.56
370.445	597.56
370.672	624.56
370.898	633.56
371.124	624.56
371.35	628.56
371.576	644.56
371.802	630.56
372.028	646.56
372.254	629.56
372.48	635.56
372.706	646.56
372.932	654.56
373.158	672.56
373.384	662.56
373.61	636.56
373.835	646.56
374.061	639.56
374.287	636.56
374.513	667.56
374.739	687.56
374.965	667.56
375.191	721.56
375.416	713.56
375.642	680.56
375.868	679.56
376.094	672.56
376.319	649.56
376.545	665.56
376.771	648.56
376.997	642.56
377.222	647.56
377.448	644.56
377.674	629.56
377.899	630.56
378.125	619.56
378.35	626.56
378.576	627.56
378.802	643.56
379.027	619.56
379.253	632.56
379.478	624.56
379.704	629.56
379.929	618.56
380.155	633.56
380.38	624.56
380.606	601.56
380.831	638.56
381.057	644.56
381.282	634.56
381.507	657.56
381.733	644.56
381.958	647.56
382.184	644.56
382.409	645.56
382.634	652.56
382.86	674.56
383.085	677.56
383.31	675.56
383.535	711.56
383.761	721.56
383.986	709.56
384.211	703.56
384.436	735.56
384.662	752.56
384.887	774.56
385.112	753.56
385.337	776.56
385.562	784.56
385.787	779.56
386.013	784.56
386.238	769.56
386.463	802.56
386.688	774.56
386.913	761.56
387.138	768.56
387.363	757.56
387.588	751.56
387.813	760.56
388.038	760.56
388.263	758.56
388.488	748.56
388.713	729.56
388.938	759.56
389.163	760.56
389.387	753.56
389.612	722.56
389.837	732.56
390.062	763.56
390.287	747.56
390.512	752.56
390.736	739.56
390.961	766.56
391.186	786.56
391.411	785.56
391.636	840.56
391.86	851.56
392.085	856.56
392.31	881.56
392.534	808.56
392.759	822.56
392.984	811.56
393.208	790.56
393.433	810.56
393.658	796.56
393.882	828.56
394.107	831.56
394.331	832.56
394.556	839.56
394.78	809.56
395.005	841.56
395.229	826.56
395.454	822.56
395.678	865.56
395.903	874.56
396.127	888.56
396.352	820.56
396.576	812.56
396.801	828.56
397.025	811.56
397.249	841.56
397.474	848.56
397.698	857.56
397.922	839.56
398.147	870.56
398.371	845.56
398.595	894.56
398.82	940.56
399.044	994.56
399.268	1118.56
399.492	1313.56
399.717	1505.56
399.941	1532.56
400.165	1305.56
400.389	1176.56
400.613	1080.56
400.837	1023.56
401.062	965.56
401.286	951.56
401.51	948.56
401.734	933.56
401.958	983.56
402.182	979.56
402.406	996.56
402.63	991.56
402.854	1051.56
403.078	1033.56
403.302	1079.56
403.526	1092.56
403.75	1110.56
403.974	1120.56
404.198	1133.56
404.422	1138.56
404.645	1119.56
404.869	1128.56
405.093	1103.56
405.317	1067.56
405.541	1055.56
405.765	1064.56
405.988	1042.56
406.212	1058.56
406.436	1070.56
406.66	1097.56
406.883	1099.56
407.107	1174.56
407.331	1230.56
407.555	1286.56
407.778	1267.56
408.002	1211.56
408.226	1182.56
408.449	1127.56
408.673	1135.56
408.896	1117.56
409.12	1096.56
409.344	1093.56
409.567	1113.56
409.791	1131.56
410.014	1127.56
410.238	1102.56
410.461	1102.56
410.685	1084.56
410.908	1062.56
411.132	1008.56
411.355	1006.56
411.578	1005.56
411.802	991.56
412.025	1022.56
412.249	1040.56
412.472	1014.56
412.695	948.56
412.919	960.56
413.142	967.56
413.365	970.56
413.589	977.56
413.812	967.56
414.035	931.56
414.258	945.56
414.482	974.56
414.705	967.56
414.928	982.56
415.151	970.56
415.374	977.56
415.597	956.56
415.821	939.56
416.044	953.56
416.267	911.56
416.49	940.56
416.713	941.56
416.936	950.56
417.159	923.56
417.382	942.56
417.605	940.56
417.828	930.56
418.051	957.56
418.274	962.56
418.497	973.56
418.72	976.56
418.943	986.56
419.166	1049.56
419.389	1137.56
419.611	1115.56
419.834	1023.56
420.057	1031.56
420.28	971.56
420.503	969.56
420.726	953.56
420.948	942.56
421.171	939.56
421.394	958.56
421.617	961.56
421.839	977.56
422.062	968.56
422.285	961.56
422.507	997.56
422.73	1006.56
422.953	982.56
423.175	990.56
423.398	1009.56
423.621	1014.56
423.843	1042.56
424.066	1019.56
424.288	1029.56
424.511	999.56
424.733	1006.56
424.956	1002.56
425.178	994.56
425.401	963.56
425.623	993.56
425.846	942.56
426.068	955.56
426.291	916.56
426.513	904.56
426.735	902.56
426.958	919.56
427.18	864.56
427.402	861.56
427.625	857.56
427.847	869.56
428.069	854.56
428.292	860.56
428.514	842.56
428.736	850.56
428.958	863.56
429.181	834.56
429.403	837.56
429.625	849.56
429.847	841.56
430.069	851.56
430.292	828.56
430.514	831.56
430.736	834.56
430.958	862.56
431.18	838.56
431.402	862.56
431.624	825.56
431.846	840.56
432.068	858.56
432.29	896.56
432.512	834.56
432.734	863.56
432.956	857.56
433.178	864.56
433.4	874.56
433.622	869.56
433.844	887.56
434.066	872.56
434.287	882.56
434.509	903.56
434.731	954.56
434.953	985.56
435.175	991.56
435.397	969.56
435.618	936.56
435.84	916.56
436.062	866.56
436.284	860.56
436.505	867.56
436.727	863.56
436.949	880.56
437.17	866.56
437.392	864.56
437.614	849.56
437.835	814.56
438.057	840.56
438.278	832.56
438.5	826.56
438.721	833.56
438.943	869.56
439.165	837.56
439.386	831.56
439.608	866.56
439.829	878.56
440.05	849.56
440.272	886.56
440.493	872.56
440.715	855.56
440.936	903.56
441.158	918.56
441.379	918.56
441.6	966.56
441.822	1006.56
442.043	1016.56
442.264	1023.56
442.486	944.56
442.707	935.56
442.928	945.56
443.149	964.56
443.371	928.56
443.592	982.56
443.813	981.56
444.034	957.56
444.255	1042.56
444.476	1067.56
444.698	1169.56
444.919	1190.56
445.14	1284.56
445.361	1112.56
445.582	1002.56
445.803	966.56
446.024	894.56
446.245	914.56
446.466	903.56
446.687	897.56
446.908	885.56
447.129	865.56
447.35	840.56
447.571	856.56
447.792	820.56
448.013	835.56
448.234	821.56
448.455	818.56
448.675	804.56
448.896	814.56
449.117	782.56
449.338	795.56
449.559	817.56
449.779	802.56
450	800.56
450.221	784.56
450.442	814.56
450.662	825.56
450.883	852.56
451.104	827.56
451.324	831.56
451.545	836.56
451.766	836.56
451.986	811.56
452.207	819.56
452.428	789.56
452.648	792.56
452.869	770.56
453.089	806.56
453.31	794.56
453.53	789.56
453.751	785.56
453.971	788.56
454.192	764.56
454.412	756.56
454.633	774.56
454.853	755.56
455.073	754.56
455.294	784.56
455.514	753.56
455.734	770.56
455.955	739.56
456.175	731.56
456.395	739.56
456.616	750.56
456.836	730.56
457.056	753.56
457.276	750.56
457.497	751.56
457.717	738.56
457.937	777.56
458.157	768.56
458.377	778.56
458.598	785.56
458.818	789.56
459.038	821.56
459.258	859.56
459.478	878.56
459.698	896.56
459.918	943.56
460.138	950.56
460.358	1044.56
460.578	1032.56
460.798	1025.56
461.018	1056.56
461.238	1034.56
461.458	1016.56
461.678	1005.56
461.898	1012.56
462.118	1013.56
462.338	1098.56
462.558	1122.56
462.777	1138.56
462.997	1270.56
463.217	1412.56
463.437	1449.56
463.657	1302.56
463.876	1238.56
464.096	1249.56
464.316	1213.56
464.536	1237.56
464.755	1188.56
464.975	1134.56
465.195	1071.56
465.414	1002.56
465.634	942.56
465.854	945.56
466.073	869.56
466.293	859.56
466.512	855.56
466.732	846.56
466.951	842.56
467.171	824.56
467.391	817.56
467.61	828.56
467.829	808.56
468.049	835.56
468.268	822.56
468.488	782.56
468.707	812.56
468.927	801.56
469.146	795.56
469.365	825.56
469.585	806.56
469.804	842.56
470.023	840.56
470.243	841.56
470.462	875.56
470.681	862.56
470.901	860.56
471.12	856.56
471.339	823.56
471.558	809.56
471.777	848.56
471.997	806.56
472.216	783.56
472.435	785.56
472.654	819.56
472.873	788.56
473.092	772.56
473.311	801.56
473.53	772.56
473.749	766.56
473.968	753.56
474.187	774.56
474.406	787.56
474.625	764.56
474.844	778.56
475.063	795.56
475.282	796.56
475.501	775.56
475.72	786.56
475.939	798.56
476.158	781.56
476.377	818.56
476.596	807.56
476.814	820.56
477.033	834.56
477.252	850.56
477.471	860.56
477.69	881.56
477.908	886.56
478.127	926.56
478.346	913.56
478.564	979.56
478.783	959.56
479.002	985.56
479.22	987.56
479.439	970.56
479.658	947.56
479.876	954.56
480.095	998.56
480.313	1019.56
480.532	1040.56
480.751	1065.56
480.969	1025.56
481.188	957.56
481.406	956.56
481.624	924.56
481.843	898.56
482.061	904.56
482.28	881.56
482.498	884.56
482.717	875.56
482.935	874.56
483.153	879.56
483.372	882.56
483.59	890.56
483.808	868.56
484.027	901.56
484.245	902.56
484.463	904.56
484.681	912.56
484.9	929.56
485.118	940.56
485.336	917.56
485.554	929.56
485.772	960.56
485.99	970.56
486.209	971.56
486.427	949.56
486.645	958.56
486.863	959.56
487.081	946.56
487.299	944.56
487.517	942.56
487.735	895.56
487.953	918.56
488.171	934.56
488.389	911.56
488.607	928.56
488.825	919.56
489.043	912.56
489.261	922.56
489.479	944.56
489.696	906.56
489.914	922.56
490.132	927.56
490.35	939.56
490.568	937.56
490.786	951.56
491.003	955.56
491.221	958.56
491.439	938.56
491.657	936.56
491.874	931.56
492.092	951.56
492.31	951.56
492.527	943.56
492.745	969.56
492.963	968.56
493.18	987.56
493.398	986.56
493.615	957.56
493.833	971.56
494.05	966.56
494.268	959.56
494.485	972.56
494.703	986.56
494.92	981.56
495.138	977.56
495.355	972.56
495.573	985.56
495.79	982.56
496.008	986.56
496.225	1025.56
496.442	1024.56
496.66	1011.56
496.877	1025.56
497.094	1065.56
497.312	1073.56
497.529	1092.56
497.746	1096.56
497.963	1120.56
498.181	1150.56
498.398	1229.56
498.615	1318.56
498.832	1414.56
499.049	1488.56
499.267	1607.56
499.484	1798.56
499.701	1961.56
499.918	2178.56
500.135	2546.56
500.352	2914.56
500.569	3084.56
500.786	3074.56
501.003	2831.56
501.22	2524.56
501.437	2251.56
501.654	1937.56
501.871	1723.56
502.088	1589.56
502.305	1458.56
502.522	1398.56
502.739	1350.56
502.956	1298.56
503.172	1203.56
503.389	1157.56
503.606	1143.56
503.823	1135.56
504.04	1126.56
504.256	1142.56
504.473	1152.56
504.69	1196.56
504.907	1174.56
505.123	1087.56
505.34	1018.56
505.557	958.56
505.773	931.56
505.99	922.56
506.207	902.56
506.423	888.56
506.64	912.56
506.856	856.56
507.073	862.56
507.289	863.56
507.506	866.56
507.722	884.56
507.939	873.56
508.155	859.56
508.372	841.56
508.588	843.56
508.805	830.56
509.021	827.56
509.238	814.56
509.454	802.56
509.67	816.56
509.887	788.56
510.103	794.56
510.319	777.56
510.536	797.56
510.752	802.56
510.968	788.56
511.184	797.56
511.401	780.56
511.617	798.56
511.833	815.56
512.049	774.56
512.265	794.56
512.481	782.56
512.698	790.56
512.914	807.56
513.13	804.56
513.346	799.56
513.562	789.56
513.778	787.56
513.994	803.56
514.21	791.56
514.426	811.56
514.642	831.56
514.858	814.56
515.074	812.56
515.29	832.56
515.506	830.56
515.721	854.56
515.937	866.56
516.153	874.56
516.369	879.56
516.585	932.56
516.801	925.56
517.016	967.56
517.232	1067.56
517.448	1083.56
517.664	1103.56
517.879	1145.56
518.095	1118.56
518.311	1138.56
518.527	1059.56
518.742	992.56
518.958	973.56
519.173	950.56
519.389	907.56
519.605	885.56
519.82	874.56
520.036	835.56
520.251	809.56
520.467	805.56
520.682	804.56
520.898	793.56
521.113	786.56
521.329	794.56
521.544	776.56
521.76	776.56
521.975	776.56
522.19	768.56
522.406	772.56
522.621	747.56
522.836	754.56
523.052	742.56
523.267	757.56
523.482	756.56
523.698	747.56
523.913	741.56
524.128	736.56
524.343	739.56
524.559	732.56
524.774	726.56
524.989	748.56
525.204	745.56
525.419	710.56
525.634	731.56
525.849	739.56
526.064	731.56
526.28	732.56
526.495	716.56
526.71	730.56
526.925	735.56
527.14	707.56
527.355	706.56
527.57	702.56
527.785	725.56
527.999	713.56
528.214	713.56
528.429	712.56
528.644	756.56
528.859	734.56
529.074	722.56
529.289	728.56
529.503	720.56
529.718	729.56
529.933	692.56
530.148	722.56
530.363	742.56
530.577	727.56
530.792	715.56
531.007	732.56
531.221	727.56
531.436	728.56
531.651	755.56
531.865	714.56
532.08	710.56
532.295	727.56
532.509	716.56
532.724	703.56
532.938	712.56
533.153	711.56
533.367	755.56
533.582	725.56
533.796	720.56
534.011	720.56
534.225	726.56
534.44	725.56
534.654	710.56
534.868	686.56
535.083	712.56
535.297	696.56
535.511	701.56
535.726	700.56
535.94	708.56
536.154	678.56
536.369	670.56
536.583	671.56
536.797	703.56
537.011	677.56
537.225	663.56
537.44	674.56
537.654	688.56
537.868	674.56
538.082	672.56
538.296	672.56
538.51	665.56
538.724	672.56
538.938	665.56
539.153	633.56
539.367	643.56
539.581	647.56
539.795	644.56
540.009	651.56
540.222	640.56
540.436	642.56
540.65	631.56
540.864	659.56
541.078	652.56
541.292	641.56
541.506	640.56
541.72	623.56
541.934	635.56
542.147	640.56
542.361	652.56
542.575	642.56
542.789	661.56
543.002	638.56
543.216	658.56
543.43	631.56
543.644	646.56
543.857	641.56
544.071	672.56
544.285	669.56
544.498	634.56
544.712	630.56
544.925	644.56
545.139	664.56
545.352	667.56
545.566	682.56
545.779	678.56
545.993	674.56
546.206	678.56
546.42	673.56
546.633	636.56
546.847	655.56
547.06	650.56
547.274	655.56
547.487	654.56
547.7	664.56
547.914	664.56
548.127	660.56
548.34	688.56
548.554	654.56
548.767	656.56
548.98	687.56
549.193	655.56
549.407	667.56
549.62	679.56
549.833	683.56
550.046	692.56
550.259	676.56
550.473	671.56
550.686	665.56
550.899	641.56
551.112	647.56
551.325	617.56
551.538	648.56
551.751	648.56
551.964	645.56
552.177	670.56
552.39	670.56
552.603	646.56
552.816	705.56
553.029	706.56
553.242	742.56
553.455	727.56
553.667	720.56
553.88	708.56
554.093	701.56
554.306	688.56
554.519	673.56
554.732	660.56
554.944	633.56
555.157	628.56
555.37	624.56
555.583	642.56
555.795	603.56
556.008	593.56
556.221	577.56
556.433	557.56
556.646	588.56
556.859	588.56
557.071	575.56
557.284	575.56
557.496	575.56
557.709	570.56
557.921	576.56
558.134	564.56
558.346	564.56
558.559	563.56
558.771	563.56
558.984	552.56
559.196	548.56
559.409	564.56
559.621	547.56
559.833	543.56
560.046	549.56
560.258	531.56
560.47	555.56
560.683	554.56
560.895	551.56
561.107	546.56
561.32	572.56
561.532	547.56
561.744	552.56
561.956	568.56
562.168	535.56
562.381	546.56
562.593	542.56
562.805	562.56
563.017	570.56
563.229	564.56
563.441	558.56
563.653	550.56
563.865	543.56
564.077	566.56
564.289	560.56
564.501	585.56
564.713	565.56
564.925	590.56
565.137	589.56
565.349	600.56
565.561	620.56
565.773	646.56
565.985	662.56
566.197	697.56
566.408	737.56
566.62	829.56
566.832	885.56
567.044	902.56
567.255	912.56
567.467	947.56
567.679	978.56
567.891	1074.56
568.102	1078.56
568.314	1035.56
568.526	942.56
568.737	846.56
568.949	787.56
569.161	716.56
569.372	650.56
569.584	611.56
569.795	606.56
570.007	603.56
570.218	579.56
570.43	557.56
570.641	581.56
570.853	572.56
571.064	576.56
571.276	589.56
571.487	552.56
571.698	540.56
571.91	513.56
572.121	514.56
572.333	508.56
572.544	507.56
572.755	503.56
572.966	478.56
573.178	476.56
573.389	486.56
573.6	462.56
573.811	478.56
574.023	480.56
574.234	464.56
574.445	456.56
574.656	466.56
574.867	472.56
575.078	449.56
575.289	470.56
575.501	460.56
575.712	460.56
575.923	441.56
576.134	450.56
576.345	455.56
576.556	432.56
576.767	462.56
576.978	414.56
577.188	432.56
577.399	427.56
577.61	398.56
577.821	438.56
578.032	432.56
578.243	412.56
578.454	438.56
578.665	399.56
578.875	401.56
579.086	431.56
579.297	400.56
579.508	430.56
579.718	411.56
579.929	395.56
580.14	412.56
580.35	408.56
580.561	400.56
580.772	404.56
580.982	405.56
581.193	396.56
581.403	398.56
581.614	405.56
581.825	387.56
582.035	377.56
582.246	396.56
582.456	395.56
582.667	407.56
582.877	406.56
583.087	391.56
583.298	386.56
583.508	392.56
583.719	382.56
583.929	390.56
584.139	375.56
584.35	377.56
584.56	385.56
584.77	404.56
584.981	375.56
585.191	397.56
585.401	373.56
585.611	390.56
585.821	386.56
586.032	387.56
586.242	385.56
586.452	358.56
586.662	388.56
586.872	367.56
587.082	380.56
587.292	369.56
587.502	388.56
587.713	353.56
587.923	366.56
588.133	378.56
588.343	378.56
588.553	404.56
588.762	354.56
588.972	366.56
589.182	397.56
589.392	394.56
589.602	369.56
589.812	369.56
590.022	375.56
590.232	381.56
590.441	392.56
590.651	380.56
590.861	380.56
591.071	386.56
591.281	393.56
591.49	401.56
591.7	395.56
591.91	409.56
592.119	420.56
592.329	406.56
592.539	433.56
592.748	449.56
592.958	450.56
593.167	468.56
593.377	469.56
593.587	488.56
593.796	495.56
594.006	474.56
594.215	486.56
594.424	513.56
594.634	462.56
594.843	458.56
595.053	440.56
595.262	446.56
595.472	409.56
595.681	374.56
595.89	400.56
596.1	375.56
596.309	374.56
596.518	348.56
596.727	361.56
596.937	366.56
597.146	372.56
597.355	328.56
597.564	347.56
597.774	366.56
597.983	336.56
598.192	350.56
598.401	341.56
598.61	331.56
598.819	331.56
599.028	329.56
599.237	332.56
599.446	338.56
599.655	321.56
599.864	312.56
600.073	325.56
600.282	310.56
600.491	338.56
600.7	323.56
600.909	322.56
601.118	320.56
601.327	313.56
601.536	324.56
601.745	330.56
601.953	320.56
602.162	320.56
602.371	323.56
602.58	319.56
602.789	321.56
602.997	317.56
603.206	316.56
603.415	308.56
603.623	302.56
603.832	294.56
604.041	290.56
604.249	314.56
604.458	293.56
604.666	304.56
604.875	306.56
605.084	282.56
605.292	286.56
605.501	284.56
605.709	300.56
605.918	303.56
606.126	276.56
606.334	294.56
606.543	304.56
606.751	307.56
606.96	288.56
607.168	293.56
607.376	288.56
607.585	304.56
607.793	296.56
608.001	286.56
608.21	292.56
608.418	289.56
608.626	298.56
608.834	305.56
609.043	292.56
609.251	269.56
609.459	290.56
609.667	296.56
609.875	291.56
610.083	295.56
610.291	284.56
610.499	293.56
610.707	298.56
610.916	283.56
611.124	288.56
611.332	297.56
611.54	283.56
611.748	273.56
611.955	281.56
612.163	263.56
612.371	259.56
612.579	287.56
612.787	281.56
612.995	284.56
613.203	285.56
613.411	283.56
613.618	264.56
613.826	265.56
614.034	277.56
614.242	281.56
614.449	264.56
614.657	268.56
614.865	259.56
615.072	277.56
615.28	266.56
615.488	261.56
615.695	290.56
615.903	281.56
616.111	279.56
616.318	290.56
616.526	287.56
616.733	292.56
616.941	287.56
617.148	276.56
617.356	304.56
617.563	277.56
617.771	277.56
617.978	273.56
618.185	274.56
618.393	273.56
618.6	286.56
618.807	281.56
619.015	263.56
619.222	271.56
619.429	275.56
619.637	260.56
619.844	260.56
620.051	258.56
620.258	266.56
620.466	232.56
620.673	266.56
620.88	251.56
621.087	278.56
621.294	274.56
621.501	251.56
621.708	225.56
621.915	258.56
622.122	276.56
622.329	256.56
622.536	246.56
622.743	282.56
622.95	262.56
623.157	254.56
623.364	247.56
623.571	221.56
623.778	246.56
623.985	252.56
624.192	248.56
624.399	238.56
624.606	247.56
624.812	250.56
625.019	247.56
625.226	230.56
625.433	242.56
625.639	240.56
625.846	230.56
626.053	232.56
626.259	248.56
626.466	241.56
626.673	228.56
626.879	218.56
627.086	241.56
627.293	263.56
627.499	218.56
627.706	240.56
627.912	240.56
628.119	226.56
628.325	242.56
628.532	226.56
628.738	226.56
628.945	240.56
629.151	242.56
629.357	218.56
629.564	228.56
629.77	220.56
629.976	218.56
630.183	233.56
630.389	225.56
630.595	217.56
630.802	219.56
631.008	206.56
631.214	207.56
631.42	226.56
631.627	223.56
631.833	202.56
632.039	226.56
632.245	214.56
632.451	219.56
632.657	223.56
632.863	211.56
633.069	200.56
633.275	217.56
633.481	197.56
633.688	207.56
633.893	223.56
634.099	216.56
634.305	200.56
634.511	210.56
634.717	204.56
634.923	196.56
635.129	216.56
635.335	206.56
635.541	207.56
635.747	199.56
635.952	198.56
636.158	215.56
636.364	198.56
636.57	203.56
636.775	207.56
636.981	197.56
637.187	196.56
637.392	196.56
637.598	191.56
637.804	198.56
638.009	204.56
638.215	198.56
638.421	186.56
638.626	190.56
638.832	212.56
639.037	194.56
639.243	204.56
639.448	197.56
639.654	202.56
639.859	192.56
640.065	186.56
640.27	179.56
640.475	203.56
640.681	202.56
640.886	195.56
641.091	187.56
641.297	191.56
641.502	181.56
641.707	187.56
641.913	193.56
642.118	172.56
642.323	198.56
642.528	170.56
642.733	192.56
642.939	182.56
643.144	187.56
643.349	175.56
643.554	178.56
643.759	163.56
643.964	180.56
644.169	164.56
644.374	177.56
644.579	184.56
644.784	174.56
644.989	186.56
645.194	208.56
645.399	181.56
645.604	185.56
645.809	183.56
646.014	182.56
646.219	202.56
646.423	194.56
646.628	194.56
646.833	189.56
647.038	181.56
647.243	179.56
647.447	196.56
647.652	182.56
647.857	203.56
648.062	191.56
648.266	207.56
648.471	207.56
648.676	185.56
648.88	203.56
649.085	190.56
649.289	197.56
649.494	203.56
649.698	185.56
649.903	171.56
650.107	183.56
650.312	192.56
650.516	176.56
650.721	177.56
650.925	178.56
651.13	175.56
651.334	164.56
651.539	180.56
651.743	180.56
651.947	179.56
652.152	178.56
652.356	169.56
652.56	165.56
652.764	172.56
652.969	168.56
653.173	134.56
653.377	129.56
653.581	165.56
653.785	154.56
653.99	156.56
654.194	153.56
654.398	159.56
654.602	116.56
654.806	137.56
655.01	157.56
655.214	153.56
655.418	144.56
655.622	153.56
655.826	142.56
656.03	139.56
656.234	150.56
656.438	142.56
656.642	144.56
656.846	141.56
657.049	129.56
657.253	134.56
657.457	133.56
657.661	122.56
657.865	129.56
658.068	119.56
658.272	105.56
658.476	110.56
658.68	102.56
658.883	113.56
659.087	119.56
659.291	104.56
659.494	96.56
659.698	98.56
659.901	98.56
660.105	92.56
660.309	98.56
660.512	84.56
660.716	88.56
660.919	94.56
661.123	93.56
661.326	90.56
661.53	87.56
661.733	95.56
661.936	90.56
662.14	77.56
662.343	90.56
662.546	77.56
662.75	79.56
662.953	88.56
663.156	74.56
663.36	88.56
663.563	87.56
663.766	92.56
663.969	89.56
664.173	80.56
664.376	80.56
664.579	73.56
664.782	84.56
664.985	71.56
665.188	89.56
665.391	72.56
665.594	80.56
665.797	82.56
666	78.56
666.203	74.56
666.406	74.56
666.609	81.56
666.812	83.56
667.015	84.56
667.218	82.56
667.421	77.56
667.624	82.56
667.827	84.56
668.03	77.56
668.232	75.56
668.435	83.56
668.638	68.56
668.841	70.56
669.043	84.56
669.246	83.56
669.449	76.56
669.651	82.56
669.854	80.56
670.057	87.56
670.259	87.56
670.462	76.56
670.665	76.56
670.867	87.56
671.07	85.56
671.272	72.56
671.475	87.56
671.677	76.56
671.88	97.56
672.082	77.56
672.284	90.56
672.487	79.56
672.689	80.56
672.892	76.56
