Data from NiCl2@0.125M.TitratingCurve.Agarose3%dH2O.NegLispCup.LampEnergy10.LIBS07252019_HRD10591_18-27-45-574.txt Node
Date: Thu Jul 25 18:27:45 EDT 2019
User: cochatt
Spectrometer: HR+D1059
Trigger mode: 1
Integration Time (sec): 1.000000E-1
Scans to average: 1
Electric dark correction enabled: true
Nonlinearity correction enabled: false
Boxcar width: 0
XAxis mode: Wavelengths
Number of Pixels in Spectrum: 2048
>>>>>Begin Spectral Data<<<<<
223.165	-17.56
223.4	-17.56
223.635	-17.56
223.869	-26.56
224.104	-9.56
224.338	-11.56
224.573	-11.56
224.808	-7.56
225.042	-9.56
225.277	3.44
225.511	-13.56
225.746	9.44
225.98	-0.56
226.215	12.44
226.449	15.44
226.683	16.44
226.918	20.44
227.152	30.44
227.387	48.44
227.621	38.44
227.856	39.44
228.09	55.44
228.324	45.44
228.559	68.44
228.793	77.44
229.027	121.44
229.262	125.44
229.496	128.44
229.73	151.44
229.964	142.44
230.199	134.44
230.433	151.44
230.667	152.44
230.901	163.44
231.136	158.44
231.37	158.44
231.604	155.44
231.838	169.44
232.072	184.44
232.306	150.44
232.541	175.44
232.775	186.44
233.009	170.44
233.243	178.44
233.477	183.44
233.711	160.44
233.945	168.44
234.179	148.44
234.413	171.44
234.647	195.44
234.881	180.44
235.115	194.44
235.349	179.44
235.583	165.44
235.817	171.44
236.051	172.44
236.285	173.44
236.519	182.44
236.753	188.44
236.987	188.44
237.221	190.44
237.455	202.44
237.689	196.44
237.922	207.44
238.156	179.44
238.39	216.44
238.624	204.44
238.858	201.44
239.091	224.44
239.325	204.44
239.559	200.44
239.793	218.44
240.027	207.44
240.26	200.44
240.494	217.44
240.728	219.44
240.961	221.44
241.195	212.44
241.429	227.44
241.662	230.44
241.896	222.44
242.13	242.44
242.363	228.44
242.597	226.44
242.83	244.44
243.064	222.44
243.298	242.44
243.531	278.44
243.765	245.44
243.998	245.44
244.232	266.44
244.465	234.44
244.699	238.44
244.932	266.44
245.166	267.44
245.399	266.44
245.633	277.44
245.866	261.44
246.099	278.44
246.333	274.44
246.566	259.44
246.8	269.44
247.033	280.44
247.266	274.44
247.5	270.44
247.733	278.44
247.966	297.44
248.2	284.44
248.433	288.44
248.666	292.44
248.899	288.44
249.133	307.44
249.366	295.44
249.599	314.44
249.832	308.44
250.066	318.44
250.299	310.44
250.532	301.44
250.765	310.44
250.998	326.44
251.231	317.44
251.465	328.44
251.698	344.44
251.931	357.44
252.164	333.44
252.397	328.44
252.63	342.44
252.863	332.44
253.096	343.44
253.329	333.44
253.562	340.44
253.795	340.44
254.028	348.44
254.261	336.44
254.494	343.44
254.727	346.44
254.96	349.44
255.193	363.44
255.426	357.44
255.659	363.44
255.892	373.44
256.124	362.44
256.357	364.44
256.59	357.44
256.823	352.44
257.056	342.44
257.289	380.44
257.521	362.44
257.754	374.44
257.987	372.44
258.22	349.44
258.452	376.44
258.685	396.44
258.918	384.44
259.151	387.44
259.383	399.44
259.616	391.44
259.849	390.44
260.081	388.44
260.314	391.44
260.547	381.44
260.779	400.44
261.012	402.44
261.244	418.44
261.477	404.44
261.71	407.44
261.942	408.44
262.175	411.44
262.407	418.44
262.64	398.44
262.872	414.44
263.105	414.44
263.337	418.44
263.57	412.44
263.802	421.44
264.035	435.44
264.267	410.44
264.499	430.44
264.732	443.44
264.964	429.44
265.197	441.44
265.429	448.44
265.661	432.44
265.894	440.44
266.126	455.44
266.358	441.44
266.591	443.44
266.823	447.44
267.055	446.44
267.287	454.44
267.52	453.44
267.752	468.44
267.984	475.44
268.216	478.44
268.448	455.44
268.681	460.44
268.913	453.44
269.145	454.44
269.377	453.44
269.609	469.44
269.841	474.44
270.073	482.44
270.306	465.44
270.538	481.44
270.77	472.44
271.002	472.44
271.234	479.44
271.466	468.44
271.698	500.44
271.93	482.44
272.162	480.44
272.394	492.44
272.626	480.44
272.858	491.44
273.09	518.44
273.322	492.44
273.553	513.44
273.785	505.44
274.017	511.44
274.249	522.44
274.481	511.44
274.713	510.44
274.945	527.44
275.176	506.44
275.408	531.44
275.64	526.44
275.872	495.44
276.104	532.44
276.335	528.44
276.567	515.44
276.799	540.44
277.031	540.44
277.262	531.44
277.494	531.44
277.726	560.44
277.957	564.44
278.189	538.44
278.421	530.44
278.652	544.44
278.884	548.44
279.115	584.44
279.347	556.44
279.579	533.44
279.81	571.44
280.042	567.44
280.273	582.44
280.505	566.44
280.736	585.44
280.968	566.44
281.199	567.44
281.431	587.44
281.662	603.44
281.894	581.44
282.125	587.44
282.356	597.44
282.588	589.44
282.819	572.44
283.051	612.44
283.282	598.44
283.513	619.44
283.745	627.44
283.976	592.44
284.207	622.44
284.439	575.44
284.67	596.44
284.901	622.44
285.132	623.44
285.364	618.44
285.595	620.44
285.826	617.44
286.057	621.44
286.288	604.44
286.52	621.44
286.751	642.44
286.982	637.44
287.213	650.44
287.444	616.44
287.675	658.44
287.906	654.44
288.138	642.44
288.369	646.44
288.6	659.44
288.831	645.44
289.062	654.44
289.293	628.44
289.524	654.44
289.755	646.44
289.986	644.44
290.217	653.44
290.448	636.44
290.679	650.44
290.91	663.44
291.141	660.44
291.371	685.44
291.602	658.44
291.833	627.44
292.064	670.44
292.295	675.44
292.526	658.44
292.757	668.44
292.987	680.44
293.218	684.44
293.449	691.44
293.68	660.44
293.91	659.44
294.141	653.44
294.372	660.44
294.603	657.44
294.833	678.44
295.064	655.44
295.295	664.44
295.525	706.44
295.756	670.44
295.987	680.44
296.217	678.44
296.448	674.44
296.679	694.44
296.909	701.44
297.14	683.44
297.37	721.44
297.601	723.44
297.831	703.44
298.062	718.44
298.292	740.44
298.523	709.44
298.753	746.44
298.984	718.44
299.214	738.44
299.445	712.44
299.675	739.44
299.905	763.44
300.136	721.44
300.366	729.44
300.597	711.44
300.827	730.44
301.057	761.44
301.288	774.44
301.518	740.44
301.748	769.44
301.979	772.44
302.209	803.44
302.439	784.44
302.669	780.44
302.9	743.44
303.13	745.44
303.36	754.44
303.59	735.44
303.82	774.44
304.051	772.44
304.281	784.44
304.511	770.44
304.741	760.44
304.971	749.44
305.201	744.44
305.431	744.44
305.661	741.44
305.891	730.44
306.121	736.44
306.352	735.44
306.582	763.44
306.812	729.44
307.042	743.44
307.272	756.44
307.502	724.44
307.731	746.44
307.961	738.44
308.191	731.44
308.421	734.44
308.651	770.44
308.881	722.44
309.111	719.44
309.341	724.44
309.571	696.44
309.8	726.44
310.03	728.44
310.26	734.44
310.49	738.44
310.72	723.44
310.949	746.44
311.179	744.44
311.409	748.44
311.639	782.44
311.868	747.44
312.098	751.44
312.328	757.44
312.557	766.44
312.787	749.44
313.017	766.44
313.246	776.44
313.476	787.44
313.706	796.44
313.935	791.44
314.165	782.44
314.394	801.44
314.624	806.44
314.853	792.44
315.083	797.44
315.312	783.44
315.542	789.44
315.771	792.44
316.001	786.44
316.23	790.44
316.46	763.44
316.689	775.44
316.919	760.44
317.148	798.44
317.377	802.44
317.607	790.44
317.836	756.44
318.065	783.44
318.295	776.44
318.524	800.44
318.753	790.44
318.983	791.44
319.212	761.44
319.441	772.44
319.67	775.44
319.9	759.44
320.129	761.44
320.358	796.44
320.587	780.44
320.816	774.44
321.046	798.44
321.275	774.44
321.504	776.44
321.733	781.44
321.962	787.44
322.191	797.44
322.42	792.44
322.649	802.44
322.878	781.44
323.108	796.44
323.337	778.44
323.566	799.44
323.795	822.44
324.024	820.44
324.253	820.44
324.482	816.44
324.71	818.44
324.939	789.44
325.168	821.44
325.397	821.44
325.626	822.44
325.855	845.44
326.084	845.44
326.313	860.44
326.542	882.44
326.77	882.44
326.999	860.44
327.228	822.44
327.457	841.44
327.686	839.44
327.914	854.44
328.143	825.44
328.372	852.44
328.6	867.44
328.829	872.44
329.058	842.44
329.287	848.44
329.515	830.44
329.744	858.44
329.972	880.44
330.201	852.44
330.43	890.44
330.658	871.44
330.887	888.44
331.115	887.44
331.344	890.44
331.572	903.44
331.801	928.44
332.03	943.44
332.258	963.44
332.486	1013.44
332.715	1032.44
332.943	1027.44
333.172	1110.44
333.4	1176.44
333.629	1195.44
333.857	1167.44
334.085	1138.44
334.314	1121.44
334.542	1130.44
334.771	1119.44
334.999	1104.44
335.227	1081.44
335.455	1070.44
335.684	1050.44
335.912	1059.44
336.14	1063.44
336.369	1051.44
336.597	1047.44
336.825	1026.44
337.053	1048.44
337.281	1027.44
337.51	995.44
337.738	976.44
337.966	982.44
338.194	940.44
338.422	930.44
338.65	944.44
338.878	925.44
339.106	939.44
339.334	946.44
339.562	896.44
339.79	935.44
340.018	908.44
340.246	895.44
340.474	906.44
340.702	885.44
340.93	890.44
341.158	901.44
341.386	905.44
341.614	897.44
341.842	900.44
342.07	902.44
342.298	864.44
342.526	886.44
342.754	880.44
342.981	878.44
343.209	902.44
343.437	959.44
343.665	1028.44
343.893	1081.44
344.12	1107.44
344.348	1048.44
344.576	1032.44
344.804	982.44
345.031	928.44
345.259	948.44
345.487	898.44
345.714	914.44
345.942	886.44
346.17	867.44
346.397	875.44
346.625	868.44
346.853	860.44
347.08	867.44
347.308	839.44
347.535	877.44
347.763	867.44
347.99	879.44
348.218	885.44
348.445	882.44
348.673	857.44
348.9	852.44
349.128	853.44
349.355	853.44
349.583	854.44
349.81	824.44
350.037	826.44
350.265	823.44
350.492	834.44
350.72	845.44
350.947	832.44
351.174	842.44
351.402	803.44
351.629	843.44
351.856	823.44
352.083	810.44
352.311	781.44
352.538	796.44
352.765	801.44
352.992	822.44
353.22	812.44
353.447	806.44
353.674	806.44
353.901	809.44
354.128	838.44
354.355	801.44
354.583	815.44
354.81	828.44
355.037	844.44
355.264	828.44
355.491	853.44
355.718	824.44
355.945	839.44
356.172	824.44
356.399	821.44
356.626	825.44
356.853	848.44
357.08	811.44
357.307	822.44
357.534	818.44
357.761	818.44
357.988	840.44
358.215	822.44
358.441	841.44
358.668	834.44
358.895	822.44
359.122	825.44
359.349	807.44
359.576	813.44
359.802	813.44
360.029	828.44
360.256	815.44
360.483	836.44
360.709	818.44
360.936	848.44
361.163	827.44
361.39	826.44
361.616	822.44
361.843	843.44
362.07	831.44
362.296	845.44
362.523	810.44
362.749	817.44
362.976	831.44
363.203	803.44
363.429	825.44
363.656	806.44
363.882	844.44
364.109	814.44
364.335	821.44
364.562	831.44
364.788	810.44
365.015	832.44
365.241	804.44
365.468	822.44
365.694	803.44
365.92	818.44
366.147	797.44
366.373	812.44
366.599	820.44
366.826	831.44
367.052	822.44
367.278	808.44
367.505	829.44
367.731	852.44
367.957	826.44
368.184	831.44
368.41	841.44
368.636	822.44
368.862	836.44
369.089	808.44
369.315	839.44
369.541	841.44
369.767	839.44
369.993	828.44
370.219	840.44
370.445	878.44
370.672	877.44
370.898	882.44
371.124	852.44
371.35	912.44
371.576	878.44
371.802	900.44
372.028	874.44
372.254	906.44
372.48	892.44
372.706	928.44
372.932	962.44
373.158	928.44
373.384	877.44
373.61	893.44
373.835	918.44
374.061	883.44
374.287	930.44
374.513	931.44
374.739	936.44
374.965	983.44
375.191	1034.44
375.416	1001.44
375.642	976.44
375.868	946.44
376.094	934.44
376.319	930.44
376.545	931.44
376.771	907.44
376.997	888.44
377.222	920.44
377.448	910.44
377.674	902.44
377.899	878.44
378.125	884.44
378.35	860.44
378.576	886.44
378.802	876.44
379.027	899.44
379.253	890.44
379.478	894.44
379.704	917.44
379.929	888.44
380.155	906.44
380.38	896.44
380.606	886.44
380.831	887.44
381.057	878.44
381.282	876.44
381.507	898.44
381.733	908.44
381.958	884.44
382.184	902.44
382.409	903.44
382.634	926.44
382.86	955.44
383.085	963.44
383.31	960.44
383.535	974.44
383.761	1001.44
383.986	1005.44
384.211	1055.44
384.436	1046.44
384.662	1056.44
384.887	1107.44
385.112	1106.44
385.337	1061.44
385.562	1046.44
385.787	1091.44
386.013	1119.44
386.238	1106.44
386.463	1118.44
386.688	1079.44
386.913	1082.44
387.138	1061.44
387.363	1060.44
387.588	1083.44
387.813	1079.44
388.038	1049.44
388.263	1078.44
388.488	1050.44
388.713	1074.44
388.938	1078.44
389.163	1037.44
389.387	1078.44
389.612	1048.44
389.837	1052.44
390.062	1048.44
390.287	1044.44
390.512	1051.44
390.736	1049.44
390.961	1090.44
391.186	1083.44
391.411	1111.44
391.636	1173.44
391.86	1190.44
392.085	1254.44
392.31	1227.44
392.534	1213.44
392.759	1162.44
392.984	1170.44
393.208	1139.44
393.433	1148.44
393.658	1170.44
393.882	1135.44
394.107	1158.44
394.331	1176.44
394.556	1127.44
394.78	1144.44
395.005	1182.44
395.229	1142.44
395.454	1201.44
395.678	1231.44
395.903	1212.44
396.127	1195.44
396.352	1160.44
396.576	1144.44
396.801	1127.44
397.025	1174.44
397.249	1174.44
397.474	1203.44
397.698	1215.44
397.922	1234.44
398.147	1213.44
398.371	1236.44
398.595	1282.44
398.82	1323.44
399.044	1442.44
399.268	1590.44
399.492	1852.44
399.717	2118.44
399.941	2112.44
400.165	1879.44
400.389	1645.44
400.613	1530.44
400.837	1442.44
401.062	1413.44
401.286	1364.44
401.51	1344.44
401.734	1347.44
401.958	1388.44
402.182	1444.44
402.406	1394.44
402.63	1435.44
402.854	1444.44
403.078	1462.44
403.302	1516.44
403.526	1546.44
403.75	1559.44
403.974	1646.44
404.198	1619.44
404.422	1629.44
404.645	1580.44
404.869	1570.44
405.093	1595.44
405.317	1515.44
405.541	1522.44
405.765	1541.44
405.988	1496.44
406.212	1484.44
406.436	1502.44
406.66	1540.44
406.883	1538.44
407.107	1694.44
407.331	1727.44
407.555	1817.44
407.778	1806.44
408.002	1751.44
408.226	1702.44
408.449	1667.44
408.673	1563.44
408.896	1558.44
409.12	1547.44
409.344	1558.44
409.567	1536.44
409.791	1574.44
410.014	1520.44
410.238	1529.44
410.461	1534.44
410.685	1471.44
410.908	1470.44
411.132	1451.44
411.355	1403.44
411.578	1422.44
411.802	1406.44
412.025	1437.44
412.249	1443.44
412.472	1454.44
412.695	1413.44
412.919	1352.44
413.142	1369.44
413.365	1354.44
413.589	1360.44
413.812	1371.44
414.035	1370.44
414.258	1351.44
414.482	1355.44
414.705	1387.44
414.928	1406.44
415.151	1374.44
415.374	1389.44
415.597	1371.44
415.821	1362.44
416.044	1325.44
416.267	1316.44
416.49	1327.44
416.713	1380.44
416.936	1380.44
417.159	1319.44
417.382	1351.44
417.605	1327.44
417.828	1330.44
418.051	1370.44
418.274	1370.44
418.497	1374.44
418.72	1375.44
418.943	1387.44
419.166	1457.44
419.389	1594.44
419.611	1544.44
419.834	1493.44
420.057	1418.44
420.28	1410.44
420.503	1378.44
420.726	1336.44
420.948	1324.44
421.171	1362.44
421.394	1349.44
421.617	1366.44
421.839	1386.44
422.062	1358.44
422.285	1347.44
422.507	1375.44
422.73	1383.44
422.953	1427.44
423.175	1429.44
423.398	1433.44
423.621	1446.44
423.843	1462.44
424.066	1482.44
424.288	1439.44
424.511	1449.44
424.733	1382.44
424.956	1377.44
425.178	1360.44
425.401	1365.44
425.623	1348.44
425.846	1321.44
426.068	1317.44
426.291	1321.44
426.513	1280.44
426.735	1271.44
426.958	1261.44
427.18	1227.44
427.402	1216.44
427.625	1215.44
427.847	1191.44
428.069	1206.44
428.292	1183.44
428.514	1169.44
428.736	1210.44
428.958	1196.44
429.181	1177.44
429.403	1159.44
429.625	1146.44
429.847	1127.44
430.069	1154.44
430.292	1178.44
430.514	1158.44
430.736	1178.44
430.958	1167.44
431.18	1132.44
431.402	1162.44
431.624	1195.44
431.846	1198.44
432.068	1224.44
432.29	1214.44
432.512	1180.44
432.734	1195.44
432.956	1178.44
433.178	1237.44
433.4	1205.44
433.622	1210.44
433.844	1232.44
434.066	1222.44
434.287	1219.44
434.509	1266.44
434.731	1262.44
434.953	1394.44
435.175	1382.44
435.397	1370.44
435.618	1285.44
435.84	1224.44
436.062	1197.44
436.284	1231.44
436.505	1189.44
436.727	1204.44
436.949	1216.44
437.17	1193.44
437.392	1182.44
437.614	1163.44
437.835	1156.44
438.057	1175.44
438.278	1142.44
438.5	1157.44
438.721	1147.44
438.943	1158.44
439.165	1168.44
439.386	1158.44
439.608	1213.44
439.829	1177.44
440.05	1205.44
440.272	1187.44
440.493	1202.44
440.715	1226.44
440.936	1234.44
441.158	1237.44
441.379	1282.44
441.6	1368.44
441.822	1370.44
442.043	1365.44
442.264	1303.44
442.486	1312.44
442.707	1295.44
442.928	1346.44
443.149	1368.44
443.371	1306.44
443.592	1367.44
443.813	1359.44
444.034	1386.44
444.255	1445.44
444.476	1478.44
444.698	1601.44
444.919	1640.44
445.14	1740.44
445.361	1518.44
445.582	1418.44
445.803	1297.44
446.024	1334.44
446.245	1255.44
446.466	1260.44
446.687	1196.44
446.908	1235.44
447.129	1212.44
447.35	1176.44
447.571	1187.44
447.792	1131.44
448.013	1132.44
448.234	1114.44
448.455	1091.44
448.675	1130.44
448.896	1067.44
449.117	1084.44
449.338	1098.44
449.559	1096.44
449.779	1108.44
450	1090.44
450.221	1087.44
450.442	1071.44
450.662	1093.44
450.883	1114.44
451.104	1130.44
451.324	1131.44
451.545	1120.44
451.766	1098.44
451.986	1088.44
452.207	1107.44
452.428	1133.44
452.648	1138.44
452.869	1094.44
453.089	1070.44
453.31	1103.44
453.53	1057.44
453.751	1050.44
453.971	1050.44
454.192	1063.44
454.412	1040.44
454.633	1028.44
454.853	1018.44
455.073	1047.44
455.294	1039.44
455.514	1048.44
455.734	1027.44
455.955	1001.44
456.175	1014.44
456.395	1020.44
456.616	995.44
456.836	1002.44
457.056	1006.44
457.276	975.44
457.497	1007.44
457.717	1012.44
457.937	1031.44
458.157	1060.44
458.377	1056.44
458.598	1063.44
458.818	1102.44
459.038	1163.44
459.258	1157.44
459.478	1216.44
459.698	1206.44
459.918	1296.44
460.138	1309.44
460.358	1433.44
460.578	1442.44
460.798	1423.44
461.018	1443.44
461.238	1399.44
461.458	1415.44
461.678	1391.44
461.898	1440.44
462.118	1416.44
462.338	1498.44
462.558	1528.44
462.777	1606.44
462.997	1759.44
463.217	1954.44
463.437	1962.44
463.657	1771.44
463.876	1650.44
464.096	1693.44
464.316	1649.44
464.536	1668.44
464.755	1605.44
464.975	1518.44
465.195	1465.44
465.414	1399.44
465.634	1299.44
465.854	1271.44
466.073	1241.44
466.293	1192.44
466.512	1156.44
466.732	1164.44
466.951	1167.44
467.171	1127.44
467.391	1158.44
467.61	1127.44
467.829	1110.44
468.049	1123.44
468.268	1080.44
468.488	1086.44
468.707	1090.44
468.927	1082.44
469.146	1103.44
469.365	1091.44
469.585	1127.44
469.804	1126.44
470.023	1168.44
470.243	1169.44
470.462	1172.44
470.681	1210.44
470.901	1156.44
471.12	1168.44
471.339	1155.44
471.558	1152.44
471.777	1131.44
471.997	1106.44
472.216	1090.44
472.435	1097.44
472.654	1093.44
472.873	1066.44
473.092	1060.44
473.311	1039.44
473.53	1076.44
473.749	1027.44
473.968	1048.44
474.187	1041.44
474.406	1075.44
474.625	1077.44
474.844	1081.44
475.063	1071.44
475.282	1059.44
475.501	1053.44
475.72	1093.44
475.939	1104.44
476.158	1087.44
476.377	1080.44
476.596	1120.44
476.814	1150.44
477.033	1123.44
477.252	1158.44
477.471	1186.44
477.69	1171.44
477.908	1204.44
478.127	1263.44
478.346	1231.44
478.564	1292.44
478.783	1306.44
479.002	1355.44
479.22	1333.44
479.439	1356.44
479.658	1297.44
479.876	1337.44
480.095	1340.44
480.313	1386.44
480.532	1437.44
480.751	1460.44
480.969	1395.44
481.188	1306.44
481.406	1296.44
481.624	1235.44
481.843	1217.44
482.061	1207.44
482.28	1204.44
482.498	1194.44
482.717	1208.44
482.935	1208.44
483.153	1219.44
483.372	1186.44
483.59	1202.44
483.808	1228.44
484.027	1208.44
484.245	1210.44
484.463	1242.44
484.681	1222.44
484.9	1245.44
485.118	1256.44
485.336	1267.44
485.554	1258.44
485.772	1226.44
485.99	1277.44
486.209	1257.44
486.427	1272.44
486.645	1279.44
486.863	1277.44
487.081	1274.44
487.299	1230.44
487.517	1258.44
487.735	1251.44
487.953	1259.44
488.171	1272.44
488.389	1253.44
488.607	1237.44
488.825	1214.44
489.043	1210.44
489.261	1252.44
489.479	1239.44
489.696	1244.44
489.914	1244.44
490.132	1256.44
490.35	1268.44
490.568	1258.44
490.786	1245.44
491.003	1277.44
491.221	1287.44
491.439	1267.44
491.657	1249.44
491.874	1295.44
492.092	1263.44
492.31	1281.44
492.527	1270.44
492.745	1310.44
492.963	1276.44
493.18	1318.44
493.398	1320.44
493.615	1312.44
493.833	1311.44
494.05	1356.44
494.268	1344.44
494.485	1352.44
494.703	1363.44
494.92	1354.44
495.138	1342.44
495.355	1332.44
495.573	1391.44
495.79	1342.44
496.008	1364.44
496.225	1344.44
496.442	1373.44
496.66	1377.44
496.877	1410.44
497.094	1402.44
497.312	1456.44
497.529	1497.44
497.746	1510.44
497.963	1599.44
498.181	1658.44
498.398	1759.44
498.615	1772.44
498.832	1938.44
499.049	2063.44
499.267	2253.44
499.484	2431.44
499.701	2742.44
499.918	3124.44
500.135	3564.44
500.352	4130.44
500.569	4356.44
500.786	4290.44
501.003	3900.44
501.22	3446.44
501.437	3039.44
501.654	2691.44
501.871	2418.44
502.088	2210.44
502.305	2056.44
502.522	1944.44
502.739	1885.44
502.956	1759.44
503.172	1702.44
503.389	1650.44
503.606	1593.44
503.823	1507.44
504.04	1542.44
504.256	1556.44
504.473	1617.44
504.69	1652.44
504.907	1576.44
505.123	1482.44
505.34	1438.44
505.557	1355.44
505.773	1321.44
505.99	1245.44
506.207	1248.44
506.423	1222.44
506.64	1198.44
506.856	1205.44
507.073	1186.44
507.289	1162.44
507.506	1178.44
507.722	1190.44
507.939	1163.44
508.155	1139.44
508.372	1152.44
508.588	1154.44
508.805	1129.44
509.021	1091.44
509.238	1130.44
509.454	1106.44
509.67	1109.44
509.887	1101.44
510.103	1084.44
510.319	1088.44
510.536	1052.44
510.752	1082.44
510.968	1074.44
511.184	1085.44
511.401	1077.44
511.617	1052.44
511.833	1068.44
512.049	1053.44
512.265	1045.44
512.481	1100.44
512.698	1050.44
512.914	1103.44
513.13	1052.44
513.346	1050.44
513.562	1073.44
513.778	1099.44
513.994	1093.44
514.21	1081.44
514.426	1064.44
514.642	1111.44
514.858	1140.44
515.074	1100.44
515.29	1108.44
515.506	1112.44
515.721	1135.44
515.937	1166.44
516.153	1158.44
516.369	1186.44
516.585	1209.44
516.801	1274.44
517.016	1334.44
517.232	1404.44
517.448	1454.44
517.664	1563.44
517.879	1548.44
518.095	1550.44
518.311	1510.44
518.527	1438.44
518.742	1342.44
518.958	1327.44
519.173	1292.44
519.389	1224.44
519.605	1171.44
519.82	1129.44
520.036	1132.44
520.251	1127.44
520.467	1121.44
520.682	1092.44
520.898	1073.44
521.113	1083.44
521.329	1032.44
521.544	1032.44
521.76	1034.44
521.975	1014.44
522.19	1000.44
522.406	1034.44
522.621	1002.44
522.836	989.44
523.052	1019.44
523.267	973.44
523.482	1000.44
523.698	1006.44
523.913	991.44
524.128	953.44
524.343	989.44
524.559	999.44
524.774	962.44
524.989	986.44
525.204	986.44
525.419	981.44
525.634	960.44
525.849	1008.44
526.064	1001.44
526.28	965.44
526.495	966.44
526.71	951.44
526.925	956.44
527.14	958.44
527.355	962.44
527.57	960.44
527.785	935.44
527.999	963.44
528.214	958.44
528.429	945.44
528.644	982.44
528.859	966.44
529.074	986.44
529.289	944.44
529.503	955.44
529.718	933.44
529.933	942.44
530.148	970.44
530.363	965.44
530.577	969.44
530.792	971.44
531.007	941.44
531.221	937.44
531.436	967.44
531.651	948.44
531.865	973.44
532.08	982.44
532.295	974.44
532.509	944.44
532.724	950.44
532.938	963.44
533.153	958.44
533.367	972.44
533.582	940.44
533.796	954.44
534.011	955.44
534.225	962.44
534.44	930.44
534.654	944.44
534.868	957.44
535.083	950.44
535.297	947.44
535.511	932.44
535.726	906.44
535.94	941.44
536.154	912.44
536.369	899.44
536.583	889.44
536.797	910.44
537.011	884.44
537.225	890.44
537.44	879.44
537.654	875.44
537.868	858.44
538.082	888.44
538.296	859.44
538.51	852.44
538.724	858.44
538.938	869.44
539.153	877.44
539.367	861.44
539.581	858.44
539.795	854.44
540.009	861.44
540.222	841.44
540.436	842.44
540.65	871.44
540.864	894.44
541.078	858.44
541.292	862.44
541.506	840.44
541.72	868.44
541.934	848.44
542.147	853.44
542.361	846.44
542.575	847.44
542.789	864.44
543.002	811.44
543.216	844.44
543.43	852.44
543.644	842.44
543.857	870.44
544.071	869.44
544.285	855.44
544.498	848.44
544.712	867.44
544.925	877.44
545.139	882.44
545.352	848.44
545.566	880.44
545.779	897.44
545.993	904.44
546.206	872.44
546.42	898.44
546.633	888.44
546.847	872.44
547.06	892.44
547.274	861.44
547.487	857.44
547.7	893.44
547.914	894.44
548.127	890.44
548.34	903.44
548.554	875.44
548.767	885.44
548.98	888.44
549.193	888.44
549.407	884.44
549.62	906.44
549.833	936.44
550.046	926.44
550.259	921.44
550.473	901.44
550.686	857.44
550.899	898.44
551.112	866.44
551.325	845.44
551.538	870.44
551.751	845.44
551.964	850.44
552.177	879.44
552.39	876.44
552.603	911.44
552.816	928.44
553.029	984.44
553.242	987.44
553.455	994.44
553.667	988.44
553.88	978.44
554.093	936.44
554.306	908.44
554.519	902.44
554.732	879.44
554.944	854.44
555.157	839.44
555.37	842.44
555.583	828.44
555.795	807.44
556.008	774.44
556.221	780.44
556.433	773.44
556.646	762.44
556.859	768.44
557.071	755.44
557.284	749.44
557.496	739.44
557.709	734.44
557.921	747.44
558.134	743.44
558.346	738.44
558.559	760.44
558.771	736.44
558.984	747.44
559.196	723.44
559.409	760.44
559.621	737.44
559.833	719.44
560.046	733.44
560.258	709.44
560.47	738.44
560.683	724.44
560.895	724.44
561.107	738.44
561.32	713.44
561.532	715.44
561.744	717.44
561.956	724.44
562.168	719.44
562.381	713.44
562.593	711.44
562.805	727.44
563.017	701.44
563.229	724.44
563.441	723.44
563.653	753.44
563.865	751.44
564.077	740.44
564.289	739.44
564.501	759.44
564.713	743.44
564.925	777.44
565.137	779.44
565.349	781.44
565.561	862.44
565.773	858.44
565.985	897.44
566.197	937.44
566.408	1030.44
566.62	1087.44
566.832	1250.44
567.044	1234.44
567.255	1204.44
567.467	1209.44
567.679	1340.44
567.891	1422.44
568.102	1477.44
568.314	1395.44
568.526	1244.44
568.737	1136.44
568.949	1043.44
569.161	937.44
569.372	855.44
569.584	830.44
569.795	796.44
570.007	741.44
570.218	763.44
570.43	770.44
570.641	742.44
570.853	755.44
571.064	759.44
571.276	756.44
571.487	739.44
571.698	700.44
571.91	678.44
572.121	673.44
572.333	661.44
572.544	630.44
572.755	636.44
572.966	630.44
573.178	631.44
573.389	623.44
573.6	621.44
573.811	605.44
574.023	590.44
574.234	581.44
574.445	576.44
574.656	610.44
574.867	609.44
575.078	594.44
575.289	600.44
575.501	576.44
575.712	567.44
575.923	576.44
576.134	571.44
576.345	562.44
576.556	571.44
576.767	557.44
576.978	551.44
577.188	558.44
577.399	541.44
577.61	536.44
577.821	552.44
578.032	542.44
578.243	552.44
578.454	554.44
578.665	541.44
578.875	511.44
579.086	496.44
579.297	529.44
579.508	526.44
579.718	540.44
579.929	518.44
580.14	507.44
580.35	524.44
580.561	522.44
580.772	517.44
580.982	501.44
581.193	512.44
581.403	498.44
581.614	500.44
581.825	512.44
582.035	487.44
582.246	516.44
582.456	513.44
582.667	521.44
582.877	505.44
583.087	502.44
583.298	498.44
583.508	488.44
583.719	497.44
583.929	483.44
584.139	494.44
584.35	475.44
584.56	482.44
584.77	498.44
584.981	506.44
585.191	481.44
585.401	460.44
585.611	478.44
585.821	474.44
586.032	472.44
586.242	488.44
586.452	508.44
586.662	466.44
586.872	468.44
587.082	491.44
587.292	475.44
587.502	477.44
587.713	453.44
587.923	474.44
588.133	486.44
588.343	482.44
588.553	479.44
588.762	460.44
588.972	471.44
589.182	489.44
589.392	491.44
589.602	475.44
589.812	447.44
590.022	471.44
590.232	472.44
590.441	459.44
590.651	484.44
590.861	480.44
591.071	503.44
591.281	501.44
591.49	477.44
591.7	503.44
591.91	521.44
592.119	517.44
592.329	524.44
592.539	543.44
592.748	581.44
592.958	579.44
593.167	602.44
593.377	616.44
593.587	617.44
593.796	618.44
594.006	625.44
594.215	626.44
594.424	617.44
594.634	604.44
594.843	579.44
595.053	548.44
595.262	538.44
595.472	510.44
595.681	502.44
595.89	504.44
596.1	468.44
596.309	499.44
596.518	471.44
596.727	445.44
596.937	436.44
597.146	450.44
597.355	446.44
597.564	455.44
597.774	435.44
597.983	410.44
598.192	444.44
598.401	427.44
598.61	432.44
598.819	416.44
599.028	404.44
599.237	384.44
599.446	399.44
599.655	417.44
599.864	418.44
600.073	396.44
600.282	396.44
600.491	391.44
600.7	400.44
600.909	373.44
601.118	392.44
601.327	394.44
601.536	412.44
601.745	381.44
601.953	380.44
602.162	386.44
602.371	406.44
602.58	383.44
602.789	382.44
602.997	383.44
603.206	395.44
603.415	370.44
603.623	374.44
603.832	380.44
604.041	387.44
604.249	371.44
604.458	361.44
604.666	376.44
604.875	378.44
605.084	376.44
605.292	366.44
605.501	366.44
605.709	349.44
605.918	371.44
606.126	393.44
606.334	350.44
606.543	375.44
606.751	354.44
606.96	370.44
607.168	356.44
607.376	361.44
607.585	369.44
607.793	372.44
608.001	347.44
608.21	354.44
608.418	351.44
608.626	350.44
608.834	356.44
609.043	378.44
609.251	363.44
609.459	360.44
609.667	374.44
609.875	362.44
610.083	352.44
610.291	347.44
610.499	342.44
610.707	354.44
610.916	347.44
611.124	348.44
611.332	354.44
611.54	342.44
611.748	343.44
611.955	349.44
612.163	364.44
612.371	331.44
612.579	354.44
612.787	341.44
612.995	352.44
613.203	343.44
613.411	353.44
613.618	334.44
613.826	357.44
614.034	362.44
614.242	351.44
614.449	328.44
614.657	329.44
614.865	330.44
615.072	339.44
615.28	349.44
615.488	329.44
615.695	348.44
615.903	355.44
616.111	338.44
616.318	347.44
616.526	336.44
616.733	333.44
616.941	360.44
617.148	353.44
617.356	341.44
617.563	343.44
617.771	342.44
617.978	335.44
618.185	333.44
618.393	340.44
618.6	334.44
618.807	330.44
619.015	329.44
619.222	343.44
619.429	336.44
619.637	335.44
619.844	336.44
620.051	329.44
620.258	314.44
620.466	320.44
620.673	312.44
620.88	317.44
621.087	316.44
621.294	323.44
621.501	312.44
621.708	328.44
621.915	313.44
622.122	327.44
622.329	324.44
622.536	310.44
622.743	326.44
622.95	301.44
623.157	328.44
623.364	291.44
623.571	302.44
623.778	305.44
623.985	303.44
624.192	312.44
624.399	302.44
624.606	292.44
624.812	307.44
625.019	326.44
625.226	301.44
625.433	297.44
625.639	298.44
625.846	301.44
626.053	277.44
626.259	292.44
626.466	303.44
626.673	282.44
626.879	275.44
627.086	286.44
627.293	272.44
627.499	277.44
627.706	288.44
627.912	281.44
628.119	285.44
628.325	272.44
628.532	269.44
628.738	272.44
628.945	282.44
629.151	272.44
629.357	268.44
629.564	282.44
629.77	282.44
629.976	272.44
630.183	281.44
630.389	261.44
630.595	247.44
630.802	270.44
631.008	262.44
631.214	271.44
631.42	283.44
631.627	288.44
631.833	246.44
632.039	250.44
632.245	248.44
632.451	258.44
632.657	257.44
632.863	250.44
633.069	238.44
633.275	255.44
633.481	251.44
633.688	263.44
633.893	245.44
634.099	251.44
634.305	262.44
634.511	242.44
634.717	221.44
634.923	248.44
635.129	258.44
635.335	250.44
635.541	257.44
635.747	261.44
635.952	244.44
636.158	244.44
636.364	244.44
636.57	247.44
636.775	244.44
636.981	249.44
637.187	264.44
637.392	235.44
637.598	236.44
637.804	227.44
638.009	228.44
638.215	254.44
638.421	244.44
638.626	244.44
638.832	239.44
639.037	234.44
639.243	242.44
639.448	221.44
639.654	216.44
639.859	216.44
640.065	226.44
640.27	242.44
640.475	237.44
640.681	220.44
640.886	234.44
641.091	221.44
641.297	229.44
641.502	232.44
641.707	229.44
641.913	229.44
642.118	222.44
642.323	229.44
642.528	217.44
642.733	224.44
642.939	207.44
643.144	216.44
643.349	211.44
643.554	210.44
643.759	207.44
643.964	206.44
644.169	224.44
644.374	207.44
644.579	214.44
644.784	217.44
644.989	213.44
645.194	223.44
645.399	222.44
645.604	210.44
645.809	215.44
646.014	216.44
646.219	218.44
646.423	226.44
646.628	227.44
646.833	214.44
647.038	226.44
647.243	221.44
647.447	215.44
647.652	203.44
647.857	227.44
648.062	231.44
648.266	239.44
648.471	244.44
648.676	234.44
648.88	222.44
649.085	223.44
649.289	212.44
649.494	214.44
649.698	197.44
649.903	194.44
650.107	212.44
650.312	214.44
650.516	198.44
650.721	194.44
650.925	194.44
651.13	197.44
651.334	180.44
651.539	196.44
651.743	191.44
651.947	180.44
652.152	197.44
652.356	179.44
652.56	181.44
652.764	181.44
652.969	159.44
653.173	170.44
653.377	165.44
653.581	162.44
653.785	174.44
653.99	161.44
654.194	163.44
654.398	155.44
654.602	157.44
654.806	158.44
655.01	154.44
655.214	154.44
655.418	153.44
655.622	145.44
655.826	136.44
656.03	148.44
656.234	149.44
656.438	152.44
656.642	149.44
656.846	142.44
657.049	149.44
657.253	145.44
657.457	150.44
657.661	142.44
657.865	147.44
658.068	126.44
658.272	123.44
658.476	122.44
658.68	118.44
658.883	106.44
659.087	100.44
659.291	107.44
659.494	95.44
659.698	113.44
659.901	109.44
660.105	104.44
660.309	111.44
660.512	111.44
660.716	95.44
660.919	107.44
661.123	116.44
661.326	97.44
661.53	89.44
661.733	90.44
661.936	96.44
662.14	92.44
662.343	94.44
662.546	80.44
662.75	95.44
662.953	91.44
663.156	94.44
663.36	68.44
663.563	76.44
663.766	81.44
663.969	90.44
664.173	87.44
664.376	99.44
664.579	93.44
664.782	90.44
664.985	94.44
665.188	94.44
665.391	89.44
665.594	83.44
665.797	88.44
666	87.44
666.203	101.44
666.406	91.44
666.609	75.44
666.812	86.44
667.015	76.44
667.218	89.44
667.421	82.44
667.624	98.44
667.827	81.44
668.03	83.44
668.232	93.44
668.435	88.44
668.638	88.44
668.841	88.44
669.043	97.44
669.246	91.44
669.449	92.44
669.651	81.44
669.854	91.44
670.057	86.44
670.259	81.44
670.462	82.44
670.665	90.44
670.867	80.44
671.07	73.44
671.272	94.44
671.475	73.44
671.677	75.44
671.88	98.44
672.082	78.44
672.284	89.44
672.487	87.44
672.689	78.44
672.892	87.44
