Data from NiCl2@0.125M.TitratingCurve.Agarose3%dH2O.NegLispCup.LampEnergy10.LIBS07252019_HRD10591_18-29-53-574.txt Node
Date: Thu Jul 25 18:29:53 EDT 2019
User: cochatt
Spectrometer: HR+D1059
Trigger mode: 1
Integration Time (sec): 1.000000E-1
Scans to average: 1
Electric dark correction enabled: true
Nonlinearity correction enabled: false
Boxcar width: 0
XAxis mode: Wavelengths
Number of Pixels in Spectrum: 2048
>>>>>Begin Spectral Data<<<<<
223.165	-14.06
223.4	-14.06
223.635	-14.06
223.869	-37.06
224.104	-21.06
224.338	-14.06
224.573	-15.06
224.808	1.94
225.042	-12.06
225.277	-23.06
225.511	6.94
225.746	3.94
225.98	1.94
226.215	12.94
226.449	22.94
226.683	23.94
226.918	32.94
227.152	28.94
227.387	29.94
227.621	28.94
227.856	44.94
228.09	37.94
228.324	44.94
228.559	54.94
228.793	76.94
229.027	120.94
229.262	117.94
229.496	126.94
229.73	139.94
229.964	145.94
230.199	135.94
230.433	146.94
230.667	150.94
230.901	157.94
231.136	139.94
231.37	160.94
231.604	152.94
231.838	154.94
232.072	159.94
232.306	165.94
232.541	170.94
232.775	159.94
233.009	151.94
233.243	154.94
233.477	170.94
233.711	165.94
233.945	150.94
234.179	165.94
234.413	169.94
234.647	165.94
234.881	164.94
235.115	163.94
235.349	176.94
235.583	174.94
235.817	175.94
236.051	183.94
236.285	178.94
236.519	180.94
236.753	178.94
236.987	170.94
237.221	189.94
237.455	190.94
237.689	169.94
237.922	186.94
238.156	184.94
238.39	195.94
238.624	207.94
238.858	197.94
239.091	190.94
239.325	195.94
239.559	204.94
239.793	208.94
240.027	210.94
240.26	191.94
240.494	198.94
240.728	211.94
240.961	225.94
241.195	216.94
241.429	220.94
241.662	221.94
241.896	211.94
242.13	218.94
242.363	200.94
242.597	223.94
242.83	240.94
243.064	206.94
243.298	219.94
243.531	247.94
243.765	241.94
243.998	258.94
244.232	242.94
244.465	238.94
244.699	234.94
244.932	247.94
245.166	261.94
245.399	272.94
245.633	255.94
245.866	240.94
246.099	249.94
246.333	273.94
246.566	244.94
246.8	263.94
247.033	272.94
247.266	259.94
247.5	256.94
247.733	272.94
247.966	262.94
248.2	280.94
248.433	275.94
248.666	276.94
248.899	279.94
249.133	289.94
249.366	293.94
249.599	292.94
249.832	282.94
250.066	304.94
250.299	294.94
250.532	317.94
250.765	294.94
250.998	306.94
251.231	302.94
251.465	314.94
251.698	309.94
251.931	304.94
252.164	308.94
252.397	329.94
252.63	309.94
252.863	306.94
253.096	330.94
253.329	329.94
253.562	321.94
253.795	337.94
254.028	340.94
254.261	322.94
254.494	340.94
254.727	307.94
254.96	332.94
255.193	348.94
255.426	346.94
255.659	349.94
255.892	332.94
256.124	338.94
256.357	341.94
256.59	302.94
256.823	349.94
257.056	371.94
257.289	357.94
257.521	353.94
257.754	367.94
257.987	350.94
258.22	360.94
258.452	359.94
258.685	361.94
258.918	343.94
259.151	358.94
259.383	364.94
259.616	347.94
259.849	368.94
260.081	366.94
260.314	376.94
260.547	375.94
260.779	366.94
261.012	360.94
261.244	363.94
261.477	389.94
261.71	376.94
261.942	403.94
262.175	392.94
262.407	381.94
262.64	402.94
262.872	377.94
263.105	402.94
263.337	400.94
263.57	412.94
263.802	406.94
264.035	428.94
264.267	408.94
264.499	409.94
264.732	420.94
264.964	419.94
265.197	420.94
265.429	412.94
265.661	408.94
265.894	423.94
266.126	420.94
266.358	432.94
266.591	433.94
266.823	411.94
267.055	412.94
267.287	417.94
267.52	424.94
267.752	449.94
267.984	419.94
268.216	422.94
268.448	434.94
268.681	432.94
268.913	456.94
269.145	427.94
269.377	444.94
269.609	443.94
269.841	441.94
270.073	448.94
270.306	455.94
270.538	436.94
270.77	442.94
271.002	461.94
271.234	451.94
271.466	441.94
271.698	452.94
271.93	462.94
272.162	443.94
272.394	464.94
272.626	470.94
272.858	472.94
273.09	465.94
273.322	499.94
273.553	480.94
273.785	480.94
274.017	473.94
274.249	482.94
274.481	486.94
274.713	469.94
274.945	484.94
275.176	487.94
275.408	494.94
275.64	498.94
275.872	481.94
276.104	492.94
276.335	498.94
276.567	503.94
276.799	491.94
277.031	487.94
277.262	510.94
277.494	514.94
277.726	511.94
277.957	520.94
278.189	504.94
278.421	507.94
278.652	523.94
278.884	523.94
279.115	515.94
279.347	520.94
279.579	518.94
279.81	532.94
280.042	511.94
280.273	530.94
280.505	548.94
280.736	548.94
280.968	541.94
281.199	542.94
281.431	560.94
281.662	542.94
281.894	561.94
282.125	550.94
282.356	570.94
282.588	546.94
282.819	567.94
283.051	549.94
283.282	544.94
283.513	561.94
283.745	572.94
283.976	548.94
284.207	569.94
284.439	560.94
284.67	566.94
284.901	599.94
285.132	588.94
285.364	590.94
285.595	582.94
285.826	584.94
286.057	588.94
286.288	622.94
286.52	588.94
286.751	594.94
286.982	588.94
287.213	595.94
287.444	593.94
287.675	593.94
287.906	616.94
288.138	615.94
288.369	601.94
288.6	616.94
288.831	638.94
289.062	619.94
289.293	634.94
289.524	626.94
289.755	597.94
289.986	610.94
290.217	616.94
290.448	604.94
290.679	611.94
290.91	629.94
291.141	619.94
291.371	611.94
291.602	630.94
291.833	634.94
292.064	630.94
292.295	637.94
292.526	629.94
292.757	626.94
292.987	629.94
293.218	624.94
293.449	652.94
293.68	654.94
293.91	630.94
294.141	644.94
294.372	631.94
294.603	632.94
294.833	660.94
295.064	651.94
295.295	656.94
295.525	667.94
295.756	657.94
295.987	644.94
296.217	649.94
296.448	661.94
296.679	674.94
296.909	675.94
297.14	661.94
297.37	668.94
297.601	686.94
297.831	686.94
298.062	689.94
298.292	709.94
298.523	694.94
298.753	728.94
298.984	698.94
299.214	676.94
299.445	688.94
299.675	691.94
299.905	704.94
300.136	707.94
300.366	683.94
300.597	707.94
300.827	699.94
301.057	714.94
301.288	735.94
301.518	737.94
301.748	743.94
301.979	745.94
302.209	711.94
302.439	708.94
302.669	705.94
302.9	706.94
303.13	721.94
303.36	695.94
303.59	694.94
303.82	725.94
304.051	728.94
304.281	717.94
304.511	697.94
304.741	717.94
304.971	726.94
305.201	712.94
305.431	696.94
305.661	710.94
305.891	720.94
306.121	683.94
306.352	695.94
306.582	718.94
306.812	676.94
307.042	686.94
307.272	694.94
307.502	700.94
307.731	672.94
307.961	696.94
308.191	703.94
308.421	701.94
308.651	684.94
308.881	688.94
309.111	676.94
309.341	688.94
309.571	705.94
309.8	693.94
310.03	672.94
310.26	713.94
310.49	676.94
310.72	689.94
310.949	694.94
311.179	699.94
311.409	715.94
311.639	729.94
311.868	688.94
312.098	711.94
312.328	702.94
312.557	711.94
312.787	735.94
313.017	729.94
313.246	762.94
313.476	739.94
313.706	762.94
313.935	747.94
314.165	761.94
314.394	766.94
314.624	763.94
314.853	726.94
315.083	760.94
315.312	756.94
315.542	744.94
315.771	724.94
316.001	716.94
316.23	746.94
316.46	726.94
316.689	734.94
316.919	723.94
317.148	708.94
317.377	722.94
317.607	716.94
317.836	720.94
318.065	728.94
318.295	716.94
318.524	754.94
318.753	719.94
318.983	714.94
319.212	699.94
319.441	746.94
319.67	731.94
319.9	732.94
320.129	734.94
320.358	747.94
320.587	748.94
320.816	732.94
321.046	747.94
321.275	730.94
321.504	742.94
321.733	726.94
321.962	726.94
322.191	754.94
322.42	740.94
322.649	743.94
322.878	707.94
323.108	714.94
323.337	733.94
323.566	732.94
323.795	752.94
324.024	757.94
324.253	734.94
324.482	756.94
324.71	731.94
324.939	755.94
325.168	776.94
325.397	758.94
325.626	785.94
325.855	782.94
326.084	778.94
326.313	793.94
326.542	787.94
326.77	821.94
326.999	780.94
327.228	778.94
327.457	788.94
327.686	777.94
327.914	787.94
328.143	785.94
328.372	769.94
328.6	787.94
328.829	815.94
329.058	818.94
329.287	822.94
329.515	816.94
329.744	824.94
329.972	808.94
330.201	822.94
330.43	814.94
330.658	793.94
330.887	818.94
331.115	823.94
331.344	826.94
331.572	858.94
331.801	856.94
332.03	883.94
332.258	914.94
332.486	908.94
332.715	945.94
332.943	999.94
333.172	1065.94
333.4	1088.94
333.629	1110.94
333.857	1109.94
334.085	1080.94
334.314	1093.94
334.542	1020.94
334.771	1003.94
334.999	1021.94
335.227	974.94
335.455	984.94
335.684	968.94
335.912	985.94
336.14	944.94
336.369	965.94
336.597	971.94
336.825	962.94
337.053	981.94
337.281	928.94
337.51	916.94
337.738	923.94
337.966	902.94
338.194	891.94
338.422	842.94
338.65	870.94
338.878	886.94
339.106	867.94
339.334	872.94
339.562	857.94
339.79	838.94
340.018	817.94
340.246	819.94
340.474	862.94
340.702	862.94
340.93	834.94
341.158	878.94
341.386	813.94
341.614	851.94
341.842	820.94
342.07	823.94
342.298	818.94
342.526	803.94
342.754	835.94
342.981	835.94
343.209	847.94
343.437	894.94
343.665	927.94
343.893	1006.94
344.12	1067.94
344.348	1001.94
344.576	945.94
344.804	900.94
345.031	862.94
345.259	837.94
345.487	845.94
345.714	831.94
345.942	804.94
346.17	830.94
346.397	840.94
346.625	802.94
346.853	814.94
347.08	791.94
347.308	812.94
347.535	810.94
347.763	832.94
347.99	806.94
348.218	817.94
348.445	805.94
348.673	806.94
348.9	815.94
349.128	800.94
349.355	806.94
349.583	790.94
349.81	793.94
350.037	786.94
350.265	772.94
350.492	786.94
350.72	754.94
350.947	776.94
351.174	770.94
351.402	784.94
351.629	762.94
351.856	767.94
352.083	754.94
352.311	760.94
352.538	750.94
352.765	762.94
352.992	780.94
353.22	784.94
353.447	759.94
353.674	752.94
353.901	738.94
354.128	778.94
354.355	783.94
354.583	770.94
354.81	754.94
355.037	770.94
355.264	806.94
355.491	779.94
355.718	776.94
355.945	798.94
356.172	788.94
356.399	782.94
356.626	803.94
356.853	787.94
357.08	778.94
357.307	794.94
357.534	764.94
357.761	763.94
357.988	778.94
358.215	773.94
358.441	782.94
358.668	780.94
358.895	772.94
359.122	743.94
359.349	762.94
359.576	804.94
359.802	767.94
360.029	774.94
360.256	743.94
360.483	795.94
360.709	757.94
360.936	786.94
361.163	799.94
361.39	774.94
361.616	774.94
361.843	754.94
362.07	758.94
362.296	777.94
362.523	777.94
362.749	784.94
362.976	740.94
363.203	779.94
363.429	758.94
363.656	788.94
363.882	746.94
364.109	739.94
364.335	755.94
364.562	754.94
364.788	785.94
365.015	759.94
365.241	758.94
365.468	772.94
365.694	747.94
365.92	780.94
366.147	768.94
366.373	780.94
366.599	762.94
366.826	796.94
367.052	780.94
367.278	758.94
367.505	770.94
367.731	793.94
367.957	762.94
368.184	759.94
368.41	781.94
368.636	784.94
368.862	799.94
369.089	799.94
369.315	788.94
369.541	781.94
369.767	797.94
369.993	799.94
370.219	802.94
370.445	833.94
370.672	835.94
370.898	854.94
371.124	830.94
371.35	821.94
371.576	851.94
371.802	845.94
372.028	836.94
372.254	845.94
372.48	832.94
372.706	869.94
372.932	879.94
373.158	882.94
373.384	874.94
373.61	876.94
373.835	844.94
374.061	853.94
374.287	832.94
374.513	860.94
374.739	890.94
374.965	908.94
375.191	962.94
375.416	924.94
375.642	904.94
375.868	898.94
376.094	886.94
376.319	864.94
376.545	871.94
376.771	855.94
376.997	837.94
377.222	865.94
377.448	843.94
377.674	857.94
377.899	860.94
378.125	860.94
378.35	849.94
378.576	848.94
378.802	837.94
379.027	840.94
379.253	836.94
379.478	839.94
379.704	833.94
379.929	836.94
380.155	859.94
380.38	845.94
380.606	818.94
380.831	827.94
381.057	829.94
381.282	831.94
381.507	826.94
381.733	854.94
381.958	856.94
382.184	853.94
382.409	869.94
382.634	881.94
382.86	856.94
383.085	866.94
383.31	912.94
383.535	938.94
383.761	934.94
383.986	950.94
384.211	971.94
384.436	977.94
384.662	965.94
384.887	1037.94
385.112	1020.94
385.337	1024.94
385.562	1022.94
385.787	1018.94
386.013	1053.94
386.238	1011.94
386.463	1031.94
386.688	1023.94
386.913	988.94
387.138	1002.94
387.363	980.94
387.588	963.94
387.813	982.94
388.038	1014.94
388.263	992.94
388.488	1006.94
388.713	1031.94
388.938	1009.94
389.163	979.94
389.387	999.94
389.612	982.94
389.837	981.94
390.062	976.94
390.287	963.94
390.512	986.94
390.736	988.94
390.961	1034.94
391.186	1077.94
391.411	1090.94
391.636	1050.94
391.86	1124.94
392.085	1162.94
392.31	1163.94
392.534	1153.94
392.759	1067.94
392.984	1076.94
393.208	1060.94
393.433	1084.94
393.658	1079.94
393.882	1097.94
394.107	1084.94
394.331	1070.94
394.556	1084.94
394.78	1089.94
395.005	1110.94
395.229	1096.94
395.454	1118.94
395.678	1145.94
395.903	1154.94
396.127	1157.94
396.352	1089.94
396.576	1058.94
396.801	1077.94
397.025	1060.94
397.249	1061.94
397.474	1134.94
397.698	1126.94
397.922	1141.94
398.147	1126.94
398.371	1138.94
398.595	1172.94
398.82	1244.94
399.044	1330.94
399.268	1466.94
399.492	1705.94
399.717	1996.94
399.941	2002.94
400.165	1698.94
400.389	1527.94
400.613	1438.94
400.837	1352.94
401.062	1298.94
401.286	1296.94
401.51	1236.94
401.734	1270.94
401.958	1310.94
402.182	1320.94
402.406	1314.94
402.63	1337.94
402.854	1397.94
403.078	1376.94
403.302	1419.94
403.526	1482.94
403.75	1458.94
403.974	1544.94
404.198	1532.94
404.422	1550.94
404.645	1473.94
404.869	1499.94
405.093	1486.94
405.317	1434.94
405.541	1458.94
405.765	1414.94
405.988	1382.94
406.212	1366.94
406.436	1398.94
406.66	1439.94
406.883	1449.94
407.107	1527.94
407.331	1592.94
407.555	1689.94
407.778	1676.94
408.002	1630.94
408.226	1616.94
408.449	1545.94
408.673	1483.94
408.896	1461.94
409.12	1440.94
409.344	1451.94
409.567	1448.94
409.791	1482.94
410.014	1447.94
410.238	1430.94
410.461	1442.94
410.685	1410.94
410.908	1386.94
411.132	1356.94
411.355	1353.94
411.578	1346.94
411.802	1292.94
412.025	1345.94
412.249	1363.94
412.472	1353.94
412.695	1326.94
412.919	1256.94
413.142	1270.94
413.365	1267.94
413.589	1306.94
413.812	1250.94
414.035	1225.94
414.258	1266.94
414.482	1230.94
414.705	1292.94
414.928	1302.94
415.151	1318.94
415.374	1302.94
415.597	1304.94
415.821	1232.94
416.044	1225.94
416.267	1242.94
416.49	1208.94
416.713	1211.94
416.936	1278.94
417.159	1257.94
417.382	1206.94
417.605	1227.94
417.828	1236.94
418.051	1263.94
418.274	1277.94
418.497	1260.94
418.72	1316.94
418.943	1307.94
419.166	1394.94
419.389	1472.94
419.611	1424.94
419.834	1368.94
420.057	1325.94
420.28	1299.94
420.503	1252.94
420.726	1238.94
420.948	1255.94
421.171	1250.94
421.394	1252.94
421.617	1218.94
421.839	1249.94
422.062	1276.94
422.285	1237.94
422.507	1298.94
422.73	1316.94
422.953	1318.94
423.175	1336.94
423.398	1352.94
423.621	1335.94
423.843	1362.94
424.066	1360.94
424.288	1352.94
424.511	1347.94
424.733	1344.94
424.956	1328.94
425.178	1282.94
425.401	1287.94
425.623	1259.94
425.846	1219.94
426.068	1237.94
426.291	1207.94
426.513	1209.94
426.735	1172.94
426.958	1173.94
427.18	1158.94
427.402	1156.94
427.625	1148.94
427.847	1141.94
428.069	1137.94
428.292	1154.94
428.514	1113.94
428.736	1113.94
428.958	1126.94
429.181	1090.94
429.403	1067.94
429.625	1090.94
429.847	1098.94
430.069	1091.94
430.292	1090.94
430.514	1089.94
430.736	1108.94
430.958	1074.94
431.18	1088.94
431.402	1100.94
431.624	1095.94
431.846	1144.94
432.068	1128.94
432.29	1186.94
432.512	1129.94
432.734	1176.94
432.956	1063.94
433.178	1144.94
433.4	1121.94
433.622	1115.94
433.844	1154.94
434.066	1148.94
434.287	1165.94
434.509	1174.94
434.731	1238.94
434.953	1254.94
435.175	1289.94
435.397	1266.94
435.618	1208.94
435.84	1194.94
436.062	1175.94
436.284	1132.94
436.505	1102.94
436.727	1146.94
436.949	1135.94
437.17	1158.94
437.392	1127.94
437.614	1120.94
437.835	1089.94
438.057	1097.94
438.278	1071.94
438.5	1074.94
438.721	1066.94
438.943	1104.94
439.165	1081.94
439.386	1090.94
439.608	1098.94
439.829	1111.94
440.05	1153.94
440.272	1138.94
440.493	1154.94
440.715	1137.94
440.936	1165.94
441.158	1166.94
441.379	1179.94
441.6	1245.94
441.822	1312.94
442.043	1306.94
442.264	1272.94
442.486	1240.94
442.707	1258.94
442.928	1250.94
443.149	1217.94
443.371	1248.94
443.592	1257.94
443.813	1271.94
444.034	1288.94
444.255	1338.94
444.476	1374.94
444.698	1496.94
444.919	1566.94
445.14	1634.94
445.361	1476.94
445.582	1343.94
445.803	1265.94
446.024	1236.94
446.245	1167.94
446.466	1184.94
446.687	1148.94
446.908	1136.94
447.129	1137.94
447.35	1092.94
447.571	1091.94
447.792	1067.94
448.013	1059.94
448.234	1050.94
448.455	1063.94
448.675	1082.94
448.896	1047.94
449.117	1044.94
449.338	1024.94
449.559	1011.94
449.779	1002.94
450	1016.94
450.221	991.94
450.442	1036.94
450.662	1053.94
450.883	1048.94
451.104	1074.94
451.324	1092.94
451.545	1054.94
451.766	1065.94
451.986	1068.94
452.207	1038.94
452.428	1024.94
452.648	1059.94
452.869	998.94
453.089	1029.94
453.31	1017.94
453.53	1013.94
453.751	1035.94
453.971	979.94
454.192	986.94
454.412	976.94
454.633	962.94
454.853	983.94
455.073	978.94
455.294	982.94
455.514	984.94
455.734	977.94
455.955	987.94
456.175	954.94
456.395	933.94
456.616	937.94
456.836	969.94
457.056	961.94
457.276	952.94
457.497	983.94
457.717	967.94
457.937	961.94
458.157	990.94
458.377	999.94
458.598	1017.94
458.818	1030.94
459.038	1056.94
459.258	1089.94
459.478	1125.94
459.698	1167.94
459.918	1194.94
460.138	1240.94
460.358	1310.94
460.578	1362.94
460.798	1352.94
461.018	1363.94
461.238	1382.94
461.458	1356.94
461.678	1299.94
461.898	1371.94
462.118	1349.94
462.338	1424.94
462.558	1452.94
462.777	1494.94
462.997	1662.94
463.217	1859.94
463.437	1842.94
463.657	1676.94
463.876	1577.94
464.096	1596.94
464.316	1563.94
464.536	1571.94
464.755	1510.94
464.975	1486.94
465.195	1407.94
465.414	1314.94
465.634	1242.94
465.854	1191.94
466.073	1143.94
466.293	1154.94
466.512	1142.94
466.732	1088.94
466.951	1104.94
467.171	1116.94
467.391	1099.94
467.61	1091.94
467.829	1078.94
468.049	1075.94
468.268	1054.94
468.488	1026.94
468.707	1023.94
468.927	1044.94
469.146	1026.94
469.365	1043.94
469.585	1053.94
469.804	1095.94
470.023	1126.94
470.243	1098.94
470.462	1120.94
470.681	1120.94
470.901	1130.94
471.12	1140.94
471.339	1112.94
471.558	1073.94
471.777	1059.94
471.997	1021.94
472.216	1029.94
472.435	1058.94
472.654	1024.94
472.873	1021.94
473.092	987.94
473.311	974.94
473.53	1006.94
473.749	1009.94
473.968	1007.94
474.187	988.94
474.406	996.94
474.625	975.94
474.844	1001.94
475.063	998.94
475.282	1030.94
475.501	1038.94
475.72	996.94
475.939	1040.94
476.158	1042.94
476.377	1040.94
476.596	1043.94
476.814	1087.94
477.033	1078.94
477.252	1096.94
477.471	1105.94
477.69	1172.94
477.908	1188.94
478.127	1203.94
478.346	1206.94
478.564	1254.94
478.783	1249.94
479.002	1253.94
479.22	1260.94
479.439	1282.94
479.658	1248.94
479.876	1251.94
480.095	1274.94
480.313	1322.94
480.532	1410.94
480.751	1371.94
480.969	1307.94
481.188	1254.94
481.406	1208.94
481.624	1165.94
481.843	1172.94
482.061	1195.94
482.28	1168.94
482.498	1166.94
482.717	1137.94
482.935	1158.94
483.153	1144.94
483.372	1152.94
483.59	1122.94
483.808	1131.94
484.027	1145.94
484.245	1142.94
484.463	1152.94
484.681	1178.94
484.9	1174.94
485.118	1179.94
485.336	1177.94
485.554	1218.94
485.772	1209.94
485.99	1206.94
486.209	1253.94
486.427	1248.94
486.645	1203.94
486.863	1234.94
487.081	1218.94
487.299	1192.94
487.517	1198.94
487.735	1192.94
487.953	1206.94
488.171	1208.94
488.389	1177.94
488.607	1179.94
488.825	1191.94
489.043	1175.94
489.261	1192.94
489.479	1189.94
489.696	1198.94
489.914	1214.94
490.132	1200.94
490.35	1202.94
490.568	1199.94
490.786	1207.94
491.003	1208.94
491.221	1216.94
491.439	1204.94
491.657	1205.94
491.874	1217.94
492.092	1220.94
492.31	1223.94
492.527	1240.94
492.745	1218.94
492.963	1212.94
493.18	1268.94
493.398	1251.94
493.615	1292.94
493.833	1249.94
494.05	1284.94
494.268	1292.94
494.485	1324.94
494.703	1264.94
494.92	1264.94
495.138	1255.94
495.355	1246.94
495.573	1315.94
495.79	1268.94
496.008	1284.94
496.225	1300.94
496.442	1314.94
496.66	1334.94
496.877	1355.94
497.094	1348.94
497.312	1386.94
497.529	1415.94
497.746	1492.94
497.963	1458.94
498.181	1515.94
498.398	1592.94
498.615	1708.94
498.832	1818.94
499.049	1946.94
499.267	2087.94
499.484	2341.94
499.701	2649.94
499.918	2845.94
500.135	3291.94
500.352	3890.94
500.569	4062.94
500.786	4086.94
501.003	3708.94
501.22	3331.94
501.437	2881.94
501.654	2490.94
501.871	2281.94
502.088	2066.94
502.305	1940.94
502.522	1824.94
502.739	1767.94
502.956	1690.94
503.172	1588.94
503.389	1545.94
503.606	1467.94
503.823	1435.94
504.04	1420.94
504.256	1450.94
504.473	1516.94
504.69	1566.94
504.907	1544.94
505.123	1403.94
505.34	1329.94
505.557	1284.94
505.773	1243.94
505.99	1255.94
506.207	1171.94
506.423	1184.94
506.64	1170.94
506.856	1153.94
507.073	1116.94
507.289	1147.94
507.506	1150.94
507.722	1132.94
507.939	1121.94
508.155	1108.94
508.372	1083.94
508.588	1100.94
508.805	1061.94
509.021	1070.94
509.238	1072.94
509.454	1027.94
509.67	1052.94
509.887	1065.94
510.103	1043.94
510.319	1053.94
510.536	1042.94
510.752	1052.94
510.968	1043.94
511.184	1034.94
511.401	1044.94
511.617	1050.94
511.833	1038.94
512.049	1015.94
512.265	1047.94
512.481	1050.94
512.698	1034.94
512.914	1023.94
513.13	1042.94
513.346	1035.94
513.562	998.94
513.778	1028.94
513.994	1044.94
514.21	1006.94
514.426	1049.94
514.642	1051.94
514.858	1061.94
515.074	1070.94
515.29	1070.94
515.506	1074.94
515.721	1078.94
515.937	1133.94
516.153	1102.94
516.369	1163.94
516.585	1162.94
516.801	1228.94
517.016	1282.94
517.232	1302.94
517.448	1396.94
517.664	1465.94
517.879	1457.94
518.095	1460.94
518.311	1441.94
518.527	1357.94
518.742	1319.94
518.958	1251.94
519.173	1207.94
519.389	1166.94
519.605	1134.94
519.82	1093.94
520.036	1106.94
520.251	1058.94
520.467	1073.94
520.682	1028.94
520.898	1041.94
521.113	1042.94
521.329	1030.94
521.544	1040.94
521.76	1029.94
521.975	988.94
522.19	1023.94
522.406	985.94
522.621	1006.94
522.836	958.94
523.052	972.94
523.267	976.94
523.482	954.94
523.698	942.94
523.913	963.94
524.128	956.94
524.343	950.94
524.559	951.94
524.774	945.94
524.989	927.94
525.204	924.94
525.419	955.94
525.634	908.94
525.849	925.94
526.064	932.94
526.28	946.94
526.495	946.94
526.71	936.94
526.925	924.94
527.14	923.94
527.355	951.94
527.57	943.94
527.785	951.94
527.999	930.94
528.214	927.94
528.429	951.94
528.644	931.94
528.859	934.94
529.074	917.94
529.289	918.94
529.503	919.94
529.718	950.94
529.933	924.94
530.148	921.94
530.363	930.94
530.577	936.94
530.792	950.94
531.007	932.94
531.221	932.94
531.436	928.94
531.651	954.94
531.865	963.94
532.08	947.94
532.295	960.94
532.509	908.94
532.724	926.94
532.938	930.94
533.153	930.94
533.367	955.94
533.582	958.94
533.796	913.94
534.011	922.94
534.225	933.94
534.44	929.94
534.654	913.94
534.868	898.94
535.083	938.94
535.297	948.94
535.511	901.94
535.726	922.94
535.94	898.94
536.154	874.94
536.369	869.94
536.583	870.94
536.797	867.94
537.011	878.94
537.225	851.94
537.44	860.94
537.654	868.94
537.868	849.94
538.082	872.94
538.296	857.94
538.51	833.94
538.724	858.94
538.938	865.94
539.153	852.94
539.367	853.94
539.581	847.94
539.795	847.94
540.009	818.94
540.222	826.94
540.436	844.94
540.65	840.94
540.864	816.94
541.078	819.94
541.292	832.94
541.506	818.94
541.72	807.94
541.934	828.94
542.147	822.94
542.361	818.94
542.575	817.94
542.789	812.94
543.002	810.94
543.216	799.94
543.43	826.94
543.644	814.94
543.857	825.94
544.071	842.94
544.285	829.94
544.498	815.94
544.712	846.94
544.925	874.94
545.139	845.94
545.352	869.94
545.566	843.94
545.779	854.94
545.993	878.94
546.206	873.94
546.42	867.94
546.633	862.94
546.847	842.94
547.06	844.94
547.274	842.94
547.487	828.94
547.7	850.94
547.914	848.94
548.127	870.94
548.34	886.94
548.554	846.94
548.767	842.94
548.98	854.94
549.193	828.94
549.407	864.94
549.62	866.94
549.833	882.94
550.046	889.94
550.259	864.94
550.473	830.94
550.686	835.94
550.899	830.94
551.112	843.94
551.325	822.94
551.538	830.94
551.751	828.94
551.964	828.94
552.177	849.94
552.39	850.94
552.603	903.94
552.816	908.94
553.029	937.94
553.242	935.94
553.455	923.94
553.667	936.94
553.88	951.94
554.093	890.94
554.306	892.94
554.519	847.94
554.732	861.94
554.944	840.94
555.157	822.94
555.37	808.94
555.583	806.94
555.795	767.94
556.008	777.94
556.221	751.94
556.433	733.94
556.646	716.94
556.859	729.94
557.071	742.94
557.284	726.94
557.496	748.94
557.709	733.94
557.921	719.94
558.134	728.94
558.346	742.94
558.559	739.94
558.771	731.94
558.984	710.94
559.196	718.94
559.409	703.94
559.621	706.94
559.833	702.94
560.046	705.94
560.258	708.94
560.47	678.94
560.683	681.94
560.895	694.94
561.107	689.94
561.32	711.94
561.532	711.94
561.744	689.94
561.956	702.94
562.168	690.94
562.381	713.94
562.593	698.94
562.805	714.94
563.017	717.94
563.229	718.94
563.441	688.94
563.653	716.94
563.865	732.94
564.077	712.94
564.289	737.94
564.501	700.94
564.713	735.94
564.925	742.94
565.137	766.94
565.349	778.94
565.561	815.94
565.773	814.94
565.985	837.94
566.197	946.94
566.408	977.94
566.62	1086.94
566.832	1150.94
567.044	1190.94
567.255	1174.94
567.467	1202.94
567.679	1287.94
567.891	1390.94
568.102	1496.94
568.314	1411.94
568.526	1200.94
568.737	1116.94
568.949	1023.94
569.161	926.94
569.372	848.94
569.584	798.94
569.795	761.94
570.007	726.94
570.218	747.94
570.43	739.94
570.641	727.94
570.853	725.94
571.064	755.94
571.276	743.94
571.487	748.94
571.698	697.94
571.91	663.94
572.121	642.94
572.333	638.94
572.544	608.94
572.755	618.94
572.966	598.94
573.178	600.94
573.389	600.94
573.6	609.94
573.811	575.94
574.023	577.94
574.234	577.94
574.445	577.94
574.656	573.94
574.867	580.94
575.078	594.94
575.289	579.94
575.501	570.94
575.712	576.94
575.923	565.94
576.134	532.94
576.345	550.94
576.556	555.94
576.767	538.94
576.978	545.94
577.188	546.94
577.399	551.94
577.61	517.94
577.821	530.94
578.032	508.94
578.243	525.94
578.454	527.94
578.665	517.94
578.875	540.94
579.086	504.94
579.297	521.94
579.508	492.94
579.718	489.94
579.929	502.94
580.14	508.94
580.35	490.94
580.561	491.94
580.772	529.94
580.982	501.94
581.193	503.94
581.403	513.94
581.614	494.94
581.825	488.94
582.035	487.94
582.246	501.94
582.456	497.94
582.667	482.94
582.877	475.94
583.087	492.94
583.298	491.94
583.508	485.94
583.719	488.94
583.929	482.94
584.139	478.94
584.35	469.94
584.56	490.94
584.77	471.94
584.981	471.94
585.191	470.94
585.401	465.94
585.611	471.94
585.821	463.94
586.032	479.94
586.242	459.94
586.452	439.94
586.662	451.94
586.872	472.94
587.082	466.94
587.292	463.94
587.502	450.94
587.713	454.94
587.923	457.94
588.133	467.94
588.343	480.94
588.553	479.94
588.762	458.94
588.972	456.94
589.182	470.94
589.392	460.94
589.602	448.94
589.812	479.94
590.022	484.94
590.232	476.94
590.441	479.94
590.651	470.94
590.861	468.94
591.071	476.94
591.281	469.94
591.49	483.94
591.7	483.94
591.91	498.94
592.119	489.94
592.329	512.94
592.539	528.94
592.748	558.94
592.958	576.94
593.167	596.94
593.377	632.94
593.587	611.94
593.796	613.94
594.006	591.94
594.215	616.94
594.424	632.94
594.634	615.94
594.843	580.94
595.053	549.94
595.262	526.94
595.472	507.94
595.681	527.94
595.89	498.94
596.1	470.94
596.309	464.94
596.518	466.94
596.727	438.94
596.937	439.94
597.146	434.94
597.355	440.94
597.564	415.94
597.774	436.94
597.983	400.94
598.192	419.94
598.401	394.94
598.61	411.94
598.819	410.94
599.028	394.94
599.237	431.94
599.446	380.94
599.655	392.94
599.864	412.94
600.073	399.94
600.282	377.94
600.491	395.94
600.7	398.94
600.909	386.94
601.118	400.94
601.327	395.94
601.536	374.94
601.745	387.94
601.953	382.94
602.162	364.94
602.371	388.94
602.58	378.94
602.789	381.94
602.997	371.94
603.206	382.94
603.415	402.94
603.623	362.94
603.832	362.94
604.041	350.94
604.249	358.94
604.458	370.94
604.666	369.94
604.875	364.94
605.084	351.94
605.292	352.94
605.501	374.94
605.709	351.94
605.918	362.94
606.126	369.94
606.334	347.94
606.543	342.94
606.751	368.94
606.96	374.94
607.168	341.94
607.376	330.94
607.585	366.94
607.793	368.94
608.001	351.94
608.21	350.94
608.418	345.94
608.626	377.94
608.834	355.94
609.043	366.94
609.251	354.94
609.459	355.94
609.667	343.94
609.875	345.94
610.083	359.94
610.291	330.94
610.499	345.94
610.707	345.94
610.916	335.94
611.124	331.94
611.332	348.94
611.54	347.94
611.748	355.94
611.955	339.94
612.163	351.94
612.371	328.94
612.579	338.94
612.787	325.94
612.995	347.94
613.203	347.94
613.411	331.94
613.618	348.94
613.826	342.94
614.034	340.94
614.242	344.94
614.449	341.94
614.657	323.94
614.865	333.94
615.072	319.94
615.28	326.94
615.488	328.94
615.695	330.94
615.903	324.94
616.111	341.94
616.318	342.94
616.526	344.94
616.733	336.94
616.941	347.94
617.148	335.94
617.356	339.94
617.563	337.94
617.771	339.94
617.978	340.94
618.185	334.94
618.393	322.94
618.6	339.94
618.807	332.94
619.015	338.94
619.222	345.94
619.429	328.94
619.637	314.94
619.844	299.94
620.051	318.94
620.258	320.94
620.466	343.94
620.673	296.94
620.88	286.94
621.087	307.94
621.294	306.94
621.501	301.94
621.708	292.94
621.915	323.94
622.122	308.94
622.329	302.94
622.536	322.94
622.743	304.94
622.95	295.94
623.157	309.94
623.364	322.94
623.571	312.94
623.778	297.94
623.985	279.94
624.192	302.94
624.399	291.94
624.606	302.94
624.812	306.94
625.019	281.94
625.226	291.94
625.433	281.94
625.639	276.94
625.846	294.94
626.053	275.94
626.259	288.94
626.466	274.94
626.673	267.94
626.879	280.94
627.086	286.94
627.293	292.94
627.499	288.94
627.706	277.94
627.912	262.94
628.119	283.94
628.325	270.94
628.532	276.94
628.738	275.94
628.945	269.94
629.151	275.94
629.357	284.94
629.564	263.94
629.77	259.94
629.976	282.94
630.183	263.94
630.389	243.94
630.595	267.94
630.802	255.94
631.008	262.94
631.214	261.94
631.42	259.94
631.627	267.94
631.833	258.94
632.039	246.94
632.245	248.94
632.451	251.94
632.657	233.94
632.863	242.94
633.069	248.94
633.275	252.94
633.481	238.94
633.688	258.94
633.893	250.94
634.099	244.94
634.305	243.94
634.511	249.94
634.717	235.94
634.923	243.94
635.129	266.94
635.335	235.94
635.541	236.94
635.747	231.94
635.952	244.94
636.158	239.94
636.364	226.94
636.57	233.94
636.775	227.94
636.981	227.94
637.187	235.94
637.392	239.94
637.598	225.94
637.804	228.94
638.009	227.94
638.215	228.94
638.421	232.94
638.626	234.94
638.832	239.94
639.037	228.94
639.243	228.94
639.448	226.94
639.654	222.94
639.859	216.94
640.065	207.94
640.27	246.94
640.475	234.94
640.681	230.94
640.886	209.94
641.091	211.94
641.297	223.94
641.502	215.94
641.707	210.94
641.913	226.94
642.118	232.94
642.323	219.94
642.528	223.94
642.733	212.94
642.939	215.94
643.144	198.94
643.349	215.94
643.554	221.94
643.759	204.94
643.964	232.94
644.169	216.94
644.374	215.94
644.579	225.94
644.784	206.94
644.989	215.94
645.194	202.94
645.399	210.94
645.604	192.94
645.809	207.94
646.014	212.94
646.219	216.94
646.423	217.94
646.628	211.94
646.833	196.94
647.038	216.94
647.243	217.94
647.447	212.94
647.652	206.94
647.857	219.94
648.062	233.94
648.266	220.94
648.471	227.94
648.676	235.94
648.88	219.94
649.085	218.94
649.289	230.94
649.494	211.94
649.698	204.94
649.903	199.94
650.107	221.94
650.312	204.94
650.516	218.94
650.721	195.94
650.925	204.94
651.13	191.94
651.334	191.94
651.539	188.94
651.743	195.94
651.947	185.94
652.152	168.94
652.356	185.94
652.56	181.94
652.764	167.94
652.969	182.94
653.173	177.94
653.377	187.94
653.581	172.94
653.785	161.94
653.99	146.94
654.194	143.94
654.398	142.94
654.602	175.94
654.806	174.94
655.01	162.94
655.214	160.94
655.418	160.94
655.622	158.94
655.826	151.94
656.03	157.94
656.234	154.94
656.438	152.94
656.642	155.94
656.846	144.94
657.049	150.94
657.253	153.94
657.457	150.94
657.661	129.94
657.865	122.94
658.068	111.94
658.272	105.94
658.476	121.94
658.68	128.94
658.883	103.94
659.087	118.94
659.291	104.94
659.494	112.94
659.698	97.94
659.901	102.94
660.105	103.94
660.309	103.94
660.512	91.94
660.716	92.94
660.919	88.94
661.123	97.94
661.326	98.94
661.53	91.94
661.733	90.94
661.936	94.94
662.14	97.94
662.343	100.94
662.546	77.94
662.75	77.94
662.953	75.94
663.156	75.94
663.36	83.94
663.563	91.94
663.766	85.94
663.969	77.94
664.173	73.94
664.376	82.94
664.579	69.94
664.782	74.94
664.985	83.94
665.188	78.94
665.391	86.94
665.594	89.94
665.797	79.94
666	68.94
666.203	80.94
666.406	89.94
666.609	84.94
666.812	83.94
667.015	78.94
667.218	68.94
667.421	91.94
667.624	82.94
667.827	75.94
668.03	70.94
668.232	83.94
668.435	69.94
668.638	72.94
668.841	88.94
669.043	70.94
669.246	81.94
669.449	82.94
669.651	81.94
669.854	82.94
670.057	80.94
670.259	80.94
670.462	82.94
670.665	84.94
670.867	81.94
671.07	96.94
671.272	79.94
671.475	84.94
671.677	82.94
671.88	76.94
672.082	69.94
672.284	80.94
672.487	90.94
672.689	90.94
672.892	87.94
