Data from NiCl2@0.0625M.TitratingCurve.Agarose3%dH2O.NegLispCup.LampEnergy10.LIBS07252019_HRD10591_18-32-24-575.txt Node
Date: Thu Jul 25 18:32:24 EDT 2019
User: cochatt
Spectrometer: HR+D1059
Trigger mode: 1
Integration Time (sec): 1.000000E-1
Scans to average: 1
Electric dark correction enabled: true
Nonlinearity correction enabled: false
Boxcar width: 0
XAxis mode: Wavelengths
Number of Pixels in Spectrum: 2048
>>>>>Begin Spectral Data<<<<<
223.165	-15.19
223.4	-15.19
223.635	-15.19
223.869	-27.19
224.104	-15.19
224.338	-20.19
224.573	-17.19
224.808	-15.19
225.042	-11.19
225.277	-9.19
225.511	11.81
225.746	9.81
225.98	12.81
226.215	16.81
226.449	5.81
226.683	25.81
226.918	25.81
227.152	21.81
227.387	24.81
227.621	35.81
227.856	36.81
228.09	49.81
228.324	58.81
228.559	62.81
228.793	85.81
229.027	150.81
229.262	163.81
229.496	170.81
229.73	169.81
229.964	183.81
230.199	183.81
230.433	189.81
230.667	167.81
230.901	178.81
231.136	185.81
231.37	202.81
231.604	202.81
231.838	216.81
232.072	217.81
232.306	218.81
232.541	219.81
232.775	218.81
233.009	219.81
233.243	212.81
233.477	212.81
233.711	222.81
233.945	213.81
234.179	230.81
234.413	218.81
234.647	212.81
234.881	241.81
235.115	229.81
235.349	229.81
235.583	236.81
235.817	236.81
236.051	241.81
236.285	233.81
236.519	246.81
236.753	269.81
236.987	235.81
237.221	250.81
237.455	258.81
237.689	264.81
237.922	244.81
238.156	265.81
238.39	269.81
238.624	274.81
238.858	276.81
239.091	273.81
239.325	276.81
239.559	280.81
239.793	288.81
240.027	285.81
240.26	282.81
240.494	291.81
240.728	293.81
240.961	295.81
241.195	300.81
241.429	316.81
241.662	297.81
241.896	326.81
242.13	317.81
242.363	300.81
242.597	314.81
242.83	304.81
243.064	324.81
243.298	331.81
243.531	340.81
243.765	335.81
243.998	344.81
244.232	351.81
244.465	358.81
244.699	362.81
244.932	362.81
245.166	370.81
245.399	359.81
245.633	354.81
245.866	355.81
246.099	349.81
246.333	366.81
246.566	372.81
246.8	374.81
247.033	377.81
247.266	365.81
247.5	379.81
247.733	388.81
247.966	396.81
248.2	421.81
248.433	413.81
248.666	412.81
248.899	412.81
249.133	387.81
249.366	416.81
249.599	419.81
249.832	406.81
250.066	425.81
250.299	404.81
250.532	421.81
250.765	422.81
250.998	433.81
251.231	462.81
251.465	468.81
251.698	473.81
251.931	446.81
252.164	442.81
252.397	461.81
252.63	473.81
252.863	460.81
253.096	459.81
253.329	469.81
253.562	457.81
253.795	488.81
254.028	473.81
254.261	471.81
254.494	468.81
254.727	487.81
254.96	468.81
255.193	487.81
255.426	473.81
255.659	477.81
255.892	498.81
256.124	484.81
256.357	475.81
256.59	519.81
256.823	510.81
257.056	502.81
257.289	500.81
257.521	517.81
257.754	531.81
257.987	545.81
258.22	525.81
258.452	527.81
258.685	527.81
258.918	539.81
259.151	530.81
259.383	549.81
259.616	533.81
259.849	551.81
260.081	532.81
260.314	569.81
260.547	560.81
260.779	541.81
261.012	549.81
261.244	570.81
261.477	577.81
261.71	567.81
261.942	554.81
262.175	560.81
262.407	572.81
262.64	576.81
262.872	585.81
263.105	579.81
263.337	595.81
263.57	612.81
263.802	615.81
264.035	574.81
264.267	580.81
264.499	590.81
264.732	609.81
264.964	615.81
265.197	617.81
265.429	619.81
265.661	601.81
265.894	601.81
266.126	620.81
266.358	617.81
266.591	618.81
266.823	633.81
267.055	640.81
267.287	630.81
267.52	637.81
267.752	664.81
267.984	644.81
268.216	664.81
268.448	648.81
268.681	661.81
268.913	645.81
269.145	660.81
269.377	651.81
269.609	655.81
269.841	659.81
270.073	661.81
270.306	686.81
270.538	651.81
270.77	658.81
271.002	652.81
271.234	676.81
271.466	690.81
271.698	680.81
271.93	658.81
272.162	710.81
272.394	720.81
272.626	712.81
272.858	694.81
273.09	709.81
273.322	720.81
273.553	722.81
273.785	727.81
274.017	729.81
274.249	747.81
274.481	758.81
274.713	753.81
274.945	748.81
275.176	770.81
275.408	765.81
275.64	738.81
275.872	761.81
276.104	774.81
276.335	747.81
276.567	775.81
276.799	757.81
277.031	772.81
277.262	757.81
277.494	762.81
277.726	742.81
277.957	742.81
278.189	769.81
278.421	765.81
278.652	782.81
278.884	785.81
279.115	774.81
279.347	804.81
279.579	793.81
279.81	807.81
280.042	816.81
280.273	793.81
280.505	807.81
280.736	812.81
280.968	845.81
281.199	834.81
281.431	841.81
281.662	841.81
281.894	835.81
282.125	834.81
282.356	835.81
282.588	859.81
282.819	837.81
283.051	860.81
283.282	842.81
283.513	896.81
283.745	846.81
283.976	865.81
284.207	874.81
284.439	897.81
284.67	864.81
284.901	875.81
285.132	890.81
285.364	871.81
285.595	895.81
285.826	895.81
286.057	895.81
286.288	868.81
286.52	898.81
286.751	910.81
286.982	897.81
287.213	900.81
287.444	907.81
287.675	896.81
287.906	910.81
288.138	932.81
288.369	918.81
288.6	931.81
288.831	929.81
289.062	945.81
289.293	884.81
289.524	913.81
289.755	946.81
289.986	924.81
290.217	923.81
290.448	923.81
290.679	944.81
290.91	934.81
291.141	919.81
291.371	927.81
291.602	954.81
291.833	946.81
292.064	957.81
292.295	928.81
292.526	953.81
292.757	930.81
292.987	951.81
293.218	938.81
293.449	936.81
293.68	954.81
293.91	952.81
294.141	973.81
294.372	964.81
294.603	950.81
294.833	933.81
295.064	979.81
295.295	949.81
295.525	971.81
295.756	985.81
295.987	946.81
296.217	1010.81
296.448	966.81
296.679	985.81
296.909	972.81
297.14	1005.81
297.37	1013.81
297.601	1007.81
297.831	1034.81
298.062	981.81
298.292	1015.81
298.523	1069.81
298.753	1035.81
298.984	1047.81
299.214	1042.81
299.445	1026.81
299.675	1009.81
299.905	1036.81
300.136	1012.81
300.366	1044.81
300.597	1033.81
300.827	1065.81
301.057	1075.81
301.288	1070.81
301.518	1080.81
301.748	1096.81
301.979	1096.81
302.209	1083.81
302.439	1066.81
302.669	1084.81
302.9	1086.81
303.13	1052.81
303.36	1074.81
303.59	1052.81
303.82	1055.81
304.051	1072.81
304.281	1057.81
304.511	1084.81
304.741	1096.81
304.971	1088.81
305.201	1067.81
305.431	1068.81
305.661	1095.81
305.891	1066.81
306.121	1099.81
306.352	1088.81
306.582	1065.81
306.812	1072.81
307.042	1102.81
307.272	1053.81
307.502	1032.81
307.731	1062.81
307.961	1066.81
308.191	1047.81
308.421	1031.81
308.651	1077.81
308.881	1080.81
309.111	1047.81
309.341	1068.81
309.571	1109.81
309.8	1102.81
310.03	1069.81
310.26	1072.81
310.49	1072.81
310.72	1070.81
310.949	1090.81
311.179	1072.81
311.409	1098.81
311.639	1099.81
311.868	1096.81
312.098	1117.81
312.328	1147.81
312.557	1101.81
312.787	1102.81
313.017	1131.81
313.246	1152.81
313.476	1138.81
313.706	1121.81
313.935	1140.81
314.165	1153.81
314.394	1193.81
314.624	1184.81
314.853	1170.81
315.083	1162.81
315.312	1180.81
315.542	1150.81
315.771	1142.81
316.001	1168.81
316.23	1154.81
316.46	1133.81
316.689	1125.81
316.919	1178.81
317.148	1164.81
317.377	1142.81
317.607	1138.81
317.836	1133.81
318.065	1124.81
318.295	1134.81
318.524	1162.81
318.753	1136.81
318.983	1134.81
319.212	1133.81
319.441	1134.81
319.67	1139.81
319.9	1126.81
320.129	1136.81
320.358	1114.81
320.587	1154.81
320.816	1140.81
321.046	1158.81
321.275	1141.81
321.504	1138.81
321.733	1164.81
321.962	1148.81
322.191	1171.81
322.42	1165.81
322.649	1154.81
322.878	1170.81
323.108	1152.81
323.337	1178.81
323.566	1164.81
323.795	1193.81
324.024	1194.81
324.253	1192.81
324.482	1194.81
324.71	1217.81
324.939	1170.81
325.168	1200.81
325.397	1190.81
325.626	1234.81
325.855	1234.81
326.084	1231.81
326.313	1251.81
326.542	1284.81
326.77	1272.81
326.999	1232.81
327.228	1225.81
327.457	1240.81
327.686	1241.81
327.914	1238.81
328.143	1244.81
328.372	1225.81
328.6	1233.81
328.829	1261.81
329.058	1249.81
329.287	1225.81
329.515	1230.81
329.744	1257.81
329.972	1289.81
330.201	1299.81
330.43	1290.81
330.658	1286.81
330.887	1320.81
331.115	1319.81
331.344	1309.81
331.572	1317.81
331.801	1340.81
332.03	1382.81
332.258	1399.81
332.486	1430.81
332.715	1432.81
332.943	1476.81
333.172	1480.81
333.4	1567.81
333.629	1580.81
333.857	1625.81
334.085	1661.81
334.314	1617.81
334.542	1590.81
334.771	1582.81
334.999	1561.81
335.227	1558.81
335.455	1556.81
335.684	1521.81
335.912	1547.81
336.14	1529.81
336.369	1480.81
336.597	1480.81
336.825	1489.81
337.053	1481.81
337.281	1453.81
337.51	1405.81
337.738	1438.81
337.966	1384.81
338.194	1408.81
338.422	1362.81
338.65	1373.81
338.878	1342.81
339.106	1362.81
339.334	1401.81
339.562	1316.81
339.79	1309.81
340.018	1309.81
340.246	1308.81
340.474	1326.81
340.702	1293.81
340.93	1307.81
341.158	1326.81
341.386	1297.81
341.614	1320.81
341.842	1348.81
342.07	1323.81
342.298	1271.81
342.526	1272.81
342.754	1308.81
342.981	1273.81
343.209	1331.81
343.437	1348.81
343.665	1442.81
343.893	1541.81
344.12	1576.81
344.348	1523.81
344.576	1449.81
344.804	1425.81
345.031	1395.81
345.259	1364.81
345.487	1325.81
345.714	1310.81
345.942	1279.81
346.17	1314.81
346.397	1289.81
346.625	1255.81
346.853	1232.81
347.08	1282.81
347.308	1274.81
347.535	1272.81
347.763	1280.81
347.99	1234.81
348.218	1218.81
348.445	1235.81
348.673	1261.81
348.9	1250.81
349.128	1236.81
349.355	1224.81
349.583	1244.81
349.81	1214.81
350.037	1237.81
350.265	1238.81
350.492	1223.81
350.72	1238.81
350.947	1222.81
351.174	1227.81
351.402	1236.81
351.629	1200.81
351.856	1212.81
352.083	1194.81
352.311	1172.81
352.538	1237.81
352.765	1200.81
352.992	1196.81
353.22	1186.81
353.447	1184.81
353.674	1179.81
353.901	1220.81
354.128	1219.81
354.355	1195.81
354.583	1186.81
354.81	1195.81
355.037	1215.81
355.264	1192.81
355.491	1192.81
355.718	1202.81
355.945	1209.81
356.172	1232.81
356.399	1229.81
356.626	1240.81
356.853	1227.81
357.08	1209.81
357.307	1224.81
357.534	1217.81
357.761	1178.81
357.988	1213.81
358.215	1217.81
358.441	1200.81
358.668	1243.81
358.895	1224.81
359.122	1213.81
359.349	1210.81
359.576	1202.81
359.802	1216.81
360.029	1193.81
360.256	1229.81
360.483	1245.81
360.709	1206.81
360.936	1228.81
361.163	1229.81
361.39	1238.81
361.616	1230.81
361.843	1236.81
362.07	1192.81
362.296	1222.81
362.523	1187.81
362.749	1226.81
362.976	1200.81
363.203	1211.81
363.429	1191.81
363.656	1207.81
363.882	1219.81
364.109	1225.81
364.335	1246.81
364.562	1189.81
364.788	1203.81
365.015	1204.81
365.241	1206.81
365.468	1204.81
365.694	1177.81
365.92	1205.81
366.147	1213.81
366.373	1220.81
366.599	1220.81
366.826	1189.81
367.052	1208.81
367.278	1196.81
367.505	1215.81
367.731	1176.81
367.957	1222.81
368.184	1230.81
368.41	1246.81
368.636	1251.81
368.862	1228.81
369.089	1261.81
369.315	1264.81
369.541	1239.81
369.767	1281.81
369.993	1239.81
370.219	1220.81
370.445	1261.81
370.672	1292.81
370.898	1293.81
371.124	1298.81
371.35	1317.81
371.576	1304.81
371.802	1318.81
372.028	1334.81
372.254	1299.81
372.48	1316.81
372.706	1343.81
372.932	1386.81
373.158	1351.81
373.384	1351.81
373.61	1332.81
373.835	1363.81
374.061	1324.81
374.287	1321.81
374.513	1347.81
374.739	1416.81
374.965	1448.81
375.191	1427.81
375.416	1417.81
375.642	1382.81
375.868	1381.81
376.094	1357.81
376.319	1340.81
376.545	1319.81
376.771	1340.81
376.997	1340.81
377.222	1312.81
377.448	1334.81
377.674	1320.81
377.899	1297.81
378.125	1307.81
378.35	1266.81
378.576	1307.81
378.802	1325.81
379.027	1313.81
379.253	1331.81
379.478	1316.81
379.704	1323.81
379.929	1319.81
380.155	1278.81
380.38	1278.81
380.606	1285.81
380.831	1296.81
381.057	1317.81
381.282	1305.81
381.507	1312.81
381.733	1336.81
381.958	1339.81
382.184	1341.81
382.409	1333.81
382.634	1358.81
382.86	1396.81
383.085	1372.81
383.31	1426.81
383.535	1422.81
383.761	1419.81
383.986	1414.81
384.211	1460.81
384.436	1460.81
384.662	1526.81
384.887	1538.81
385.112	1544.81
385.337	1542.81
385.562	1566.81
385.787	1546.81
386.013	1608.81
386.238	1590.81
386.463	1572.81
386.688	1601.81
386.913	1547.81
387.138	1570.81
387.363	1575.81
387.588	1552.81
387.813	1542.81
388.038	1564.81
388.263	1559.81
388.488	1592.81
388.713	1565.81
388.938	1572.81
389.163	1573.81
389.387	1576.81
389.612	1550.81
389.837	1539.81
390.062	1572.81
390.287	1541.81
390.512	1530.81
390.736	1536.81
390.961	1594.81
391.186	1603.81
391.411	1649.81
391.636	1650.81
391.86	1704.81
392.085	1748.81
392.31	1739.81
392.534	1687.81
392.759	1718.81
392.984	1661.81
393.208	1666.81
393.433	1713.81
393.658	1718.81
393.882	1668.81
394.107	1664.81
394.331	1687.81
394.556	1674.81
394.78	1664.81
395.005	1660.81
395.229	1690.81
395.454	1720.81
395.678	1771.81
395.903	1754.81
396.127	1739.81
396.352	1716.81
396.576	1690.81
396.801	1685.81
397.025	1712.81
397.249	1740.81
397.474	1785.81
397.698	1762.81
397.922	1748.81
398.147	1760.81
398.371	1778.81
398.595	1891.81
398.82	1960.81
399.044	2048.81
399.268	2192.81
399.492	2504.81
399.717	2710.81
399.941	2698.81
400.165	2530.81
400.389	2340.81
400.613	2180.81
400.837	2116.81
401.062	2061.81
401.286	1978.81
401.51	1949.81
401.734	1990.81
401.958	1949.81
402.182	1990.81
402.406	2018.81
402.63	2014.81
402.854	2009.81
403.078	2008.81
403.302	2077.81
403.526	2124.81
403.75	2109.81
403.974	2136.81
404.198	2146.81
404.422	2155.81
404.645	2147.81
404.869	2160.81
405.093	2117.81
405.317	2131.81
405.541	2134.81
405.765	2040.81
405.988	2070.81
406.212	2098.81
406.436	2121.81
406.66	2196.81
406.883	2198.81
407.107	2332.81
407.331	2426.81
407.555	2490.81
407.778	2492.81
408.002	2460.81
408.226	2357.81
408.449	2320.81
408.673	2192.81
408.896	2181.81
409.12	2157.81
409.344	2152.81
409.567	2141.81
409.791	2139.81
410.014	2151.81
410.238	2175.81
410.461	2134.81
410.685	2098.81
410.908	2103.81
411.132	2064.81
411.355	1997.81
411.578	2054.81
411.802	2005.81
412.025	2034.81
412.249	2048.81
412.472	2031.81
412.695	1992.81
412.919	1941.81
413.142	1940.81
413.365	1923.81
413.589	1969.81
413.812	1940.81
414.035	1956.81
414.258	1944.81
414.482	1980.81
414.705	1961.81
414.928	1966.81
415.151	1937.81
415.374	1961.81
415.597	1901.81
415.821	1901.81
416.044	1865.81
416.267	1905.81
416.49	1852.81
416.713	1876.81
416.936	1882.81
417.159	1854.81
417.382	1881.81
417.605	1854.81
417.828	1862.81
418.051	1885.81
418.274	1872.81
418.497	1856.81
418.72	1922.81
418.943	1928.81
419.166	2045.81
419.389	2149.81
419.611	2093.81
419.834	2045.81
420.057	1994.81
420.28	1920.81
420.503	1853.81
420.726	1883.81
420.948	1889.81
421.171	1883.81
421.394	1906.81
421.617	1851.81
421.839	1884.81
422.062	1887.81
422.285	1856.81
422.507	1876.81
422.73	1894.81
422.953	1929.81
423.175	1912.81
423.398	1922.81
423.621	1901.81
423.843	1959.81
424.066	1955.81
424.288	1928.81
424.511	1928.81
424.733	1929.81
424.956	1897.81
425.178	1896.81
425.401	1911.81
425.623	1916.81
425.846	1850.81
426.068	1847.81
426.291	1817.81
426.513	1813.81
426.735	1793.81
426.958	1771.81
427.18	1742.81
427.402	1783.81
427.625	1784.81
427.847	1736.81
428.069	1729.81
428.292	1728.81
428.514	1740.81
428.736	1693.81
428.958	1712.81
429.181	1668.81
429.403	1673.81
429.625	1733.81
429.847	1652.81
430.069	1708.81
430.292	1679.81
430.514	1654.81
430.736	1726.81
430.958	1716.81
431.18	1691.81
431.402	1731.81
431.624	1689.81
431.846	1752.81
432.068	1721.81
432.29	1789.81
432.512	1701.81
432.734	1724.81
432.956	1725.81
433.178	1746.81
433.4	1757.81
433.622	1761.81
433.844	1771.81
434.066	1748.81
434.287	1777.81
434.509	1772.81
434.731	1856.81
434.953	1908.81
435.175	1853.81
435.397	1876.81
435.618	1826.81
435.84	1781.81
436.062	1714.81
436.284	1732.81
436.505	1736.81
436.727	1725.81
436.949	1749.81
437.17	1685.81
437.392	1704.81
437.614	1689.81
437.835	1606.81
438.057	1637.81
438.278	1629.81
438.5	1615.81
438.721	1636.81
438.943	1712.81
439.165	1650.81
439.386	1638.81
439.608	1674.81
439.829	1684.81
440.05	1699.81
440.272	1701.81
440.493	1700.81
440.715	1709.81
440.936	1728.81
441.158	1786.81
441.379	1771.81
441.6	1921.81
441.822	1885.81
442.043	1843.81
442.264	1839.81
442.486	1788.81
442.707	1857.81
442.928	1832.81
443.149	1864.81
443.371	1808.81
443.592	1795.81
443.813	1861.81
444.034	1915.81
444.255	1916.81
444.476	2008.81
444.698	2069.81
444.919	2103.81
445.14	2145.81
445.361	1999.81
445.582	1911.81
445.803	1864.81
446.024	1781.81
446.245	1733.81
446.466	1742.81
446.687	1701.81
446.908	1682.81
447.129	1675.81
447.35	1634.81
447.571	1630.81
447.792	1565.81
448.013	1577.81
448.234	1585.81
448.455	1573.81
448.675	1564.81
448.896	1591.81
449.117	1522.81
449.338	1562.81
449.559	1528.81
449.779	1505.81
450	1509.81
450.221	1520.81
450.442	1538.81
450.662	1497.81
450.883	1554.81
451.104	1557.81
451.324	1508.81
451.545	1538.81
451.766	1532.81
451.986	1534.81
452.207	1529.81
452.428	1513.81
452.648	1533.81
452.869	1498.81
453.089	1427.81
453.31	1515.81
453.53	1497.81
453.751	1490.81
453.971	1476.81
454.192	1468.81
454.412	1423.81
454.633	1457.81
454.853	1448.81
455.073	1448.81
455.294	1465.81
455.514	1434.81
455.734	1494.81
455.955	1444.81
456.175	1450.81
456.395	1404.81
456.616	1445.81
456.836	1456.81
457.056	1420.81
457.276	1424.81
457.497	1477.81
457.717	1465.81
457.937	1464.81
458.157	1481.81
458.377	1450.81
458.598	1510.81
458.818	1547.81
459.038	1565.81
459.258	1632.81
459.478	1708.81
459.698	1759.81
459.918	1827.81
460.138	1822.81
460.358	1913.81
460.578	1909.81
460.798	1935.81
461.018	1958.81
461.238	1936.81
461.458	1928.81
461.678	1911.81
461.898	1953.81
462.118	1989.81
462.338	2080.81
462.558	2101.81
462.777	2188.81
462.997	2312.81
463.217	2448.81
463.437	2477.81
463.657	2380.81
463.876	2265.81
464.096	2213.81
464.316	2185.81
464.536	2226.81
464.755	2132.81
464.975	2086.81
465.195	2005.81
465.414	1919.81
465.634	1827.81
465.854	1764.81
466.073	1708.81
466.293	1670.81
466.512	1665.81
466.732	1631.81
466.951	1623.81
467.171	1569.81
467.391	1626.81
467.61	1605.81
467.829	1617.81
468.049	1609.81
468.268	1545.81
468.488	1540.81
468.707	1572.81
468.927	1567.81
469.146	1564.81
469.365	1558.81
469.585	1580.81
469.804	1593.81
470.023	1605.81
470.243	1618.81
470.462	1616.81
470.681	1654.81
470.901	1669.81
471.12	1619.81
471.339	1645.81
471.558	1604.81
471.777	1602.81
471.997	1582.81
472.216	1575.81
472.435	1553.81
472.654	1530.81
472.873	1508.81
473.092	1540.81
473.311	1541.81
473.53	1538.81
473.749	1538.81
473.968	1556.81
474.187	1537.81
474.406	1508.81
474.625	1514.81
474.844	1536.81
475.063	1552.81
475.282	1569.81
475.501	1577.81
475.72	1579.81
475.939	1594.81
476.158	1617.81
476.377	1613.81
476.596	1632.81
476.814	1659.81
477.033	1678.81
477.252	1677.81
477.471	1694.81
477.69	1735.81
477.908	1779.81
478.127	1828.81
478.346	1863.81
478.564	1855.81
478.783	1859.81
479.002	1897.81
479.22	1925.81
479.439	1926.81
479.658	1911.81
479.876	1933.81
480.095	1960.81
480.313	2025.81
480.532	2057.81
480.751	2012.81
480.969	2009.81
481.188	2000.81
481.406	1927.81
481.624	1906.81
481.843	1867.81
482.061	1846.81
482.28	1826.81
482.498	1867.81
482.717	1884.81
482.935	1873.81
483.153	1845.81
483.372	1879.81
483.59	1888.81
483.808	1915.81
484.027	1906.81
484.245	1956.81
484.463	1912.81
484.681	1917.81
484.9	1981.81
485.118	1995.81
485.336	1976.81
485.554	2024.81
485.772	2010.81
485.99	2011.81
486.209	2010.81
486.427	2000.81
486.645	2017.81
486.863	1972.81
487.081	1991.81
487.299	1957.81
487.517	1980.81
487.735	1978.81
487.953	1988.81
488.171	1993.81
488.389	1953.81
488.607	1936.81
488.825	1952.81
489.043	1939.81
489.261	1925.81
489.479	1935.81
489.696	1957.81
489.914	1957.81
490.132	1913.81
490.35	1935.81
490.568	1916.81
490.786	1916.81
491.003	1903.81
491.221	1904.81
491.439	1953.81
491.657	1949.81
491.874	1907.81
492.092	1916.81
492.31	1936.81
492.527	1950.81
492.745	1921.81
492.963	1949.81
493.18	1936.81
493.398	1961.81
493.615	1948.81
493.833	1926.81
494.05	1960.81
494.268	1966.81
494.485	1955.81
494.703	1962.81
494.92	1954.81
495.138	1978.81
495.355	1972.81
495.573	1992.81
495.79	1990.81
496.008	2059.81
496.225	2024.81
496.442	2046.81
496.66	2071.81
496.877	2091.81
497.094	2110.81
497.312	2169.81
497.529	2231.81
497.746	2244.81
497.963	2274.81
498.181	2409.81
498.398	2459.81
498.615	2636.81
498.832	2818.81
499.049	2949.81
499.267	3101.81
499.484	3434.81
499.701	3718.81
499.918	3996.81
500.135	4460.81
500.352	4839.81
500.569	5049.81
500.786	5005.81
501.003	4716.81
501.22	4398.81
501.437	3949.81
501.654	3569.81
501.871	3317.81
502.088	3086.81
502.305	2886.81
502.522	2741.81
502.739	2653.81
502.956	2503.81
503.172	2416.81
503.389	2314.81
503.606	2246.81
503.823	2227.81
504.04	2223.81
504.256	2230.81
504.473	2242.81
504.69	2233.81
504.907	2234.81
505.123	2074.81
505.34	1997.81
505.557	1936.81
505.773	1888.81
505.99	1863.81
506.207	1811.81
506.423	1760.81
506.64	1789.81
506.856	1728.81
507.073	1725.81
507.289	1708.81
507.506	1662.81
507.722	1685.81
507.939	1684.81
508.155	1650.81
508.372	1611.81
508.588	1633.81
508.805	1618.81
509.021	1613.81
509.238	1585.81
509.454	1569.81
509.67	1547.81
509.887	1551.81
510.103	1536.81
510.319	1542.81
510.536	1549.81
510.752	1529.81
510.968	1538.81
511.184	1515.81
511.401	1547.81
511.617	1554.81
511.833	1540.81
512.049	1545.81
512.265	1537.81
512.481	1553.81
512.698	1520.81
512.914	1500.81
513.13	1525.81
513.346	1531.81
513.562	1529.81
513.778	1541.81
513.994	1538.81
514.21	1528.81
514.426	1558.81
514.642	1577.81
514.858	1556.81
515.074	1554.81
515.29	1597.81
515.506	1616.81
515.721	1633.81
515.937	1654.81
516.153	1664.81
516.369	1713.81
516.585	1703.81
516.801	1787.81
517.016	1843.81
517.232	1891.81
517.448	1933.81
517.664	1990.81
517.879	2009.81
518.095	2009.81
518.311	1988.81
518.527	1921.81
518.742	1824.81
518.958	1813.81
519.173	1715.81
519.389	1758.81
519.605	1642.81
519.82	1626.81
520.036	1650.81
520.251	1604.81
520.467	1567.81
520.682	1520.81
520.898	1515.81
521.113	1494.81
521.329	1502.81
521.544	1500.81
521.76	1480.81
521.975	1448.81
522.19	1478.81
522.406	1448.81
522.621	1427.81
522.836	1423.81
523.052	1409.81
523.267	1405.81
523.482	1422.81
523.698	1396.81
523.913	1366.81
524.128	1398.81
524.343	1381.81
524.559	1392.81
524.774	1394.81
524.989	1381.81
525.204	1388.81
525.419	1383.81
525.634	1366.81
525.849	1381.81
526.064	1371.81
526.28	1321.81
526.495	1315.81
526.71	1328.81
526.925	1376.81
527.14	1318.81
527.355	1338.81
527.57	1344.81
527.785	1340.81
527.999	1351.81
528.214	1339.81
528.429	1374.81
528.644	1366.81
528.859	1350.81
529.074	1326.81
529.289	1360.81
529.503	1348.81
529.718	1341.81
529.933	1321.81
530.148	1314.81
530.363	1334.81
530.577	1342.81
530.792	1323.81
531.007	1325.81
531.221	1377.81
531.436	1315.81
531.651	1302.81
531.865	1311.81
532.08	1355.81
532.295	1293.81
532.509	1341.81
532.724	1347.81
532.938	1326.81
533.153	1335.81
533.367	1333.81
533.582	1324.81
533.796	1300.81
534.011	1328.81
534.225	1301.81
534.44	1280.81
534.654	1304.81
534.868	1311.81
535.083	1325.81
535.297	1272.81
535.511	1282.81
535.726	1289.81
535.94	1255.81
536.154	1264.81
536.369	1238.81
536.583	1250.81
536.797	1192.81
537.011	1235.81
537.225	1209.81
537.44	1235.81
537.654	1220.81
537.868	1205.81
538.082	1205.81
538.296	1208.81
538.51	1182.81
538.724	1206.81
538.938	1193.81
539.153	1206.81
539.367	1180.81
539.581	1193.81
539.795	1184.81
540.009	1206.81
540.222	1181.81
540.436	1203.81
540.65	1193.81
540.864	1172.81
541.078	1180.81
541.292	1175.81
541.506	1168.81
541.72	1150.81
541.934	1170.81
542.147	1204.81
542.361	1183.81
542.575	1176.81
542.789	1172.81
543.002	1184.81
543.216	1177.81
543.43	1152.81
543.644	1171.81
543.857	1172.81
544.071	1170.81
544.285	1183.81
544.498	1173.81
544.712	1164.81
544.925	1172.81
545.139	1196.81
545.352	1189.81
545.566	1190.81
545.779	1215.81
545.993	1202.81
546.206	1216.81
546.42	1204.81
546.633	1181.81
546.847	1180.81
547.06	1187.81
547.274	1158.81
547.487	1216.81
547.7	1180.81
547.914	1193.81
548.127	1224.81
548.34	1208.81
548.554	1208.81
548.767	1223.81
548.98	1193.81
549.193	1224.81
549.407	1201.81
549.62	1224.81
549.833	1239.81
550.046	1225.81
550.259	1215.81
550.473	1191.81
550.686	1174.81
550.899	1188.81
551.112	1162.81
551.325	1195.81
551.538	1153.81
551.751	1160.81
551.964	1172.81
552.177	1209.81
552.39	1213.81
552.603	1223.81
552.816	1267.81
553.029	1295.81
553.242	1254.81
553.455	1265.81
553.667	1301.81
553.88	1254.81
554.093	1282.81
554.306	1200.81
554.519	1184.81
554.732	1185.81
554.944	1148.81
555.157	1140.81
555.37	1149.81
555.583	1167.81
555.795	1106.81
556.008	1082.81
556.221	1042.81
556.433	1046.81
556.646	1026.81
556.859	1022.81
557.071	1032.81
557.284	1011.81
557.496	1030.81
557.709	1037.81
557.921	1022.81
558.134	1018.81
558.346	983.81
558.559	1022.81
558.771	1014.81
558.984	986.81
559.196	1005.81
559.409	1002.81
559.621	983.81
559.833	994.81
560.046	970.81
560.258	980.81
560.47	986.81
560.683	956.81
560.895	957.81
561.107	974.81
561.32	989.81
561.532	987.81
561.744	987.81
561.956	998.81
562.168	992.81
562.381	988.81
562.593	987.81
562.805	992.81
563.017	975.81
563.229	990.81
563.441	1026.81
563.653	994.81
563.865	995.81
564.077	998.81
564.289	989.81
564.501	1042.81
564.713	1052.81
564.925	1075.81
565.137	1069.81
565.349	1115.81
565.561	1189.81
565.773	1182.81
565.985	1222.81
566.197	1261.81
566.408	1350.81
566.62	1406.81
566.832	1523.81
567.044	1564.81
567.255	1567.81
567.467	1635.81
567.679	1652.81
567.891	1746.81
568.102	1754.81
568.314	1676.81
568.526	1560.81
568.737	1453.81
568.949	1337.81
569.161	1245.81
569.372	1174.81
569.584	1114.81
569.795	1102.81
570.007	1044.81
570.218	1020.81
570.43	988.81
570.641	997.81
570.853	1001.81
571.064	1033.81
571.276	989.81
571.487	986.81
571.698	927.81
571.91	910.81
572.121	893.81
572.333	875.81
572.544	864.81
572.755	850.81
572.966	857.81
573.178	844.81
573.389	837.81
573.6	832.81
573.811	851.81
574.023	796.81
574.234	803.81
574.445	807.81
574.656	798.81
574.867	784.81
575.078	791.81
575.289	800.81
575.501	789.81
575.712	783.81
575.923	773.81
576.134	774.81
576.345	770.81
576.556	761.81
576.767	754.81
576.978	758.81
577.188	749.81
577.399	728.81
577.61	740.81
577.821	717.81
578.032	728.81
578.243	700.81
578.454	720.81
578.665	710.81
578.875	692.81
579.086	706.81
579.297	717.81
579.508	715.81
579.718	725.81
579.929	704.81
580.14	702.81
580.35	697.81
580.561	693.81
580.772	676.81
580.982	701.81
581.193	683.81
581.403	678.81
581.614	661.81
581.825	689.81
582.035	644.81
582.246	660.81
582.456	677.81
582.667	677.81
582.877	664.81
583.087	652.81
583.298	664.81
583.508	673.81
583.719	658.81
583.929	653.81
584.139	670.81
584.35	635.81
584.56	646.81
584.77	656.81
584.981	642.81
585.191	651.81
585.401	655.81
585.611	632.81
585.821	646.81
586.032	652.81
586.242	636.81
586.452	643.81
586.662	630.81
586.872	632.81
587.082	628.81
587.292	632.81
587.502	645.81
587.713	612.81
587.923	630.81
588.133	629.81
588.343	638.81
588.553	614.81
588.762	637.81
588.972	632.81
589.182	666.81
589.392	637.81
589.602	625.81
589.812	647.81
590.022	633.81
590.232	627.81
590.441	639.81
590.651	645.81
590.861	656.81
591.071	634.81
591.281	649.81
591.49	660.81
591.7	641.81
591.91	668.81
592.119	694.81
592.329	701.81
592.539	712.81
592.748	712.81
592.958	742.81
593.167	728.81
593.377	738.81
593.587	781.81
593.796	770.81
594.006	774.81
594.215	786.81
594.424	759.81
594.634	777.81
594.843	731.81
595.053	708.81
595.262	685.81
595.472	683.81
595.681	652.81
595.89	638.81
596.1	628.81
596.309	614.81
596.518	634.81
596.727	598.81
596.937	617.81
597.146	587.81
597.355	561.81
597.564	585.81
597.774	561.81
597.983	532.81
598.192	556.81
598.401	557.81
598.61	546.81
598.819	530.81
599.028	541.81
599.237	537.81
599.446	542.81
599.655	540.81
599.864	537.81
600.073	519.81
600.282	516.81
600.491	536.81
600.7	536.81
600.909	530.81
601.118	522.81
601.327	530.81
601.536	491.81
601.745	516.81
601.953	490.81
602.162	514.81
602.371	504.81
602.58	516.81
602.789	508.81
602.997	500.81
603.206	497.81
603.415	501.81
603.623	510.81
603.832	518.81
604.041	482.81
604.249	476.81
604.458	499.81
604.666	496.81
604.875	472.81
605.084	501.81
605.292	480.81
605.501	465.81
605.709	481.81
605.918	477.81
606.126	477.81
606.334	468.81
606.543	466.81
606.751	471.81
606.96	476.81
607.168	471.81
607.376	482.81
607.585	443.81
607.793	471.81
608.001	468.81
608.21	454.81
608.418	463.81
608.626	461.81
608.834	448.81
609.043	447.81
609.251	472.81
609.459	462.81
609.667	462.81
609.875	453.81
610.083	446.81
610.291	443.81
610.499	442.81
610.707	436.81
610.916	469.81
611.124	451.81
611.332	457.81
611.54	453.81
611.748	456.81
611.955	426.81
612.163	463.81
612.371	457.81
612.579	419.81
612.787	444.81
612.995	434.81
613.203	453.81
613.411	452.81
613.618	437.81
613.826	418.81
614.034	441.81
614.242	416.81
614.449	416.81
614.657	449.81
614.865	429.81
615.072	441.81
615.28	458.81
615.488	452.81
615.695	451.81
615.903	428.81
616.111	423.81
616.318	441.81
616.526	436.81
616.733	428.81
616.941	451.81
617.148	442.81
617.356	440.81
617.563	418.81
617.771	423.81
617.978	429.81
618.185	418.81
618.393	434.81
618.6	442.81
618.807	427.81
619.015	432.81
619.222	409.81
619.429	434.81
619.637	425.81
619.844	417.81
620.051	425.81
620.258	402.81
620.466	405.81
620.673	387.81
620.88	394.81
621.087	388.81
621.294	397.81
621.501	395.81
621.708	408.81
621.915	387.81
622.122	400.81
622.329	412.81
622.536	396.81
622.743	388.81
622.95	409.81
623.157	395.81
623.364	390.81
623.571	389.81
623.778	380.81
623.985	390.81
624.192	364.81
624.399	375.81
624.606	382.81
624.812	364.81
625.019	374.81
625.226	392.81
625.433	369.81
625.639	354.81
625.846	375.81
626.053	376.81
626.259	371.81
626.466	363.81
626.673	380.81
626.879	346.81
627.086	375.81
627.293	364.81
627.499	378.81
627.706	357.81
627.912	362.81
628.119	364.81
628.325	350.81
628.532	339.81
628.738	362.81
628.945	349.81
629.151	329.81
629.357	353.81
629.564	354.81
629.77	337.81
629.976	350.81
630.183	353.81
630.389	357.81
630.595	343.81
630.802	336.81
631.008	338.81
631.214	334.81
631.42	336.81
631.627	342.81
631.833	322.81
632.039	331.81
632.245	337.81
632.451	334.81
632.657	333.81
632.863	326.81
633.069	339.81
633.275	329.81
633.481	316.81
633.688	314.81
633.893	334.81
634.099	342.81
634.305	356.81
634.511	348.81
634.717	332.81
634.923	308.81
635.129	330.81
635.335	336.81
635.541	318.81
635.747	318.81
635.952	304.81
636.158	296.81
636.364	307.81
636.57	309.81
636.775	323.81
636.981	313.81
637.187	315.81
637.392	298.81
637.598	322.81
637.804	312.81
638.009	303.81
638.215	311.81
638.421	305.81
638.626	307.81
638.832	319.81
639.037	306.81
639.243	305.81
639.448	308.81
639.654	315.81
639.859	296.81
640.065	292.81
640.27	295.81
640.475	304.81
640.681	303.81
640.886	308.81
641.091	281.81
641.297	308.81
641.502	301.81
641.707	301.81
641.913	294.81
642.118	269.81
642.323	284.81
642.528	288.81
642.733	276.81
642.939	293.81
643.144	285.81
643.349	309.81
643.554	307.81
643.759	302.81
643.964	296.81
644.169	308.81
644.374	273.81
644.579	290.81
644.784	292.81
644.989	296.81
645.194	300.81
645.399	284.81
645.604	299.81
645.809	284.81
646.014	283.81
646.219	300.81
646.423	307.81
646.628	293.81
646.833	294.81
647.038	292.81
647.243	310.81
647.447	312.81
647.652	305.81
647.857	301.81
648.062	317.81
648.266	310.81
648.471	324.81
648.676	332.81
648.88	320.81
649.085	326.81
649.289	310.81
649.494	302.81
649.698	312.81
649.903	292.81
650.107	294.81
650.312	310.81
650.516	300.81
650.721	291.81
650.925	283.81
651.13	278.81
651.334	296.81
651.539	280.81
651.743	294.81
651.947	295.81
652.152	284.81
652.356	272.81
652.56	275.81
652.764	262.81
652.969	271.81
653.173	274.81
653.377	270.81
653.581	277.81
653.785	281.81
653.99	284.81
654.194	253.81
654.398	281.81
654.602	281.81
654.806	302.81
655.01	283.81
655.214	309.81
655.418	301.81
655.622	335.81
655.826	340.81
656.03	347.81
656.234	342.81
656.438	398.81
656.642	380.81
656.846	356.81
657.049	328.81
657.253	291.81
657.457	268.81
657.661	240.81
657.865	240.81
658.068	212.81
658.272	205.81
658.476	185.81
658.68	183.81
658.883	166.81
659.087	171.81
659.291	160.81
659.494	134.81
659.698	129.81
659.901	132.81
660.105	134.81
660.309	138.81
660.512	129.81
660.716	121.81
660.919	118.81
661.123	129.81
661.326	124.81
661.53	107.81
661.733	116.81
661.936	102.81
662.14	98.81
662.343	94.81
662.546	91.81
662.75	78.81
662.953	77.81
663.156	101.81
663.36	84.81
663.563	96.81
663.766	80.81
663.969	86.81
664.173	71.81
664.376	80.81
664.579	74.81
664.782	83.81
664.985	82.81
665.188	75.81
665.391	84.81
665.594	82.81
665.797	68.81
666	73.81
666.203	84.81
666.406	89.81
666.609	62.81
666.812	71.81
667.015	73.81
667.218	76.81
667.421	87.81
667.624	82.81
667.827	83.81
668.03	90.81
668.232	76.81
668.435	71.81
668.638	83.81
668.841	80.81
669.043	85.81
669.246	85.81
669.449	78.81
669.651	84.81
669.854	76.81
670.057	73.81
670.259	89.81
670.462	89.81
670.665	81.81
670.867	83.81
671.07	104.81
671.272	73.81
671.475	91.81
671.677	90.81
671.88	84.81
672.082	86.81
672.284	81.81
672.487	84.81
672.689	80.81
672.892	77.81
