Data from NiCl2@0.25M.TitratingCurve.Agarose3%dH2O.NegLispCup.LampEnergy10.LIBS07252019_HRD10591_18-26-14-574.txt Node
Date: Thu Jul 25 18:26:14 EDT 2019
User: cochatt
Spectrometer: HR+D1059
Trigger mode: 1
Integration Time (sec): 1.000000E-1
Scans to average: 1
Electric dark correction enabled: true
Nonlinearity correction enabled: false
Boxcar width: 0
XAxis mode: Wavelengths
Number of Pixels in Spectrum: 2048
>>>>>Begin Spectral Data<<<<<
223.165	-11.19
223.4	-11.19
223.635	-11.19
223.869	-8.19
224.104	-18.19
224.338	-18.19
224.573	-19.19
224.808	-18.19
225.042	-11.19
225.277	-6.19
225.511	-9.19
225.746	-8.19
225.98	4.81
226.215	11.81
226.449	16.81
226.683	38.81
226.918	26.81
227.152	28.81
227.387	34.81
227.621	44.81
227.856	36.81
228.09	37.81
228.324	50.81
228.559	62.81
228.793	75.81
229.027	109.81
229.262	115.81
229.496	121.81
229.73	121.81
229.964	127.81
230.199	149.81
230.433	149.81
230.667	138.81
230.901	143.81
231.136	151.81
231.37	147.81
231.604	144.81
231.838	162.81
232.072	159.81
232.306	155.81
232.541	154.81
232.775	157.81
233.009	160.81
233.243	158.81
233.477	149.81
233.711	160.81
233.945	153.81
234.179	159.81
234.413	153.81
234.647	154.81
234.881	161.81
235.115	161.81
235.349	167.81
235.583	149.81
235.817	162.81
236.051	168.81
236.285	173.81
236.519	182.81
236.753	181.81
236.987	161.81
237.221	183.81
237.455	172.81
237.689	162.81
237.922	181.81
238.156	165.81
238.39	178.81
238.624	176.81
238.858	169.81
239.091	186.81
239.325	184.81
239.559	191.81
239.793	177.81
240.027	190.81
240.26	212.81
240.494	200.81
240.728	204.81
240.961	184.81
241.195	189.81
241.429	199.81
241.662	213.81
241.896	195.81
242.13	217.81
242.363	190.81
242.597	196.81
242.83	213.81
243.064	210.81
243.298	199.81
243.531	214.81
243.765	214.81
243.998	206.81
244.232	215.81
244.465	226.81
244.699	233.81
244.932	221.81
245.166	232.81
245.399	230.81
245.633	220.81
245.866	222.81
246.099	241.81
246.333	250.81
246.566	237.81
246.8	231.81
247.033	250.81
247.266	237.81
247.5	229.81
247.733	244.81
247.966	246.81
248.2	247.81
248.433	261.81
248.666	250.81
248.899	254.81
249.133	269.81
249.366	265.81
249.599	246.81
249.832	265.81
250.066	279.81
250.299	281.81
250.532	273.81
250.765	268.81
250.998	263.81
251.231	282.81
251.465	261.81
251.698	289.81
251.931	293.81
252.164	295.81
252.397	281.81
252.63	285.81
252.863	300.81
253.096	322.81
253.329	287.81
253.562	294.81
253.795	292.81
254.028	309.81
254.261	298.81
254.494	309.81
254.727	291.81
254.96	307.81
255.193	296.81
255.426	295.81
255.659	296.81
255.892	305.81
256.124	308.81
256.357	318.81
256.59	329.81
256.823	310.81
257.056	309.81
257.289	333.81
257.521	336.81
257.754	327.81
257.987	305.81
258.22	316.81
258.452	310.81
258.685	327.81
258.918	360.81
259.151	327.81
259.383	348.81
259.616	335.81
259.849	340.81
260.081	336.81
260.314	342.81
260.547	349.81
260.779	335.81
261.012	348.81
261.244	349.81
261.477	353.81
261.71	357.81
261.942	363.81
262.175	351.81
262.407	346.81
262.64	345.81
262.872	351.81
263.105	366.81
263.337	361.81
263.57	378.81
263.802	385.81
264.035	374.81
264.267	367.81
264.499	360.81
264.732	377.81
264.964	372.81
265.197	370.81
265.429	361.81
265.661	395.81
265.894	395.81
266.126	363.81
266.358	389.81
266.591	407.81
266.823	387.81
267.055	388.81
267.287	383.81
267.52	393.81
267.752	393.81
267.984	386.81
268.216	388.81
268.448	405.81
268.681	387.81
268.913	379.81
269.145	402.81
269.377	410.81
269.609	421.81
269.841	398.81
270.073	409.81
270.306	417.81
270.538	403.81
270.77	405.81
271.002	419.81
271.234	422.81
271.466	423.81
271.698	417.81
271.93	412.81
272.162	417.81
272.394	428.81
272.626	435.81
272.858	426.81
273.09	413.81
273.322	431.81
273.553	440.81
273.785	452.81
274.017	440.81
274.249	441.81
274.481	460.81
274.713	423.81
274.945	427.81
275.176	448.81
275.408	446.81
275.64	468.81
275.872	451.81
276.104	453.81
276.335	416.81
276.567	446.81
276.799	464.81
277.031	466.81
277.262	451.81
277.494	438.81
277.726	453.81
277.957	454.81
278.189	457.81
278.421	468.81
278.652	467.81
278.884	473.81
279.115	462.81
279.347	470.81
279.579	473.81
279.81	499.81
280.042	487.81
280.273	496.81
280.505	471.81
280.736	465.81
280.968	488.81
281.199	474.81
281.431	491.81
281.662	497.81
281.894	503.81
282.125	504.81
282.356	513.81
282.588	514.81
282.819	500.81
283.051	519.81
283.282	515.81
283.513	527.81
283.745	508.81
283.976	518.81
284.207	521.81
284.439	519.81
284.67	524.81
284.901	532.81
285.132	533.81
285.364	543.81
285.595	540.81
285.826	562.81
286.057	566.81
286.288	545.81
286.52	545.81
286.751	543.81
286.982	562.81
287.213	555.81
287.444	573.81
287.675	545.81
287.906	571.81
288.138	577.81
288.369	551.81
288.6	549.81
288.831	533.81
289.062	564.81
289.293	558.81
289.524	547.81
289.755	577.81
289.986	563.81
290.217	563.81
290.448	586.81
290.679	582.81
290.91	577.81
291.141	598.81
291.371	557.81
291.602	593.81
291.833	554.81
292.064	570.81
292.295	579.81
292.526	560.81
292.757	575.81
292.987	582.81
293.218	554.81
293.449	582.81
293.68	577.81
293.91	582.81
294.141	574.81
294.372	587.81
294.603	596.81
294.833	579.81
295.064	576.81
295.295	584.81
295.525	574.81
295.756	584.81
295.987	591.81
296.217	586.81
296.448	588.81
296.679	576.81
296.909	587.81
297.14	592.81
297.37	615.81
297.601	606.81
297.831	622.81
298.062	606.81
298.292	613.81
298.523	639.81
298.753	658.81
298.984	627.81
299.214	630.81
299.445	626.81
299.675	631.81
299.905	626.81
300.136	625.81
300.366	623.81
300.597	632.81
300.827	663.81
301.057	650.81
301.288	659.81
301.518	673.81
301.748	659.81
301.979	666.81
302.209	669.81
302.439	666.81
302.669	665.81
302.9	645.81
303.13	674.81
303.36	666.81
303.59	644.81
303.82	652.81
304.051	660.81
304.281	673.81
304.511	651.81
304.741	632.81
304.971	629.81
305.201	653.81
305.431	643.81
305.661	654.81
305.891	659.81
306.121	633.81
306.352	655.81
306.582	630.81
306.812	663.81
307.042	645.81
307.272	638.81
307.502	665.81
307.731	656.81
307.961	652.81
308.191	639.81
308.421	645.81
308.651	652.81
308.881	616.81
309.111	649.81
309.341	631.81
309.571	634.81
309.8	645.81
310.03	635.81
310.26	666.81
310.49	651.81
310.72	658.81
310.949	661.81
311.179	645.81
311.409	648.81
311.639	660.81
311.868	671.81
312.098	664.81
312.328	663.81
312.557	661.81
312.787	683.81
313.017	670.81
313.246	654.81
313.476	687.81
313.706	701.81
313.935	703.81
314.165	692.81
314.394	701.81
314.624	699.81
314.853	686.81
315.083	699.81
315.312	699.81
315.542	693.81
315.771	688.81
316.001	678.81
316.23	689.81
316.46	681.81
316.689	684.81
316.919	692.81
317.148	696.81
317.377	684.81
317.607	687.81
317.836	685.81
318.065	682.81
318.295	674.81
318.524	702.81
318.753	693.81
318.983	677.81
319.212	664.81
319.441	655.81
319.67	680.81
319.9	657.81
320.129	694.81
320.358	675.81
320.587	693.81
320.816	683.81
321.046	679.81
321.275	673.81
321.504	702.81
321.733	693.81
321.962	684.81
322.191	700.81
322.42	696.81
322.649	722.81
322.878	700.81
323.108	699.81
323.337	729.81
323.566	714.81
323.795	695.81
324.024	719.81
324.253	714.81
324.482	691.81
324.71	719.81
324.939	714.81
325.168	738.81
325.397	732.81
325.626	751.81
325.855	749.81
326.084	757.81
326.313	767.81
326.542	746.81
326.77	770.81
326.999	748.81
327.228	738.81
327.457	756.81
327.686	734.81
327.914	753.81
328.143	789.81
328.372	747.81
328.6	747.81
328.829	757.81
329.058	742.81
329.287	762.81
329.515	769.81
329.744	775.81
329.972	761.81
330.201	759.81
330.43	747.81
330.658	791.81
330.887	775.81
331.115	782.81
331.344	791.81
331.572	789.81
331.801	810.81
332.03	833.81
332.258	818.81
332.486	889.81
332.715	908.81
332.943	953.81
333.172	955.81
333.4	1017.81
333.629	1034.81
333.857	1063.81
334.085	1020.81
334.314	994.81
334.542	1005.81
334.771	993.81
334.999	919.81
335.227	944.81
335.455	932.81
335.684	888.81
335.912	921.81
336.14	914.81
336.369	920.81
336.597	884.81
336.825	894.81
337.053	904.81
337.281	896.81
337.51	877.81
337.738	853.81
337.966	848.81
338.194	819.81
338.422	833.81
338.65	844.81
338.878	823.81
339.106	832.81
339.334	797.81
339.562	814.81
339.79	809.81
340.018	773.81
340.246	784.81
340.474	781.81
340.702	789.81
340.93	806.81
341.158	781.81
341.386	790.81
341.614	793.81
341.842	795.81
342.07	782.81
342.298	787.81
342.526	754.81
342.754	792.81
342.981	775.81
343.209	821.81
343.437	843.81
343.665	875.81
343.893	976.81
344.12	1005.81
344.348	932.81
344.576	886.81
344.804	869.81
345.031	817.81
345.259	799.81
345.487	779.81
345.714	791.81
345.942	788.81
346.17	757.81
346.397	777.81
346.625	761.81
346.853	777.81
347.08	765.81
347.308	758.81
347.535	771.81
347.763	778.81
347.99	784.81
348.218	754.81
348.445	755.81
348.673	757.81
348.9	760.81
349.128	758.81
349.355	767.81
349.583	752.81
349.81	759.81
350.037	756.81
350.265	729.81
350.492	735.81
350.72	727.81
350.947	722.81
351.174	731.81
351.402	717.81
351.629	734.81
351.856	731.81
352.083	724.81
352.311	724.81
352.538	724.81
352.765	735.81
352.992	723.81
353.22	716.81
353.447	708.81
353.674	737.81
353.901	696.81
354.128	718.81
354.355	745.81
354.583	732.81
354.81	739.81
355.037	740.81
355.264	748.81
355.491	727.81
355.718	731.81
355.945	712.81
356.172	723.81
356.399	737.81
356.626	736.81
356.853	742.81
357.08	729.81
357.307	753.81
357.534	747.81
357.761	743.81
357.988	739.81
358.215	758.81
358.441	732.81
358.668	737.81
358.895	734.81
359.122	718.81
359.349	748.81
359.576	745.81
359.802	743.81
360.029	756.81
360.256	748.81
360.483	740.81
360.709	727.81
360.936	747.81
361.163	722.81
361.39	754.81
361.616	737.81
361.843	723.81
362.07	724.81
362.296	753.81
362.523	724.81
362.749	747.81
362.976	727.81
363.203	738.81
363.429	693.81
363.656	723.81
363.882	732.81
364.109	710.81
364.335	690.81
364.562	726.81
364.788	756.81
365.015	742.81
365.241	723.81
365.468	737.81
365.694	762.81
365.92	731.81
366.147	703.81
366.373	715.81
366.599	714.81
366.826	743.81
367.052	739.81
367.278	727.81
367.505	727.81
367.731	730.81
367.957	730.81
368.184	754.81
368.41	773.81
368.636	771.81
368.862	766.81
369.089	775.81
369.315	746.81
369.541	757.81
369.767	751.81
369.993	748.81
370.219	753.81
370.445	774.81
370.672	791.81
370.898	781.81
371.124	803.81
371.35	796.81
371.576	805.81
371.802	794.81
372.028	791.81
372.254	784.81
372.48	839.81
372.706	827.81
372.932	853.81
373.158	832.81
373.384	839.81
373.61	811.81
373.835	795.81
374.061	792.81
374.287	829.81
374.513	829.81
374.739	833.81
374.965	862.81
375.191	915.81
375.416	895.81
375.642	851.81
375.868	870.81
376.094	847.81
376.319	795.81
376.545	801.81
376.771	805.81
376.997	812.81
377.222	804.81
377.448	794.81
377.674	803.81
377.899	802.81
378.125	801.81
378.35	770.81
378.576	781.81
378.802	799.81
379.027	798.81
379.253	813.81
379.478	790.81
379.704	789.81
379.929	783.81
380.155	794.81
380.38	802.81
380.606	798.81
380.831	782.81
381.057	797.81
381.282	790.81
381.507	783.81
381.733	791.81
381.958	819.81
382.184	826.81
382.409	804.81
382.634	825.81
382.86	827.81
383.085	850.81
383.31	878.81
383.535	890.81
383.761	897.81
383.986	922.81
384.211	939.81
384.436	948.81
384.662	959.81
384.887	957.81
385.112	942.81
385.337	936.81
385.562	987.81
385.787	969.81
386.013	988.81
386.238	1001.81
386.463	994.81
386.688	981.81
386.913	963.81
387.138	975.81
387.363	967.81
387.588	969.81
387.813	964.81
388.038	918.81
388.263	958.81
388.488	949.81
388.713	950.81
388.938	976.81
389.163	923.81
389.387	930.81
389.612	941.81
389.837	973.81
390.062	932.81
390.287	938.81
390.512	952.81
390.736	942.81
390.961	995.81
391.186	996.81
391.411	997.81
391.636	1084.81
391.86	1084.81
392.085	1115.81
392.31	1099.81
392.534	1056.81
392.759	1023.81
392.984	1015.81
393.208	1025.81
393.433	1026.81
393.658	1014.81
393.882	1026.81
394.107	1044.81
394.331	1063.81
394.556	1031.81
394.78	1031.81
395.005	1048.81
395.229	1041.81
395.454	1098.81
395.678	1083.81
395.903	1089.81
396.127	1066.81
396.352	1050.81
396.576	1000.81
396.801	1001.81
397.025	1026.81
397.249	1053.81
397.474	1102.81
397.698	1099.81
397.922	1086.81
398.147	1107.81
398.371	1123.81
398.595	1130.81
398.82	1226.81
399.044	1276.81
399.268	1423.81
399.492	1695.81
399.717	1906.81
399.941	1886.81
400.165	1649.81
400.389	1456.81
400.613	1337.81
400.837	1316.81
401.062	1268.81
401.286	1226.81
401.51	1208.81
401.734	1181.81
401.958	1233.81
402.182	1249.81
402.406	1274.81
402.63	1315.81
402.854	1295.81
403.078	1322.81
403.302	1387.81
403.526	1386.81
403.75	1396.81
403.974	1429.81
404.198	1414.81
404.422	1416.81
404.645	1434.81
404.869	1390.81
405.093	1409.81
405.317	1374.81
405.541	1369.81
405.765	1325.81
405.988	1356.81
406.212	1333.81
406.436	1347.81
406.66	1361.81
406.883	1437.81
407.107	1493.81
407.331	1530.81
407.555	1580.81
407.778	1596.81
408.002	1551.81
408.226	1483.81
408.449	1464.81
408.673	1427.81
408.896	1393.81
409.12	1397.81
409.344	1427.81
409.567	1380.81
409.791	1361.81
410.014	1343.81
410.238	1361.81
410.461	1320.81
410.685	1350.81
410.908	1289.81
411.132	1301.81
411.355	1284.81
411.578	1266.81
411.802	1244.81
412.025	1288.81
412.249	1283.81
412.472	1291.81
412.695	1270.81
412.919	1243.81
413.142	1209.81
413.365	1197.81
413.589	1212.81
413.812	1209.81
414.035	1170.81
414.258	1222.81
414.482	1216.81
414.705	1233.81
414.928	1242.81
415.151	1228.81
415.374	1227.81
415.597	1247.81
415.821	1193.81
416.044	1190.81
416.267	1194.81
416.49	1195.81
416.713	1154.81
416.936	1203.81
417.159	1194.81
417.382	1198.81
417.605	1167.81
417.828	1208.81
418.051	1202.81
418.274	1229.81
418.497	1225.81
418.72	1269.81
418.943	1239.81
419.166	1305.81
419.389	1390.81
419.611	1334.81
419.834	1283.81
420.057	1256.81
420.28	1218.81
420.503	1207.81
420.726	1163.81
420.948	1181.81
421.171	1205.81
421.394	1215.81
421.617	1164.81
421.839	1212.81
422.062	1222.81
422.285	1203.81
422.507	1226.81
422.73	1223.81
422.953	1256.81
423.175	1281.81
423.398	1265.81
423.621	1287.81
423.843	1283.81
424.066	1304.81
424.288	1283.81
424.511	1287.81
424.733	1261.81
424.956	1211.81
425.178	1230.81
425.401	1205.81
425.623	1190.81
425.846	1149.81
426.068	1169.81
426.291	1187.81
426.513	1147.81
426.735	1141.81
426.958	1125.81
427.18	1090.81
427.402	1077.81
427.625	1100.81
427.847	1061.81
428.069	1092.81
428.292	1058.81
428.514	1051.81
428.736	1057.81
428.958	1044.81
429.181	1043.81
429.403	1029.81
429.625	1033.81
429.847	1025.81
430.069	1030.81
430.292	1013.81
430.514	1029.81
430.736	1036.81
430.958	1049.81
431.18	1029.81
431.402	1037.81
431.624	1048.81
431.846	1053.81
432.068	1074.81
432.29	1056.81
432.512	1044.81
432.734	1057.81
432.956	1060.81
433.178	1069.81
433.4	1065.81
433.622	1065.81
433.844	1067.81
434.066	1063.81
434.287	1102.81
434.509	1118.81
434.731	1175.81
434.953	1193.81
435.175	1213.81
435.397	1173.81
435.618	1101.81
435.84	1068.81
436.062	1052.81
436.284	1064.81
436.505	1045.81
436.727	1066.81
436.949	1049.81
437.17	1047.81
437.392	1023.81
437.614	1025.81
437.835	1024.81
438.057	1013.81
438.278	1006.81
438.5	1005.81
438.721	994.81
438.943	999.81
439.165	1049.81
439.386	1011.81
439.608	1040.81
439.829	1049.81
440.05	1047.81
440.272	1075.81
440.493	1057.81
440.715	1052.81
440.936	1075.81
441.158	1120.81
441.379	1151.81
441.6	1201.81
441.822	1183.81
442.043	1194.81
442.264	1159.81
442.486	1149.81
442.707	1155.81
442.928	1153.81
443.149	1165.81
443.371	1151.81
443.592	1161.81
443.813	1218.81
444.034	1174.81
444.255	1236.81
444.476	1298.81
444.698	1390.81
444.919	1471.81
445.14	1449.81
445.361	1313.81
445.582	1219.81
445.803	1137.81
446.024	1149.81
446.245	1121.81
446.466	1106.81
446.687	1065.81
446.908	1071.81
447.129	1035.81
447.35	1001.81
447.571	992.81
447.792	986.81
448.013	995.81
448.234	974.81
448.455	948.81
448.675	977.81
448.896	939.81
449.117	967.81
449.338	968.81
449.559	931.81
449.779	931.81
450	956.81
450.221	956.81
450.442	979.81
450.662	980.81
450.883	967.81
451.104	1002.81
451.324	947.81
451.545	957.81
451.766	970.81
451.986	964.81
452.207	963.81
452.428	926.81
452.648	929.81
452.869	943.81
453.089	928.81
453.31	916.81
453.53	930.81
453.751	913.81
453.971	918.81
454.192	959.81
454.412	917.81
454.633	904.81
454.853	909.81
455.073	892.81
455.294	915.81
455.514	869.81
455.734	906.81
455.955	893.81
456.175	915.81
456.395	906.81
456.616	883.81
456.836	886.81
457.056	882.81
457.276	863.81
457.497	916.81
457.717	892.81
457.937	893.81
458.157	886.81
458.377	877.81
458.598	929.81
458.818	964.81
459.038	982.81
459.258	980.81
459.478	1057.81
459.698	1089.81
459.918	1135.81
460.138	1143.81
460.358	1208.81
460.578	1257.81
460.798	1260.81
461.018	1243.81
461.238	1229.81
461.458	1209.81
461.678	1237.81
461.898	1259.81
462.118	1253.81
462.338	1330.81
462.558	1351.81
462.777	1429.81
462.997	1516.81
463.217	1687.81
463.437	1718.81
463.657	1559.81
463.876	1499.81
464.096	1479.81
464.316	1452.81
464.536	1448.81
464.755	1436.81
464.975	1342.81
465.195	1295.81
465.414	1201.81
465.634	1132.81
465.854	1081.81
466.073	1074.81
466.293	1077.81
466.512	1034.81
466.732	1005.81
466.951	1031.81
467.171	992.81
467.391	1002.81
467.61	1002.81
467.829	1006.81
468.049	965.81
468.268	975.81
468.488	944.81
468.707	953.81
468.927	959.81
469.146	954.81
469.365	1016.81
469.585	1007.81
469.804	1002.81
470.023	1017.81
470.243	1043.81
470.462	1049.81
470.681	1029.81
470.901	1040.81
471.12	1027.81
471.339	993.81
471.558	981.81
471.777	1000.81
471.997	985.81
472.216	976.81
472.435	957.81
472.654	927.81
472.873	926.81
473.092	917.81
473.311	933.81
473.53	929.81
473.749	929.81
473.968	917.81
474.187	926.81
474.406	937.81
474.625	940.81
474.844	930.81
475.063	946.81
475.282	949.81
475.501	942.81
475.72	972.81
475.939	970.81
476.158	976.81
476.377	1002.81
476.596	977.81
476.814	988.81
477.033	1002.81
477.252	1016.81
477.471	1011.81
477.69	1065.81
477.908	1075.81
478.127	1132.81
478.346	1123.81
478.564	1143.81
478.783	1174.81
479.002	1199.81
479.22	1190.81
479.439	1202.81
479.658	1205.81
479.876	1180.81
480.095	1196.81
480.313	1268.81
480.532	1283.81
480.751	1267.81
480.969	1189.81
481.188	1185.81
481.406	1123.81
481.624	1092.81
481.843	1099.81
482.061	1105.81
482.28	1087.81
482.498	1079.81
482.717	1063.81
482.935	1071.81
483.153	1054.81
483.372	1061.81
483.59	1097.81
483.808	1073.81
484.027	1045.81
484.245	1101.81
484.463	1109.81
484.681	1091.81
484.9	1118.81
485.118	1094.81
485.336	1112.81
485.554	1133.81
485.772	1134.81
485.99	1121.81
486.209	1122.81
486.427	1115.81
486.645	1119.81
486.863	1158.81
487.081	1145.81
487.299	1114.81
487.517	1117.81
487.735	1103.81
487.953	1132.81
488.171	1107.81
488.389	1084.81
488.607	1110.81
488.825	1098.81
489.043	1113.81
489.261	1115.81
489.479	1145.81
489.696	1142.81
489.914	1149.81
490.132	1118.81
490.35	1157.81
490.568	1157.81
490.786	1149.81
491.003	1116.81
491.221	1115.81
491.439	1145.81
491.657	1121.81
491.874	1130.81
492.092	1142.81
492.31	1157.81
492.527	1147.81
492.745	1135.81
492.963	1188.81
493.18	1194.81
493.398	1160.81
493.615	1159.81
493.833	1185.81
494.05	1203.81
494.268	1201.81
494.485	1199.81
494.703	1177.81
494.92	1209.81
495.138	1204.81
495.355	1238.81
495.573	1221.81
495.79	1205.81
496.008	1212.81
496.225	1249.81
496.442	1251.81
496.66	1235.81
496.877	1283.81
497.094	1311.81
497.312	1348.81
497.529	1369.81
497.746	1353.81
497.963	1390.81
498.181	1471.81
498.398	1549.81
498.615	1662.81
498.832	1758.81
499.049	1894.81
499.267	2028.81
499.484	2217.81
499.701	2481.81
499.918	2798.81
500.135	3196.81
500.352	3707.81
500.569	3829.81
500.786	3798.81
501.003	3423.81
501.22	3116.81
501.437	2689.81
501.654	2362.81
501.871	2185.81
502.088	2008.81
502.305	1838.81
502.522	1810.81
502.739	1689.81
502.956	1610.81
503.172	1522.81
503.389	1451.81
503.606	1415.81
503.823	1345.81
504.04	1382.81
504.256	1443.81
504.473	1454.81
504.69	1512.81
504.907	1451.81
505.123	1326.81
505.34	1251.81
505.557	1211.81
505.773	1157.81
505.99	1189.81
506.207	1129.81
506.423	1102.81
506.64	1112.81
506.856	1089.81
507.073	1100.81
507.289	1064.81
507.506	1074.81
507.722	1037.81
507.939	1035.81
508.155	1039.81
508.372	1033.81
508.588	1013.81
508.805	1002.81
509.021	1014.81
509.238	1017.81
509.454	1001.81
509.67	975.81
509.887	981.81
510.103	970.81
510.319	976.81
510.536	963.81
510.752	961.81
510.968	973.81
511.184	964.81
511.401	941.81
511.617	961.81
511.833	935.81
512.049	985.81
512.265	987.81
512.481	969.81
512.698	979.81
512.914	955.81
513.13	978.81
513.346	959.81
513.562	939.81
513.778	967.81
513.994	987.81
514.21	1007.81
514.426	984.81
514.642	977.81
514.858	988.81
515.074	1013.81
515.29	979.81
515.506	1019.81
515.721	1013.81
515.937	1044.81
516.153	1043.81
516.369	1112.81
516.585	1125.81
516.801	1181.81
517.016	1187.81
517.232	1246.81
517.448	1326.81
517.664	1367.81
517.879	1399.81
518.095	1380.81
518.311	1351.81
518.527	1286.81
518.742	1256.81
518.958	1193.81
519.173	1123.81
519.389	1127.81
519.605	1070.81
519.82	1052.81
520.036	1024.81
520.251	1009.81
520.467	1007.81
520.682	982.81
520.898	965.81
521.113	958.81
521.329	951.81
521.544	918.81
521.76	938.81
521.975	939.81
522.19	901.81
522.406	887.81
522.621	931.81
522.836	871.81
523.052	890.81
523.267	917.81
523.482	905.81
523.698	925.81
523.913	885.81
524.128	897.81
524.343	904.81
524.559	910.81
524.774	907.81
524.989	895.81
525.204	911.81
525.419	885.81
525.634	858.81
525.849	861.81
526.064	898.81
526.28	867.81
526.495	847.81
526.71	885.81
526.925	875.81
527.14	846.81
527.355	879.81
527.57	871.81
527.785	873.81
527.999	901.81
528.214	861.81
528.429	875.81
528.644	892.81
528.859	871.81
529.074	877.81
529.289	849.81
529.503	875.81
529.718	883.81
529.933	875.81
530.148	882.81
530.363	852.81
530.577	844.81
530.792	830.81
531.007	836.81
531.221	865.81
531.436	864.81
531.651	855.81
531.865	861.81
532.08	893.81
532.295	861.81
532.509	876.81
532.724	860.81
532.938	883.81
533.153	855.81
533.367	865.81
533.582	857.81
533.796	869.81
534.011	861.81
534.225	871.81
534.44	829.81
534.654	838.81
534.868	827.81
535.083	833.81
535.297	845.81
535.511	808.81
535.726	809.81
535.94	807.81
536.154	829.81
536.369	833.81
536.583	829.81
536.797	819.81
537.011	793.81
537.225	819.81
537.44	797.81
537.654	797.81
537.868	783.81
538.082	785.81
538.296	768.81
538.51	784.81
538.724	799.81
538.938	799.81
539.153	783.81
539.367	773.81
539.581	788.81
539.795	773.81
540.009	765.81
540.222	780.81
540.436	766.81
540.65	782.81
540.864	793.81
541.078	780.81
541.292	779.81
541.506	807.81
541.72	764.81
541.934	763.81
542.147	797.81
542.361	743.81
542.575	762.81
542.789	775.81
543.002	795.81
543.216	748.81
543.43	759.81
543.644	779.81
543.857	742.81
544.071	757.81
544.285	779.81
544.498	791.81
544.712	789.81
544.925	802.81
545.139	808.81
545.352	778.81
545.566	826.81
545.779	798.81
545.993	806.81
546.206	808.81
546.42	781.81
546.633	801.81
546.847	776.81
547.06	779.81
547.274	809.81
547.487	777.81
547.7	779.81
547.914	804.81
548.127	801.81
548.34	814.81
548.554	803.81
548.767	787.81
548.98	815.81
549.193	796.81
549.407	805.81
549.62	810.81
549.833	831.81
550.046	794.81
550.259	786.81
550.473	790.81
550.686	768.81
550.899	787.81
551.112	789.81
551.325	776.81
551.538	793.81
551.751	792.81
551.964	765.81
552.177	813.81
552.39	805.81
552.603	831.81
552.816	842.81
553.029	837.81
553.242	889.81
553.455	875.81
553.667	874.81
553.88	854.81
554.093	826.81
554.306	818.81
554.519	805.81
554.732	800.81
554.944	773.81
555.157	774.81
555.37	740.81
555.583	743.81
555.795	716.81
556.008	711.81
556.221	694.81
556.433	708.81
556.646	697.81
556.859	685.81
557.071	686.81
557.284	666.81
557.496	673.81
557.709	677.81
557.921	682.81
558.134	665.81
558.346	673.81
558.559	691.81
558.771	657.81
558.984	630.81
559.196	666.81
559.409	646.81
559.621	657.81
559.833	647.81
560.046	635.81
560.258	623.81
560.47	651.81
560.683	646.81
560.895	638.81
561.107	638.81
561.32	644.81
561.532	670.81
561.744	648.81
561.956	641.81
562.168	635.81
562.381	647.81
562.593	643.81
562.805	674.81
563.017	658.81
563.229	667.81
563.441	645.81
563.653	660.81
563.865	641.81
564.077	652.81
564.289	675.81
564.501	673.81
564.713	713.81
564.925	709.81
565.137	710.81
565.349	718.81
565.561	789.81
565.773	797.81
565.985	811.81
566.197	853.81
566.408	917.81
566.62	986.81
566.832	1077.81
567.044	1169.81
567.255	1080.81
567.467	1138.81
567.679	1191.81
567.891	1316.81
568.102	1338.81
568.314	1281.81
568.526	1105.81
568.737	998.81
568.949	912.81
569.161	839.81
569.372	787.81
569.584	724.81
569.795	705.81
570.007	711.81
570.218	666.81
570.43	663.81
570.641	656.81
570.853	697.81
571.064	658.81
571.276	639.81
571.487	655.81
571.698	627.81
571.91	605.81
572.121	588.81
572.333	605.81
572.544	574.81
572.755	584.81
572.966	568.81
573.178	569.81
573.389	546.81
573.6	554.81
573.811	527.81
574.023	533.81
574.234	552.81
574.445	533.81
574.656	554.81
574.867	541.81
575.078	537.81
575.289	526.81
575.501	533.81
575.712	495.81
575.923	489.81
576.134	498.81
576.345	501.81
576.556	493.81
576.767	485.81
576.978	500.81
577.188	498.81
577.399	473.81
577.61	507.81
577.821	499.81
578.032	487.81
578.243	488.81
578.454	502.81
578.665	468.81
578.875	468.81
579.086	459.81
579.297	470.81
579.508	473.81
579.718	461.81
579.929	461.81
580.14	445.81
580.35	465.81
580.561	476.81
580.772	471.81
580.982	476.81
581.193	468.81
581.403	438.81
581.614	446.81
581.825	465.81
582.035	427.81
582.246	428.81
582.456	440.81
582.667	457.81
582.877	442.81
583.087	446.81
583.298	474.81
583.508	430.81
583.719	447.81
583.929	446.81
584.139	436.81
584.35	459.81
584.56	445.81
584.77	460.81
584.981	452.81
585.191	412.81
585.401	428.81
585.611	420.81
585.821	424.81
586.032	437.81
586.242	439.81
586.452	442.81
586.662	434.81
586.872	443.81
587.082	437.81
587.292	442.81
587.502	409.81
587.713	409.81
587.923	410.81
588.133	419.81
588.343	419.81
588.553	426.81
588.762	431.81
588.972	418.81
589.182	424.81
589.392	429.81
589.602	437.81
589.812	441.81
590.022	429.81
590.232	427.81
590.441	427.81
590.651	427.81
590.861	445.81
591.071	454.81
591.281	445.81
591.49	442.81
591.7	456.81
591.91	452.81
592.119	474.81
592.329	478.81
592.539	488.81
592.748	490.81
592.958	536.81
593.167	515.81
593.377	568.81
593.587	555.81
593.796	546.81
594.006	573.81
594.215	571.81
594.424	551.81
594.634	537.81
594.843	520.81
595.053	515.81
595.262	487.81
595.472	470.81
595.681	459.81
595.89	455.81
596.1	425.81
596.309	429.81
596.518	428.81
596.727	407.81
596.937	413.81
597.146	391.81
597.355	408.81
597.564	378.81
597.774	387.81
597.983	393.81
598.192	393.81
598.401	375.81
598.61	351.81
598.819	376.81
599.028	367.81
599.237	366.81
599.446	361.81
599.655	355.81
599.864	376.81
600.073	361.81
600.282	358.81
600.491	346.81
600.7	370.81
600.909	369.81
601.118	349.81
601.327	354.81
601.536	353.81
601.745	362.81
601.953	352.81
602.162	356.81
602.371	350.81
602.58	359.81
602.789	344.81
602.997	341.81
603.206	359.81
603.415	353.81
603.623	332.81
603.832	351.81
604.041	359.81
604.249	346.81
604.458	343.81
604.666	324.81
604.875	344.81
605.084	325.81
605.292	330.81
605.501	347.81
605.709	324.81
605.918	326.81
606.126	347.81
606.334	319.81
606.543	346.81
606.751	321.81
606.96	325.81
607.168	326.81
607.376	354.81
607.585	321.81
607.793	319.81
608.001	338.81
608.21	325.81
608.418	323.81
608.626	315.81
608.834	316.81
609.043	333.81
609.251	317.81
609.459	326.81
609.667	318.81
609.875	290.81
610.083	312.81
610.291	332.81
610.499	322.81
610.707	301.81
610.916	321.81
611.124	320.81
611.332	300.81
611.54	311.81
611.748	319.81
611.955	324.81
612.163	315.81
612.371	317.81
612.579	289.81
612.787	290.81
612.995	332.81
613.203	295.81
613.411	308.81
613.618	297.81
613.826	307.81
614.034	301.81
614.242	313.81
614.449	305.81
614.657	304.81
614.865	298.81
615.072	307.81
615.28	310.81
615.488	295.81
615.695	304.81
615.903	321.81
616.111	317.81
616.318	317.81
616.526	317.81
616.733	307.81
616.941	303.81
617.148	307.81
617.356	310.81
617.563	302.81
617.771	324.81
617.978	301.81
618.185	310.81
618.393	312.81
618.6	306.81
618.807	309.81
619.015	309.81
619.222	302.81
619.429	299.81
619.637	292.81
619.844	310.81
620.051	305.81
620.258	274.81
620.466	292.81
620.673	278.81
620.88	269.81
621.087	287.81
621.294	288.81
621.501	286.81
621.708	290.81
621.915	287.81
622.122	285.81
622.329	284.81
622.536	295.81
622.743	281.81
622.95	268.81
623.157	269.81
623.364	276.81
623.571	282.81
623.778	266.81
623.985	262.81
624.192	266.81
624.399	294.81
624.606	285.81
624.812	265.81
625.019	264.81
625.226	283.81
625.433	265.81
625.639	245.81
625.846	262.81
626.053	271.81
626.259	289.81
626.466	249.81
626.673	256.81
626.879	264.81
627.086	247.81
627.293	259.81
627.499	260.81
627.706	254.81
627.912	261.81
628.119	268.81
628.325	279.81
628.532	276.81
628.738	256.81
628.945	253.81
629.151	254.81
629.357	244.81
629.564	249.81
629.77	249.81
629.976	244.81
630.183	237.81
630.389	241.81
630.595	243.81
630.802	231.81
631.008	237.81
631.214	243.81
631.42	241.81
631.627	237.81
631.833	230.81
632.039	243.81
632.245	247.81
632.451	234.81
632.657	235.81
632.863	230.81
633.069	227.81
633.275	234.81
633.481	225.81
633.688	217.81
633.893	220.81
634.099	245.81
634.305	234.81
634.511	230.81
634.717	206.81
634.923	237.81
635.129	237.81
635.335	236.81
635.541	231.81
635.747	217.81
635.952	230.81
636.158	216.81
636.364	224.81
636.57	220.81
636.775	232.81
636.981	218.81
637.187	237.81
637.392	237.81
637.598	221.81
637.804	244.81
638.009	218.81
638.215	235.81
638.421	208.81
638.626	196.81
638.832	226.81
639.037	214.81
639.243	221.81
639.448	201.81
639.654	211.81
639.859	221.81
640.065	231.81
640.27	217.81
640.475	226.81
640.681	217.81
640.886	223.81
641.091	204.81
641.297	208.81
641.502	202.81
641.707	219.81
641.913	202.81
642.118	217.81
642.323	206.81
642.528	187.81
642.733	200.81
642.939	206.81
643.144	205.81
643.349	207.81
643.554	216.81
643.759	194.81
643.964	206.81
644.169	210.81
644.374	203.81
644.579	221.81
644.784	210.81
644.989	198.81
645.194	197.81
645.399	203.81
645.604	186.81
645.809	197.81
646.014	222.81
646.219	202.81
646.423	197.81
646.628	201.81
646.833	222.81
647.038	203.81
647.243	212.81
647.447	203.81
647.652	220.81
647.857	201.81
648.062	218.81
648.266	211.81
648.471	239.81
648.676	223.81
648.88	221.81
649.085	221.81
649.289	205.81
649.494	206.81
649.698	213.81
649.903	201.81
650.107	181.81
650.312	201.81
650.516	184.81
650.721	200.81
650.925	170.81
651.13	177.81
651.334	172.81
651.539	187.81
651.743	181.81
651.947	180.81
652.152	161.81
652.356	159.81
652.56	177.81
652.764	170.81
652.969	174.81
653.173	166.81
653.377	164.81
653.581	175.81
653.785	167.81
653.99	145.81
654.194	149.81
654.398	154.81
654.602	167.81
654.806	151.81
655.01	145.81
655.214	154.81
655.418	143.81
655.622	139.81
655.826	161.81
656.03	142.81
656.234	153.81
656.438	145.81
656.642	158.81
656.846	144.81
657.049	138.81
657.253	142.81
657.457	121.81
657.661	124.81
657.865	119.81
658.068	121.81
658.272	124.81
658.476	110.81
658.68	123.81
658.883	117.81
659.087	110.81
659.291	124.81
659.494	113.81
659.698	107.81
659.901	109.81
660.105	100.81
660.309	102.81
660.512	95.81
660.716	98.81
660.919	109.81
661.123	113.81
661.326	98.81
661.53	92.81
661.733	101.81
661.936	93.81
662.14	86.81
662.343	81.81
662.546	94.81
662.75	92.81
662.953	93.81
663.156	73.81
663.36	85.81
663.563	94.81
663.766	82.81
663.969	83.81
664.173	68.81
664.376	78.81
664.579	86.81
664.782	81.81
664.985	96.81
665.188	83.81
665.391	75.81
665.594	80.81
665.797	82.81
666	95.81
666.203	74.81
666.406	77.81
666.609	84.81
666.812	89.81
667.015	94.81
667.218	81.81
667.421	103.81
667.624	81.81
667.827	75.81
668.03	91.81
668.232	96.81
668.435	79.81
668.638	77.81
668.841	103.81
669.043	85.81
669.246	87.81
669.449	89.81
669.651	72.81
669.854	83.81
670.057	81.81
670.259	69.81
670.462	74.81
670.665	84.81
670.867	93.81
671.07	70.81
671.272	102.81
671.475	91.81
671.677	81.81
671.88	96.81
672.082	79.81
672.284	86.81
672.487	77.81
672.689	83.81
672.892	79.81
