Data from NiCl2@0.25M.TitratingCurve.Agarose3%dH2O.NegLispCup.LampEnergy10.LIBS07252019_HRD10591_18-24-46-573.txt Node
Date: Thu Jul 25 18:24:46 EDT 2019
User: cochatt
Spectrometer: HR+D1059
Trigger mode: 1
Integration Time (sec): 1.000000E-1
Scans to average: 1
Electric dark correction enabled: true
Nonlinearity correction enabled: false
Boxcar width: 0
XAxis mode: Wavelengths
Number of Pixels in Spectrum: 2048
>>>>>Begin Spectral Data<<<<<
223.165	-6.19
223.4	-6.19
223.635	-6.19
223.869	-3.19
224.104	-22.19
224.338	-12.19
224.573	-13.19
224.808	-14.19
225.042	-4.19
225.277	-5.19
225.511	0.81
225.746	10.81
225.98	3.81
226.215	2.81
226.449	7.81
226.683	3.81
226.918	19.81
227.152	30.81
227.387	24.81
227.621	27.81
227.856	40.81
228.09	50.81
228.324	58.81
228.559	57.81
228.793	74.81
229.027	116.81
229.262	118.81
229.496	117.81
229.73	135.81
229.964	154.81
230.199	139.81
230.433	125.81
230.667	123.81
230.901	154.81
231.136	159.81
231.37	152.81
231.604	158.81
231.838	157.81
232.072	164.81
232.306	159.81
232.541	153.81
232.775	159.81
233.009	159.81
233.243	157.81
233.477	164.81
233.711	167.81
233.945	183.81
234.179	164.81
234.413	167.81
234.647	154.81
234.881	164.81
235.115	181.81
235.349	168.81
235.583	170.81
235.817	163.81
236.051	165.81
236.285	178.81
236.519	171.81
236.753	172.81
236.987	177.81
237.221	163.81
237.455	176.81
237.689	175.81
237.922	198.81
238.156	168.81
238.39	182.81
238.624	161.81
238.858	191.81
239.091	183.81
239.325	201.81
239.559	212.81
239.793	200.81
240.027	211.81
240.26	209.81
240.494	182.81
240.728	227.81
240.961	194.81
241.195	208.81
241.429	216.81
241.662	200.81
241.896	213.81
242.13	217.81
242.363	199.81
242.597	220.81
242.83	228.81
243.064	236.81
243.298	225.81
243.531	224.81
243.765	259.81
243.998	229.81
244.232	241.81
244.465	235.81
244.699	229.81
244.932	246.81
245.166	257.81
245.399	250.81
245.633	248.81
245.866	256.81
246.099	257.81
246.333	259.81
246.566	262.81
246.8	247.81
247.033	245.81
247.266	259.81
247.5	239.81
247.733	250.81
247.966	253.81
248.2	262.81
248.433	276.81
248.666	264.81
248.899	259.81
249.133	291.81
249.366	284.81
249.599	293.81
249.832	287.81
250.066	284.81
250.299	287.81
250.532	298.81
250.765	296.81
250.998	311.81
251.231	299.81
251.465	296.81
251.698	311.81
251.931	314.81
252.164	309.81
252.397	319.81
252.63	316.81
252.863	315.81
253.096	307.81
253.329	312.81
253.562	306.81
253.795	331.81
254.028	312.81
254.261	341.81
254.494	325.81
254.727	327.81
254.96	333.81
255.193	336.81
255.426	340.81
255.659	317.81
255.892	344.81
256.124	332.81
256.357	335.81
256.59	351.81
256.823	344.81
257.056	348.81
257.289	345.81
257.521	356.81
257.754	355.81
257.987	354.81
258.22	359.81
258.452	355.81
258.685	357.81
258.918	360.81
259.151	357.81
259.383	340.81
259.616	355.81
259.849	374.81
260.081	377.81
260.314	371.81
260.547	379.81
260.779	375.81
261.012	374.81
261.244	397.81
261.477	378.81
261.71	376.81
261.942	367.81
262.175	375.81
262.407	384.81
262.64	379.81
262.872	375.81
263.105	360.81
263.337	409.81
263.57	392.81
263.802	389.81
264.035	393.81
264.267	388.81
264.499	407.81
264.732	417.81
264.964	398.81
265.197	408.81
265.429	416.81
265.661	409.81
265.894	396.81
266.126	398.81
266.358	423.81
266.591	416.81
266.823	424.81
267.055	419.81
267.287	427.81
267.52	416.81
267.752	421.81
267.984	425.81
268.216	432.81
268.448	421.81
268.681	436.81
268.913	444.81
269.145	424.81
269.377	439.81
269.609	449.81
269.841	418.81
270.073	443.81
270.306	441.81
270.538	438.81
270.77	453.81
271.002	442.81
271.234	437.81
271.466	455.81
271.698	444.81
271.93	457.81
272.162	456.81
272.394	473.81
272.626	457.81
272.858	472.81
273.09	456.81
273.322	497.81
273.553	470.81
273.785	469.81
274.017	492.81
274.249	490.81
274.481	471.81
274.713	470.81
274.945	469.81
275.176	482.81
275.408	474.81
275.64	507.81
275.872	500.81
276.104	481.81
276.335	480.81
276.567	481.81
276.799	491.81
277.031	514.81
277.262	511.81
277.494	504.81
277.726	498.81
277.957	501.81
278.189	517.81
278.421	511.81
278.652	510.81
278.884	499.81
279.115	518.81
279.347	515.81
279.579	540.81
279.81	519.81
280.042	521.81
280.273	525.81
280.505	535.81
280.736	529.81
280.968	524.81
281.199	555.81
281.431	539.81
281.662	514.81
281.894	567.81
282.125	557.81
282.356	556.81
282.588	534.81
282.819	571.81
283.051	573.81
283.282	560.81
283.513	554.81
283.745	548.81
283.976	560.81
284.207	572.81
284.439	584.81
284.67	572.81
284.901	574.81
285.132	567.81
285.364	592.81
285.595	571.81
285.826	589.81
286.057	587.81
286.288	593.81
286.52	597.81
286.751	596.81
286.982	597.81
287.213	609.81
287.444	591.81
287.675	612.81
287.906	596.81
288.138	586.81
288.369	579.81
288.6	615.81
288.831	610.81
289.062	605.81
289.293	611.81
289.524	607.81
289.755	605.81
289.986	612.81
290.217	611.81
290.448	632.81
290.679	616.81
290.91	621.81
291.141	614.81
291.371	631.81
291.602	628.81
291.833	616.81
292.064	629.81
292.295	627.81
292.526	657.81
292.757	621.81
292.987	630.81
293.218	619.81
293.449	624.81
293.68	636.81
293.91	625.81
294.141	627.81
294.372	622.81
294.603	611.81
294.833	663.81
295.064	643.81
295.295	631.81
295.525	631.81
295.756	640.81
295.987	626.81
296.217	628.81
296.448	638.81
296.679	644.81
296.909	652.81
297.14	643.81
297.37	671.81
297.601	683.81
297.831	693.81
298.062	682.81
298.292	666.81
298.523	703.81
298.753	703.81
298.984	674.81
299.214	685.81
299.445	681.81
299.675	663.81
299.905	673.81
300.136	702.81
300.366	709.81
300.597	689.81
300.827	704.81
301.057	724.81
301.288	719.81
301.518	720.81
301.748	721.81
301.979	734.81
302.209	730.81
302.439	719.81
302.669	709.81
302.9	699.81
303.13	712.81
303.36	709.81
303.59	706.81
303.82	705.81
304.051	702.81
304.281	697.81
304.511	699.81
304.741	675.81
304.971	731.81
305.201	682.81
305.431	710.81
305.661	710.81
305.891	715.81
306.121	719.81
306.352	704.81
306.582	687.81
306.812	670.81
307.042	711.81
307.272	699.81
307.502	681.81
307.731	723.81
307.961	687.81
308.191	698.81
308.421	705.81
308.651	704.81
308.881	691.81
309.111	720.81
309.341	665.81
309.571	695.81
309.8	706.81
310.03	693.81
310.26	682.81
310.49	685.81
310.72	720.81
310.949	691.81
311.179	731.81
311.409	716.81
311.639	720.81
311.868	718.81
312.098	729.81
312.328	742.81
312.557	720.81
312.787	722.81
313.017	714.81
313.246	743.81
313.476	735.81
313.706	752.81
313.935	743.81
314.165	765.81
314.394	751.81
314.624	778.81
314.853	742.81
315.083	742.81
315.312	770.81
315.542	744.81
315.771	772.81
316.001	747.81
316.23	755.81
316.46	727.81
316.689	732.81
316.919	739.81
317.148	718.81
317.377	720.81
317.607	768.81
317.836	726.81
318.065	728.81
318.295	737.81
318.524	721.81
318.753	708.81
318.983	743.81
319.212	725.81
319.441	725.81
319.67	737.81
319.9	720.81
320.129	714.81
320.358	731.81
320.587	731.81
320.816	731.81
321.046	749.81
321.275	738.81
321.504	763.81
321.733	766.81
321.962	725.81
322.191	741.81
322.42	753.81
322.649	746.81
322.878	700.81
323.108	727.81
323.337	735.81
323.566	741.81
323.795	743.81
324.024	733.81
324.253	729.81
324.482	742.81
324.71	758.81
324.939	782.81
325.168	794.81
325.397	743.81
325.626	767.81
325.855	764.81
326.084	793.81
326.313	816.81
326.542	817.81
326.77	840.81
326.999	781.81
327.228	804.81
327.457	811.81
327.686	808.81
327.914	799.81
328.143	810.81
328.372	822.81
328.6	789.81
328.829	809.81
329.058	804.81
329.287	786.81
329.515	840.81
329.744	821.81
329.972	826.81
330.201	831.81
330.43	824.81
330.658	836.81
330.887	835.81
331.115	833.81
331.344	871.81
331.572	829.81
331.801	915.81
332.03	894.81
332.258	903.81
332.486	943.81
332.715	957.81
332.943	962.81
333.172	1026.81
333.4	1036.81
333.629	1102.81
333.857	1116.81
334.085	1147.81
334.314	1103.81
334.542	1077.81
334.771	1111.81
334.999	1046.81
335.227	1036.81
335.455	1027.81
335.684	1022.81
335.912	1011.81
336.14	964.81
336.369	981.81
336.597	974.81
336.825	972.81
337.053	986.81
337.281	966.81
337.51	931.81
337.738	907.81
337.966	928.81
338.194	927.81
338.422	909.81
338.65	893.81
338.878	876.81
339.106	864.81
339.334	867.81
339.562	887.81
339.79	828.81
340.018	839.81
340.246	849.81
340.474	856.81
340.702	855.81
340.93	859.81
341.158	867.81
341.386	835.81
341.614	850.81
341.842	862.81
342.07	845.81
342.298	838.81
342.526	842.81
342.754	867.81
342.981	872.81
343.209	868.81
343.437	883.81
343.665	936.81
343.893	1023.81
344.12	1070.81
344.348	1033.81
344.576	973.81
344.804	943.81
345.031	911.81
345.259	904.81
345.487	832.81
345.714	845.81
345.942	835.81
346.17	852.81
346.397	812.81
346.625	833.81
346.853	832.81
347.08	812.81
347.308	793.81
347.535	833.81
347.763	834.81
347.99	827.81
348.218	844.81
348.445	829.81
348.673	819.81
348.9	796.81
349.128	789.81
349.355	796.81
349.583	805.81
349.81	813.81
350.037	810.81
350.265	772.81
350.492	800.81
350.72	794.81
350.947	780.81
351.174	803.81
351.402	772.81
351.629	779.81
351.856	754.81
352.083	776.81
352.311	775.81
352.538	776.81
352.765	805.81
352.992	779.81
353.22	779.81
353.447	772.81
353.674	746.81
353.901	760.81
354.128	751.81
354.355	767.81
354.583	771.81
354.81	773.81
355.037	765.81
355.264	753.81
355.491	803.81
355.718	783.81
355.945	801.81
356.172	809.81
356.399	790.81
356.626	792.81
356.853	790.81
357.08	773.81
357.307	794.81
357.534	783.81
357.761	779.81
357.988	773.81
358.215	767.81
358.441	759.81
358.668	792.81
358.895	782.81
359.122	787.81
359.349	801.81
359.576	761.81
359.802	795.81
360.029	768.81
360.256	773.81
360.483	808.81
360.709	786.81
360.936	779.81
361.163	764.81
361.39	768.81
361.616	791.81
361.843	794.81
362.07	787.81
362.296	789.81
362.523	773.81
362.749	780.81
362.976	792.81
363.203	793.81
363.429	789.81
363.656	782.81
363.882	774.81
364.109	758.81
364.335	780.81
364.562	767.81
364.788	786.81
365.015	751.81
365.241	755.81
365.468	756.81
365.694	788.81
365.92	775.81
366.147	757.81
366.373	763.81
366.599	776.81
366.826	786.81
367.052	772.81
367.278	795.81
367.505	804.81
367.731	819.81
367.957	789.81
368.184	796.81
368.41	812.81
368.636	778.81
368.862	788.81
369.089	803.81
369.315	820.81
369.541	776.81
369.767	789.81
369.993	815.81
370.219	821.81
370.445	826.81
370.672	834.81
370.898	823.81
371.124	833.81
371.35	839.81
371.576	860.81
371.802	859.81
372.028	869.81
372.254	851.81
372.48	860.81
372.706	873.81
372.932	887.81
373.158	876.81
373.384	858.81
373.61	867.81
373.835	874.81
374.061	865.81
374.287	866.81
374.513	885.81
374.739	911.81
374.965	925.81
375.191	940.81
375.416	950.81
375.642	911.81
375.868	933.81
376.094	908.81
376.319	904.81
376.545	900.81
376.771	887.81
376.997	886.81
377.222	850.81
377.448	850.81
377.674	855.81
377.899	841.81
378.125	828.81
378.35	843.81
378.576	857.81
378.802	854.81
379.027	853.81
379.253	865.81
379.478	850.81
379.704	853.81
379.929	861.81
380.155	856.81
380.38	846.81
380.606	849.81
380.831	832.81
381.057	840.81
381.282	831.81
381.507	869.81
381.733	868.81
381.958	884.81
382.184	869.81
382.409	874.81
382.634	882.81
382.86	887.81
383.085	901.81
383.31	915.81
383.535	903.81
383.761	948.81
383.986	956.81
384.211	988.81
384.436	1001.81
384.662	1003.81
384.887	1032.81
385.112	1011.81
385.337	1035.81
385.562	1023.81
385.787	1051.81
386.013	1101.81
386.238	1027.81
386.463	1076.81
386.688	1039.81
386.913	1041.81
387.138	1048.81
387.363	1060.81
387.588	1052.81
387.813	1028.81
388.038	1056.81
388.263	1053.81
388.488	1035.81
388.713	1017.81
388.938	1014.81
389.163	1015.81
389.387	1025.81
389.612	1013.81
389.837	1019.81
390.062	1013.81
390.287	1035.81
390.512	1010.81
390.736	1049.81
390.961	1049.81
391.186	1072.81
391.411	1123.81
391.636	1140.81
391.86	1149.81
392.085	1173.81
392.31	1221.81
392.534	1148.81
392.759	1151.81
392.984	1144.81
393.208	1114.81
393.433	1092.81
393.658	1103.81
393.882	1131.81
394.107	1138.81
394.331	1127.81
394.556	1116.81
394.78	1109.81
395.005	1127.81
395.229	1132.81
395.454	1166.81
395.678	1165.81
395.903	1173.81
396.127	1149.81
396.352	1156.81
396.576	1135.81
396.801	1099.81
397.025	1149.81
397.249	1175.81
397.474	1169.81
397.698	1194.81
397.922	1212.81
398.147	1178.81
398.371	1210.81
398.595	1280.81
398.82	1319.81
399.044	1420.81
399.268	1557.81
399.492	1744.81
399.717	1921.81
399.941	2005.81
400.165	1832.81
400.389	1650.81
400.613	1557.81
400.837	1473.81
401.062	1393.81
401.286	1380.81
401.51	1364.81
401.734	1346.81
401.958	1364.81
402.182	1370.81
402.406	1405.81
402.63	1415.81
402.854	1407.81
403.078	1437.81
403.302	1466.81
403.526	1482.81
403.75	1489.81
403.974	1502.81
404.198	1533.81
404.422	1514.81
404.645	1507.81
404.869	1515.81
405.093	1512.81
405.317	1460.81
405.541	1449.81
405.765	1470.81
405.988	1439.81
406.212	1467.81
406.436	1447.81
406.66	1510.81
406.883	1548.81
407.107	1623.81
407.331	1683.81
407.555	1725.81
407.778	1716.81
408.002	1675.81
408.226	1653.81
408.449	1636.81
408.673	1557.81
408.896	1539.81
409.12	1507.81
409.344	1488.81
409.567	1507.81
409.791	1478.81
410.014	1514.81
410.238	1507.81
410.461	1505.81
410.685	1483.81
410.908	1425.81
411.132	1417.81
411.355	1356.81
411.578	1387.81
411.802	1402.81
412.025	1395.81
412.249	1409.81
412.472	1428.81
412.695	1366.81
412.919	1323.81
413.142	1360.81
413.365	1343.81
413.589	1356.81
413.812	1312.81
414.035	1322.81
414.258	1316.81
414.482	1358.81
414.705	1312.81
414.928	1337.81
415.151	1329.81
415.374	1302.81
415.597	1289.81
415.821	1301.81
416.044	1289.81
416.267	1285.81
416.49	1297.81
416.713	1298.81
416.936	1285.81
417.159	1284.81
417.382	1307.81
417.605	1301.81
417.828	1321.81
418.051	1329.81
418.274	1289.81
418.497	1308.81
418.72	1350.81
418.943	1316.81
419.166	1392.81
419.389	1537.81
419.611	1511.81
419.834	1425.81
420.057	1356.81
420.28	1333.81
420.503	1295.81
420.726	1304.81
420.948	1306.81
421.171	1295.81
421.394	1313.81
421.617	1275.81
421.839	1293.81
422.062	1322.81
422.285	1281.81
422.507	1339.81
422.73	1327.81
422.953	1337.81
423.175	1322.81
423.398	1378.81
423.621	1351.81
423.843	1362.81
424.066	1363.81
424.288	1329.81
424.511	1329.81
424.733	1330.81
424.956	1315.81
425.178	1300.81
425.401	1283.81
425.623	1305.81
425.846	1314.81
426.068	1290.81
426.291	1270.81
426.513	1238.81
426.735	1262.81
426.958	1223.81
427.18	1215.81
427.402	1170.81
427.625	1205.81
427.847	1161.81
428.069	1177.81
428.292	1199.81
428.514	1165.81
428.736	1145.81
428.958	1166.81
429.181	1135.81
429.403	1132.81
429.625	1131.81
429.847	1126.81
430.069	1118.81
430.292	1132.81
430.514	1132.81
430.736	1114.81
430.958	1173.81
431.18	1144.81
431.402	1148.81
431.624	1115.81
431.846	1183.81
432.068	1147.81
432.29	1161.81
432.512	1169.81
432.734	1156.81
432.956	1148.81
433.178	1148.81
433.4	1152.81
433.622	1165.81
433.844	1187.81
434.066	1159.81
434.287	1191.81
434.509	1232.81
434.731	1266.81
434.953	1312.81
435.175	1329.81
435.397	1287.81
435.618	1243.81
435.84	1194.81
436.062	1199.81
436.284	1173.81
436.505	1159.81
436.727	1157.81
436.949	1139.81
437.17	1141.81
437.392	1135.81
437.614	1124.81
437.835	1111.81
438.057	1096.81
438.278	1107.81
438.5	1110.81
438.721	1099.81
438.943	1143.81
439.165	1119.81
439.386	1091.81
439.608	1128.81
439.829	1135.81
440.05	1137.81
440.272	1136.81
440.493	1173.81
440.715	1150.81
440.936	1181.81
441.158	1181.81
441.379	1206.81
441.6	1319.81
441.822	1292.81
442.043	1339.81
442.264	1268.81
442.486	1246.81
442.707	1256.81
442.928	1255.81
443.149	1244.81
443.371	1232.81
443.592	1308.81
443.813	1287.81
444.034	1318.81
444.255	1357.81
444.476	1427.81
444.698	1484.81
444.919	1521.81
445.14	1617.81
445.361	1478.81
445.582	1365.81
445.803	1290.81
446.024	1243.81
446.245	1219.81
446.466	1178.81
446.687	1183.81
446.908	1217.81
447.129	1166.81
447.35	1151.81
447.571	1112.81
447.792	1083.81
448.013	1085.81
448.234	1083.81
448.455	1065.81
448.675	1060.81
448.896	1113.81
449.117	1015.81
449.338	1042.81
449.559	1030.81
449.779	1029.81
450	1025.81
450.221	1012.81
450.442	1047.81
450.662	1023.81
450.883	1056.81
451.104	1068.81
451.324	1089.81
451.545	1100.81
451.766	1082.81
451.986	1047.81
452.207	1043.81
452.428	1025.81
452.648	1036.81
452.869	1003.81
453.089	1023.81
453.31	1040.81
453.53	1010.81
453.751	998.81
453.971	991.81
454.192	1013.81
454.412	984.81
454.633	972.81
454.853	1012.81
455.073	974.81
455.294	994.81
455.514	957.81
455.734	973.81
455.955	969.81
456.175	969.81
456.395	968.81
456.616	973.81
456.836	986.81
457.056	998.81
457.276	976.81
457.497	993.81
457.717	988.81
457.937	985.81
458.157	986.81
458.377	1017.81
458.598	1045.81
458.818	1079.81
459.038	1090.81
459.258	1120.81
459.478	1187.81
459.698	1184.81
459.918	1190.81
460.138	1261.81
460.358	1358.81
460.578	1333.81
460.798	1387.81
461.018	1392.81
461.238	1375.81
461.458	1372.81
461.678	1355.81
461.898	1401.81
462.118	1401.81
462.338	1456.81
462.558	1532.81
462.777	1589.81
462.997	1676.81
463.217	1780.81
463.437	1825.81
463.657	1692.81
463.876	1636.81
464.096	1617.81
464.316	1563.81
464.536	1595.81
464.755	1532.81
464.975	1475.81
465.195	1442.81
465.414	1378.81
465.634	1271.81
465.854	1214.81
466.073	1201.81
466.293	1160.81
466.512	1145.81
466.732	1103.81
466.951	1112.81
467.171	1085.81
467.391	1114.81
467.61	1107.81
467.829	1107.81
468.049	1094.81
468.268	1068.81
468.488	1041.81
468.707	1073.81
468.927	1062.81
469.146	1029.81
469.365	1079.81
469.585	1112.81
469.804	1116.81
470.023	1128.81
470.243	1141.81
470.462	1157.81
470.681	1164.81
470.901	1138.81
471.12	1125.81
471.339	1106.81
471.558	1072.81
471.777	1089.81
471.997	1055.81
472.216	1039.81
472.435	1044.81
472.654	1045.81
472.873	1044.81
473.092	1030.81
473.311	1032.81
473.53	1030.81
473.749	1012.81
473.968	1024.81
474.187	1028.81
474.406	988.81
474.625	1033.81
474.844	1024.81
475.063	1037.81
475.282	1045.81
475.501	1030.81
475.72	1022.81
475.939	1076.81
476.158	1076.81
476.377	1055.81
476.596	1077.81
476.814	1087.81
477.033	1101.81
477.252	1121.81
477.471	1136.81
477.69	1188.81
477.908	1171.81
478.127	1190.81
478.346	1214.81
478.564	1256.81
478.783	1263.81
479.002	1322.81
479.22	1301.81
479.439	1304.81
479.658	1349.81
479.876	1289.81
480.095	1296.81
480.313	1356.81
480.532	1387.81
480.751	1372.81
480.969	1313.81
481.188	1303.81
481.406	1279.81
481.624	1253.81
481.843	1202.81
482.061	1184.81
482.28	1171.81
482.498	1193.81
482.717	1161.81
482.935	1170.81
483.153	1171.81
483.372	1206.81
483.59	1195.81
483.808	1163.81
484.027	1170.81
484.245	1162.81
484.463	1177.81
484.681	1199.81
484.9	1206.81
485.118	1229.81
485.336	1207.81
485.554	1227.81
485.772	1210.81
485.99	1231.81
486.209	1238.81
486.427	1226.81
486.645	1225.81
486.863	1220.81
487.081	1256.81
487.299	1243.81
487.517	1226.81
487.735	1197.81
487.953	1279.81
488.171	1228.81
488.389	1216.81
488.607	1231.81
488.825	1217.81
489.043	1212.81
489.261	1191.81
489.479	1247.81
489.696	1213.81
489.914	1226.81
490.132	1218.81
490.35	1227.81
490.568	1226.81
490.786	1221.81
491.003	1268.81
491.221	1264.81
491.439	1234.81
491.657	1258.81
491.874	1256.81
492.092	1249.81
492.31	1250.81
492.527	1263.81
492.745	1253.81
492.963	1291.81
493.18	1280.81
493.398	1313.81
493.615	1324.81
493.833	1294.81
494.05	1274.81
494.268	1315.81
494.485	1308.81
494.703	1349.81
494.92	1329.81
495.138	1365.81
495.355	1329.81
495.573	1316.81
495.79	1354.81
496.008	1360.81
496.225	1378.81
496.442	1403.81
496.66	1388.81
496.877	1435.81
497.094	1423.81
497.312	1455.81
497.529	1501.81
497.746	1554.81
497.963	1607.81
498.181	1652.81
498.398	1762.81
498.615	1868.81
498.832	1994.81
499.049	2127.81
499.267	2308.81
499.484	2565.81
499.701	2763.81
499.918	3066.81
500.135	3372.81
500.352	3857.81
500.569	3994.81
500.786	3951.81
501.003	3772.81
501.22	3424.81
501.437	3095.81
501.654	2759.81
501.871	2543.81
502.088	2311.81
502.305	2169.81
502.522	2004.81
502.739	1918.81
502.956	1769.81
503.172	1723.81
503.389	1637.81
503.606	1622.81
503.823	1596.81
504.04	1578.81
504.256	1566.81
504.473	1623.81
504.69	1602.81
504.907	1588.81
505.123	1483.81
505.34	1427.81
505.557	1396.81
505.773	1320.81
505.99	1311.81
506.207	1257.81
506.423	1263.81
506.64	1238.81
506.856	1207.81
507.073	1175.81
507.289	1171.81
507.506	1207.81
507.722	1168.81
507.939	1175.81
508.155	1146.81
508.372	1161.81
508.588	1144.81
508.805	1136.81
509.021	1115.81
509.238	1077.81
509.454	1108.81
509.67	1093.81
509.887	1112.81
510.103	1075.81
510.319	1085.81
510.536	1090.81
510.752	1089.81
510.968	1059.81
511.184	1037.81
511.401	1064.81
511.617	1060.81
511.833	1044.81
512.049	1063.81
512.265	1056.81
512.481	1047.81
512.698	1072.81
512.914	1056.81
513.13	1056.81
513.346	1082.81
513.562	1085.81
513.778	1069.81
513.994	1066.81
514.21	1095.81
514.426	1088.81
514.642	1076.81
514.858	1091.81
515.074	1099.81
515.29	1106.81
515.506	1122.81
515.721	1137.81
515.937	1151.81
516.153	1181.81
516.369	1225.81
516.585	1216.81
516.801	1290.81
517.016	1320.81
517.232	1400.81
517.448	1457.81
517.664	1522.81
517.879	1508.81
518.095	1511.81
518.311	1492.81
518.527	1435.81
518.742	1358.81
518.958	1312.81
519.173	1241.81
519.389	1209.81
519.605	1224.81
519.82	1155.81
520.036	1144.81
520.251	1151.81
520.467	1111.81
520.682	1079.81
520.898	1098.81
521.113	1048.81
521.329	1048.81
521.544	1048.81
521.76	1037.81
521.975	1029.81
522.19	1048.81
522.406	1030.81
522.621	1015.81
522.836	1004.81
523.052	987.81
523.267	1011.81
523.482	989.81
523.698	999.81
523.913	986.81
524.128	999.81
524.343	973.81
524.559	981.81
524.774	949.81
524.989	966.81
525.204	974.81
525.419	968.81
525.634	977.81
525.849	973.81
526.064	964.81
526.28	965.81
526.495	952.81
526.71	950.81
526.925	972.81
527.14	963.81
527.355	936.81
527.57	963.81
527.785	979.81
527.999	933.81
528.214	931.81
528.429	946.81
528.644	957.81
528.859	967.81
529.074	951.81
529.289	944.81
529.503	958.81
529.718	951.81
529.933	933.81
530.148	934.81
530.363	957.81
530.577	923.81
530.792	950.81
531.007	930.81
531.221	949.81
531.436	953.81
531.651	920.81
531.865	947.81
532.08	940.81
532.295	929.81
532.509	929.81
532.724	925.81
532.938	973.81
533.153	940.81
533.367	959.81
533.582	959.81
533.796	943.81
534.011	958.81
534.225	934.81
534.44	923.81
534.654	931.81
534.868	933.81
535.083	916.81
535.297	932.81
535.511	928.81
535.726	925.81
535.94	905.81
536.154	882.81
536.369	877.81
536.583	890.81
536.797	867.81
537.011	875.81
537.225	893.81
537.44	882.81
537.654	882.81
537.868	852.81
538.082	848.81
538.296	861.81
538.51	880.81
538.724	881.81
538.938	882.81
539.153	861.81
539.367	842.81
539.581	870.81
539.795	844.81
540.009	833.81
540.222	847.81
540.436	844.81
540.65	849.81
540.864	854.81
541.078	842.81
541.292	873.81
541.506	841.81
541.72	850.81
541.934	870.81
542.147	884.81
542.361	840.81
542.575	849.81
542.789	844.81
543.002	840.81
543.216	842.81
543.43	817.81
543.644	849.81
543.857	826.81
544.071	840.81
544.285	859.81
544.498	853.81
544.712	844.81
544.925	857.81
545.139	864.81
545.352	896.81
545.566	884.81
545.779	865.81
545.993	883.81
546.206	891.81
546.42	879.81
546.633	863.81
546.847	885.81
547.06	857.81
547.274	879.81
547.487	873.81
547.7	881.81
547.914	893.81
548.127	860.81
548.34	884.81
548.554	892.81
548.767	873.81
548.98	881.81
549.193	886.81
549.407	891.81
549.62	904.81
549.833	903.81
550.046	905.81
550.259	883.81
550.473	875.81
550.686	887.81
550.899	863.81
551.112	856.81
551.325	866.81
551.538	843.81
551.751	883.81
551.964	872.81
552.177	875.81
552.39	894.81
552.603	895.81
552.816	916.81
553.029	932.81
553.242	956.81
553.455	981.81
553.667	967.81
553.88	920.81
554.093	922.81
554.306	891.81
554.519	911.81
554.732	873.81
554.944	889.81
555.157	842.81
555.37	815.81
555.583	827.81
555.795	808.81
556.008	789.81
556.221	772.81
556.433	748.81
556.646	747.81
556.859	747.81
557.071	764.81
557.284	739.81
557.496	728.81
557.709	744.81
557.921	748.81
558.134	740.81
558.346	740.81
558.559	728.81
558.771	729.81
558.984	704.81
559.196	707.81
559.409	695.81
559.621	717.81
559.833	712.81
560.046	713.81
560.258	721.81
560.47	714.81
560.683	732.81
560.895	710.81
561.107	711.81
561.32	714.81
561.532	696.81
561.744	726.81
561.956	738.81
562.168	724.81
562.381	695.81
562.593	723.81
562.805	723.81
563.017	708.81
563.229	741.81
563.441	719.81
563.653	753.81
563.865	725.81
564.077	747.81
564.289	728.81
564.501	725.81
564.713	759.81
564.925	790.81
565.137	839.81
565.349	844.81
565.561	838.81
565.773	865.81
565.985	920.81
566.197	979.81
566.408	1023.81
566.62	1105.81
566.832	1132.81
567.044	1205.81
567.255	1223.81
567.467	1223.81
567.679	1280.81
567.891	1399.81
568.102	1337.81
568.314	1315.81
568.526	1217.81
568.737	1115.81
568.949	1027.81
569.161	976.81
569.372	903.81
569.584	865.81
569.795	799.81
570.007	800.81
570.218	780.81
570.43	748.81
570.641	792.81
570.853	763.81
571.064	776.81
571.276	773.81
571.487	706.81
571.698	697.81
571.91	680.81
572.121	643.81
572.333	648.81
572.544	644.81
572.755	604.81
572.966	629.81
573.178	602.81
573.389	607.81
573.6	616.81
573.811	607.81
574.023	609.81
574.234	593.81
574.445	590.81
574.656	603.81
574.867	600.81
575.078	594.81
575.289	580.81
575.501	571.81
575.712	564.81
575.923	564.81
576.134	590.81
576.345	569.81
576.556	556.81
576.767	547.81
576.978	556.81
577.188	545.81
577.399	553.81
577.61	547.81
577.821	536.81
578.032	521.81
578.243	521.81
578.454	533.81
578.665	515.81
578.875	506.81
579.086	528.81
579.297	518.81
579.508	504.81
579.718	524.81
579.929	500.81
580.14	513.81
580.35	518.81
580.561	524.81
580.772	511.81
580.982	488.81
581.193	501.81
581.403	523.81
581.614	478.81
581.825	513.81
582.035	495.81
582.246	487.81
582.456	504.81
582.667	499.81
582.877	504.81
583.087	486.81
583.298	464.81
583.508	466.81
583.719	492.81
583.929	483.81
584.139	496.81
584.35	490.81
584.56	513.81
584.77	489.81
584.981	481.81
585.191	481.81
585.401	482.81
585.611	458.81
585.821	472.81
586.032	458.81
586.242	483.81
586.452	481.81
586.662	486.81
586.872	464.81
587.082	492.81
587.292	476.81
587.502	485.81
587.713	477.81
587.923	477.81
588.133	465.81
588.343	473.81
588.553	460.81
588.762	453.81
588.972	474.81
589.182	484.81
589.392	489.81
589.602	472.81
589.812	492.81
590.022	498.81
590.232	482.81
590.441	459.81
590.651	487.81
590.861	465.81
591.071	504.81
591.281	491.81
591.49	499.81
591.7	485.81
591.91	511.81
592.119	521.81
592.329	540.81
592.539	528.81
592.748	559.81
592.958	591.81
593.167	570.81
593.377	557.81
593.587	599.81
593.796	617.81
594.006	608.81
594.215	612.81
594.424	610.81
594.634	620.81
594.843	569.81
595.053	551.81
595.262	519.81
595.472	524.81
595.681	503.81
595.89	498.81
596.1	473.81
596.309	474.81
596.518	436.81
596.727	453.81
596.937	437.81
597.146	423.81
597.355	427.81
597.564	441.81
597.774	424.81
597.983	409.81
598.192	408.81
598.401	432.81
598.61	411.81
598.819	391.81
599.028	436.81
599.237	399.81
599.446	392.81
599.655	423.81
599.864	393.81
600.073	403.81
600.282	407.81
600.491	387.81
600.7	399.81
600.909	383.81
601.118	394.81
601.327	395.81
601.536	389.81
601.745	387.81
601.953	379.81
602.162	368.81
602.371	372.81
602.58	389.81
602.789	389.81
602.997	365.81
603.206	385.81
603.415	349.81
603.623	358.81
603.832	362.81
604.041	358.81
604.249	369.81
604.458	362.81
604.666	362.81
604.875	365.81
605.084	362.81
605.292	364.81
605.501	362.81
605.709	363.81
605.918	355.81
606.126	361.81
606.334	351.81
606.543	347.81
606.751	360.81
606.96	353.81
607.168	367.81
607.376	335.81
607.585	351.81
607.793	353.81
608.001	362.81
608.21	348.81
608.418	337.81
608.626	343.81
608.834	356.81
609.043	349.81
609.251	356.81
609.459	355.81
609.667	351.81
609.875	334.81
610.083	336.81
610.291	325.81
610.499	337.81
610.707	326.81
610.916	333.81
611.124	324.81
611.332	344.81
611.54	323.81
611.748	340.81
611.955	343.81
612.163	336.81
612.371	336.81
612.579	322.81
612.787	323.81
612.995	320.81
613.203	348.81
613.411	326.81
613.618	321.81
613.826	336.81
614.034	331.81
614.242	336.81
614.449	328.81
614.657	329.81
614.865	327.81
615.072	329.81
615.28	331.81
615.488	333.81
615.695	341.81
615.903	349.81
616.111	318.81
616.318	337.81
616.526	330.81
616.733	339.81
616.941	327.81
617.148	330.81
617.356	327.81
617.563	316.81
617.771	338.81
617.978	318.81
618.185	324.81
618.393	324.81
618.6	322.81
618.807	311.81
619.015	330.81
619.222	323.81
619.429	305.81
619.637	322.81
619.844	313.81
620.051	327.81
620.258	329.81
620.466	296.81
620.673	292.81
620.88	298.81
621.087	319.81
621.294	313.81
621.501	316.81
621.708	322.81
621.915	303.81
622.122	306.81
622.329	309.81
622.536	305.81
622.743	296.81
622.95	315.81
623.157	300.81
623.364	314.81
623.571	316.81
623.778	305.81
623.985	291.81
624.192	294.81
624.399	301.81
624.606	295.81
624.812	281.81
625.019	285.81
625.226	291.81
625.433	290.81
625.639	288.81
625.846	284.81
626.053	303.81
626.259	273.81
626.466	282.81
626.673	281.81
626.879	283.81
627.086	262.81
627.293	277.81
627.499	276.81
627.706	285.81
627.912	283.81
628.119	294.81
628.325	266.81
628.532	264.81
628.738	270.81
628.945	272.81
629.151	261.81
629.357	269.81
629.564	264.81
629.77	266.81
629.976	264.81
630.183	260.81
630.389	269.81
630.595	265.81
630.802	266.81
631.008	284.81
631.214	239.81
631.42	270.81
631.627	258.81
631.833	236.81
632.039	253.81
632.245	241.81
632.451	245.81
632.657	241.81
632.863	260.81
633.069	249.81
633.275	253.81
633.481	256.81
633.688	234.81
633.893	246.81
634.099	261.81
634.305	240.81
634.511	267.81
634.717	242.81
634.923	248.81
635.129	244.81
635.335	248.81
635.541	229.81
635.747	233.81
635.952	238.81
636.158	245.81
636.364	241.81
636.57	249.81
636.775	248.81
636.981	222.81
637.187	228.81
637.392	225.81
637.598	236.81
637.804	231.81
638.009	218.81
638.215	229.81
638.421	223.81
638.626	227.81
638.832	224.81
639.037	234.81
639.243	219.81
639.448	236.81
639.654	227.81
639.859	220.81
640.065	220.81
640.27	233.81
640.475	230.81
640.681	206.81
640.886	211.81
641.091	202.81
641.297	223.81
641.502	222.81
641.707	211.81
641.913	214.81
642.118	192.81
642.323	205.81
642.528	216.81
642.733	204.81
642.939	228.81
643.144	207.81
643.349	227.81
643.554	207.81
643.759	223.81
643.964	213.81
644.169	200.81
644.374	200.81
644.579	213.81
644.784	196.81
644.989	211.81
645.194	208.81
645.399	233.81
645.604	193.81
645.809	203.81
646.014	194.81
646.219	203.81
646.423	207.81
646.628	206.81
646.833	211.81
647.038	200.81
647.243	195.81
647.447	210.81
647.652	223.81
647.857	229.81
648.062	218.81
648.266	221.81
648.471	204.81
648.676	205.81
648.88	217.81
649.085	216.81
649.289	220.81
649.494	213.81
649.698	196.81
649.903	200.81
650.107	180.81
650.312	200.81
650.516	198.81
650.721	200.81
650.925	194.81
651.13	193.81
651.334	191.81
651.539	177.81
651.743	169.81
651.947	189.81
652.152	188.81
652.356	181.81
652.56	178.81
652.764	183.81
652.969	160.81
653.173	166.81
653.377	166.81
653.581	168.81
653.785	152.81
653.99	161.81
654.194	161.81
654.398	163.81
654.602	164.81
654.806	159.81
655.01	165.81
655.214	154.81
655.418	157.81
655.622	139.81
655.826	146.81
656.03	145.81
656.234	154.81
656.438	143.81
656.642	140.81
656.846	147.81
657.049	132.81
657.253	135.81
657.457	120.81
657.661	124.81
657.865	127.81
658.068	126.81
658.272	106.81
658.476	114.81
658.68	100.81
658.883	107.81
659.087	100.81
659.291	106.81
659.494	114.81
659.698	100.81
659.901	108.81
660.105	95.81
660.309	98.81
660.512	95.81
660.716	88.81
660.919	106.81
661.123	103.81
661.326	95.81
661.53	99.81
661.733	99.81
661.936	97.81
662.14	97.81
662.343	86.81
662.546	90.81
662.75	91.81
662.953	81.81
663.156	84.81
663.36	86.81
663.563	75.81
663.766	81.81
663.969	77.81
664.173	77.81
664.376	74.81
664.579	84.81
664.782	90.81
664.985	92.81
665.188	79.81
665.391	78.81
665.594	89.81
665.797	86.81
666	93.81
666.203	84.81
666.406	91.81
666.609	100.81
666.812	89.81
667.015	84.81
667.218	87.81
667.421	81.81
667.624	84.81
667.827	79.81
668.03	85.81
668.232	89.81
668.435	71.81
668.638	76.81
668.841	87.81
669.043	76.81
669.246	76.81
669.449	79.81
669.651	78.81
669.854	84.81
670.057	91.81
670.259	75.81
670.462	78.81
670.665	74.81
670.867	79.81
671.07	80.81
671.272	92.81
671.475	76.81
671.677	83.81
671.88	77.81
672.082	78.81
672.284	86.81
672.487	93.81
672.689	73.81
672.892	72.81
