Data from NiCl2@0.125M.TitratingCurve.Agarose3%dH2O.NegLispCup.LampEnergy10.LIBS07252019_HRD10591_18-27-46-574.txt Node
Date: Thu Jul 25 18:27:46 EDT 2019
User: cochatt
Spectrometer: HR+D1059
Trigger mode: 1
Integration Time (sec): 1.000000E-1
Scans to average: 1
Electric dark correction enabled: true
Nonlinearity correction enabled: false
Boxcar width: 0
XAxis mode: Wavelengths
Number of Pixels in Spectrum: 2048
>>>>>Begin Spectral Data<<<<<
223.165	-8.44
223.4	-8.44
223.635	-8.44
223.869	-16.44
224.104	-13.44
224.338	-16.44
224.573	-23.44
224.808	-10.44
225.042	5.56
225.277	-5.44
225.511	-2.44
225.746	1.56
225.98	8.56
226.215	2.56
226.449	19.56
226.683	19.56
226.918	14.56
227.152	24.56
227.387	35.56
227.621	47.56
227.856	32.56
228.09	32.56
228.324	57.56
228.559	43.56
228.793	56.56
229.027	101.56
229.262	121.56
229.496	117.56
229.73	134.56
229.964	136.56
230.199	128.56
230.433	130.56
230.667	149.56
230.901	136.56
231.136	136.56
231.37	124.56
231.604	157.56
231.838	151.56
232.072	150.56
232.306	155.56
232.541	151.56
232.775	153.56
233.009	148.56
233.243	163.56
233.477	147.56
233.711	156.56
233.945	178.56
234.179	166.56
234.413	163.56
234.647	155.56
234.881	161.56
235.115	164.56
235.349	155.56
235.583	163.56
235.817	162.56
236.051	155.56
236.285	182.56
236.519	177.56
236.753	163.56
236.987	171.56
237.221	160.56
237.455	172.56
237.689	179.56
237.922	165.56
238.156	190.56
238.39	182.56
238.624	163.56
238.858	185.56
239.091	199.56
239.325	178.56
239.559	181.56
239.793	185.56
240.027	182.56
240.26	182.56
240.494	184.56
240.728	193.56
240.961	209.56
241.195	194.56
241.429	197.56
241.662	214.56
241.896	210.56
242.13	200.56
242.363	203.56
242.597	207.56
242.83	202.56
243.064	215.56
243.298	220.56
243.531	221.56
243.765	214.56
243.998	223.56
244.232	226.56
244.465	233.56
244.699	216.56
244.932	245.56
245.166	233.56
245.399	225.56
245.633	236.56
245.866	240.56
246.099	243.56
246.333	226.56
246.566	217.56
246.8	249.56
247.033	226.56
247.266	240.56
247.5	247.56
247.733	253.56
247.966	257.56
248.2	263.56
248.433	251.56
248.666	260.56
248.899	259.56
249.133	259.56
249.366	266.56
249.599	280.56
249.832	245.56
250.066	261.56
250.299	282.56
250.532	263.56
250.765	269.56
250.998	272.56
251.231	285.56
251.465	283.56
251.698	294.56
251.931	296.56
252.164	272.56
252.397	284.56
252.63	295.56
252.863	289.56
253.096	284.56
253.329	297.56
253.562	280.56
253.795	297.56
254.028	315.56
254.261	312.56
254.494	303.56
254.727	309.56
254.96	309.56
255.193	308.56
255.426	316.56
255.659	306.56
255.892	312.56
256.124	340.56
256.357	307.56
256.59	312.56
256.823	318.56
257.056	309.56
257.289	299.56
257.521	325.56
257.754	314.56
257.987	333.56
258.22	328.56
258.452	330.56
258.685	315.56
258.918	349.56
259.151	325.56
259.383	345.56
259.616	352.56
259.849	347.56
260.081	316.56
260.314	337.56
260.547	356.56
260.779	342.56
261.012	354.56
261.244	344.56
261.477	343.56
261.71	362.56
261.942	329.56
262.175	353.56
262.407	371.56
262.64	359.56
262.872	364.56
263.105	351.56
263.337	373.56
263.57	378.56
263.802	379.56
264.035	368.56
264.267	373.56
264.499	376.56
264.732	386.56
264.964	379.56
265.197	382.56
265.429	396.56
265.661	365.56
265.894	383.56
266.126	401.56
266.358	381.56
266.591	396.56
266.823	389.56
267.055	397.56
267.287	387.56
267.52	417.56
267.752	421.56
267.984	396.56
268.216	384.56
268.448	413.56
268.681	377.56
268.913	411.56
269.145	420.56
269.377	413.56
269.609	408.56
269.841	391.56
270.073	416.56
270.306	397.56
270.538	407.56
270.77	405.56
271.002	434.56
271.234	406.56
271.466	439.56
271.698	417.56
271.93	401.56
272.162	412.56
272.394	438.56
272.626	422.56
272.858	433.56
273.09	431.56
273.322	424.56
273.553	456.56
273.785	431.56
274.017	436.56
274.249	455.56
274.481	443.56
274.713	438.56
274.945	431.56
275.176	463.56
275.408	468.56
275.64	472.56
275.872	463.56
276.104	444.56
276.335	458.56
276.567	461.56
276.799	449.56
277.031	450.56
277.262	456.56
277.494	468.56
277.726	473.56
277.957	466.56
278.189	471.56
278.421	476.56
278.652	480.56
278.884	475.56
279.115	479.56
279.347	480.56
279.579	477.56
279.81	479.56
280.042	485.56
280.273	504.56
280.505	513.56
280.736	480.56
280.968	506.56
281.199	516.56
281.431	516.56
281.662	488.56
281.894	507.56
282.125	493.56
282.356	513.56
282.588	500.56
282.819	516.56
283.051	514.56
283.282	540.56
283.513	516.56
283.745	525.56
283.976	521.56
284.207	542.56
284.439	535.56
284.67	540.56
284.901	535.56
285.132	552.56
285.364	542.56
285.595	540.56
285.826	557.56
286.057	544.56
286.288	551.56
286.52	531.56
286.751	533.56
286.982	572.56
287.213	580.56
287.444	556.56
287.675	576.56
287.906	540.56
288.138	581.56
288.369	566.56
288.6	565.56
288.831	589.56
289.062	560.56
289.293	549.56
289.524	567.56
289.755	572.56
289.986	571.56
290.217	577.56
290.448	577.56
290.679	568.56
290.91	576.56
291.141	567.56
291.371	565.56
291.602	580.56
291.833	566.56
292.064	571.56
292.295	566.56
292.526	556.56
292.757	573.56
292.987	565.56
293.218	549.56
293.449	599.56
293.68	597.56
293.91	572.56
294.141	592.56
294.372	582.56
294.603	598.56
294.833	609.56
295.064	587.56
295.295	566.56
295.525	587.56
295.756	599.56
295.987	595.56
296.217	588.56
296.448	612.56
296.679	609.56
296.909	590.56
297.14	625.56
297.37	629.56
297.601	617.56
297.831	633.56
298.062	609.56
298.292	617.56
298.523	657.56
298.753	637.56
298.984	627.56
299.214	611.56
299.445	628.56
299.675	633.56
299.905	637.56
300.136	608.56
300.366	633.56
300.597	641.56
300.827	677.56
301.057	648.56
301.288	661.56
301.518	660.56
301.748	672.56
301.979	671.56
302.209	683.56
302.439	657.56
302.669	638.56
302.9	641.56
303.13	652.56
303.36	656.56
303.59	636.56
303.82	651.56
304.051	662.56
304.281	661.56
304.511	637.56
304.741	664.56
304.971	656.56
305.201	647.56
305.431	640.56
305.661	654.56
305.891	634.56
306.121	633.56
306.352	652.56
306.582	643.56
306.812	639.56
307.042	640.56
307.272	644.56
307.502	612.56
307.731	639.56
307.961	619.56
308.191	622.56
308.421	619.56
308.651	633.56
308.881	633.56
309.111	633.56
309.341	597.56
309.571	625.56
309.8	639.56
310.03	642.56
310.26	640.56
310.49	641.56
310.72	651.56
310.949	640.56
311.179	644.56
311.409	650.56
311.639	641.56
311.868	656.56
312.098	650.56
312.328	668.56
312.557	657.56
312.787	683.56
313.017	679.56
313.246	714.56
313.476	670.56
313.706	716.56
313.935	701.56
314.165	710.56
314.394	704.56
314.624	696.56
314.853	691.56
315.083	687.56
315.312	672.56
315.542	683.56
315.771	665.56
316.001	665.56
316.23	685.56
316.46	667.56
316.689	691.56
316.919	666.56
317.148	675.56
317.377	653.56
317.607	675.56
317.836	679.56
318.065	694.56
318.295	666.56
318.524	678.56
318.753	680.56
318.983	656.56
319.212	676.56
319.441	680.56
319.67	641.56
319.9	664.56
320.129	672.56
320.358	682.56
320.587	654.56
320.816	692.56
321.046	691.56
321.275	674.56
321.504	680.56
321.733	657.56
321.962	674.56
322.191	657.56
322.42	684.56
322.649	667.56
322.878	703.56
323.108	697.56
323.337	708.56
323.566	687.56
323.795	687.56
324.024	714.56
324.253	695.56
324.482	695.56
324.71	707.56
324.939	705.56
325.168	697.56
325.397	697.56
325.626	724.56
325.855	727.56
326.084	754.56
326.313	761.56
326.542	758.56
326.77	744.56
326.999	729.56
327.228	727.56
327.457	713.56
327.686	735.56
327.914	716.56
328.143	738.56
328.372	727.56
328.6	745.56
328.829	731.56
329.058	746.56
329.287	722.56
329.515	765.56
329.744	752.56
329.972	754.56
330.201	771.56
330.43	760.56
330.658	743.56
330.887	758.56
331.115	763.56
331.344	762.56
331.572	793.56
331.801	807.56
332.03	841.56
332.258	806.56
332.486	858.56
332.715	868.56
332.943	868.56
333.172	928.56
333.4	968.56
333.629	1011.56
333.857	982.56
334.085	981.56
334.314	1010.56
334.542	947.56
334.771	937.56
334.999	953.56
335.227	914.56
335.455	939.56
335.684	921.56
335.912	907.56
336.14	910.56
336.369	896.56
336.597	884.56
336.825	911.56
337.053	907.56
337.281	897.56
337.51	870.56
337.738	821.56
337.966	845.56
338.194	839.56
338.422	801.56
338.65	830.56
338.878	787.56
339.106	807.56
339.334	818.56
339.562	765.56
339.79	777.56
340.018	774.56
340.246	768.56
340.474	779.56
340.702	744.56
340.93	770.56
341.158	763.56
341.386	774.56
341.614	775.56
341.842	772.56
342.07	756.56
342.298	771.56
342.526	728.56
342.754	755.56
342.981	748.56
343.209	774.56
343.437	818.56
343.665	866.56
343.893	916.56
344.12	943.56
344.348	905.56
344.576	899.56
344.804	835.56
345.031	833.56
345.259	780.56
345.487	756.56
345.714	768.56
345.942	743.56
346.17	757.56
346.397	771.56
346.625	745.56
346.853	725.56
347.08	760.56
347.308	757.56
347.535	756.56
347.763	746.56
347.99	743.56
348.218	758.56
348.445	731.56
348.673	724.56
348.9	739.56
349.128	737.56
349.355	715.56
349.583	721.56
349.81	732.56
350.037	708.56
350.265	688.56
350.492	729.56
350.72	721.56
350.947	717.56
351.174	733.56
351.402	698.56
351.629	698.56
351.856	710.56
352.083	723.56
352.311	720.56
352.538	717.56
352.765	715.56
352.992	725.56
353.22	714.56
353.447	693.56
353.674	720.56
353.901	712.56
354.128	706.56
354.355	684.56
354.583	700.56
354.81	729.56
355.037	723.56
355.264	725.56
355.491	696.56
355.718	713.56
355.945	715.56
356.172	732.56
356.399	704.56
356.626	737.56
356.853	725.56
357.08	711.56
357.307	720.56
357.534	729.56
357.761	730.56
357.988	738.56
358.215	716.56
358.441	709.56
358.668	684.56
358.895	735.56
359.122	691.56
359.349	705.56
359.576	718.56
359.802	728.56
360.029	727.56
360.256	714.56
360.483	716.56
360.709	691.56
360.936	736.56
361.163	725.56
361.39	731.56
361.616	723.56
361.843	715.56
362.07	704.56
362.296	720.56
362.523	718.56
362.749	718.56
362.976	692.56
363.203	710.56
363.429	691.56
363.656	714.56
363.882	698.56
364.109	694.56
364.335	692.56
364.562	699.56
364.788	700.56
365.015	714.56
365.241	717.56
365.468	737.56
365.694	717.56
365.92	698.56
366.147	730.56
366.373	707.56
366.599	691.56
366.826	713.56
367.052	715.56
367.278	717.56
367.505	690.56
367.731	722.56
367.957	725.56
368.184	724.56
368.41	720.56
368.636	756.56
368.862	721.56
369.089	728.56
369.315	750.56
369.541	732.56
369.767	734.56
369.993	753.56
370.219	748.56
370.445	755.56
370.672	778.56
370.898	773.56
371.124	786.56
371.35	783.56
371.576	777.56
371.802	801.56
372.028	780.56
372.254	773.56
372.48	763.56
372.706	806.56
372.932	835.56
373.158	842.56
373.384	823.56
373.61	794.56
373.835	787.56
374.061	784.56
374.287	800.56
374.513	827.56
374.739	830.56
374.965	844.56
375.191	877.56
375.416	854.56
375.642	833.56
375.868	833.56
376.094	841.56
376.319	814.56
376.545	847.56
376.771	784.56
376.997	803.56
377.222	785.56
377.448	812.56
377.674	759.56
377.899	763.56
378.125	774.56
378.35	789.56
378.576	778.56
378.802	770.56
379.027	789.56
379.253	747.56
379.478	748.56
379.704	771.56
379.929	793.56
380.155	788.56
380.38	777.56
380.606	780.56
380.831	757.56
381.057	753.56
381.282	788.56
381.507	809.56
381.733	773.56
381.958	788.56
382.184	780.56
382.409	811.56
382.634	811.56
382.86	814.56
383.085	831.56
383.31	866.56
383.535	848.56
383.761	883.56
383.986	853.56
384.211	899.56
384.436	892.56
384.662	919.56
384.887	952.56
385.112	932.56
385.337	938.56
385.562	957.56
385.787	945.56
386.013	966.56
386.238	936.56
386.463	955.56
386.688	962.56
386.913	932.56
387.138	955.56
387.363	929.56
387.588	891.56
387.813	912.56
388.038	906.56
388.263	932.56
388.488	928.56
388.713	933.56
388.938	920.56
389.163	901.56
389.387	899.56
389.612	925.56
389.837	926.56
390.062	889.56
390.287	925.56
390.512	926.56
390.736	962.56
390.961	924.56
391.186	980.56
391.411	996.56
391.636	1021.56
391.86	1041.56
392.085	1045.56
392.31	1070.56
392.534	1055.56
392.759	1020.56
392.984	996.56
393.208	992.56
393.433	1015.56
393.658	990.56
393.882	996.56
394.107	1002.56
394.331	1018.56
394.556	978.56
394.78	1001.56
395.005	1027.56
395.229	1011.56
395.454	1053.56
395.678	1081.56
395.903	1077.56
396.127	1019.56
396.352	1010.56
396.576	990.56
396.801	1002.56
397.025	999.56
397.249	1022.56
397.474	1047.56
397.698	1048.56
397.922	1084.56
398.147	1026.56
398.371	1094.56
398.595	1107.56
398.82	1119.56
399.044	1265.56
399.268	1372.56
399.492	1579.56
399.717	1753.56
399.941	1738.56
400.165	1604.56
400.389	1446.56
400.613	1304.56
400.837	1263.56
401.062	1219.56
401.286	1193.56
401.51	1172.56
401.734	1181.56
401.958	1174.56
402.182	1196.56
402.406	1212.56
402.63	1233.56
402.854	1260.56
403.078	1292.56
403.302	1298.56
403.526	1322.56
403.75	1364.56
403.974	1359.56
404.198	1361.56
404.422	1372.56
404.645	1348.56
404.869	1335.56
405.093	1369.56
405.317	1285.56
405.541	1292.56
405.765	1303.56
405.988	1299.56
406.212	1303.56
406.436	1305.56
406.66	1365.56
406.883	1339.56
407.107	1447.56
407.331	1459.56
407.555	1562.56
407.778	1520.56
408.002	1525.56
408.226	1451.56
408.449	1432.56
408.673	1368.56
408.896	1332.56
409.12	1333.56
409.344	1339.56
409.567	1353.56
409.791	1361.56
410.014	1370.56
410.238	1324.56
410.461	1335.56
410.685	1310.56
410.908	1297.56
411.132	1295.56
411.355	1251.56
411.578	1229.56
411.802	1250.56
412.025	1211.56
412.249	1235.56
412.472	1258.56
412.695	1196.56
412.919	1183.56
413.142	1195.56
413.365	1197.56
413.589	1202.56
413.812	1173.56
414.035	1166.56
414.258	1197.56
414.482	1190.56
414.705	1215.56
414.928	1226.56
415.151	1223.56
415.374	1150.56
415.597	1188.56
415.821	1144.56
416.044	1184.56
416.267	1137.56
416.49	1189.56
416.713	1166.56
416.936	1175.56
417.159	1169.56
417.382	1167.56
417.605	1146.56
417.828	1177.56
418.051	1188.56
418.274	1190.56
418.497	1149.56
418.72	1204.56
418.943	1189.56
419.166	1300.56
419.389	1355.56
419.611	1320.56
419.834	1265.56
420.057	1295.56
420.28	1189.56
420.503	1190.56
420.726	1179.56
420.948	1148.56
421.171	1185.56
421.394	1146.56
421.617	1175.56
421.839	1151.56
422.062	1170.56
422.285	1159.56
422.507	1191.56
422.73	1208.56
422.953	1225.56
423.175	1209.56
423.398	1250.56
423.621	1229.56
423.843	1251.56
424.066	1266.56
424.288	1238.56
424.511	1236.56
424.733	1223.56
424.956	1196.56
425.178	1203.56
425.401	1187.56
425.623	1212.56
425.846	1131.56
426.068	1163.56
426.291	1151.56
426.513	1120.56
426.735	1124.56
426.958	1130.56
427.18	1077.56
427.402	1105.56
427.625	1095.56
427.847	1072.56
428.069	1067.56
428.292	1072.56
428.514	1083.56
428.736	1064.56
428.958	1069.56
429.181	1049.56
429.403	1027.56
429.625	1051.56
429.847	1019.56
430.069	1032.56
430.292	1033.56
430.514	1049.56
430.736	1061.56
430.958	1014.56
431.18	1041.56
431.402	1051.56
431.624	1036.56
431.846	1072.56
432.068	1059.56
432.29	1071.56
432.512	1077.56
432.734	1069.56
432.956	1026.56
433.178	1063.56
433.4	1057.56
433.622	1087.56
433.844	1084.56
434.066	1074.56
434.287	1053.56
434.509	1120.56
434.731	1139.56
434.953	1177.56
435.175	1179.56
435.397	1149.56
435.618	1115.56
435.84	1112.56
436.062	1058.56
436.284	1058.56
436.505	1024.56
436.727	1087.56
436.949	1062.56
437.17	1047.56
437.392	1047.56
437.614	1032.56
437.835	988.56
438.057	987.56
438.278	1010.56
438.5	1019.56
438.721	1009.56
438.943	1028.56
439.165	1013.56
439.386	1050.56
439.608	1039.56
439.829	1080.56
440.05	1071.56
440.272	1077.56
440.493	1078.56
440.715	1068.56
440.936	1068.56
441.158	1123.56
441.379	1155.56
441.6	1168.56
441.822	1168.56
442.043	1200.56
442.264	1199.56
442.486	1130.56
442.707	1176.56
442.928	1172.56
443.149	1165.56
443.371	1127.56
443.592	1185.56
443.813	1177.56
444.034	1196.56
444.255	1229.56
444.476	1291.56
444.698	1352.56
444.919	1425.56
445.14	1481.56
445.361	1367.56
445.582	1209.56
445.803	1143.56
446.024	1123.56
446.245	1082.56
446.466	1081.56
446.687	1073.56
446.908	1063.56
447.129	1065.56
447.35	1028.56
447.571	1012.56
447.792	1025.56
448.013	992.56
448.234	972.56
448.455	1025.56
448.675	1000.56
448.896	983.56
449.117	976.56
449.338	976.56
449.559	946.56
449.779	960.56
450	982.56
450.221	973.56
450.442	990.56
450.662	991.56
450.883	995.56
451.104	1022.56
451.324	977.56
451.545	1019.56
451.766	997.56
451.986	972.56
452.207	960.56
452.428	983.56
452.648	980.56
452.869	953.56
453.089	963.56
453.31	967.56
453.53	936.56
453.751	947.56
453.971	932.56
454.192	928.56
454.412	925.56
454.633	917.56
454.853	938.56
455.073	924.56
455.294	964.56
455.514	911.56
455.734	919.56
455.955	853.56
456.175	901.56
456.395	907.56
456.616	905.56
456.836	928.56
457.056	892.56
457.276	890.56
457.497	898.56
457.717	917.56
457.937	913.56
458.157	911.56
458.377	928.56
458.598	957.56
458.818	954.56
459.038	965.56
459.258	1032.56
459.478	1083.56
459.698	1093.56
459.918	1141.56
460.138	1164.56
460.358	1220.56
460.578	1239.56
460.798	1279.56
461.018	1275.56
461.238	1229.56
461.458	1221.56
461.678	1213.56
461.898	1244.56
462.118	1250.56
462.338	1330.56
462.558	1347.56
462.777	1391.56
462.997	1508.56
463.217	1691.56
463.437	1700.56
463.657	1561.56
463.876	1476.56
464.096	1485.56
464.316	1432.56
464.536	1473.56
464.755	1427.56
464.975	1344.56
465.195	1277.56
465.414	1210.56
465.634	1145.56
465.854	1127.56
466.073	1088.56
466.293	1033.56
466.512	1028.56
466.732	1019.56
466.951	1020.56
467.171	1029.56
467.391	1024.56
467.61	988.56
467.829	1011.56
468.049	986.56
468.268	967.56
468.488	963.56
468.707	947.56
468.927	987.56
469.146	954.56
469.365	979.56
469.585	987.56
469.804	1018.56
470.023	1014.56
470.243	1021.56
470.462	1063.56
470.681	1049.56
470.901	1054.56
471.12	1039.56
471.339	1011.56
471.558	992.56
471.777	991.56
471.997	961.56
472.216	978.56
472.435	916.56
472.654	954.56
472.873	941.56
473.092	963.56
473.311	931.56
473.53	948.56
473.749	930.56
473.968	923.56
474.187	916.56
474.406	932.56
474.625	968.56
474.844	923.56
475.063	949.56
475.282	957.56
475.501	983.56
475.72	976.56
475.939	968.56
476.158	971.56
476.377	956.56
476.596	954.56
476.814	975.56
477.033	1007.56
477.252	1019.56
477.471	1023.56
477.69	1092.56
477.908	1055.56
478.127	1123.56
478.346	1106.56
478.564	1151.56
478.783	1127.56
479.002	1157.56
479.22	1220.56
479.439	1197.56
479.658	1170.56
479.876	1154.56
480.095	1184.56
480.313	1226.56
480.532	1256.56
480.751	1234.56
480.969	1207.56
481.188	1196.56
481.406	1128.56
481.624	1126.56
481.843	1093.56
482.061	1103.56
482.28	1117.56
482.498	1083.56
482.717	1063.56
482.935	1066.56
483.153	1091.56
483.372	1060.56
483.59	1079.56
483.808	1084.56
484.027	1079.56
484.245	1104.56
484.463	1116.56
484.681	1125.56
484.9	1128.56
485.118	1099.56
485.336	1119.56
485.554	1154.56
485.772	1140.56
485.99	1133.56
486.209	1139.56
486.427	1155.56
486.645	1145.56
486.863	1151.56
487.081	1159.56
487.299	1147.56
487.517	1125.56
487.735	1132.56
487.953	1152.56
488.171	1123.56
488.389	1137.56
488.607	1089.56
488.825	1130.56
489.043	1102.56
489.261	1133.56
489.479	1110.56
489.696	1120.56
489.914	1141.56
490.132	1111.56
490.35	1151.56
490.568	1127.56
490.786	1138.56
491.003	1129.56
491.221	1155.56
491.439	1163.56
491.657	1162.56
491.874	1110.56
492.092	1145.56
492.31	1140.56
492.527	1157.56
492.745	1159.56
492.963	1169.56
493.18	1171.56
493.398	1148.56
493.615	1171.56
493.833	1160.56
494.05	1178.56
494.268	1194.56
494.485	1174.56
494.703	1199.56
494.92	1185.56
495.138	1205.56
495.355	1200.56
495.573	1202.56
495.79	1220.56
496.008	1210.56
496.225	1230.56
496.442	1264.56
496.66	1231.56
496.877	1263.56
497.094	1235.56
497.312	1297.56
497.529	1323.56
497.746	1358.56
497.963	1375.56
498.181	1427.56
498.398	1487.56
498.615	1609.56
498.832	1707.56
499.049	1761.56
499.267	1927.56
499.484	2184.56
499.701	2418.56
499.918	2626.56
500.135	2971.56
500.352	3325.56
500.569	3595.56
500.786	3531.56
501.003	3259.56
501.22	2926.56
501.437	2623.56
501.654	2302.56
501.871	2119.56
502.088	1929.56
502.305	1802.56
502.522	1721.56
502.739	1647.56
502.956	1549.56
503.172	1473.56
503.389	1420.56
503.606	1387.56
503.823	1367.56
504.04	1356.56
504.256	1361.56
504.473	1407.56
504.69	1446.56
504.907	1398.56
505.123	1310.56
505.34	1243.56
505.557	1199.56
505.773	1173.56
505.99	1145.56
506.207	1107.56
506.423	1080.56
506.64	1082.56
506.856	1060.56
507.073	1068.56
507.289	1036.56
507.506	1028.56
507.722	1024.56
507.939	1045.56
508.155	1027.56
508.372	1007.56
508.588	997.56
508.805	978.56
509.021	1007.56
509.238	984.56
509.454	994.56
509.67	994.56
509.887	1002.56
510.103	974.56
510.319	963.56
510.536	951.56
510.752	958.56
510.968	962.56
511.184	951.56
511.401	913.56
511.617	930.56
511.833	944.56
512.049	941.56
512.265	954.56
512.481	962.56
512.698	930.56
512.914	961.56
513.13	930.56
513.346	950.56
513.562	925.56
513.778	941.56
513.994	968.56
514.21	950.56
514.426	932.56
514.642	979.56
514.858	970.56
515.074	991.56
515.29	987.56
515.506	991.56
515.721	1027.56
515.937	1033.56
516.153	1049.56
516.369	1072.56
516.585	1093.56
516.801	1133.56
517.016	1176.56
517.232	1228.56
517.448	1292.56
517.664	1328.56
517.879	1349.56
518.095	1336.56
518.311	1296.56
518.527	1245.56
518.742	1201.56
518.958	1165.56
519.173	1123.56
519.389	1098.56
519.605	1058.56
519.82	1026.56
520.036	1028.56
520.251	968.56
520.467	1002.56
520.682	965.56
520.898	929.56
521.113	940.56
521.329	961.56
521.544	909.56
521.76	923.56
521.975	909.56
522.19	913.56
522.406	867.56
522.621	909.56
522.836	895.56
523.052	897.56
523.267	904.56
523.482	893.56
523.698	863.56
523.913	898.56
524.128	905.56
524.343	903.56
524.559	876.56
524.774	869.56
524.989	875.56
525.204	873.56
525.419	883.56
525.634	854.56
525.849	867.56
526.064	855.56
526.28	879.56
526.495	879.56
526.71	875.56
526.925	868.56
527.14	849.56
527.355	860.56
527.57	849.56
527.785	866.56
527.999	886.56
528.214	849.56
528.429	868.56
528.644	877.56
528.859	869.56
529.074	874.56
529.289	863.56
529.503	860.56
529.718	853.56
529.933	860.56
530.148	847.56
530.363	849.56
530.577	864.56
530.792	848.56
531.007	845.56
531.221	852.56
531.436	844.56
531.651	871.56
531.865	834.56
532.08	880.56
532.295	855.56
532.509	868.56
532.724	854.56
532.938	877.56
533.153	852.56
533.367	868.56
533.582	860.56
533.796	839.56
534.011	865.56
534.225	841.56
534.44	869.56
534.654	834.56
534.868	815.56
535.083	834.56
535.297	808.56
535.511	844.56
535.726	838.56
535.94	840.56
536.154	800.56
536.369	816.56
536.583	810.56
536.797	799.56
537.011	842.56
537.225	801.56
537.44	787.56
537.654	788.56
537.868	800.56
538.082	790.56
538.296	769.56
538.51	789.56
538.724	772.56
538.938	777.56
539.153	781.56
539.367	771.56
539.581	782.56
539.795	807.56
540.009	761.56
540.222	769.56
540.436	771.56
540.65	770.56
540.864	782.56
541.078	772.56
541.292	768.56
541.506	773.56
541.72	777.56
541.934	756.56
542.147	788.56
542.361	743.56
542.575	752.56
542.789	744.56
543.002	759.56
543.216	773.56
543.43	753.56
543.644	743.56
543.857	792.56
544.071	746.56
544.285	780.56
544.498	791.56
544.712	763.56
544.925	794.56
545.139	789.56
545.352	761.56
545.566	781.56
545.779	798.56
545.993	802.56
546.206	835.56
546.42	774.56
546.633	785.56
546.847	787.56
547.06	791.56
547.274	781.56
547.487	792.56
547.7	777.56
547.914	780.56
548.127	789.56
548.34	799.56
548.554	779.56
548.767	789.56
548.98	796.56
549.193	796.56
549.407	811.56
549.62	803.56
549.833	833.56
550.046	815.56
550.259	801.56
550.473	784.56
550.686	777.56
550.899	759.56
551.112	758.56
551.325	788.56
551.538	771.56
551.751	768.56
551.964	787.56
552.177	744.56
552.39	799.56
552.603	843.56
552.816	812.56
553.029	863.56
553.242	854.56
553.455	879.56
553.667	877.56
553.88	844.56
554.093	830.56
554.306	784.56
554.519	812.56
554.732	804.56
554.944	770.56
555.157	767.56
555.37	772.56
555.583	758.56
555.795	739.56
556.008	706.56
556.221	719.56
556.433	707.56
556.646	724.56
556.859	684.56
557.071	698.56
557.284	692.56
557.496	672.56
557.709	692.56
557.921	669.56
558.134	678.56
558.346	652.56
558.559	647.56
558.771	670.56
558.984	672.56
559.196	665.56
559.409	649.56
559.621	673.56
559.833	654.56
560.046	649.56
560.258	642.56
560.47	633.56
560.683	656.56
560.895	643.56
561.107	658.56
561.32	663.56
561.532	639.56
561.744	646.56
561.956	646.56
562.168	656.56
562.381	657.56
562.593	658.56
562.805	638.56
563.017	633.56
563.229	649.56
563.441	662.56
563.653	645.56
563.865	673.56
564.077	677.56
564.289	656.56
564.501	677.56
564.713	683.56
564.925	697.56
565.137	709.56
565.349	740.56
565.561	752.56
565.773	780.56
565.985	805.56
566.197	836.56
566.408	894.56
566.62	964.56
566.832	1016.56
567.044	1067.56
567.255	1059.56
567.467	1103.56
567.679	1169.56
567.891	1225.56
568.102	1260.56
568.314	1215.56
568.526	1087.56
568.737	979.56
568.949	912.56
569.161	825.56
569.372	748.56
569.584	726.56
569.795	712.56
570.007	685.56
570.218	681.56
570.43	669.56
570.641	667.56
570.853	649.56
571.064	668.56
571.276	667.56
571.487	654.56
571.698	638.56
571.91	632.56
572.121	598.56
572.333	585.56
572.544	599.56
572.755	575.56
572.966	551.56
573.178	552.56
573.389	553.56
573.6	549.56
573.811	538.56
574.023	523.56
574.234	528.56
574.445	539.56
574.656	537.56
574.867	543.56
575.078	555.56
575.289	521.56
575.501	542.56
575.712	512.56
575.923	506.56
576.134	481.56
576.345	501.56
576.556	533.56
576.767	523.56
576.978	523.56
577.188	497.56
577.399	502.56
577.61	496.56
577.821	495.56
578.032	483.56
578.243	485.56
578.454	490.56
578.665	467.56
578.875	469.56
579.086	464.56
579.297	475.56
579.508	482.56
579.718	484.56
579.929	465.56
580.14	465.56
580.35	447.56
580.561	467.56
580.772	450.56
580.982	460.56
581.193	472.56
581.403	475.56
581.614	465.56
581.825	475.56
582.035	441.56
582.246	469.56
582.456	426.56
582.667	456.56
582.877	451.56
583.087	442.56
583.298	437.56
583.508	448.56
583.719	434.56
583.929	455.56
584.139	442.56
584.35	433.56
584.56	427.56
584.77	437.56
584.981	448.56
585.191	452.56
585.401	442.56
585.611	433.56
585.821	439.56
586.032	454.56
586.242	440.56
586.452	435.56
586.662	454.56
586.872	429.56
587.082	418.56
587.292	417.56
587.502	433.56
587.713	405.56
587.923	443.56
588.133	441.56
588.343	416.56
588.553	429.56
588.762	444.56
588.972	427.56
589.182	437.56
589.392	440.56
589.602	447.56
589.812	432.56
590.022	438.56
590.232	418.56
590.441	428.56
590.651	438.56
590.861	438.56
591.071	444.56
591.281	443.56
591.49	449.56
591.7	456.56
591.91	460.56
592.119	460.56
592.329	469.56
592.539	493.56
592.748	516.56
592.958	498.56
593.167	524.56
593.377	539.56
593.587	545.56
593.796	538.56
594.006	560.56
594.215	539.56
594.424	549.56
594.634	549.56
594.843	519.56
595.053	481.56
595.262	472.56
595.472	468.56
595.681	467.56
595.89	437.56
596.1	414.56
596.309	415.56
596.518	430.56
596.727	406.56
596.937	404.56
597.146	385.56
597.355	417.56
597.564	388.56
597.774	383.56
597.983	388.56
598.192	377.56
598.401	372.56
598.61	379.56
598.819	371.56
599.028	352.56
599.237	370.56
599.446	370.56
599.655	386.56
599.864	369.56
600.073	360.56
600.282	362.56
600.491	347.56
600.7	371.56
600.909	359.56
601.118	369.56
601.327	364.56
601.536	367.56
601.745	362.56
601.953	360.56
602.162	371.56
602.371	349.56
602.58	345.56
602.789	349.56
602.997	337.56
603.206	343.56
603.415	326.56
603.623	347.56
603.832	348.56
604.041	354.56
604.249	342.56
604.458	337.56
604.666	347.56
604.875	320.56
605.084	329.56
605.292	332.56
605.501	329.56
605.709	325.56
605.918	326.56
606.126	346.56
606.334	331.56
606.543	331.56
606.751	336.56
606.96	347.56
607.168	324.56
607.376	337.56
607.585	342.56
607.793	311.56
608.001	326.56
608.21	325.56
608.418	319.56
608.626	312.56
608.834	331.56
609.043	323.56
609.251	333.56
609.459	327.56
609.667	318.56
609.875	326.56
610.083	325.56
610.291	325.56
610.499	316.56
610.707	335.56
610.916	320.56
611.124	315.56
611.332	307.56
611.54	327.56
611.748	330.56
611.955	336.56
612.163	320.56
612.371	309.56
612.579	325.56
612.787	321.56
612.995	333.56
613.203	320.56
613.411	304.56
613.618	314.56
613.826	329.56
614.034	330.56
614.242	318.56
614.449	310.56
614.657	299.56
614.865	310.56
615.072	305.56
615.28	308.56
615.488	291.56
615.695	298.56
615.903	302.56
616.111	324.56
616.318	329.56
616.526	321.56
616.733	308.56
616.941	307.56
617.148	315.56
617.356	310.56
617.563	290.56
617.771	306.56
617.978	318.56
618.185	312.56
618.393	310.56
618.6	290.56
618.807	316.56
619.015	279.56
619.222	307.56
619.429	303.56
619.637	298.56
619.844	310.56
620.051	311.56
620.258	290.56
620.466	307.56
620.673	287.56
620.88	273.56
621.087	290.56
621.294	292.56
621.501	279.56
621.708	298.56
621.915	283.56
622.122	285.56
622.329	286.56
622.536	279.56
622.743	280.56
622.95	284.56
623.157	269.56
623.364	266.56
623.571	284.56
623.778	291.56
623.985	281.56
624.192	266.56
624.399	281.56
624.606	273.56
624.812	269.56
625.019	255.56
625.226	268.56
625.433	262.56
625.639	272.56
625.846	263.56
626.053	265.56
626.259	256.56
626.466	260.56
626.673	265.56
626.879	270.56
627.086	275.56
627.293	263.56
627.499	263.56
627.706	250.56
627.912	263.56
628.119	255.56
628.325	244.56
628.532	269.56
628.738	257.56
628.945	236.56
629.151	266.56
629.357	235.56
629.564	243.56
629.77	265.56
629.976	253.56
630.183	245.56
630.389	251.56
630.595	245.56
630.802	249.56
631.008	241.56
631.214	241.56
631.42	225.56
631.627	231.56
631.833	223.56
632.039	239.56
632.245	247.56
632.451	259.56
632.657	257.56
632.863	244.56
633.069	255.56
633.275	246.56
633.481	233.56
633.688	227.56
633.893	226.56
634.099	248.56
634.305	243.56
634.511	213.56
634.717	216.56
634.923	216.56
635.129	224.56
635.335	240.56
635.541	235.56
635.747	225.56
635.952	227.56
636.158	214.56
636.364	222.56
636.57	229.56
636.775	220.56
636.981	238.56
637.187	231.56
637.392	214.56
637.598	227.56
637.804	204.56
638.009	218.56
638.215	212.56
638.421	218.56
638.626	224.56
638.832	204.56
639.037	210.56
639.243	226.56
639.448	211.56
639.654	220.56
639.859	223.56
640.065	212.56
640.27	217.56
640.475	213.56
640.681	218.56
640.886	211.56
641.091	207.56
641.297	217.56
641.502	209.56
641.707	208.56
641.913	224.56
642.118	221.56
642.323	210.56
642.528	206.56
642.733	193.56
642.939	188.56
643.144	208.56
643.349	204.56
643.554	225.56
643.759	217.56
643.964	194.56
644.169	227.56
644.374	200.56
644.579	205.56
644.784	202.56
644.989	198.56
645.194	197.56
645.399	211.56
645.604	193.56
645.809	208.56
646.014	196.56
646.219	204.56
646.423	187.56
646.628	212.56
646.833	207.56
647.038	197.56
647.243	206.56
647.447	203.56
647.652	199.56
647.857	201.56
648.062	210.56
648.266	216.56
648.471	208.56
648.676	216.56
648.88	201.56
649.085	214.56
649.289	228.56
649.494	196.56
649.698	205.56
649.903	214.56
650.107	208.56
650.312	198.56
650.516	188.56
650.721	185.56
650.925	197.56
651.13	201.56
651.334	192.56
651.539	189.56
651.743	182.56
651.947	177.56
652.152	176.56
652.356	179.56
652.56	184.56
652.764	155.56
652.969	175.56
653.173	185.56
653.377	165.56
653.581	175.56
653.785	162.56
653.99	166.56
654.194	169.56
654.398	155.56
654.602	161.56
654.806	155.56
655.01	166.56
655.214	138.56
655.418	149.56
655.622	142.56
655.826	151.56
656.03	167.56
656.234	133.56
656.438	141.56
656.642	156.56
656.846	151.56
657.049	144.56
657.253	124.56
657.457	148.56
657.661	123.56
657.865	129.56
658.068	126.56
658.272	125.56
658.476	117.56
658.68	116.56
658.883	118.56
659.087	109.56
659.291	107.56
659.494	100.56
659.698	111.56
659.901	112.56
660.105	100.56
660.309	121.56
660.512	107.56
660.716	102.56
660.919	96.56
661.123	103.56
661.326	79.56
661.53	88.56
661.733	104.56
661.936	103.56
662.14	91.56
662.343	94.56
662.546	74.56
662.75	93.56
662.953	84.56
663.156	77.56
663.36	88.56
663.563	81.56
663.766	72.56
663.969	81.56
664.173	83.56
664.376	87.56
664.579	84.56
664.782	77.56
664.985	86.56
665.188	86.56
665.391	89.56
665.594	91.56
665.797	75.56
666	78.56
666.203	83.56
666.406	79.56
666.609	89.56
666.812	95.56
667.015	69.56
667.218	74.56
667.421	84.56
667.624	81.56
667.827	76.56
668.03	81.56
668.232	77.56
668.435	77.56
668.638	62.56
668.841	103.56
669.043	94.56
669.246	75.56
669.449	93.56
669.651	92.56
669.854	74.56
670.057	98.56
670.259	73.56
670.462	81.56
670.665	88.56
670.867	84.56
671.07	84.56
671.272	92.56
671.475	85.56
671.677	92.56
671.88	95.56
672.082	77.56
672.284	71.56
672.487	89.56
672.689	80.56
672.892	84.56
