Data from NiCl2@0.125M.TitratingCurve.Agarose3%dH2O.NegLispCup.LampEnergy10.LIBS07252019_HRD10591_18-30-43-575.txt Node
Date: Thu Jul 25 18:30:43 EDT 2019
User: cochatt
Spectrometer: HR+D1059
Trigger mode: 1
Integration Time (sec): 1.000000E-1
Scans to average: 1
Electric dark correction enabled: true
Nonlinearity correction enabled: false
Boxcar width: 0
XAxis mode: Wavelengths
Number of Pixels in Spectrum: 2048
>>>>>Begin Spectral Data<<<<<
223.165	-24.25
223.4	-24.25
223.635	-24.25
223.869	-10.25
224.104	-30.25
224.338	-10.25
224.573	-12.25
224.808	-15.25
225.042	-11.25
225.277	-2.25
225.511	-21.25
225.746	24.75
225.98	10.75
226.215	20.75
226.449	8.75
226.683	21.75
226.918	17.75
227.152	32.75
227.387	45.75
227.621	33.75
227.856	33.75
228.09	50.75
228.324	45.75
228.559	57.75
228.793	57.75
229.027	53.75
229.262	63.75
229.496	62.75
229.73	80.75
229.964	68.75
230.199	69.75
230.433	56.75
230.667	74.75
230.901	65.75
231.136	70.75
231.37	72.75
231.604	84.75
231.838	89.75
232.072	68.75
232.306	74.75
232.541	73.75
232.775	74.75
233.009	74.75
233.243	67.75
233.477	81.75
233.711	74.75
233.945	66.75
234.179	78.75
234.413	81.75
234.647	82.75
234.881	73.75
235.115	75.75
235.349	85.75
235.583	86.75
235.817	86.75
236.051	81.75
236.285	89.75
236.519	85.75
236.753	71.75
236.987	74.75
237.221	90.75
237.455	83.75
237.689	73.75
237.922	71.75
238.156	63.75
238.39	84.75
238.624	74.75
238.858	73.75
239.091	79.75
239.325	77.75
239.559	86.75
239.793	68.75
240.027	69.75
240.26	73.75
240.494	69.75
240.728	77.75
240.961	83.75
241.195	76.75
241.429	76.75
241.662	76.75
241.896	81.75
242.13	75.75
242.363	69.75
242.597	65.75
242.83	66.75
243.064	70.75
243.298	63.75
243.531	72.75
243.765	79.75
243.998	79.75
244.232	75.75
244.465	71.75
244.699	74.75
244.932	76.75
245.166	59.75
245.399	74.75
245.633	81.75
245.866	70.75
246.099	64.75
246.333	75.75
246.566	70.75
246.8	75.75
247.033	85.75
247.266	68.75
247.5	81.75
247.733	90.75
247.966	81.75
248.2	71.75
248.433	75.75
248.666	76.75
248.899	74.75
249.133	63.75
249.366	82.75
249.599	89.75
249.832	68.75
250.066	85.75
250.299	81.75
250.532	71.75
250.765	77.75
250.998	59.75
251.231	72.75
251.465	74.75
251.698	87.75
251.931	86.75
252.164	67.75
252.397	74.75
252.63	82.75
252.863	87.75
253.096	74.75
253.329	79.75
253.562	84.75
253.795	75.75
254.028	87.75
254.261	83.75
254.494	72.75
254.727	101.75
254.96	85.75
255.193	58.75
255.426	71.75
255.659	75.75
255.892	81.75
256.124	74.75
256.357	70.75
256.59	81.75
256.823	78.75
257.056	73.75
257.289	76.75
257.521	77.75
257.754	95.75
257.987	77.75
258.22	74.75
258.452	99.75
258.685	80.75
258.918	73.75
259.151	74.75
259.383	75.75
259.616	72.75
259.849	76.75
260.081	81.75
260.314	80.75
260.547	79.75
260.779	71.75
261.012	63.75
261.244	68.75
261.477	75.75
261.71	70.75
261.942	90.75
262.175	72.75
262.407	79.75
262.64	83.75
262.872	84.75
263.105	74.75
263.337	81.75
263.57	73.75
263.802	79.75
264.035	87.75
264.267	74.75
264.499	75.75
264.732	88.75
264.964	83.75
265.197	75.75
265.429	84.75
265.661	74.75
265.894	72.75
266.126	89.75
266.358	75.75
266.591	74.75
266.823	75.75
267.055	74.75
267.287	71.75
267.52	73.75
267.752	79.75
267.984	84.75
268.216	79.75
268.448	90.75
268.681	88.75
268.913	89.75
269.145	73.75
269.377	76.75
269.609	81.75
269.841	74.75
270.073	78.75
270.306	79.75
270.538	74.75
270.77	77.75
271.002	77.75
271.234	67.75
271.466	83.75
271.698	98.75
271.93	85.75
272.162	71.75
272.394	91.75
272.626	76.75
272.858	73.75
273.09	84.75
273.322	87.75
273.553	78.75
273.785	68.75
274.017	74.75
274.249	81.75
274.481	68.75
274.713	74.75
274.945	67.75
275.176	79.75
275.408	92.75
275.64	91.75
275.872	85.75
276.104	80.75
276.335	89.75
276.567	81.75
276.799	72.75
277.031	89.75
277.262	90.75
277.494	86.75
277.726	83.75
277.957	71.75
278.189	74.75
278.421	74.75
278.652	85.75
278.884	93.75
279.115	85.75
279.347	96.75
279.579	63.75
279.81	81.75
280.042	81.75
280.273	86.75
280.505	88.75
280.736	90.75
280.968	88.75
281.199	89.75
281.431	79.75
281.662	73.75
281.894	78.75
282.125	94.75
282.356	71.75
282.588	83.75
282.819	81.75
283.051	73.75
283.282	77.75
283.513	79.75
283.745	84.75
283.976	66.75
284.207	87.75
284.439	79.75
284.67	72.75
284.901	94.75
285.132	83.75
285.364	74.75
285.595	86.75
285.826	74.75
286.057	73.75
286.288	82.75
286.52	86.75
286.751	82.75
286.982	98.75
287.213	91.75
287.444	78.75
287.675	89.75
287.906	93.75
288.138	76.75
288.369	74.75
288.6	93.75
288.831	75.75
289.062	81.75
289.293	81.75
289.524	83.75
289.755	73.75
289.986	98.75
290.217	83.75
290.448	85.75
290.679	69.75
290.91	90.75
291.141	84.75
291.371	76.75
291.602	76.75
291.833	59.75
292.064	76.75
292.295	72.75
292.526	85.75
292.757	74.75
292.987	69.75
293.218	74.75
293.449	74.75
293.68	82.75
293.91	85.75
294.141	70.75
294.372	83.75
294.603	87.75
294.833	87.75
295.064	83.75
295.295	93.75
295.525	79.75
295.756	80.75
295.987	90.75
296.217	87.75
296.448	79.75
296.679	77.75
296.909	89.75
297.14	90.75
297.37	82.75
297.601	85.75
297.831	78.75
298.062	86.75
298.292	78.75
298.523	82.75
298.753	86.75
298.984	82.75
299.214	77.75
299.445	83.75
299.675	78.75
299.905	79.75
300.136	80.75
300.366	87.75
300.597	82.75
300.827	79.75
301.057	75.75
301.288	89.75
301.518	93.75
301.748	97.75
301.979	96.75
302.209	94.75
302.439	87.75
302.669	83.75
302.9	92.75
303.13	86.75
303.36	82.75
303.59	89.75
303.82	88.75
304.051	80.75
304.281	88.75
304.511	86.75
304.741	82.75
304.971	89.75
305.201	88.75
305.431	83.75
305.661	91.75
305.891	76.75
306.121	81.75
306.352	76.75
306.582	93.75
306.812	93.75
307.042	78.75
307.272	84.75
307.502	72.75
307.731	85.75
307.961	87.75
308.191	76.75
308.421	86.75
308.651	85.75
308.881	78.75
309.111	82.75
309.341	89.75
309.571	73.75
309.8	78.75
310.03	93.75
310.26	90.75
310.49	80.75
310.72	81.75
310.949	95.75
311.179	70.75
311.409	83.75
311.639	94.75
311.868	71.75
312.098	81.75
312.328	84.75
312.557	82.75
312.787	90.75
313.017	84.75
313.246	75.75
313.476	78.75
313.706	76.75
313.935	73.75
314.165	79.75
314.394	86.75
314.624	68.75
314.853	69.75
315.083	75.75
315.312	89.75
315.542	86.75
315.771	75.75
316.001	94.75
316.23	83.75
316.46	83.75
316.689	70.75
316.919	85.75
317.148	94.75
317.377	81.75
317.607	100.75
317.836	88.75
318.065	83.75
318.295	74.75
318.524	97.75
318.753	88.75
318.983	104.75
319.212	74.75
319.441	79.75
319.67	87.75
319.9	90.75
320.129	84.75
320.358	69.75
320.587	86.75
320.816	77.75
321.046	81.75
321.275	82.75
321.504	77.75
321.733	89.75
321.962	95.75
322.191	75.75
322.42	93.75
322.649	83.75
322.878	93.75
323.108	83.75
323.337	81.75
323.566	84.75
323.795	75.75
324.024	97.75
324.253	79.75
324.482	84.75
324.71	77.75
324.939	72.75
325.168	95.75
325.397	75.75
325.626	77.75
325.855	79.75
326.084	97.75
326.313	89.75
326.542	84.75
326.77	83.75
326.999	82.75
327.228	79.75
327.457	82.75
327.686	71.75
327.914	78.75
328.143	75.75
328.372	82.75
328.6	75.75
328.829	88.75
329.058	81.75
329.287	78.75
329.515	76.75
329.744	80.75
329.972	99.75
330.201	94.75
330.43	85.75
330.658	86.75
330.887	82.75
331.115	84.75
331.344	91.75
331.572	91.75
331.801	99.75
332.03	78.75
332.258	75.75
332.486	71.75
332.715	85.75
332.943	84.75
333.172	87.75
333.4	71.75
333.629	79.75
333.857	69.75
334.085	73.75
334.314	78.75
334.542	83.75
334.771	85.75
334.999	83.75
335.227	79.75
335.455	83.75
335.684	86.75
335.912	87.75
336.14	81.75
336.369	87.75
336.597	93.75
336.825	109.75
337.053	82.75
337.281	86.75
337.51	79.75
337.738	69.75
337.966	70.75
338.194	85.75
338.422	78.75
338.65	85.75
338.878	89.75
339.106	75.75
339.334	72.75
339.562	80.75
339.79	95.75
340.018	92.75
340.246	78.75
340.474	89.75
340.702	77.75
340.93	84.75
341.158	83.75
341.386	85.75
341.614	86.75
341.842	78.75
342.07	81.75
342.298	88.75
342.526	84.75
342.754	85.75
342.981	79.75
343.209	87.75
343.437	86.75
343.665	74.75
343.893	69.75
344.12	75.75
344.348	79.75
344.576	68.75
344.804	82.75
345.031	75.75
345.259	94.75
345.487	88.75
345.714	83.75
345.942	77.75
346.17	89.75
346.397	86.75
346.625	81.75
346.853	82.75
347.08	76.75
347.308	93.75
347.535	84.75
347.763	79.75
347.99	92.75
348.218	79.75
348.445	69.75
348.673	80.75
348.9	78.75
349.128	67.75
349.355	82.75
349.583	88.75
349.81	65.75
350.037	79.75
350.265	82.75
350.492	78.75
350.72	80.75
350.947	73.75
351.174	75.75
351.402	76.75
351.629	85.75
351.856	94.75
352.083	74.75
352.311	99.75
352.538	82.75
352.765	74.75
352.992	63.75
353.22	79.75
353.447	86.75
353.674	91.75
353.901	81.75
354.128	89.75
354.355	73.75
354.583	81.75
354.81	82.75
355.037	79.75
355.264	67.75
355.491	88.75
355.718	88.75
355.945	77.75
356.172	80.75
356.399	82.75
356.626	79.75
356.853	81.75
357.08	79.75
357.307	77.75
357.534	86.75
357.761	72.75
357.988	74.75
358.215	90.75
358.441	86.75
358.668	78.75
358.895	75.75
359.122	71.75
359.349	57.75
359.576	83.75
359.802	91.75
360.029	80.75
360.256	80.75
360.483	88.75
360.709	82.75
360.936	85.75
361.163	79.75
361.39	65.75
361.616	73.75
361.843	84.75
362.07	100.75
362.296	85.75
362.523	90.75
362.749	81.75
362.976	101.75
363.203	83.75
363.429	79.75
363.656	85.75
363.882	80.75
364.109	97.75
364.335	86.75
364.562	93.75
364.788	76.75
365.015	86.75
365.241	85.75
365.468	79.75
365.694	82.75
365.92	87.75
366.147	74.75
366.373	81.75
366.599	89.75
366.826	79.75
367.052	81.75
367.278	66.75
367.505	69.75
367.731	93.75
367.957	74.75
368.184	81.75
368.41	75.75
368.636	79.75
368.862	87.75
369.089	81.75
369.315	91.75
369.541	66.75
369.767	74.75
369.993	88.75
370.219	83.75
370.445	87.75
370.672	89.75
370.898	85.75
371.124	73.75
371.35	71.75
371.576	89.75
371.802	74.75
372.028	80.75
372.254	94.75
372.48	87.75
372.706	96.75
372.932	78.75
373.158	70.75
373.384	79.75
373.61	76.75
373.835	90.75
374.061	88.75
374.287	85.75
374.513	88.75
374.739	68.75
374.965	93.75
375.191	79.75
375.416	75.75
375.642	69.75
375.868	74.75
376.094	72.75
376.319	82.75
376.545	81.75
376.771	79.75
376.997	71.75
377.222	66.75
377.448	69.75
377.674	71.75
377.899	78.75
378.125	94.75
378.35	83.75
378.576	73.75
378.802	87.75
379.027	96.75
379.253	83.75
379.478	85.75
379.704	83.75
379.929	83.75
380.155	66.75
380.38	85.75
380.606	83.75
380.831	63.75
381.057	93.75
381.282	78.75
381.507	86.75
381.733	86.75
381.958	66.75
382.184	81.75
382.409	74.75
382.634	81.75
382.86	82.75
383.085	78.75
383.31	79.75
383.535	79.75
383.761	77.75
383.986	81.75
384.211	88.75
384.436	95.75
384.662	82.75
384.887	85.75
385.112	97.75
385.337	70.75
385.562	66.75
385.787	74.75
386.013	92.75
386.238	71.75
386.463	81.75
386.688	82.75
386.913	87.75
387.138	81.75
387.363	71.75
387.588	94.75
387.813	99.75
388.038	70.75
388.263	63.75
388.488	85.75
388.713	82.75
388.938	101.75
389.163	84.75
389.387	78.75
389.612	73.75
389.837	79.75
390.062	85.75
390.287	83.75
390.512	101.75
390.736	95.75
390.961	73.75
391.186	82.75
391.411	73.75
391.636	75.75
391.86	87.75
392.085	83.75
392.31	87.75
392.534	87.75
392.759	79.75
392.984	74.75
393.208	79.75
393.433	69.75
393.658	74.75
393.882	68.75
394.107	88.75
394.331	93.75
394.556	81.75
394.78	77.75
395.005	79.75
395.229	80.75
395.454	77.75
395.678	64.75
395.903	81.75
396.127	59.75
396.352	78.75
396.576	82.75
396.801	71.75
397.025	76.75
397.249	95.75
397.474	86.75
397.698	83.75
397.922	86.75
398.147	75.75
398.371	75.75
398.595	87.75
398.82	72.75
399.044	79.75
399.268	76.75
399.492	85.75
399.717	87.75
399.941	85.75
400.165	81.75
400.389	82.75
400.613	96.75
400.837	80.75
401.062	82.75
401.286	90.75
401.51	73.75
401.734	74.75
401.958	78.75
402.182	85.75
402.406	103.75
402.63	82.75
402.854	73.75
403.078	78.75
403.302	90.75
403.526	78.75
403.75	85.75
403.974	72.75
404.198	89.75
404.422	88.75
404.645	87.75
404.869	86.75
405.093	87.75
405.317	93.75
405.541	94.75
405.765	73.75
405.988	77.75
406.212	79.75
406.436	91.75
406.66	91.75
406.883	87.75
407.107	85.75
407.331	84.75
407.555	78.75
407.778	80.75
408.002	80.75
408.226	82.75
408.449	84.75
408.673	81.75
408.896	78.75
409.12	91.75
409.344	87.75
409.567	94.75
409.791	78.75
410.014	93.75
410.238	70.75
410.461	78.75
410.685	89.75
410.908	67.75
411.132	86.75
411.355	81.75
411.578	84.75
411.802	78.75
412.025	87.75
412.249	82.75
412.472	81.75
412.695	93.75
412.919	81.75
413.142	81.75
413.365	90.75
413.589	70.75
413.812	91.75
414.035	95.75
414.258	77.75
414.482	96.75
414.705	94.75
414.928	73.75
415.151	85.75
415.374	88.75
415.597	91.75
415.821	101.75
416.044	79.75
416.267	85.75
416.49	74.75
416.713	88.75
416.936	88.75
417.159	88.75
417.382	89.75
417.605	80.75
417.828	93.75
418.051	88.75
418.274	96.75
418.497	97.75
418.72	86.75
418.943	76.75
419.166	85.75
419.389	84.75
419.611	76.75
419.834	101.75
420.057	87.75
420.28	89.75
420.503	78.75
420.726	81.75
420.948	90.75
421.171	78.75
421.394	85.75
421.617	89.75
421.839	80.75
422.062	100.75
422.285	85.75
422.507	103.75
422.73	89.75
422.953	92.75
423.175	72.75
423.398	74.75
423.621	87.75
423.843	90.75
424.066	91.75
424.288	98.75
424.511	107.75
424.733	94.75
424.956	81.75
425.178	88.75
425.401	79.75
425.623	93.75
425.846	82.75
426.068	86.75
426.291	89.75
426.513	92.75
426.735	84.75
426.958	79.75
427.18	90.75
427.402	85.75
427.625	100.75
427.847	102.75
428.069	89.75
428.292	88.75
428.514	71.75
428.736	87.75
428.958	96.75
429.181	80.75
429.403	96.75
429.625	94.75
429.847	101.75
430.069	91.75
430.292	72.75
430.514	93.75
430.736	72.75
430.958	103.75
431.18	90.75
431.402	89.75
431.624	73.75
431.846	86.75
432.068	74.75
432.29	85.75
432.512	87.75
432.734	83.75
432.956	91.75
433.178	82.75
433.4	87.75
433.622	97.75
433.844	90.75
434.066	93.75
434.287	89.75
434.509	82.75
434.731	84.75
434.953	73.75
435.175	89.75
435.397	88.75
435.618	87.75
435.84	99.75
436.062	93.75
436.284	98.75
436.505	99.75
436.727	82.75
436.949	96.75
437.17	95.75
437.392	83.75
437.614	86.75
437.835	80.75
438.057	82.75
438.278	66.75
438.5	91.75
438.721	104.75
438.943	97.75
439.165	106.75
439.386	103.75
439.608	109.75
439.829	100.75
440.05	99.75
440.272	98.75
440.493	93.75
440.715	91.75
440.936	92.75
441.158	98.75
441.379	91.75
441.6	101.75
441.822	106.75
442.043	113.75
442.264	102.75
442.486	98.75
442.707	101.75
442.928	91.75
443.149	87.75
443.371	80.75
443.592	95.75
443.813	98.75
444.034	106.75
444.255	86.75
444.476	90.75
444.698	98.75
444.919	93.75
445.14	198.75
445.361	154.75
445.582	95.75
445.803	96.75
446.024	100.75
446.245	106.75
446.466	102.75
446.687	114.75
446.908	106.75
447.129	100.75
447.35	100.75
447.571	98.75
447.792	93.75
448.013	101.75
448.234	97.75
448.455	91.75
448.675	98.75
448.896	98.75
449.117	95.75
449.338	97.75
449.559	94.75
449.779	86.75
450	93.75
450.221	100.75
450.442	92.75
450.662	90.75
450.883	79.75
451.104	85.75
451.324	88.75
451.545	106.75
451.766	104.75
451.986	101.75
452.207	105.75
452.428	80.75
452.648	90.75
452.869	94.75
453.089	94.75
453.31	77.75
453.53	75.75
453.751	104.75
453.971	76.75
454.192	85.75
454.412	79.75
454.633	69.75
454.853	104.75
455.073	81.75
455.294	82.75
455.514	99.75
455.734	97.75
455.955	92.75
456.175	83.75
456.395	94.75
456.616	89.75
456.836	88.75
457.056	72.75
457.276	97.75
457.497	86.75
457.717	80.75
457.937	81.75
458.157	81.75
458.377	87.75
458.598	81.75
458.818	86.75
459.038	93.75
459.258	68.75
459.478	82.75
459.698	86.75
459.918	97.75
460.138	86.75
460.358	72.75
460.578	73.75
460.798	80.75
461.018	98.75
461.238	92.75
461.458	91.75
461.678	92.75
461.898	104.75
462.118	87.75
462.338	78.75
462.558	72.75
462.777	98.75
462.997	85.75
463.217	94.75
463.437	87.75
463.657	99.75
463.876	91.75
464.096	91.75
464.316	88.75
464.536	87.75
464.755	103.75
464.975	100.75
465.195	91.75
465.414	79.75
465.634	91.75
465.854	98.75
466.073	87.75
466.293	81.75
466.512	95.75
466.732	98.75
466.951	81.75
467.171	85.75
467.391	81.75
467.61	85.75
467.829	90.75
468.049	97.75
468.268	90.75
468.488	72.75
468.707	97.75
468.927	94.75
469.146	95.75
469.365	79.75
469.585	89.75
469.804	86.75
470.023	79.75
470.243	87.75
470.462	95.75
470.681	94.75
470.901	80.75
471.12	94.75
471.339	90.75
471.558	98.75
471.777	95.75
471.997	85.75
472.216	86.75
472.435	85.75
472.654	81.75
472.873	89.75
473.092	87.75
473.311	97.75
473.53	83.75
473.749	93.75
473.968	94.75
474.187	83.75
474.406	92.75
474.625	82.75
474.844	92.75
475.063	88.75
475.282	89.75
475.501	84.75
475.72	91.75
475.939	93.75
476.158	96.75
476.377	98.75
476.596	93.75
476.814	98.75
477.033	94.75
477.252	74.75
477.471	92.75
477.69	90.75
477.908	84.75
478.127	90.75
478.346	93.75
478.564	85.75
478.783	88.75
479.002	89.75
479.22	84.75
479.439	94.75
479.658	78.75
479.876	89.75
480.095	95.75
480.313	89.75
480.532	93.75
480.751	93.75
480.969	88.75
481.188	82.75
481.406	83.75
481.624	86.75
481.843	75.75
482.061	89.75
482.28	87.75
482.498	87.75
482.717	80.75
482.935	93.75
483.153	79.75
483.372	108.75
483.59	84.75
483.808	90.75
484.027	90.75
484.245	97.75
484.463	86.75
484.681	106.75
484.9	86.75
485.118	95.75
485.336	87.75
485.554	85.75
485.772	86.75
485.99	87.75
486.209	82.75
486.427	93.75
486.645	88.75
486.863	93.75
487.081	102.75
487.299	100.75
487.517	81.75
487.735	109.75
487.953	114.75
488.171	101.75
488.389	101.75
488.607	111.75
488.825	87.75
489.043	89.75
489.261	91.75
489.479	90.75
489.696	96.75
489.914	94.75
490.132	108.75
490.35	95.75
490.568	93.75
490.786	102.75
491.003	83.75
491.221	94.75
491.439	98.75
491.657	96.75
491.874	109.75
492.092	115.75
492.31	109.75
492.527	111.75
492.745	112.75
492.963	110.75
493.18	98.75
493.398	118.75
493.615	107.75
493.833	100.75
494.05	103.75
494.268	106.75
494.485	106.75
494.703	114.75
494.92	89.75
495.138	98.75
495.355	89.75
495.573	102.75
495.79	102.75
496.008	102.75
496.225	104.75
496.442	101.75
496.66	106.75
496.877	103.75
497.094	92.75
497.312	102.75
497.529	108.75
497.746	98.75
497.963	82.75
498.181	89.75
498.398	96.75
498.615	103.75
498.832	96.75
499.049	90.75
499.267	95.75
499.484	95.75
499.701	88.75
499.918	92.75
500.135	111.75
500.352	92.75
500.569	86.75
500.786	102.75
501.003	100.75
501.22	101.75
501.437	90.75
501.654	91.75
501.871	93.75
502.088	89.75
502.305	86.75
502.522	98.75
502.739	101.75
502.956	87.75
503.172	98.75
503.389	101.75
503.606	82.75
503.823	88.75
504.04	90.75
504.256	90.75
504.473	87.75
504.69	102.75
504.907	92.75
505.123	86.75
505.34	87.75
505.557	84.75
505.773	95.75
505.99	85.75
506.207	80.75
506.423	84.75
506.64	86.75
506.856	87.75
507.073	91.75
507.289	88.75
507.506	90.75
507.722	92.75
507.939	87.75
508.155	87.75
508.372	86.75
508.588	88.75
508.805	86.75
509.021	85.75
509.238	86.75
509.454	94.75
509.67	96.75
509.887	79.75
510.103	93.75
510.319	94.75
510.536	96.75
510.752	75.75
510.968	83.75
511.184	67.75
511.401	83.75
511.617	97.75
511.833	87.75
512.049	81.75
512.265	98.75
512.481	89.75
512.698	87.75
512.914	90.75
513.13	89.75
513.346	82.75
513.562	74.75
513.778	78.75
513.994	90.75
514.21	91.75
514.426	79.75
514.642	78.75
514.858	94.75
515.074	65.75
515.29	71.75
515.506	88.75
515.721	106.75
515.937	74.75
516.153	87.75
516.369	72.75
516.585	79.75
516.801	82.75
517.016	86.75
517.232	68.75
517.448	94.75
517.664	85.75
517.879	79.75
518.095	79.75
518.311	91.75
518.527	80.75
518.742	96.75
518.958	80.75
519.173	88.75
519.389	93.75
519.605	94.75
519.82	85.75
520.036	90.75
520.251	94.75
520.467	82.75
520.682	85.75
520.898	90.75
521.113	81.75
521.329	80.75
521.544	80.75
521.76	89.75
521.975	100.75
522.19	100.75
522.406	70.75
522.621	83.75
522.836	87.75
523.052	100.75
523.267	88.75
523.482	95.75
523.698	84.75
523.913	93.75
524.128	101.75
524.343	97.75
524.559	91.75
524.774	92.75
524.989	91.75
525.204	103.75
525.419	95.75
525.634	90.75
525.849	96.75
526.064	89.75
526.28	96.75
526.495	90.75
526.71	86.75
526.925	81.75
527.14	99.75
527.355	91.75
527.57	85.75
527.785	87.75
527.999	79.75
528.214	75.75
528.429	87.75
528.644	79.75
528.859	101.75
529.074	104.75
529.289	110.75
529.503	92.75
529.718	97.75
529.933	96.75
530.148	95.75
530.363	102.75
530.577	100.75
530.792	90.75
531.007	88.75
531.221	91.75
531.436	76.75
531.651	86.75
531.865	94.75
532.08	89.75
532.295	81.75
532.509	88.75
532.724	78.75
532.938	90.75
533.153	96.75
533.367	92.75
533.582	95.75
533.796	76.75
534.011	85.75
534.225	71.75
534.44	85.75
534.654	93.75
534.868	80.75
535.083	83.75
535.297	94.75
535.511	79.75
535.726	90.75
535.94	109.75
536.154	81.75
536.369	95.75
536.583	86.75
536.797	81.75
537.011	83.75
537.225	87.75
537.44	76.75
537.654	79.75
537.868	80.75
538.082	97.75
538.296	88.75
538.51	87.75
538.724	82.75
538.938	101.75
539.153	85.75
539.367	94.75
539.581	91.75
539.795	93.75
540.009	72.75
540.222	84.75
540.436	79.75
540.65	89.75
540.864	95.75
541.078	91.75
541.292	98.75
541.506	98.75
541.72	105.75
541.934	110.75
542.147	104.75
542.361	115.75
542.575	101.75
542.789	94.75
543.002	94.75
543.216	81.75
543.43	95.75
543.644	96.75
543.857	97.75
544.071	106.75
544.285	100.75
544.498	106.75
544.712	115.75
544.925	109.75
545.139	109.75
545.352	114.75
545.566	104.75
545.779	105.75
545.993	92.75
546.206	98.75
546.42	106.75
546.633	104.75
546.847	99.75
547.06	91.75
547.274	104.75
547.487	101.75
547.7	99.75
547.914	110.75
548.127	107.75
548.34	94.75
548.554	101.75
548.767	92.75
548.98	95.75
549.193	88.75
549.407	114.75
549.62	92.75
549.833	105.75
550.046	103.75
550.259	97.75
550.473	95.75
550.686	102.75
550.899	90.75
551.112	107.75
551.325	96.75
551.538	106.75
551.751	91.75
551.964	100.75
552.177	99.75
552.39	110.75
552.603	99.75
552.816	86.75
553.029	99.75
553.242	89.75
553.455	104.75
553.667	91.75
553.88	90.75
554.093	104.75
554.306	95.75
554.519	102.75
554.732	89.75
554.944	107.75
555.157	90.75
555.37	94.75
555.583	91.75
555.795	88.75
556.008	101.75
556.221	94.75
556.433	108.75
556.646	87.75
556.859	87.75
557.071	105.75
557.284	89.75
557.496	88.75
557.709	107.75
557.921	107.75
558.134	102.75
558.346	98.75
558.559	81.75
558.771	93.75
558.984	88.75
559.196	100.75
559.409	91.75
559.621	101.75
559.833	97.75
560.046	103.75
560.258	91.75
560.47	104.75
560.683	89.75
560.895	100.75
561.107	104.75
561.32	89.75
561.532	106.75
561.744	96.75
561.956	86.75
562.168	99.75
562.381	96.75
562.593	97.75
562.805	98.75
563.017	84.75
563.229	88.75
563.441	79.75
563.653	90.75
563.865	89.75
564.077	93.75
564.289	97.75
564.501	95.75
564.713	89.75
564.925	100.75
565.137	83.75
565.349	89.75
565.561	107.75
565.773	85.75
565.985	91.75
566.197	84.75
566.408	93.75
566.62	87.75
566.832	101.75
567.044	100.75
567.255	98.75
567.467	94.75
567.679	80.75
567.891	96.75
568.102	81.75
568.314	97.75
568.526	87.75
568.737	96.75
568.949	87.75
569.161	89.75
569.372	95.75
569.584	96.75
569.795	88.75
570.007	77.75
570.218	96.75
570.43	91.75
570.641	98.75
570.853	99.75
571.064	90.75
571.276	76.75
571.487	88.75
571.698	90.75
571.91	101.75
572.121	85.75
572.333	80.75
572.544	70.75
572.755	86.75
572.966	97.75
573.178	97.75
573.389	85.75
573.6	83.75
573.811	75.75
574.023	92.75
574.234	88.75
574.445	89.75
574.656	86.75
574.867	98.75
575.078	88.75
575.289	73.75
575.501	87.75
575.712	90.75
575.923	86.75
576.134	101.75
576.345	84.75
576.556	92.75
576.767	95.75
576.978	81.75
577.188	76.75
577.399	83.75
577.61	88.75
577.821	80.75
578.032	77.75
578.243	79.75
578.454	89.75
578.665	97.75
578.875	91.75
579.086	73.75
579.297	98.75
579.508	82.75
579.718	86.75
579.929	99.75
580.14	88.75
580.35	96.75
580.561	89.75
580.772	78.75
580.982	95.75
581.193	96.75
581.403	98.75
581.614	95.75
581.825	87.75
582.035	84.75
582.246	88.75
582.456	93.75
582.667	85.75
582.877	99.75
583.087	89.75
583.298	82.75
583.508	86.75
583.719	82.75
583.929	84.75
584.139	74.75
584.35	93.75
584.56	89.75
584.77	93.75
584.981	95.75
585.191	81.75
585.401	85.75
585.611	93.75
585.821	78.75
586.032	89.75
586.242	91.75
586.452	94.75
586.662	69.75
586.872	73.75
587.082	77.75
587.292	77.75
587.502	82.75
587.713	93.75
587.923	89.75
588.133	81.75
588.343	78.75
588.553	104.75
588.762	93.75
588.972	89.75
589.182	85.75
589.392	89.75
589.602	83.75
589.812	82.75
590.022	82.75
590.232	76.75
590.441	66.75
590.651	79.75
590.861	103.75
591.071	90.75
591.281	90.75
591.49	99.75
591.7	87.75
591.91	88.75
592.119	73.75
592.329	87.75
592.539	82.75
592.748	82.75
592.958	86.75
593.167	78.75
593.377	80.75
593.587	91.75
593.796	83.75
594.006	97.75
594.215	67.75
594.424	78.75
594.634	80.75
594.843	81.75
595.053	94.75
595.262	87.75
595.472	84.75
595.681	84.75
595.89	87.75
596.1	93.75
596.309	98.75
596.518	75.75
596.727	100.75
596.937	85.75
597.146	95.75
597.355	74.75
597.564	82.75
597.774	78.75
597.983	93.75
598.192	76.75
598.401	87.75
598.61	75.75
598.819	88.75
599.028	80.75
599.237	89.75
599.446	78.75
599.655	95.75
599.864	89.75
600.073	78.75
600.282	86.75
600.491	89.75
600.7	77.75
600.909	80.75
601.118	70.75
601.327	92.75
601.536	80.75
601.745	91.75
601.953	77.75
602.162	90.75
602.371	82.75
602.58	90.75
602.789	95.75
602.997	92.75
603.206	106.75
603.415	82.75
603.623	95.75
603.832	85.75
604.041	102.75
604.249	81.75
604.458	91.75
604.666	82.75
604.875	89.75
605.084	89.75
605.292	83.75
605.501	84.75
605.709	92.75
605.918	86.75
606.126	76.75
606.334	94.75
606.543	103.75
606.751	106.75
606.96	79.75
607.168	97.75
607.376	90.75
607.585	86.75
607.793	103.75
608.001	96.75
608.21	80.75
608.418	94.75
608.626	82.75
608.834	94.75
609.043	85.75
609.251	88.75
609.459	81.75
609.667	84.75
609.875	90.75
610.083	83.75
610.291	92.75
610.499	102.75
610.707	75.75
610.916	75.75
611.124	80.75
611.332	84.75
611.54	108.75
611.748	94.75
611.955	85.75
612.163	90.75
612.371	92.75
612.579	83.75
612.787	90.75
612.995	85.75
613.203	97.75
613.411	89.75
613.618	86.75
613.826	90.75
614.034	76.75
614.242	81.75
614.449	88.75
614.657	88.75
614.865	88.75
615.072	84.75
615.28	92.75
615.488	89.75
615.695	90.75
615.903	83.75
616.111	88.75
616.318	97.75
616.526	76.75
616.733	77.75
616.941	78.75
617.148	99.75
617.356	90.75
617.563	93.75
617.771	87.75
617.978	83.75
618.185	81.75
618.393	82.75
618.6	94.75
618.807	79.75
619.015	96.75
619.222	82.75
619.429	81.75
619.637	89.75
619.844	83.75
620.051	86.75
620.258	82.75
620.466	93.75
620.673	79.75
620.88	73.75
621.087	87.75
621.294	95.75
621.501	86.75
621.708	87.75
621.915	82.75
622.122	85.75
622.329	81.75
622.536	74.75
622.743	83.75
622.95	81.75
623.157	88.75
623.364	88.75
623.571	73.75
623.778	87.75
623.985	86.75
624.192	91.75
624.399	92.75
624.606	83.75
624.812	89.75
625.019	89.75
625.226	83.75
625.433	96.75
625.639	82.75
625.846	76.75
626.053	79.75
626.259	86.75
626.466	93.75
626.673	85.75
626.879	82.75
627.086	93.75
627.293	75.75
627.499	89.75
627.706	97.75
627.912	97.75
628.119	86.75
628.325	81.75
628.532	86.75
628.738	80.75
628.945	85.75
629.151	90.75
629.357	90.75
629.564	76.75
629.77	85.75
629.976	83.75
630.183	88.75
630.389	85.75
630.595	82.75
630.802	83.75
631.008	78.75
631.214	78.75
631.42	86.75
631.627	82.75
631.833	77.75
632.039	91.75
632.245	82.75
632.451	92.75
632.657	83.75
632.863	93.75
633.069	82.75
633.275	81.75
633.481	81.75
633.688	91.75
633.893	84.75
634.099	83.75
634.305	70.75
634.511	81.75
634.717	81.75
634.923	71.75
635.129	84.75
635.335	93.75
635.541	90.75
635.747	79.75
635.952	82.75
636.158	86.75
636.364	74.75
636.57	65.75
636.775	73.75
636.981	90.75
637.187	76.75
637.392	71.75
637.598	82.75
637.804	84.75
638.009	97.75
638.215	85.75
638.421	93.75
638.626	89.75
638.832	97.75
639.037	73.75
639.243	80.75
639.448	86.75
639.654	85.75
639.859	93.75
640.065	74.75
640.27	75.75
640.475	92.75
640.681	84.75
640.886	87.75
641.091	80.75
641.297	96.75
641.502	89.75
641.707	84.75
641.913	81.75
642.118	89.75
642.323	83.75
642.528	82.75
642.733	81.75
642.939	89.75
643.144	85.75
643.349	83.75
643.554	86.75
643.759	93.75
643.964	83.75
644.169	71.75
644.374	74.75
644.579	81.75
644.784	75.75
644.989	100.75
645.194	72.75
645.399	86.75
645.604	77.75
645.809	73.75
646.014	69.75
646.219	81.75
646.423	90.75
646.628	82.75
646.833	81.75
647.038	76.75
647.243	80.75
647.447	93.75
647.652	85.75
647.857	85.75
648.062	93.75
648.266	95.75
648.471	89.75
648.676	87.75
648.88	85.75
649.085	85.75
649.289	81.75
649.494	96.75
649.698	84.75
649.903	83.75
650.107	71.75
650.312	79.75
650.516	89.75
650.721	87.75
650.925	86.75
651.13	89.75
651.334	90.75
651.539	75.75
651.743	86.75
651.947	95.75
652.152	84.75
652.356	82.75
652.56	104.75
652.764	81.75
652.969	75.75
653.173	83.75
653.377	78.75
653.581	79.75
653.785	87.75
653.99	74.75
654.194	73.75
654.398	92.75
654.602	92.75
654.806	79.75
655.01	80.75
655.214	82.75
655.418	90.75
655.622	74.75
655.826	97.75
656.03	69.75
656.234	84.75
656.438	85.75
656.642	69.75
656.846	75.75
657.049	90.75
657.253	71.75
657.457	79.75
657.661	80.75
657.865	77.75
658.068	78.75
658.272	82.75
658.476	81.75
658.68	81.75
658.883	74.75
659.087	73.75
659.291	76.75
659.494	77.75
659.698	78.75
659.901	92.75
660.105	90.75
660.309	86.75
660.512	79.75
660.716	87.75
660.919	78.75
661.123	86.75
661.326	88.75
661.53	74.75
661.733	86.75
661.936	81.75
662.14	80.75
662.343	81.75
662.546	80.75
662.75	81.75
662.953	80.75
663.156	85.75
663.36	75.75
663.563	74.75
663.766	80.75
663.969	67.75
664.173	73.75
664.376	78.75
664.579	90.75
664.782	81.75
664.985	76.75
665.188	83.75
665.391	79.75
665.594	81.75
665.797	84.75
666	78.75
666.203	81.75
666.406	70.75
666.609	77.75
666.812	79.75
667.015	79.75
667.218	71.75
667.421	74.75
667.624	75.75
667.827	84.75
668.03	81.75
668.232	82.75
668.435	79.75
668.638	83.75
668.841	82.75
669.043	71.75
669.246	95.75
669.449	74.75
669.651	93.75
669.854	90.75
670.057	83.75
670.259	76.75
670.462	75.75
670.665	70.75
670.867	86.75
671.07	87.75
671.272	77.75
671.475	77.75
671.677	80.75
671.88	76.75
672.082	75.75
672.284	84.75
672.487	90.75
672.689	82.75
672.892	90.75
