Data from NiCl2@0.0625M.TitratingCurve.Agarose3%dH2O.NegLispCup.LampEnergy10.LIBS07252019_HRD10591_18-33-02-576.txt Node
Date: Thu Jul 25 18:33:02 EDT 2019
User: cochatt
Spectrometer: HR+D1059
Trigger mode: 1
Integration Time (sec): 1.000000E-1
Scans to average: 1
Electric dark correction enabled: true
Nonlinearity correction enabled: false
Boxcar width: 0
XAxis mode: Wavelengths
Number of Pixels in Spectrum: 2048
>>>>>Begin Spectral Data<<<<<
223.165	-16.56
223.4	-16.56
223.635	-16.56
223.869	-17.56
224.104	-4.56
224.338	-24.56
224.573	-14.56
224.808	-12.56
225.042	-2.56
225.277	-20.56
225.511	9.44
225.746	0.44
225.98	8.44
226.215	21.44
226.449	10.44
226.683	29.44
226.918	13.44
227.152	20.44
227.387	34.44
227.621	45.44
227.856	33.44
228.09	44.44
228.324	47.44
228.559	69.44
228.793	81.44
229.027	151.44
229.262	159.44
229.496	154.44
229.73	169.44
229.964	178.44
230.199	190.44
230.433	193.44
230.667	190.44
230.901	195.44
231.136	185.44
231.37	198.44
231.604	215.44
231.838	224.44
232.072	218.44
232.306	206.44
232.541	209.44
232.775	207.44
233.009	227.44
233.243	210.44
233.477	218.44
233.711	231.44
233.945	213.44
234.179	227.44
234.413	215.44
234.647	237.44
234.881	218.44
235.115	216.44
235.349	227.44
235.583	243.44
235.817	228.44
236.051	229.44
236.285	242.44
236.519	249.44
236.753	250.44
236.987	257.44
237.221	236.44
237.455	244.44
237.689	247.44
237.922	260.44
238.156	249.44
238.39	272.44
238.624	268.44
238.858	278.44
239.091	262.44
239.325	268.44
239.559	282.44
239.793	286.44
240.027	289.44
240.26	272.44
240.494	292.44
240.728	293.44
240.961	289.44
241.195	293.44
241.429	309.44
241.662	301.44
241.896	313.44
242.13	315.44
242.363	319.44
242.597	310.44
242.83	323.44
243.064	317.44
243.298	329.44
243.531	327.44
243.765	328.44
243.998	329.44
244.232	340.44
244.465	345.44
244.699	365.44
244.932	349.44
245.166	350.44
245.399	379.44
245.633	380.44
245.866	366.44
246.099	353.44
246.333	359.44
246.566	367.44
246.8	370.44
247.033	373.44
247.266	376.44
247.5	367.44
247.733	393.44
247.966	399.44
248.2	423.44
248.433	395.44
248.666	421.44
248.899	402.44
249.133	402.44
249.366	414.44
249.599	429.44
249.832	414.44
250.066	426.44
250.299	427.44
250.532	437.44
250.765	441.44
250.998	429.44
251.231	458.44
251.465	453.44
251.698	439.44
251.931	448.44
252.164	477.44
252.397	441.44
252.63	469.44
252.863	477.44
253.096	493.44
253.329	492.44
253.562	467.44
253.795	484.44
254.028	481.44
254.261	488.44
254.494	475.44
254.727	477.44
254.96	477.44
255.193	494.44
255.426	498.44
255.659	471.44
255.892	514.44
256.124	498.44
256.357	496.44
256.59	524.44
256.823	514.44
257.056	500.44
257.289	527.44
257.521	519.44
257.754	546.44
257.987	513.44
258.22	522.44
258.452	558.44
258.685	511.44
258.918	535.44
259.151	542.44
259.383	545.44
259.616	561.44
259.849	537.44
260.081	540.44
260.314	550.44
260.547	566.44
260.779	559.44
261.012	582.44
261.244	556.44
261.477	571.44
261.71	585.44
261.942	573.44
262.175	582.44
262.407	573.44
262.64	567.44
262.872	580.44
263.105	594.44
263.337	586.44
263.57	615.44
263.802	599.44
264.035	605.44
264.267	606.44
264.499	606.44
264.732	626.44
264.964	634.44
265.197	629.44
265.429	636.44
265.661	617.44
265.894	620.44
266.126	632.44
266.358	625.44
266.591	622.44
266.823	639.44
267.055	641.44
267.287	641.44
267.52	661.44
267.752	653.44
267.984	640.44
268.216	651.44
268.448	657.44
268.681	661.44
268.913	664.44
269.145	667.44
269.377	658.44
269.609	672.44
269.841	665.44
270.073	671.44
270.306	677.44
270.538	654.44
270.77	681.44
271.002	692.44
271.234	694.44
271.466	697.44
271.698	694.44
271.93	703.44
272.162	710.44
272.394	715.44
272.626	741.44
272.858	685.44
273.09	709.44
273.322	717.44
273.553	685.44
273.785	722.44
274.017	732.44
274.249	741.44
274.481	748.44
274.713	740.44
274.945	737.44
275.176	769.44
275.408	725.44
275.64	764.44
275.872	762.44
276.104	759.44
276.335	771.44
276.567	766.44
276.799	787.44
277.031	784.44
277.262	803.44
277.494	798.44
277.726	787.44
277.957	793.44
278.189	800.44
278.421	794.44
278.652	788.44
278.884	791.44
279.115	809.44
279.347	790.44
279.579	796.44
279.81	809.44
280.042	789.44
280.273	814.44
280.505	843.44
280.736	831.44
280.968	844.44
281.199	845.44
281.431	841.44
281.662	854.44
281.894	863.44
282.125	849.44
282.356	858.44
282.588	849.44
282.819	830.44
283.051	856.44
283.282	861.44
283.513	866.44
283.745	873.44
283.976	878.44
284.207	874.44
284.439	867.44
284.67	886.44
284.901	927.44
285.132	902.44
285.364	888.44
285.595	879.44
285.826	886.44
286.057	887.44
286.288	901.44
286.52	907.44
286.751	928.44
286.982	919.44
287.213	933.44
287.444	925.44
287.675	929.44
287.906	900.44
288.138	942.44
288.369	944.44
288.6	940.44
288.831	955.44
289.062	915.44
289.293	929.44
289.524	937.44
289.755	947.44
289.986	951.44
290.217	923.44
290.448	955.44
290.679	964.44
290.91	947.44
291.141	946.44
291.371	959.44
291.602	955.44
291.833	951.44
292.064	971.44
292.295	972.44
292.526	974.44
292.757	968.44
292.987	969.44
293.218	933.44
293.449	960.44
293.68	956.44
293.91	940.44
294.141	959.44
294.372	984.44
294.603	969.44
294.833	980.44
295.064	993.44
295.295	962.44
295.525	971.44
295.756	982.44
295.987	981.44
296.217	1021.44
296.448	1002.44
296.679	993.44
296.909	1013.44
297.14	1054.44
297.37	1031.44
297.601	1036.44
297.831	1024.44
298.062	1037.44
298.292	1014.44
298.523	1027.44
298.753	1035.44
298.984	1056.44
299.214	1066.44
299.445	1067.44
299.675	1003.44
299.905	1043.44
300.136	1030.44
300.366	1044.44
300.597	1054.44
300.827	1070.44
301.057	1086.44
301.288	1073.44
301.518	1092.44
301.748	1073.44
301.979	1091.44
302.209	1084.44
302.439	1121.44
302.669	1092.44
302.9	1100.44
303.13	1067.44
303.36	1085.44
303.59	1097.44
303.82	1064.44
304.051	1097.44
304.281	1097.44
304.511	1079.44
304.741	1094.44
304.971	1101.44
305.201	1118.44
305.431	1107.44
305.661	1078.44
305.891	1081.44
306.121	1055.44
306.352	1106.44
306.582	1076.44
306.812	1078.44
307.042	1101.44
307.272	1083.44
307.502	1109.44
307.731	1077.44
307.961	1077.44
308.191	1082.44
308.421	1052.44
308.651	1110.44
308.881	1065.44
309.111	1060.44
309.341	1055.44
309.571	1082.44
309.8	1099.44
310.03	1094.44
310.26	1110.44
310.49	1087.44
310.72	1097.44
310.949	1086.44
311.179	1112.44
311.409	1094.44
311.639	1121.44
311.868	1115.44
312.098	1119.44
312.328	1151.44
312.557	1165.44
312.787	1155.44
313.017	1146.44
313.246	1159.44
313.476	1131.44
313.706	1159.44
313.935	1163.44
314.165	1176.44
314.394	1178.44
314.624	1157.44
314.853	1175.44
315.083	1176.44
315.312	1195.44
315.542	1183.44
315.771	1181.44
316.001	1149.44
316.23	1163.44
316.46	1185.44
316.689	1151.44
316.919	1150.44
317.148	1160.44
317.377	1189.44
317.607	1175.44
317.836	1121.44
318.065	1139.44
318.295	1165.44
318.524	1175.44
318.753	1167.44
318.983	1173.44
319.212	1171.44
319.441	1165.44
319.67	1177.44
319.9	1155.44
320.129	1143.44
320.358	1141.44
320.587	1157.44
320.816	1199.44
321.046	1178.44
321.275	1156.44
321.504	1182.44
321.733	1149.44
321.962	1162.44
322.191	1214.44
322.42	1195.44
322.649	1179.44
322.878	1197.44
323.108	1190.44
323.337	1223.44
323.566	1189.44
323.795	1182.44
324.024	1210.44
324.253	1199.44
324.482	1217.44
324.71	1221.44
324.939	1195.44
325.168	1212.44
325.397	1225.44
325.626	1205.44
325.855	1235.44
326.084	1270.44
326.313	1255.44
326.542	1263.44
326.77	1256.44
326.999	1257.44
327.228	1266.44
327.457	1250.44
327.686	1269.44
327.914	1270.44
328.143	1265.44
328.372	1274.44
328.6	1266.44
328.829	1266.44
329.058	1281.44
329.287	1252.44
329.515	1292.44
329.744	1293.44
329.972	1325.44
330.201	1283.44
330.43	1278.44
330.658	1274.44
330.887	1318.44
331.115	1322.44
331.344	1364.44
331.572	1345.44
331.801	1366.44
332.03	1366.44
332.258	1397.44
332.486	1469.44
332.715	1482.44
332.943	1498.44
333.172	1540.44
333.4	1556.44
333.629	1656.44
333.857	1672.44
334.085	1640.44
334.314	1621.44
334.542	1590.44
334.771	1597.44
334.999	1579.44
335.227	1577.44
335.455	1564.44
335.684	1592.44
335.912	1566.44
336.14	1545.44
336.369	1542.44
336.597	1493.44
336.825	1510.44
337.053	1507.44
337.281	1501.44
337.51	1477.44
337.738	1491.44
337.966	1442.44
338.194	1434.44
338.422	1391.44
338.65	1395.44
338.878	1370.44
339.106	1399.44
339.334	1435.44
339.562	1386.44
339.79	1360.44
340.018	1344.44
340.246	1316.44
340.474	1354.44
340.702	1318.44
340.93	1340.44
341.158	1329.44
341.386	1331.44
341.614	1363.44
341.842	1333.44
342.07	1317.44
342.298	1321.44
342.526	1300.44
342.754	1324.44
342.981	1342.44
343.209	1378.44
343.437	1391.44
343.665	1487.44
343.893	1552.44
344.12	1567.44
344.348	1534.44
344.576	1475.44
344.804	1457.44
345.031	1381.44
345.259	1375.44
345.487	1357.44
345.714	1315.44
345.942	1336.44
346.17	1323.44
346.397	1308.44
346.625	1276.44
346.853	1290.44
347.08	1291.44
347.308	1293.44
347.535	1259.44
347.763	1295.44
347.99	1272.44
348.218	1283.44
348.445	1263.44
348.673	1239.44
348.9	1260.44
349.128	1266.44
349.355	1248.44
349.583	1243.44
349.81	1227.44
350.037	1222.44
350.265	1279.44
350.492	1229.44
350.72	1220.44
350.947	1254.44
351.174	1243.44
351.402	1249.44
351.629	1225.44
351.856	1261.44
352.083	1195.44
352.311	1230.44
352.538	1221.44
352.765	1253.44
352.992	1234.44
353.22	1214.44
353.447	1231.44
353.674	1223.44
353.901	1242.44
354.128	1209.44
354.355	1192.44
354.583	1222.44
354.81	1260.44
355.037	1226.44
355.264	1223.44
355.491	1231.44
355.718	1222.44
355.945	1209.44
356.172	1227.44
356.399	1229.44
356.626	1228.44
356.853	1250.44
357.08	1234.44
357.307	1240.44
357.534	1250.44
357.761	1229.44
357.988	1261.44
358.215	1230.44
358.441	1213.44
358.668	1254.44
358.895	1222.44
359.122	1229.44
359.349	1203.44
359.576	1245.44
359.802	1281.44
360.029	1237.44
360.256	1247.44
360.483	1230.44
360.709	1239.44
360.936	1230.44
361.163	1219.44
361.39	1239.44
361.616	1274.44
361.843	1289.44
362.07	1271.44
362.296	1256.44
362.523	1217.44
362.749	1252.44
362.976	1223.44
363.203	1242.44
363.429	1235.44
363.656	1243.44
363.882	1245.44
364.109	1241.44
364.335	1228.44
364.562	1213.44
364.788	1238.44
365.015	1209.44
365.241	1209.44
365.468	1234.44
365.694	1239.44
365.92	1235.44
366.147	1252.44
366.373	1233.44
366.599	1230.44
366.826	1261.44
367.052	1245.44
367.278	1236.44
367.505	1262.44
367.731	1267.44
367.957	1245.44
368.184	1243.44
368.41	1254.44
368.636	1239.44
368.862	1262.44
369.089	1276.44
369.315	1273.44
369.541	1264.44
369.767	1314.44
369.993	1277.44
370.219	1287.44
370.445	1297.44
370.672	1313.44
370.898	1326.44
371.124	1299.44
371.35	1380.44
371.576	1347.44
371.802	1357.44
372.028	1364.44
372.254	1363.44
372.48	1379.44
372.706	1346.44
372.932	1407.44
373.158	1378.44
373.384	1374.44
373.61	1342.44
373.835	1354.44
374.061	1354.44
374.287	1349.44
374.513	1381.44
374.739	1388.44
374.965	1461.44
375.191	1453.44
375.416	1452.44
375.642	1382.44
375.868	1411.44
376.094	1383.44
376.319	1350.44
376.545	1390.44
376.771	1366.44
376.997	1346.44
377.222	1343.44
377.448	1349.44
377.674	1341.44
377.899	1340.44
378.125	1323.44
378.35	1331.44
378.576	1317.44
378.802	1312.44
379.027	1352.44
379.253	1305.44
379.478	1317.44
379.704	1332.44
379.929	1322.44
380.155	1331.44
380.38	1333.44
380.606	1305.44
380.831	1311.44
381.057	1332.44
381.282	1345.44
381.507	1317.44
381.733	1342.44
381.958	1365.44
382.184	1355.44
382.409	1411.44
382.634	1406.44
382.86	1403.44
383.085	1409.44
383.31	1417.44
383.535	1446.44
383.761	1433.44
383.986	1493.44
384.211	1500.44
384.436	1509.44
384.662	1535.44
384.887	1558.44
385.112	1557.44
385.337	1592.44
385.562	1583.44
385.787	1588.44
386.013	1595.44
386.238	1621.44
386.463	1625.44
386.688	1633.44
386.913	1583.44
387.138	1599.44
387.363	1614.44
387.588	1553.44
387.813	1588.44
388.038	1606.44
388.263	1589.44
388.488	1607.44
388.713	1576.44
388.938	1591.44
389.163	1606.44
389.387	1599.44
389.612	1560.44
389.837	1586.44
390.062	1527.44
390.287	1570.44
390.512	1612.44
390.736	1592.44
390.961	1642.44
391.186	1671.44
391.411	1654.44
391.636	1741.44
391.86	1789.44
392.085	1791.44
392.31	1752.44
392.534	1743.44
392.759	1725.44
392.984	1681.44
393.208	1685.44
393.433	1716.44
393.658	1772.44
393.882	1693.44
394.107	1685.44
394.331	1673.44
394.556	1699.44
394.78	1705.44
395.005	1724.44
395.229	1709.44
395.454	1748.44
395.678	1773.44
395.903	1748.44
396.127	1756.44
396.352	1730.44
396.576	1715.44
396.801	1716.44
397.025	1764.44
397.249	1770.44
397.474	1747.44
397.698	1787.44
397.922	1807.44
398.147	1829.44
398.371	1875.44
398.595	1907.44
398.82	2009.44
399.044	2089.44
399.268	2270.44
399.492	2483.44
399.717	2702.44
399.941	2750.44
400.165	2561.44
400.389	2350.44
400.613	2186.44
400.837	2126.44
401.062	2070.44
401.286	2002.44
401.51	2023.44
401.734	1968.44
401.958	1981.44
402.182	1983.44
402.406	1991.44
402.63	2017.44
402.854	2061.44
403.078	2102.44
403.302	2100.44
403.526	2117.44
403.75	2106.44
403.974	2177.44
404.198	2178.44
404.422	2171.44
404.645	2103.44
404.869	2122.44
405.093	2151.44
405.317	2072.44
405.541	2122.44
405.765	2142.44
405.988	2129.44
406.212	2185.44
406.436	2151.44
406.66	2209.44
406.883	2167.44
407.107	2367.44
407.331	2381.44
407.555	2479.44
407.778	2495.44
408.002	2423.44
408.226	2403.44
408.449	2379.44
408.673	2226.44
408.896	2253.44
409.12	2203.44
409.344	2233.44
409.567	2184.44
409.791	2220.44
410.014	2182.44
410.238	2174.44
410.461	2157.44
410.685	2140.44
410.908	2092.44
411.132	2095.44
411.355	2030.44
411.578	2106.44
411.802	2058.44
412.025	2067.44
412.249	2068.44
412.472	2077.44
412.695	2021.44
412.919	1982.44
413.142	2011.44
413.365	1993.44
413.589	2010.44
413.812	1959.44
414.035	1963.44
414.258	1979.44
414.482	1958.44
414.705	1984.44
414.928	1988.44
415.151	1966.44
415.374	1945.44
415.597	1940.44
415.821	1913.44
416.044	1919.44
416.267	1897.44
416.49	1913.44
416.713	1905.44
416.936	1896.44
417.159	1906.44
417.382	1917.44
417.605	1875.44
417.828	1877.44
418.051	1924.44
418.274	1925.44
418.497	1913.44
418.72	1986.44
418.943	1940.44
419.166	2080.44
419.389	2186.44
419.611	2163.44
419.834	2053.44
420.057	1982.44
420.28	1927.44
420.503	1908.44
420.726	1865.44
420.948	1877.44
421.171	1874.44
421.394	1888.44
421.617	1906.44
421.839	1865.44
422.062	1900.44
422.285	1902.44
422.507	1939.44
422.73	1932.44
422.953	1947.44
423.175	1955.44
423.398	1927.44
423.621	1919.44
423.843	1961.44
424.066	1988.44
424.288	1945.44
424.511	1961.44
424.733	1906.44
424.956	1938.44
425.178	1915.44
425.401	1918.44
425.623	1905.44
425.846	1832.44
426.068	1853.44
426.291	1882.44
426.513	1874.44
426.735	1829.44
426.958	1834.44
427.18	1794.44
427.402	1766.44
427.625	1793.44
427.847	1717.44
428.069	1735.44
428.292	1773.44
428.514	1744.44
428.736	1717.44
428.958	1739.44
429.181	1700.44
429.403	1685.44
429.625	1709.44
429.847	1681.44
430.069	1701.44
430.292	1705.44
430.514	1723.44
430.736	1686.44
430.958	1738.44
431.18	1695.44
431.402	1710.44
431.624	1721.44
431.846	1687.44
432.068	1753.44
432.29	1783.44
432.512	1729.44
432.734	1766.44
432.956	1705.44
433.178	1783.44
433.4	1770.44
433.622	1766.44
433.844	1796.44
434.066	1812.44
434.287	1805.44
434.509	1849.44
434.731	1891.44
434.953	1934.44
435.175	1923.44
435.397	1894.44
435.618	1868.44
435.84	1779.44
436.062	1774.44
436.284	1755.44
436.505	1772.44
436.727	1754.44
436.949	1714.44
437.17	1713.44
437.392	1687.44
437.614	1706.44
437.835	1628.44
438.057	1674.44
438.278	1639.44
438.5	1636.44
438.721	1647.44
438.943	1665.44
439.165	1641.44
439.386	1631.44
439.608	1713.44
439.829	1721.44
440.05	1661.44
440.272	1706.44
440.493	1716.44
440.715	1739.44
440.936	1770.44
441.158	1792.44
441.379	1798.44
441.6	1853.44
441.822	1891.44
442.043	1889.44
442.264	1846.44
442.486	1834.44
442.707	1825.44
442.928	1806.44
443.149	1837.44
443.371	1886.44
443.592	1851.44
443.813	1883.44
444.034	1902.44
444.255	1947.44
444.476	2019.44
444.698	2061.44
444.919	2148.44
445.14	2207.44
445.361	2011.44
445.582	1941.44
445.803	1869.44
446.024	1806.44
446.245	1803.44
446.466	1770.44
446.687	1710.44
446.908	1747.44
447.129	1620.44
447.35	1665.44
447.571	1660.44
447.792	1625.44
448.013	1611.44
448.234	1573.44
448.455	1611.44
448.675	1589.44
448.896	1555.44
449.117	1526.44
449.338	1572.44
449.559	1543.44
449.779	1550.44
450	1542.44
450.221	1523.44
450.442	1514.44
450.662	1524.44
450.883	1537.44
451.104	1552.44
451.324	1558.44
451.545	1558.44
451.766	1547.44
451.986	1579.44
452.207	1534.44
452.428	1540.44
452.648	1504.44
452.869	1521.44
453.089	1490.44
453.31	1499.44
453.53	1473.44
453.751	1475.44
453.971	1470.44
454.192	1492.44
454.412	1494.44
454.633	1445.44
454.853	1477.44
455.073	1464.44
455.294	1448.44
455.514	1442.44
455.734	1429.44
455.955	1387.44
456.175	1445.44
456.395	1444.44
456.616	1475.44
456.836	1451.44
457.056	1432.44
457.276	1428.44
457.497	1457.44
457.717	1468.44
457.937	1514.44
458.157	1526.44
458.377	1489.44
458.598	1543.44
458.818	1536.44
459.038	1575.44
459.258	1638.44
459.478	1721.44
459.698	1776.44
459.918	1794.44
460.138	1812.44
460.358	1884.44
460.578	1891.44
460.798	1927.44
461.018	1931.44
461.238	1951.44
461.458	1935.44
461.678	1900.44
461.898	1961.44
462.118	1962.44
462.338	2049.44
462.558	2104.44
462.777	2166.44
462.997	2350.44
463.217	2433.44
463.437	2469.44
463.657	2318.44
463.876	2261.44
464.096	2286.44
464.316	2205.44
464.536	2218.44
464.755	2148.44
464.975	2068.44
465.195	2015.44
465.414	1943.44
465.634	1823.44
465.854	1778.44
466.073	1749.44
466.293	1652.44
466.512	1697.44
466.732	1661.44
466.951	1629.44
467.171	1649.44
467.391	1658.44
467.61	1622.44
467.829	1625.44
468.049	1610.44
468.268	1549.44
468.488	1571.44
468.707	1535.44
468.927	1547.44
469.146	1579.44
469.365	1612.44
469.585	1567.44
469.804	1604.44
470.023	1705.44
470.243	1633.44
470.462	1665.44
470.681	1653.44
470.901	1695.44
471.12	1611.44
471.339	1656.44
471.558	1594.44
471.777	1590.44
471.997	1615.44
472.216	1597.44
472.435	1585.44
472.654	1552.44
472.873	1550.44
473.092	1564.44
473.311	1558.44
473.53	1562.44
473.749	1565.44
473.968	1569.44
474.187	1539.44
474.406	1537.44
474.625	1571.44
474.844	1575.44
475.063	1525.44
475.282	1578.44
475.501	1569.44
475.72	1610.44
475.939	1605.44
476.158	1622.44
476.377	1649.44
476.596	1623.44
476.814	1682.44
477.033	1652.44
477.252	1719.44
477.471	1719.44
477.69	1755.44
477.908	1759.44
478.127	1794.44
478.346	1841.44
478.564	1894.44
478.783	1909.44
479.002	1936.44
479.22	1955.44
479.439	1949.44
479.658	1927.44
479.876	1966.44
480.095	1969.44
480.313	2038.44
480.532	2076.44
480.751	2085.44
480.969	2019.44
481.188	1970.44
481.406	1927.44
481.624	1917.44
481.843	1925.44
482.061	1884.44
482.28	1907.44
482.498	1895.44
482.717	1889.44
482.935	1871.44
483.153	1899.44
483.372	1885.44
483.59	1880.44
483.808	1961.44
484.027	1955.44
484.245	1998.44
484.463	1934.44
484.681	2033.44
484.9	1983.44
485.118	1994.44
485.336	2020.44
485.554	2021.44
485.772	2069.44
485.99	2065.44
486.209	2066.44
486.427	2071.44
486.645	2045.44
486.863	2071.44
487.081	2040.44
487.299	2026.44
487.517	2012.44
487.735	1980.44
487.953	2045.44
488.171	2056.44
488.389	2012.44
488.607	1959.44
488.825	1938.44
489.043	1946.44
489.261	1974.44
489.479	1966.44
489.696	1976.44
489.914	1939.44
490.132	1989.44
490.35	1971.44
490.568	1969.44
490.786	2000.44
491.003	1976.44
491.221	1984.44
491.439	1968.44
491.657	2005.44
491.874	1964.44
492.092	1977.44
492.31	1980.44
492.527	1948.44
492.745	1990.44
492.963	2003.44
493.18	1986.44
493.398	2010.44
493.615	1969.44
493.833	1991.44
494.05	1985.44
494.268	2008.44
494.485	2020.44
494.703	2005.44
494.92	2011.44
495.138	1991.44
495.355	2012.44
495.573	2026.44
495.79	2013.44
496.008	2076.44
496.225	2126.44
496.442	2063.44
496.66	2094.44
496.877	2144.44
497.094	2153.44
497.312	2181.44
497.529	2197.44
497.746	2285.44
497.963	2310.44
498.181	2391.44
498.398	2501.44
498.615	2621.44
498.832	2749.44
499.049	2955.44
499.267	3137.44
499.484	3465.44
499.701	3722.44
499.918	4023.44
500.135	4367.44
500.352	4773.44
500.569	5006.44
500.786	4935.44
501.003	4711.44
501.22	4355.44
501.437	3926.44
501.654	3565.44
501.871	3340.44
502.088	3075.44
502.305	2951.44
502.522	2803.44
502.739	2643.44
502.956	2542.44
503.172	2476.44
503.389	2394.44
503.606	2342.44
503.823	2245.44
504.04	2277.44
504.256	2245.44
504.473	2245.44
504.69	2241.44
504.907	2214.44
505.123	2121.44
505.34	2016.44
505.557	1950.44
505.773	1934.44
505.99	1867.44
506.207	1804.44
506.423	1797.44
506.64	1755.44
506.856	1769.44
507.073	1773.44
507.289	1726.44
507.506	1736.44
507.722	1696.44
507.939	1718.44
508.155	1659.44
508.372	1639.44
508.588	1621.44
508.805	1653.44
509.021	1633.44
509.238	1616.44
509.454	1588.44
509.67	1587.44
509.887	1577.44
510.103	1606.44
510.319	1591.44
510.536	1570.44
510.752	1540.44
510.968	1557.44
511.184	1527.44
511.401	1592.44
511.617	1560.44
511.833	1531.44
512.049	1519.44
512.265	1549.44
512.481	1566.44
512.698	1544.44
512.914	1535.44
513.13	1537.44
513.346	1540.44
513.562	1550.44
513.778	1582.44
513.994	1544.44
514.21	1524.44
514.426	1573.44
514.642	1580.44
514.858	1593.44
515.074	1605.44
515.29	1630.44
515.506	1654.44
515.721	1644.44
515.937	1679.44
516.153	1676.44
516.369	1703.44
516.585	1786.44
516.801	1831.44
517.016	1851.44
517.232	1921.44
517.448	1981.44
517.664	2029.44
517.879	2008.44
518.095	2026.44
518.311	1996.44
518.527	1893.44
518.742	1849.44
518.958	1816.44
519.173	1795.44
519.389	1751.44
519.605	1687.44
519.82	1635.44
520.036	1626.44
520.251	1574.44
520.467	1567.44
520.682	1557.44
520.898	1536.44
521.113	1506.44
521.329	1506.44
521.544	1478.44
521.76	1477.44
521.975	1470.44
522.19	1477.44
522.406	1486.44
522.621	1438.44
522.836	1439.44
523.052	1435.44
523.267	1410.44
523.482	1421.44
523.698	1419.44
523.913	1414.44
524.128	1379.44
524.343	1425.44
524.559	1406.44
524.774	1401.44
524.989	1419.44
525.204	1394.44
525.419	1387.44
525.634	1373.44
525.849	1379.44
526.064	1406.44
526.28	1379.44
526.495	1371.44
526.71	1361.44
526.925	1366.44
527.14	1371.44
527.355	1348.44
527.57	1349.44
527.785	1354.44
527.999	1358.44
528.214	1389.44
528.429	1368.44
528.644	1361.44
528.859	1367.44
529.074	1352.44
529.289	1350.44
529.503	1366.44
529.718	1380.44
529.933	1372.44
530.148	1350.44
530.363	1352.44
530.577	1335.44
530.792	1330.44
531.007	1337.44
531.221	1376.44
531.436	1325.44
531.651	1358.44
531.865	1389.44
532.08	1340.44
532.295	1398.44
532.509	1351.44
532.724	1351.44
532.938	1359.44
533.153	1372.44
533.367	1356.44
533.582	1325.44
533.796	1343.44
534.011	1309.44
534.225	1341.44
534.44	1320.44
534.654	1319.44
534.868	1299.44
535.083	1352.44
535.297	1288.44
535.511	1306.44
535.726	1323.44
535.94	1293.44
536.154	1304.44
536.369	1254.44
536.583	1253.44
536.797	1249.44
537.011	1260.44
537.225	1265.44
537.44	1254.44
537.654	1268.44
537.868	1230.44
538.082	1248.44
538.296	1258.44
538.51	1220.44
538.724	1228.44
538.938	1212.44
539.153	1234.44
539.367	1198.44
539.581	1213.44
539.795	1197.44
540.009	1201.44
540.222	1213.44
540.436	1189.44
540.65	1215.44
540.864	1182.44
541.078	1177.44
541.292	1196.44
541.506	1182.44
541.72	1200.44
541.934	1179.44
542.147	1209.44
542.361	1194.44
542.575	1171.44
542.789	1194.44
543.002	1184.44
543.216	1167.44
543.43	1201.44
543.644	1191.44
543.857	1205.44
544.071	1177.44
544.285	1179.44
544.498	1206.44
544.712	1181.44
544.925	1221.44
545.139	1212.44
545.352	1254.44
545.566	1191.44
545.779	1198.44
545.993	1244.44
546.206	1215.44
546.42	1206.44
546.633	1181.44
546.847	1219.44
547.06	1201.44
547.274	1198.44
547.487	1198.44
547.7	1197.44
547.914	1204.44
548.127	1230.44
548.34	1210.44
548.554	1216.44
548.767	1211.44
548.98	1201.44
549.193	1216.44
549.407	1212.44
549.62	1227.44
549.833	1252.44
550.046	1233.44
550.259	1221.44
550.473	1174.44
550.686	1193.44
550.899	1203.44
551.112	1180.44
551.325	1162.44
551.538	1204.44
551.751	1187.44
551.964	1167.44
552.177	1230.44
552.39	1213.44
552.603	1272.44
552.816	1264.44
553.029	1278.44
553.242	1292.44
553.455	1288.44
553.667	1309.44
553.88	1272.44
554.093	1246.44
554.306	1208.44
554.519	1211.44
554.732	1214.44
554.944	1176.44
555.157	1144.44
555.37	1175.44
555.583	1152.44
555.795	1089.44
556.008	1070.44
556.221	1065.44
556.433	1044.44
556.646	1070.44
556.859	1080.44
557.071	1031.44
557.284	1057.44
557.496	1036.44
557.709	1052.44
557.921	1034.44
558.134	1025.44
558.346	1045.44
558.559	1026.44
558.771	1044.44
558.984	1016.44
559.196	1004.44
559.409	975.44
559.621	987.44
559.833	988.44
560.046	994.44
560.258	1006.44
560.47	1030.44
560.683	984.44
560.895	984.44
561.107	985.44
561.32	1007.44
561.532	981.44
561.744	992.44
561.956	995.44
562.168	1004.44
562.381	984.44
562.593	995.44
562.805	1008.44
563.017	1021.44
563.229	991.44
563.441	990.44
563.653	997.44
563.865	1027.44
564.077	1051.44
564.289	1068.44
564.501	1071.44
564.713	1082.44
564.925	1060.44
565.137	1068.44
565.349	1135.44
565.561	1168.44
565.773	1214.44
565.985	1235.44
566.197	1296.44
566.408	1350.44
566.62	1477.44
566.832	1531.44
567.044	1575.44
567.255	1513.44
567.467	1598.44
567.679	1637.44
567.891	1724.44
568.102	1701.44
568.314	1619.44
568.526	1533.44
568.737	1439.44
568.949	1318.44
569.161	1259.44
569.372	1208.44
569.584	1148.44
569.795	1123.44
570.007	1069.44
570.218	1030.44
570.43	1025.44
570.641	1057.44
570.853	1029.44
571.064	1039.44
571.276	985.44
571.487	968.44
571.698	963.44
571.91	926.44
572.121	923.44
572.333	878.44
572.544	881.44
572.755	868.44
572.966	865.44
573.178	843.44
573.389	835.44
573.6	827.44
573.811	842.44
574.023	836.44
574.234	817.44
574.445	812.44
574.656	817.44
574.867	818.44
575.078	811.44
575.289	802.44
575.501	799.44
575.712	781.44
575.923	797.44
576.134	771.44
576.345	789.44
576.556	793.44
576.767	759.44
576.978	775.44
577.188	748.44
577.399	748.44
577.61	733.44
577.821	773.44
578.032	734.44
578.243	738.44
578.454	726.44
578.665	719.44
578.875	719.44
579.086	737.44
579.297	712.44
579.508	702.44
579.718	693.44
579.929	695.44
580.14	699.44
580.35	695.44
580.561	695.44
580.772	684.44
580.982	694.44
581.193	679.44
581.403	704.44
581.614	731.44
581.825	699.44
582.035	693.44
582.246	658.44
582.456	686.44
582.667	709.44
582.877	695.44
583.087	678.44
583.298	672.44
583.508	674.44
583.719	674.44
583.929	674.44
584.139	668.44
584.35	661.44
584.56	654.44
584.77	645.44
584.981	654.44
585.191	623.44
585.401	663.44
585.611	684.44
585.821	648.44
586.032	676.44
586.242	646.44
586.452	664.44
586.662	655.44
586.872	669.44
587.082	659.44
587.292	661.44
587.502	629.44
587.713	635.44
587.923	645.44
588.133	633.44
588.343	634.44
588.553	653.44
588.762	636.44
588.972	637.44
589.182	663.44
589.392	677.44
589.602	651.44
589.812	662.44
590.022	646.44
590.232	639.44
590.441	637.44
590.651	641.44
590.861	636.44
591.071	642.44
591.281	661.44
591.49	690.44
591.7	665.44
591.91	695.44
592.119	685.44
592.329	700.44
592.539	698.44
592.748	701.44
592.958	739.44
593.167	743.44
593.377	749.44
593.587	768.44
593.796	773.44
594.006	790.44
594.215	777.44
594.424	778.44
594.634	749.44
594.843	749.44
595.053	719.44
595.262	679.44
595.472	705.44
595.681	681.44
595.89	650.44
596.1	654.44
596.309	636.44
596.518	635.44
596.727	629.44
596.937	578.44
597.146	593.44
597.355	620.44
597.564	584.44
597.774	559.44
597.983	577.44
598.192	571.44
598.401	577.44
598.61	564.44
598.819	541.44
599.028	540.44
599.237	553.44
599.446	561.44
599.655	541.44
599.864	545.44
600.073	540.44
600.282	553.44
600.491	533.44
600.7	533.44
600.909	518.44
601.118	521.44
601.327	526.44
601.536	526.44
601.745	527.44
601.953	542.44
602.162	521.44
602.371	528.44
602.58	499.44
602.789	522.44
602.997	506.44
603.206	518.44
603.415	526.44
603.623	532.44
603.832	513.44
604.041	505.44
604.249	498.44
604.458	477.44
604.666	482.44
604.875	485.44
605.084	501.44
605.292	508.44
605.501	509.44
605.709	489.44
605.918	481.44
606.126	485.44
606.334	485.44
606.543	490.44
606.751	491.44
606.96	472.44
607.168	471.44
607.376	471.44
607.585	497.44
607.793	469.44
608.001	470.44
608.21	456.44
608.418	480.44
608.626	456.44
608.834	471.44
609.043	469.44
609.251	458.44
609.459	461.44
609.667	463.44
609.875	473.44
610.083	469.44
610.291	477.44
610.499	470.44
610.707	467.44
610.916	461.44
611.124	486.44
611.332	462.44
611.54	466.44
611.748	452.44
611.955	463.44
612.163	458.44
612.371	441.44
612.579	442.44
612.787	453.44
612.995	437.44
613.203	467.44
613.411	452.44
613.618	439.44
613.826	430.44
614.034	451.44
614.242	447.44
614.449	437.44
614.657	420.44
614.865	429.44
615.072	443.44
615.28	441.44
615.488	431.44
615.695	449.44
615.903	438.44
616.111	433.44
616.318	465.44
616.526	431.44
616.733	446.44
616.941	447.44
617.148	450.44
617.356	453.44
617.563	447.44
617.771	456.44
617.978	438.44
618.185	449.44
618.393	428.44
618.6	443.44
618.807	461.44
619.015	428.44
619.222	412.44
619.429	431.44
619.637	428.44
619.844	406.44
620.051	427.44
620.258	411.44
620.466	392.44
620.673	405.44
620.88	403.44
621.087	415.44
621.294	414.44
621.501	413.44
621.708	410.44
621.915	426.44
622.122	413.44
622.329	406.44
622.536	421.44
622.743	399.44
622.95	401.44
623.157	393.44
623.364	413.44
623.571	400.44
623.778	412.44
623.985	385.44
624.192	376.44
624.399	385.44
624.606	383.44
624.812	376.44
625.019	383.44
625.226	395.44
625.433	376.44
625.639	366.44
625.846	371.44
626.053	364.44
626.259	390.44
626.466	367.44
626.673	367.44
626.879	357.44
627.086	363.44
627.293	374.44
627.499	395.44
627.706	379.44
627.912	376.44
628.119	368.44
628.325	356.44
628.532	356.44
628.738	377.44
628.945	371.44
629.151	363.44
629.357	357.44
629.564	356.44
629.77	346.44
629.976	363.44
630.183	355.44
630.389	335.44
630.595	342.44
630.802	346.44
631.008	347.44
631.214	364.44
631.42	343.44
631.627	351.44
631.833	344.44
632.039	334.44
632.245	333.44
632.451	351.44
632.657	345.44
632.863	341.44
633.069	346.44
633.275	356.44
633.481	333.44
633.688	308.44
633.893	306.44
634.099	317.44
634.305	349.44
634.511	338.44
634.717	315.44
634.923	348.44
635.129	331.44
635.335	326.44
635.541	317.44
635.747	323.44
635.952	317.44
636.158	317.44
636.364	309.44
636.57	323.44
636.775	306.44
636.981	317.44
637.187	307.44
637.392	306.44
637.598	312.44
637.804	308.44
638.009	327.44
638.215	322.44
638.421	314.44
638.626	307.44
638.832	312.44
639.037	296.44
639.243	309.44
639.448	302.44
639.654	307.44
639.859	315.44
640.065	300.44
640.27	300.44
640.475	285.44
640.681	311.44
640.886	298.44
641.091	319.44
641.297	308.44
641.502	306.44
641.707	289.44
641.913	290.44
642.118	297.44
642.323	294.44
642.528	317.44
642.733	294.44
642.939	288.44
643.144	307.44
643.349	292.44
643.554	299.44
643.759	311.44
643.964	293.44
644.169	301.44
644.374	314.44
644.579	305.44
644.784	287.44
644.989	297.44
645.194	292.44
645.399	295.44
645.604	273.44
645.809	293.44
646.014	289.44
646.219	295.44
646.423	302.44
646.628	326.44
646.833	297.44
647.038	312.44
647.243	324.44
647.447	302.44
647.652	301.44
647.857	316.44
648.062	309.44
648.266	333.44
648.471	334.44
648.676	325.44
648.88	315.44
649.085	317.44
649.289	322.44
649.494	306.44
649.698	311.44
649.903	333.44
650.107	304.44
650.312	310.44
650.516	303.44
650.721	295.44
650.925	317.44
651.13	299.44
651.334	309.44
651.539	289.44
651.743	296.44
651.947	292.44
652.152	295.44
652.356	299.44
652.56	275.44
652.764	305.44
652.969	286.44
653.173	276.44
653.377	289.44
653.581	286.44
653.785	292.44
653.99	264.44
654.194	305.44
654.398	297.44
654.602	295.44
654.806	294.44
655.01	293.44
655.214	305.44
655.418	298.44
655.622	335.44
655.826	343.44
656.03	343.44
656.234	378.44
656.438	378.44
656.642	384.44
656.846	383.44
657.049	358.44
657.253	312.44
657.457	263.44
657.661	267.44
657.865	253.44
658.068	214.44
658.272	217.44
658.476	185.44
658.68	186.44
658.883	177.44
659.087	181.44
659.291	151.44
659.494	145.44
659.698	144.44
659.901	147.44
660.105	135.44
660.309	126.44
660.512	117.44
660.716	115.44
660.919	115.44
661.123	122.44
661.326	97.44
661.53	108.44
661.733	97.44
661.936	101.44
662.14	103.44
662.343	100.44
662.546	105.44
662.75	91.44
662.953	92.44
663.156	86.44
663.36	102.44
663.563	74.44
663.766	102.44
663.969	103.44
664.173	94.44
664.376	83.44
664.579	80.44
664.782	93.44
664.985	91.44
665.188	88.44
665.391	87.44
665.594	88.44
665.797	89.44
666	85.44
666.203	99.44
666.406	80.44
666.609	87.44
666.812	83.44
667.015	86.44
667.218	91.44
667.421	83.44
667.624	76.44
667.827	97.44
668.03	83.44
668.232	65.44
668.435	91.44
668.638	85.44
668.841	82.44
669.043	75.44
669.246	69.44
669.449	70.44
669.651	81.44
669.854	83.44
670.057	71.44
670.259	86.44
670.462	94.44
670.665	84.44
670.867	86.44
671.07	95.44
671.272	74.44
671.475	56.44
671.677	79.44
671.88	83.44
672.082	71.44
672.284	79.44
672.487	73.44
672.689	80.44
672.892	70.44
