Data from NiCl2@0.25M.TitratingCurve.Agarose3%dH2O.NegLispCup.LampEnergy10.LIBS07252019_HRD10591_18-25-27-573.txt Node
Date: Thu Jul 25 18:25:27 EDT 2019
User: cochatt
Spectrometer: HR+D1059
Trigger mode: 1
Integration Time (sec): 1.000000E-1
Scans to average: 1
Electric dark correction enabled: true
Nonlinearity correction enabled: false
Boxcar width: 0
XAxis mode: Wavelengths
Number of Pixels in Spectrum: 2048
>>>>>Begin Spectral Data<<<<<
223.165	-18.5
223.4	-18.5
223.635	-18.5
223.869	-15.5
224.104	-19.5
224.338	-12.5
224.573	-8.5
224.808	-13.5
225.042	-10.5
225.277	-5.5
225.511	-12.5
225.746	6.5
225.98	1.5
226.215	13.5
226.449	14.5
226.683	24.5
226.918	17.5
227.152	38.5
227.387	23.5
227.621	38.5
227.856	38.5
228.09	45.5
228.324	54.5
228.559	47.5
228.793	75.5
229.027	112.5
229.262	127.5
229.496	127.5
229.73	148.5
229.964	151.5
230.199	157.5
230.433	158.5
230.667	162.5
230.901	169.5
231.136	166.5
231.37	146.5
231.604	181.5
231.838	167.5
232.072	190.5
232.306	184.5
232.541	167.5
232.775	163.5
233.009	187.5
233.243	180.5
233.477	173.5
233.711	180.5
233.945	183.5
234.179	187.5
234.413	186.5
234.647	195.5
234.881	198.5
235.115	196.5
235.349	175.5
235.583	181.5
235.817	193.5
236.051	190.5
236.285	199.5
236.519	184.5
236.753	208.5
236.987	197.5
237.221	191.5
237.455	203.5
237.689	218.5
237.922	218.5
238.156	216.5
238.39	214.5
238.624	206.5
238.858	224.5
239.091	205.5
239.325	227.5
239.559	227.5
239.793	234.5
240.027	220.5
240.26	236.5
240.494	235.5
240.728	227.5
240.961	251.5
241.195	239.5
241.429	244.5
241.662	238.5
241.896	255.5
242.13	255.5
242.363	237.5
242.597	254.5
242.83	270.5
243.064	254.5
243.298	270.5
243.531	268.5
243.765	259.5
243.998	269.5
244.232	279.5
244.465	272.5
244.699	269.5
244.932	287.5
245.166	281.5
245.399	293.5
245.633	284.5
245.866	269.5
246.099	277.5
246.333	294.5
246.566	291.5
246.8	313.5
247.033	301.5
247.266	317.5
247.5	320.5
247.733	311.5
247.966	312.5
248.2	321.5
248.433	317.5
248.666	328.5
248.899	315.5
249.133	308.5
249.366	327.5
249.599	330.5
249.832	335.5
250.066	337.5
250.299	305.5
250.532	337.5
250.765	342.5
250.998	349.5
251.231	354.5
251.465	353.5
251.698	344.5
251.931	354.5
252.164	361.5
252.397	371.5
252.63	366.5
252.863	367.5
253.096	357.5
253.329	394.5
253.562	372.5
253.795	373.5
254.028	382.5
254.261	389.5
254.494	375.5
254.727	383.5
254.96	367.5
255.193	376.5
255.426	374.5
255.659	410.5
255.892	394.5
256.124	391.5
256.357	392.5
256.59	394.5
256.823	399.5
257.056	396.5
257.289	417.5
257.521	414.5
257.754	422.5
257.987	433.5
258.22	399.5
258.452	396.5
258.685	397.5
258.918	410.5
259.151	425.5
259.383	416.5
259.616	416.5
259.849	434.5
260.081	424.5
260.314	439.5
260.547	415.5
260.779	441.5
261.012	435.5
261.244	455.5
261.477	455.5
261.71	453.5
261.942	440.5
262.175	446.5
262.407	459.5
262.64	472.5
262.872	496.5
263.105	451.5
263.337	461.5
263.57	464.5
263.802	452.5
264.035	479.5
264.267	475.5
264.499	471.5
264.732	507.5
264.964	512.5
265.197	509.5
265.429	474.5
265.661	484.5
265.894	476.5
266.126	488.5
266.358	473.5
266.591	469.5
266.823	492.5
267.055	482.5
267.287	491.5
267.52	511.5
267.752	497.5
267.984	501.5
268.216	524.5
268.448	530.5
268.681	528.5
268.913	513.5
269.145	528.5
269.377	509.5
269.609	529.5
269.841	515.5
270.073	551.5
270.306	537.5
270.538	529.5
270.77	536.5
271.002	545.5
271.234	513.5
271.466	539.5
271.698	550.5
271.93	548.5
272.162	541.5
272.394	534.5
272.626	555.5
272.858	559.5
273.09	547.5
273.322	522.5
273.553	550.5
273.785	572.5
274.017	577.5
274.249	604.5
274.481	581.5
274.713	544.5
274.945	569.5
275.176	588.5
275.408	580.5
275.64	561.5
275.872	592.5
276.104	581.5
276.335	597.5
276.567	596.5
276.799	592.5
277.031	581.5
277.262	587.5
277.494	588.5
277.726	612.5
277.957	610.5
278.189	611.5
278.421	610.5
278.652	624.5
278.884	620.5
279.115	629.5
279.347	617.5
279.579	631.5
279.81	638.5
280.042	634.5
280.273	653.5
280.505	638.5
280.736	661.5
280.968	651.5
281.199	645.5
281.431	645.5
281.662	680.5
281.894	641.5
282.125	663.5
282.356	673.5
282.588	669.5
282.819	652.5
283.051	665.5
283.282	678.5
283.513	682.5
283.745	677.5
283.976	663.5
284.207	694.5
284.439	676.5
284.67	687.5
284.901	682.5
285.132	704.5
285.364	697.5
285.595	687.5
285.826	680.5
286.057	721.5
286.288	714.5
286.52	730.5
286.751	706.5
286.982	715.5
287.213	711.5
287.444	711.5
287.675	719.5
287.906	714.5
288.138	720.5
288.369	734.5
288.6	749.5
288.831	715.5
289.062	731.5
289.293	743.5
289.524	742.5
289.755	728.5
289.986	714.5
290.217	736.5
290.448	734.5
290.679	737.5
290.91	758.5
291.141	732.5
291.371	744.5
291.602	753.5
291.833	768.5
292.064	730.5
292.295	745.5
292.526	757.5
292.757	744.5
292.987	760.5
293.218	752.5
293.449	771.5
293.68	756.5
293.91	745.5
294.141	763.5
294.372	749.5
294.603	738.5
294.833	737.5
295.064	790.5
295.295	757.5
295.525	787.5
295.756	775.5
295.987	770.5
296.217	779.5
296.448	789.5
296.679	771.5
296.909	798.5
297.14	778.5
297.37	793.5
297.601	808.5
297.831	785.5
298.062	815.5
298.292	843.5
298.523	853.5
298.753	838.5
298.984	815.5
299.214	816.5
299.445	811.5
299.675	798.5
299.905	814.5
300.136	824.5
300.366	837.5
300.597	830.5
300.827	830.5
301.057	835.5
301.288	869.5
301.518	864.5
301.748	847.5
301.979	863.5
302.209	880.5
302.439	855.5
302.669	857.5
302.9	850.5
303.13	840.5
303.36	869.5
303.59	821.5
303.82	844.5
304.051	846.5
304.281	858.5
304.511	854.5
304.741	855.5
304.971	857.5
305.201	864.5
305.431	829.5
305.661	847.5
305.891	851.5
306.121	857.5
306.352	835.5
306.582	848.5
306.812	821.5
307.042	859.5
307.272	821.5
307.502	820.5
307.731	840.5
307.961	825.5
308.191	802.5
308.421	807.5
308.651	858.5
308.881	834.5
309.111	850.5
309.341	871.5
309.571	850.5
309.8	828.5
310.03	857.5
310.26	829.5
310.49	837.5
310.72	851.5
310.949	853.5
311.179	828.5
311.409	845.5
311.639	859.5
311.868	881.5
312.098	865.5
312.328	884.5
312.557	875.5
312.787	884.5
313.017	873.5
313.246	897.5
313.476	886.5
313.706	896.5
313.935	857.5
314.165	901.5
314.394	890.5
314.624	929.5
314.853	902.5
315.083	925.5
315.312	916.5
315.542	895.5
315.771	895.5
316.001	873.5
316.23	890.5
316.46	879.5
316.689	883.5
316.919	885.5
317.148	892.5
317.377	914.5
317.607	870.5
317.836	881.5
318.065	869.5
318.295	867.5
318.524	913.5
318.753	874.5
318.983	863.5
319.212	863.5
319.441	870.5
319.67	856.5
319.9	883.5
320.129	879.5
320.358	881.5
320.587	880.5
320.816	871.5
321.046	913.5
321.275	915.5
321.504	868.5
321.733	893.5
321.962	873.5
322.191	893.5
322.42	905.5
322.649	918.5
322.878	918.5
323.108	897.5
323.337	896.5
323.566	918.5
323.795	906.5
324.024	890.5
324.253	887.5
324.482	913.5
324.71	933.5
324.939	903.5
325.168	941.5
325.397	952.5
325.626	953.5
325.855	931.5
326.084	961.5
326.313	970.5
326.542	964.5
326.77	994.5
326.999	954.5
327.228	943.5
327.457	959.5
327.686	980.5
327.914	950.5
328.143	944.5
328.372	980.5
328.6	972.5
328.829	961.5
329.058	955.5
329.287	946.5
329.515	983.5
329.744	977.5
329.972	987.5
330.201	990.5
330.43	994.5
330.658	1002.5
330.887	1009.5
331.115	1000.5
331.344	1029.5
331.572	1010.5
331.801	1039.5
332.03	1052.5
332.258	1090.5
332.486	1143.5
332.715	1146.5
332.943	1167.5
333.172	1213.5
333.4	1287.5
333.629	1317.5
333.857	1346.5
334.085	1336.5
334.314	1315.5
334.542	1289.5
334.771	1279.5
334.999	1238.5
335.227	1258.5
335.455	1268.5
335.684	1234.5
335.912	1249.5
336.14	1192.5
336.369	1180.5
336.597	1206.5
336.825	1183.5
337.053	1169.5
337.281	1169.5
337.51	1118.5
337.738	1095.5
337.966	1088.5
338.194	1079.5
338.422	1065.5
338.65	1047.5
338.878	1064.5
339.106	1013.5
339.334	1059.5
339.562	1052.5
339.79	1025.5
340.018	999.5
340.246	1008.5
340.474	990.5
340.702	1010.5
340.93	1013.5
341.158	1028.5
341.386	1012.5
341.614	1067.5
341.842	1001.5
342.07	962.5
342.298	1002.5
342.526	995.5
342.754	1034.5
342.981	993.5
343.209	1041.5
343.437	1104.5
343.665	1139.5
343.893	1219.5
344.12	1280.5
344.348	1215.5
344.576	1167.5
344.804	1106.5
345.031	1065.5
345.259	1054.5
345.487	1011.5
345.714	1002.5
345.942	983.5
346.17	1000.5
346.397	997.5
346.625	977.5
346.853	1002.5
347.08	978.5
347.308	957.5
347.535	965.5
347.763	1021.5
347.99	973.5
348.218	964.5
348.445	933.5
348.673	978.5
348.9	962.5
349.128	964.5
349.355	953.5
349.583	933.5
349.81	947.5
350.037	932.5
350.265	946.5
350.492	972.5
350.72	943.5
350.947	933.5
351.174	929.5
351.402	951.5
351.629	945.5
351.856	930.5
352.083	934.5
352.311	953.5
352.538	930.5
352.765	936.5
352.992	931.5
353.22	901.5
353.447	916.5
353.674	932.5
353.901	882.5
354.128	926.5
354.355	919.5
354.583	932.5
354.81	915.5
355.037	938.5
355.264	943.5
355.491	927.5
355.718	927.5
355.945	951.5
356.172	917.5
356.399	935.5
356.626	933.5
356.853	949.5
357.08	938.5
357.307	951.5
357.534	928.5
357.761	957.5
357.988	937.5
358.215	938.5
358.441	921.5
358.668	928.5
358.895	925.5
359.122	930.5
359.349	942.5
359.576	928.5
359.802	914.5
360.029	951.5
360.256	956.5
360.483	945.5
360.709	954.5
360.936	954.5
361.163	946.5
361.39	928.5
361.616	978.5
361.843	957.5
362.07	937.5
362.296	950.5
362.523	952.5
362.749	949.5
362.976	917.5
363.203	941.5
363.429	947.5
363.656	921.5
363.882	942.5
364.109	927.5
364.335	913.5
364.562	927.5
364.788	919.5
365.015	947.5
365.241	920.5
365.468	920.5
365.694	941.5
365.92	929.5
366.147	898.5
366.373	897.5
366.599	922.5
366.826	949.5
367.052	927.5
367.278	915.5
367.505	905.5
367.731	952.5
367.957	911.5
368.184	941.5
368.41	948.5
368.636	934.5
368.862	917.5
369.089	972.5
369.315	964.5
369.541	941.5
369.767	974.5
369.993	962.5
370.219	950.5
370.445	966.5
370.672	985.5
370.898	963.5
371.124	990.5
371.35	1028.5
371.576	1015.5
371.802	1025.5
372.028	1011.5
372.254	1021.5
372.48	1021.5
372.706	1040.5
372.932	1058.5
373.158	1076.5
373.384	1014.5
373.61	1037.5
373.835	1030.5
374.061	1023.5
374.287	1046.5
374.513	1035.5
374.739	1070.5
374.965	1103.5
375.191	1123.5
375.416	1151.5
375.642	1104.5
375.868	1082.5
376.094	1055.5
376.319	1069.5
376.545	1026.5
376.771	1031.5
376.997	1039.5
377.222	1036.5
377.448	1044.5
377.674	1034.5
377.899	1033.5
378.125	1052.5
378.35	1051.5
378.576	1012.5
378.802	1013.5
379.027	996.5
379.253	1034.5
379.478	1000.5
379.704	986.5
379.929	1032.5
380.155	1015.5
380.38	1017.5
380.606	1016.5
380.831	990.5
381.057	1035.5
381.282	1012.5
381.507	1014.5
381.733	1020.5
381.958	1039.5
382.184	1056.5
382.409	1036.5
382.634	1083.5
382.86	1069.5
383.085	1074.5
383.31	1099.5
383.535	1074.5
383.761	1136.5
383.986	1160.5
384.211	1151.5
384.436	1176.5
384.662	1193.5
384.887	1225.5
385.112	1231.5
385.337	1231.5
385.562	1250.5
385.787	1218.5
386.013	1245.5
386.238	1242.5
386.463	1254.5
386.688	1235.5
386.913	1231.5
387.138	1234.5
387.363	1231.5
387.588	1252.5
387.813	1224.5
388.038	1201.5
388.263	1229.5
388.488	1280.5
388.713	1233.5
388.938	1221.5
389.163	1209.5
389.387	1221.5
389.612	1211.5
389.837	1184.5
390.062	1218.5
390.287	1185.5
390.512	1209.5
390.736	1229.5
390.961	1239.5
391.186	1241.5
391.411	1291.5
391.636	1362.5
391.86	1378.5
392.085	1411.5
392.31	1413.5
392.534	1350.5
392.759	1341.5
392.984	1339.5
393.208	1342.5
393.433	1299.5
393.658	1304.5
393.882	1344.5
394.107	1316.5
394.331	1313.5
394.556	1319.5
394.78	1323.5
395.005	1335.5
395.229	1346.5
395.454	1366.5
395.678	1419.5
395.903	1407.5
396.127	1363.5
396.352	1349.5
396.576	1330.5
396.801	1321.5
397.025	1379.5
397.249	1357.5
397.474	1397.5
397.698	1393.5
397.922	1429.5
398.147	1429.5
398.371	1461.5
398.595	1484.5
398.82	1571.5
399.044	1669.5
399.268	1844.5
399.492	2065.5
399.717	2375.5
399.941	2408.5
400.165	2165.5
400.389	1954.5
400.613	1814.5
400.837	1683.5
401.062	1612.5
401.286	1621.5
401.51	1603.5
401.734	1611.5
401.958	1573.5
402.182	1578.5
402.406	1633.5
402.63	1657.5
402.854	1658.5
403.078	1687.5
403.302	1727.5
403.526	1771.5
403.75	1779.5
403.974	1776.5
404.198	1788.5
404.422	1791.5
404.645	1765.5
404.869	1775.5
405.093	1757.5
405.317	1749.5
405.541	1746.5
405.765	1759.5
405.988	1737.5
406.212	1730.5
406.436	1685.5
406.66	1745.5
406.883	1782.5
407.107	1895.5
407.331	1984.5
407.555	2007.5
407.778	2063.5
408.002	1990.5
408.226	1967.5
408.449	1894.5
408.673	1825.5
408.896	1805.5
409.12	1709.5
409.344	1783.5
409.567	1739.5
409.791	1783.5
410.014	1764.5
410.238	1745.5
410.461	1719.5
410.685	1722.5
410.908	1659.5
411.132	1704.5
411.355	1662.5
411.578	1647.5
411.802	1622.5
412.025	1635.5
412.249	1673.5
412.472	1645.5
412.695	1597.5
412.919	1607.5
413.142	1600.5
413.365	1573.5
413.589	1603.5
413.812	1575.5
414.035	1549.5
414.258	1591.5
414.482	1565.5
414.705	1554.5
414.928	1589.5
415.151	1579.5
415.374	1603.5
415.597	1539.5
415.821	1523.5
416.044	1512.5
416.267	1492.5
416.49	1517.5
416.713	1512.5
416.936	1559.5
417.159	1556.5
417.382	1511.5
417.605	1475.5
417.828	1467.5
418.051	1500.5
418.274	1541.5
418.497	1545.5
418.72	1572.5
418.943	1585.5
419.166	1681.5
419.389	1821.5
419.611	1777.5
419.834	1657.5
420.057	1603.5
420.28	1586.5
420.503	1543.5
420.726	1512.5
420.948	1474.5
421.171	1519.5
421.394	1523.5
421.617	1506.5
421.839	1569.5
422.062	1561.5
422.285	1515.5
422.507	1571.5
422.73	1568.5
422.953	1573.5
423.175	1620.5
423.398	1622.5
423.621	1578.5
423.843	1594.5
424.066	1619.5
424.288	1593.5
424.511	1599.5
424.733	1587.5
424.956	1581.5
425.178	1553.5
425.401	1534.5
425.623	1541.5
425.846	1510.5
426.068	1503.5
426.291	1487.5
426.513	1443.5
426.735	1405.5
426.958	1442.5
427.18	1391.5
427.402	1392.5
427.625	1383.5
427.847	1389.5
428.069	1343.5
428.292	1379.5
428.514	1369.5
428.736	1368.5
428.958	1350.5
429.181	1322.5
429.403	1349.5
429.625	1303.5
429.847	1333.5
430.069	1307.5
430.292	1337.5
430.514	1277.5
430.736	1348.5
430.958	1311.5
431.18	1315.5
431.402	1329.5
431.624	1358.5
431.846	1378.5
432.068	1402.5
432.29	1405.5
432.512	1373.5
432.734	1382.5
432.956	1355.5
433.178	1341.5
433.4	1337.5
433.622	1353.5
433.844	1389.5
434.066	1373.5
434.287	1395.5
434.509	1430.5
434.731	1506.5
434.953	1507.5
435.175	1545.5
435.397	1494.5
435.618	1448.5
435.84	1404.5
436.062	1369.5
436.284	1355.5
436.505	1362.5
436.727	1366.5
436.949	1329.5
437.17	1335.5
437.392	1350.5
437.614	1310.5
437.835	1304.5
438.057	1335.5
438.278	1292.5
438.5	1287.5
438.721	1306.5
438.943	1315.5
439.165	1301.5
439.386	1315.5
439.608	1302.5
439.829	1359.5
440.05	1350.5
440.272	1336.5
440.493	1367.5
440.715	1367.5
440.936	1412.5
441.158	1411.5
441.379	1478.5
441.6	1512.5
441.822	1506.5
442.043	1555.5
442.264	1498.5
442.486	1473.5
442.707	1486.5
442.928	1471.5
443.149	1467.5
443.371	1450.5
443.592	1470.5
443.813	1498.5
444.034	1507.5
444.255	1589.5
444.476	1658.5
444.698	1743.5
444.919	1814.5
445.14	1859.5
445.361	1718.5
445.582	1555.5
445.803	1491.5
446.024	1441.5
446.245	1385.5
446.466	1423.5
446.687	1345.5
446.908	1398.5
447.129	1329.5
447.35	1305.5
447.571	1304.5
447.792	1276.5
448.013	1267.5
448.234	1215.5
448.455	1227.5
448.675	1221.5
448.896	1227.5
449.117	1194.5
449.338	1218.5
449.559	1181.5
449.779	1218.5
450	1222.5
450.221	1229.5
450.442	1213.5
450.662	1222.5
450.883	1215.5
451.104	1232.5
451.324	1222.5
451.545	1280.5
451.766	1238.5
451.986	1265.5
452.207	1215.5
452.428	1232.5
452.648	1218.5
452.869	1194.5
453.089	1206.5
453.31	1243.5
453.53	1197.5
453.751	1195.5
453.971	1165.5
454.192	1171.5
454.412	1173.5
454.633	1183.5
454.853	1153.5
455.073	1177.5
455.294	1157.5
455.514	1136.5
455.734	1145.5
455.955	1108.5
456.175	1131.5
456.395	1104.5
456.616	1133.5
456.836	1149.5
457.056	1151.5
457.276	1128.5
457.497	1183.5
457.717	1147.5
457.937	1151.5
458.157	1201.5
458.377	1194.5
458.598	1199.5
458.818	1257.5
459.038	1292.5
459.258	1332.5
459.478	1366.5
459.698	1415.5
459.918	1438.5
460.138	1499.5
460.358	1549.5
460.578	1615.5
460.798	1610.5
461.018	1615.5
461.238	1604.5
461.458	1583.5
461.678	1592.5
461.898	1655.5
462.118	1610.5
462.338	1749.5
462.558	1755.5
462.777	1877.5
462.997	1934.5
463.217	2109.5
463.437	2116.5
463.657	1981.5
463.876	1912.5
464.096	1924.5
464.316	1867.5
464.536	1872.5
464.755	1814.5
464.975	1761.5
465.195	1689.5
465.414	1574.5
465.634	1459.5
465.854	1407.5
466.073	1398.5
466.293	1346.5
466.512	1310.5
466.732	1291.5
466.951	1307.5
467.171	1271.5
467.391	1307.5
467.61	1284.5
467.829	1263.5
468.049	1239.5
468.268	1232.5
468.488	1228.5
468.707	1246.5
468.927	1237.5
469.146	1242.5
469.365	1276.5
469.585	1265.5
469.804	1286.5
470.023	1295.5
470.243	1328.5
470.462	1324.5
470.681	1325.5
470.901	1353.5
471.12	1360.5
471.339	1315.5
471.558	1313.5
471.777	1269.5
471.997	1236.5
472.216	1246.5
472.435	1222.5
472.654	1200.5
472.873	1216.5
473.092	1241.5
473.311	1218.5
473.53	1226.5
473.749	1190.5
473.968	1175.5
474.187	1201.5
474.406	1177.5
474.625	1218.5
474.844	1188.5
475.063	1211.5
475.282	1218.5
475.501	1226.5
475.72	1196.5
475.939	1213.5
476.158	1264.5
476.377	1251.5
476.596	1227.5
476.814	1280.5
477.033	1309.5
477.252	1297.5
477.471	1329.5
477.69	1351.5
477.908	1398.5
478.127	1443.5
478.346	1430.5
478.564	1475.5
478.783	1501.5
479.002	1539.5
479.22	1525.5
479.439	1516.5
479.658	1522.5
479.876	1530.5
480.095	1572.5
480.313	1610.5
480.532	1621.5
480.751	1624.5
480.969	1571.5
481.188	1506.5
481.406	1461.5
481.624	1434.5
481.843	1420.5
482.061	1413.5
482.28	1427.5
482.498	1402.5
482.717	1387.5
482.935	1432.5
483.153	1394.5
483.372	1353.5
483.59	1395.5
483.808	1404.5
484.027	1383.5
484.245	1415.5
484.463	1377.5
484.681	1446.5
484.9	1420.5
485.118	1445.5
485.336	1430.5
485.554	1414.5
485.772	1440.5
485.99	1461.5
486.209	1481.5
486.427	1471.5
486.645	1494.5
486.863	1475.5
487.081	1440.5
487.299	1439.5
487.517	1432.5
487.735	1444.5
487.953	1459.5
488.171	1451.5
488.389	1465.5
488.607	1431.5
488.825	1431.5
489.043	1432.5
489.261	1400.5
489.479	1440.5
489.696	1426.5
489.914	1431.5
490.132	1448.5
490.35	1462.5
490.568	1453.5
490.786	1475.5
491.003	1472.5
491.221	1486.5
491.439	1463.5
491.657	1460.5
491.874	1480.5
492.092	1462.5
492.31	1474.5
492.527	1528.5
492.745	1490.5
492.963	1454.5
493.18	1519.5
493.398	1483.5
493.615	1510.5
493.833	1515.5
494.05	1551.5
494.268	1558.5
494.485	1569.5
494.703	1553.5
494.92	1582.5
495.138	1547.5
495.355	1568.5
495.573	1546.5
495.79	1587.5
496.008	1559.5
496.225	1614.5
496.442	1610.5
496.66	1610.5
496.877	1654.5
497.094	1669.5
497.312	1694.5
497.529	1735.5
497.746	1801.5
497.963	1896.5
498.181	1904.5
498.398	2073.5
498.615	2170.5
498.832	2305.5
499.049	2463.5
499.267	2722.5
499.484	2961.5
499.701	3259.5
499.918	3547.5
500.135	4069.5
500.352	4482.5
500.569	4660.5
500.786	4608.5
501.003	4305.5
501.22	3947.5
501.437	3609.5
501.654	3230.5
501.871	2915.5
502.088	2617.5
502.305	2433.5
502.522	2324.5
502.739	2227.5
502.956	2088.5
503.172	2015.5
503.389	1935.5
503.606	1881.5
503.823	1788.5
504.04	1868.5
504.256	1819.5
504.473	1845.5
504.69	1879.5
504.907	1879.5
505.123	1742.5
505.34	1636.5
505.557	1581.5
505.773	1554.5
505.99	1505.5
506.207	1461.5
506.423	1451.5
506.64	1427.5
506.856	1415.5
507.073	1393.5
507.289	1410.5
507.506	1370.5
507.722	1354.5
507.939	1327.5
508.155	1330.5
508.372	1319.5
508.588	1326.5
508.805	1282.5
509.021	1282.5
509.238	1282.5
509.454	1262.5
509.67	1266.5
509.887	1283.5
510.103	1279.5
510.319	1226.5
510.536	1222.5
510.752	1242.5
510.968	1250.5
511.184	1226.5
511.401	1238.5
511.617	1247.5
511.833	1234.5
512.049	1226.5
512.265	1241.5
512.481	1248.5
512.698	1243.5
512.914	1236.5
513.13	1245.5
513.346	1231.5
513.562	1211.5
513.778	1240.5
513.994	1253.5
514.21	1273.5
514.426	1261.5
514.642	1252.5
514.858	1301.5
515.074	1260.5
515.29	1290.5
515.506	1320.5
515.721	1342.5
515.937	1366.5
516.153	1370.5
516.369	1408.5
516.585	1449.5
516.801	1526.5
517.016	1563.5
517.232	1646.5
517.448	1669.5
517.664	1737.5
517.879	1779.5
518.095	1786.5
518.311	1753.5
518.527	1651.5
518.742	1623.5
518.958	1523.5
519.173	1472.5
519.389	1444.5
519.605	1389.5
519.82	1334.5
520.036	1325.5
520.251	1269.5
520.467	1263.5
520.682	1280.5
520.898	1232.5
521.113	1231.5
521.329	1236.5
521.544	1238.5
521.76	1210.5
521.975	1209.5
522.19	1158.5
522.406	1178.5
522.621	1165.5
522.836	1160.5
523.052	1173.5
523.267	1167.5
523.482	1154.5
523.698	1168.5
523.913	1146.5
524.128	1147.5
524.343	1158.5
524.559	1138.5
524.774	1119.5
524.989	1131.5
525.204	1122.5
525.419	1138.5
525.634	1130.5
525.849	1138.5
526.064	1147.5
526.28	1118.5
526.495	1125.5
526.71	1111.5
526.925	1129.5
527.14	1059.5
527.355	1106.5
527.57	1098.5
527.785	1101.5
527.999	1118.5
528.214	1097.5
528.429	1106.5
528.644	1102.5
528.859	1122.5
529.074	1093.5
529.289	1106.5
529.503	1103.5
529.718	1122.5
529.933	1099.5
530.148	1114.5
530.363	1104.5
530.577	1112.5
530.792	1106.5
531.007	1090.5
531.221	1092.5
531.436	1091.5
531.651	1092.5
531.865	1103.5
532.08	1116.5
532.295	1106.5
532.509	1106.5
532.724	1086.5
532.938	1097.5
533.153	1108.5
533.367	1103.5
533.582	1133.5
533.796	1098.5
534.011	1121.5
534.225	1075.5
534.44	1101.5
534.654	1096.5
534.868	1079.5
535.083	1083.5
535.297	1057.5
535.511	1101.5
535.726	1034.5
535.94	1051.5
536.154	1053.5
536.369	1054.5
536.583	1053.5
536.797	1034.5
537.011	1016.5
537.225	1019.5
537.44	994.5
537.654	1013.5
537.868	975.5
538.082	997.5
538.296	999.5
538.51	1001.5
538.724	992.5
538.938	1009.5
539.153	988.5
539.367	1003.5
539.581	982.5
539.795	989.5
540.009	1011.5
540.222	985.5
540.436	984.5
540.65	991.5
540.864	985.5
541.078	976.5
541.292	984.5
541.506	1002.5
541.72	967.5
541.934	1003.5
542.147	994.5
542.361	1015.5
542.575	956.5
542.789	967.5
543.002	970.5
543.216	967.5
543.43	931.5
543.644	939.5
543.857	955.5
544.071	959.5
544.285	991.5
544.498	965.5
544.712	965.5
544.925	1018.5
545.139	978.5
545.352	971.5
545.566	1017.5
545.779	1011.5
545.993	1023.5
546.206	1023.5
546.42	998.5
546.633	990.5
546.847	987.5
547.06	1031.5
547.274	1043.5
547.487	1032.5
547.7	1025.5
547.914	996.5
548.127	1019.5
548.34	1032.5
548.554	1006.5
548.767	1007.5
548.98	1014.5
549.193	1045.5
549.407	1043.5
549.62	1044.5
549.833	1062.5
550.046	1053.5
550.259	1007.5
550.473	994.5
550.686	1017.5
550.899	981.5
551.112	1009.5
551.325	986.5
551.538	987.5
551.751	982.5
551.964	1016.5
552.177	1026.5
552.39	1002.5
552.603	1053.5
552.816	1081.5
553.029	1075.5
553.242	1092.5
553.455	1119.5
553.667	1106.5
553.88	1086.5
554.093	1065.5
554.306	1025.5
554.519	1041.5
554.732	991.5
554.944	998.5
555.157	975.5
555.37	954.5
555.583	948.5
555.795	925.5
556.008	911.5
556.221	880.5
556.433	897.5
556.646	907.5
556.859	861.5
557.071	884.5
557.284	869.5
557.496	830.5
557.709	851.5
557.921	855.5
558.134	821.5
558.346	846.5
558.559	849.5
558.771	845.5
558.984	839.5
559.196	822.5
559.409	810.5
559.621	843.5
559.833	837.5
560.046	821.5
560.258	806.5
560.47	798.5
560.683	802.5
560.895	800.5
561.107	797.5
561.32	825.5
561.532	820.5
561.744	799.5
561.956	821.5
562.168	825.5
562.381	842.5
562.593	832.5
562.805	830.5
563.017	832.5
563.229	830.5
563.441	868.5
563.653	851.5
563.865	850.5
564.077	847.5
564.289	868.5
564.501	882.5
564.713	887.5
564.925	903.5
565.137	927.5
565.349	935.5
565.561	992.5
565.773	1000.5
565.985	1074.5
566.197	1090.5
566.408	1163.5
566.62	1267.5
566.832	1351.5
567.044	1402.5
567.255	1411.5
567.467	1455.5
567.679	1507.5
567.891	1580.5
568.102	1609.5
568.314	1522.5
568.526	1381.5
568.737	1283.5
568.949	1192.5
569.161	1067.5
569.372	1017.5
569.584	985.5
569.795	918.5
570.007	906.5
570.218	885.5
570.43	862.5
570.641	866.5
570.853	884.5
571.064	881.5
571.276	864.5
571.487	857.5
571.698	833.5
571.91	775.5
572.121	754.5
572.333	752.5
572.544	707.5
572.755	725.5
572.966	715.5
573.178	707.5
573.389	714.5
573.6	694.5
573.811	700.5
574.023	692.5
574.234	675.5
574.445	687.5
574.656	673.5
574.867	675.5
575.078	666.5
575.289	677.5
575.501	668.5
575.712	647.5
575.923	625.5
576.134	623.5
576.345	642.5
576.556	637.5
576.767	623.5
576.978	640.5
577.188	647.5
577.399	617.5
577.61	617.5
577.821	627.5
578.032	611.5
578.243	597.5
578.454	619.5
578.665	601.5
578.875	614.5
579.086	601.5
579.297	597.5
579.508	597.5
579.718	608.5
579.929	577.5
580.14	559.5
580.35	578.5
580.561	578.5
580.772	586.5
580.982	554.5
581.193	569.5
581.403	584.5
581.614	562.5
581.825	565.5
582.035	593.5
582.246	570.5
582.456	554.5
582.667	576.5
582.877	573.5
583.087	548.5
583.298	571.5
583.508	561.5
583.719	558.5
583.929	569.5
584.139	555.5
584.35	540.5
584.56	547.5
584.77	524.5
584.981	556.5
585.191	534.5
585.401	537.5
585.611	529.5
585.821	539.5
586.032	529.5
586.242	534.5
586.452	523.5
586.662	529.5
586.872	526.5
587.082	543.5
587.292	536.5
587.502	511.5
587.713	502.5
587.923	537.5
588.133	527.5
588.343	550.5
588.553	536.5
588.762	531.5
588.972	526.5
589.182	580.5
589.392	563.5
589.602	521.5
589.812	545.5
590.022	527.5
590.232	538.5
590.441	549.5
590.651	573.5
590.861	542.5
591.071	555.5
591.281	566.5
591.49	574.5
591.7	576.5
591.91	583.5
592.119	577.5
592.329	603.5
592.539	616.5
592.748	610.5
592.958	651.5
593.167	665.5
593.377	677.5
593.587	672.5
593.796	697.5
594.006	709.5
594.215	706.5
594.424	680.5
594.634	683.5
594.843	660.5
595.053	639.5
595.262	632.5
595.472	613.5
595.681	565.5
595.89	567.5
596.1	546.5
596.309	517.5
596.518	533.5
596.727	515.5
596.937	498.5
597.146	521.5
597.355	499.5
597.564	499.5
597.774	459.5
597.983	482.5
598.192	470.5
598.401	481.5
598.61	471.5
598.819	474.5
599.028	451.5
599.237	445.5
599.446	447.5
599.655	455.5
599.864	454.5
600.073	432.5
600.282	431.5
600.491	442.5
600.7	442.5
600.909	449.5
601.118	477.5
601.327	446.5
601.536	429.5
601.745	424.5
601.953	429.5
602.162	422.5
602.371	435.5
602.58	420.5
602.789	440.5
602.997	424.5
603.206	426.5
603.415	411.5
603.623	419.5
603.832	421.5
604.041	403.5
604.249	399.5
604.458	415.5
604.666	396.5
604.875	381.5
605.084	399.5
605.292	400.5
605.501	403.5
605.709	404.5
605.918	393.5
606.126	423.5
606.334	387.5
606.543	389.5
606.751	403.5
606.96	399.5
607.168	410.5
607.376	421.5
607.585	407.5
607.793	398.5
608.001	362.5
608.21	375.5
608.418	377.5
608.626	404.5
608.834	391.5
609.043	380.5
609.251	382.5
609.459	378.5
609.667	397.5
609.875	385.5
610.083	388.5
610.291	385.5
610.499	373.5
610.707	388.5
610.916	383.5
611.124	399.5
611.332	381.5
611.54	389.5
611.748	384.5
611.955	383.5
612.163	386.5
612.371	368.5
612.579	361.5
612.787	386.5
612.995	385.5
613.203	381.5
613.411	390.5
613.618	362.5
613.826	366.5
614.034	381.5
614.242	367.5
614.449	395.5
614.657	368.5
614.865	361.5
615.072	378.5
615.28	361.5
615.488	371.5
615.695	365.5
615.903	370.5
616.111	372.5
616.318	356.5
616.526	376.5
616.733	357.5
616.941	354.5
617.148	377.5
617.356	371.5
617.563	380.5
617.771	385.5
617.978	379.5
618.185	388.5
618.393	360.5
618.6	367.5
618.807	370.5
619.015	357.5
619.222	353.5
619.429	343.5
619.637	375.5
619.844	365.5
620.051	357.5
620.258	340.5
620.466	336.5
620.673	347.5
620.88	345.5
621.087	325.5
621.294	350.5
621.501	334.5
621.708	356.5
621.915	336.5
622.122	351.5
622.329	349.5
622.536	336.5
622.743	343.5
622.95	337.5
623.157	331.5
623.364	330.5
623.571	341.5
623.778	333.5
623.985	320.5
624.192	310.5
624.399	309.5
624.606	327.5
624.812	319.5
625.019	325.5
625.226	322.5
625.433	321.5
625.639	320.5
625.846	317.5
626.053	338.5
626.259	309.5
626.466	326.5
626.673	294.5
626.879	297.5
627.086	311.5
627.293	328.5
627.499	321.5
627.706	315.5
627.912	289.5
628.119	305.5
628.325	287.5
628.532	305.5
628.738	282.5
628.945	307.5
629.151	301.5
629.357	311.5
629.564	296.5
629.77	298.5
629.976	290.5
630.183	300.5
630.389	288.5
630.595	296.5
630.802	289.5
631.008	286.5
631.214	299.5
631.42	299.5
631.627	312.5
631.833	299.5
632.039	290.5
632.245	285.5
632.451	273.5
632.657	270.5
632.863	264.5
633.069	271.5
633.275	300.5
633.481	271.5
633.688	273.5
633.893	289.5
634.099	279.5
634.305	265.5
634.511	288.5
634.717	285.5
634.923	272.5
635.129	254.5
635.335	256.5
635.541	257.5
635.747	259.5
635.952	251.5
636.158	268.5
636.364	272.5
636.57	262.5
636.775	267.5
636.981	277.5
637.187	261.5
637.392	253.5
637.598	259.5
637.804	261.5
638.009	249.5
638.215	266.5
638.421	267.5
638.626	266.5
638.832	253.5
639.037	251.5
639.243	253.5
639.448	245.5
639.654	247.5
639.859	251.5
640.065	240.5
640.27	239.5
640.475	243.5
640.681	240.5
640.886	243.5
641.091	222.5
641.297	233.5
641.502	233.5
641.707	242.5
641.913	232.5
642.118	253.5
642.323	242.5
642.528	239.5
642.733	235.5
642.939	229.5
643.144	237.5
643.349	224.5
643.554	240.5
643.759	239.5
643.964	227.5
644.169	255.5
644.374	228.5
644.579	229.5
644.784	225.5
644.989	218.5
645.194	242.5
645.399	238.5
645.604	226.5
645.809	217.5
646.014	219.5
646.219	240.5
646.423	226.5
646.628	226.5
646.833	227.5
647.038	213.5
647.243	221.5
647.447	243.5
647.652	241.5
647.857	240.5
648.062	272.5
648.266	246.5
648.471	231.5
648.676	257.5
648.88	237.5
649.085	231.5
649.289	242.5
649.494	219.5
649.698	227.5
649.903	241.5
650.107	206.5
650.312	234.5
650.516	218.5
650.721	210.5
650.925	202.5
651.13	217.5
651.334	196.5
651.539	208.5
651.743	202.5
651.947	203.5
652.152	181.5
652.356	187.5
652.56	194.5
652.764	184.5
652.969	190.5
653.173	200.5
653.377	181.5
653.581	191.5
653.785	170.5
653.99	181.5
654.194	173.5
654.398	175.5
654.602	163.5
654.806	175.5
655.01	158.5
655.214	170.5
655.418	154.5
655.622	164.5
655.826	153.5
656.03	161.5
656.234	171.5
656.438	159.5
656.642	141.5
656.846	166.5
657.049	163.5
657.253	144.5
657.457	151.5
657.661	137.5
657.865	139.5
658.068	129.5
658.272	122.5
658.476	124.5
658.68	121.5
658.883	113.5
659.087	124.5
659.291	116.5
659.494	102.5
659.698	113.5
659.901	104.5
660.105	105.5
660.309	99.5
660.512	95.5
660.716	97.5
660.919	92.5
661.123	97.5
661.326	94.5
661.53	102.5
661.733	101.5
661.936	94.5
662.14	77.5
662.343	89.5
662.546	76.5
662.75	89.5
662.953	72.5
663.156	96.5
663.36	79.5
663.563	82.5
663.766	90.5
663.969	87.5
664.173	87.5
664.376	77.5
664.579	77.5
664.782	84.5
664.985	82.5
665.188	67.5
665.391	88.5
665.594	76.5
665.797	82.5
666	77.5
666.203	79.5
666.406	80.5
666.609	77.5
666.812	81.5
667.015	75.5
667.218	74.5
667.421	72.5
667.624	84.5
667.827	81.5
668.03	86.5
668.232	79.5
668.435	82.5
668.638	86.5
668.841	89.5
669.043	89.5
669.246	87.5
669.449	88.5
669.651	81.5
669.854	81.5
670.057	85.5
670.259	70.5
670.462	85.5
670.665	81.5
670.867	74.5
671.07	82.5
671.272	85.5
671.475	84.5
671.677	71.5
671.88	76.5
672.082	89.5
672.284	102.5
672.487	88.5
672.689	82.5
672.892	84.5
