Data from NiCl2@0.125M.TitratingCurve.Agarose3%dH2O.NegLispCup.LampEnergy10.LIBS07252019_HRD10591_18-29-02-576.txt Node
Date: Thu Jul 25 18:29:02 EDT 2019
User: cochatt
Spectrometer: HR+D1059
Trigger mode: 1
Integration Time (sec): 1.000000E-1
Scans to average: 1
Electric dark correction enabled: true
Nonlinearity correction enabled: false
Boxcar width: 0
XAxis mode: Wavelengths
Number of Pixels in Spectrum: 2048
>>>>>Begin Spectral Data<<<<<
223.165	-5.12
223.4	-5.12
223.635	-5.12
223.869	-24.12
224.104	-28.12
224.338	-11.12
224.573	1.88
224.808	-15.12
225.042	-1.12
225.277	-7.12
225.511	-2.12
225.746	0.88
225.98	2.88
226.215	14.88
226.449	12.88
226.683	6.88
226.918	30.88
227.152	22.88
227.387	19.88
227.621	41.88
227.856	43.88
228.09	42.88
228.324	39.88
228.559	51.88
228.793	72.88
229.027	95.88
229.262	102.88
229.496	112.88
229.73	111.88
229.964	136.88
230.199	139.88
230.433	120.88
230.667	144.88
230.901	124.88
231.136	130.88
231.37	138.88
231.604	122.88
231.838	134.88
232.072	132.88
232.306	139.88
232.541	138.88
232.775	149.88
233.009	153.88
233.243	128.88
233.477	146.88
233.711	128.88
233.945	153.88
234.179	162.88
234.413	160.88
234.647	165.88
234.881	157.88
235.115	146.88
235.349	141.88
235.583	145.88
235.817	154.88
236.051	150.88
236.285	163.88
236.519	161.88
236.753	149.88
236.987	155.88
237.221	154.88
237.455	157.88
237.689	159.88
237.922	148.88
238.156	134.88
238.39	162.88
238.624	166.88
238.858	181.88
239.091	161.88
239.325	170.88
239.559	175.88
239.793	172.88
240.027	178.88
240.26	175.88
240.494	190.88
240.728	189.88
240.961	168.88
241.195	178.88
241.429	160.88
241.662	180.88
241.896	196.88
242.13	188.88
242.363	191.88
242.597	192.88
242.83	206.88
243.064	198.88
243.298	195.88
243.531	204.88
243.765	190.88
243.998	211.88
244.232	203.88
244.465	204.88
244.699	217.88
244.932	226.88
245.166	209.88
245.399	231.88
245.633	202.88
245.866	222.88
246.099	225.88
246.333	232.88
246.566	221.88
246.8	222.88
247.033	227.88
247.266	216.88
247.5	216.88
247.733	249.88
247.966	244.88
248.2	242.88
248.433	239.88
248.666	241.88
248.899	252.88
249.133	237.88
249.366	257.88
249.599	247.88
249.832	244.88
250.066	245.88
250.299	253.88
250.532	244.88
250.765	270.88
250.998	253.88
251.231	273.88
251.465	255.88
251.698	262.88
251.931	269.88
252.164	255.88
252.397	267.88
252.63	289.88
252.863	254.88
253.096	267.88
253.329	275.88
253.562	284.88
253.795	295.88
254.028	271.88
254.261	274.88
254.494	294.88
254.727	290.88
254.96	286.88
255.193	257.88
255.426	292.88
255.659	289.88
255.892	291.88
256.124	288.88
256.357	280.88
256.59	285.88
256.823	295.88
257.056	295.88
257.289	308.88
257.521	314.88
257.754	305.88
257.987	289.88
258.22	303.88
258.452	279.88
258.685	314.88
258.918	295.88
259.151	295.88
259.383	308.88
259.616	314.88
259.849	302.88
260.081	301.88
260.314	320.88
260.547	330.88
260.779	311.88
261.012	321.88
261.244	325.88
261.477	310.88
261.71	310.88
261.942	340.88
262.175	309.88
262.407	318.88
262.64	325.88
262.872	326.88
263.105	344.88
263.337	332.88
263.57	329.88
263.802	331.88
264.035	340.88
264.267	332.88
264.499	355.88
264.732	325.88
264.964	349.88
265.197	328.88
265.429	341.88
265.661	331.88
265.894	338.88
266.126	368.88
266.358	355.88
266.591	347.88
266.823	360.88
267.055	341.88
267.287	367.88
267.52	369.88
267.752	359.88
267.984	346.88
268.216	364.88
268.448	374.88
268.681	353.88
268.913	367.88
269.145	358.88
269.377	354.88
269.609	369.88
269.841	367.88
270.073	375.88
270.306	374.88
270.538	369.88
270.77	387.88
271.002	389.88
271.234	383.88
271.466	386.88
271.698	394.88
271.93	383.88
272.162	376.88
272.394	377.88
272.626	384.88
272.858	377.88
273.09	374.88
273.322	381.88
273.553	404.88
273.785	419.88
274.017	407.88
274.249	413.88
274.481	420.88
274.713	402.88
274.945	407.88
275.176	421.88
275.408	413.88
275.64	393.88
275.872	389.88
276.104	401.88
276.335	395.88
276.567	393.88
276.799	407.88
277.031	419.88
277.262	433.88
277.494	409.88
277.726	410.88
277.957	423.88
278.189	418.88
278.421	417.88
278.652	433.88
278.884	419.88
279.115	424.88
279.347	417.88
279.579	457.88
279.81	413.88
280.042	431.88
280.273	441.88
280.505	442.88
280.736	433.88
280.968	451.88
281.199	426.88
281.431	433.88
281.662	456.88
281.894	447.88
282.125	450.88
282.356	469.88
282.588	464.88
282.819	472.88
283.051	453.88
283.282	459.88
283.513	459.88
283.745	473.88
283.976	473.88
284.207	465.88
284.439	481.88
284.67	489.88
284.901	487.88
285.132	488.88
285.364	470.88
285.595	481.88
285.826	483.88
286.057	475.88
286.288	484.88
286.52	487.88
286.751	494.88
286.982	492.88
287.213	504.88
287.444	480.88
287.675	493.88
287.906	498.88
288.138	514.88
288.369	496.88
288.6	506.88
288.831	503.88
289.062	517.88
289.293	517.88
289.524	516.88
289.755	518.88
289.986	534.88
290.217	514.88
290.448	506.88
290.679	513.88
290.91	519.88
291.141	519.88
291.371	551.88
291.602	514.88
291.833	505.88
292.064	527.88
292.295	514.88
292.526	511.88
292.757	541.88
292.987	535.88
293.218	497.88
293.449	547.88
293.68	531.88
293.91	523.88
294.141	518.88
294.372	518.88
294.603	544.88
294.833	529.88
295.064	519.88
295.295	530.88
295.525	539.88
295.756	538.88
295.987	533.88
296.217	535.88
296.448	543.88
296.679	541.88
296.909	559.88
297.14	557.88
297.37	561.88
297.601	562.88
297.831	564.88
298.062	567.88
298.292	574.88
298.523	577.88
298.753	585.88
298.984	584.88
299.214	573.88
299.445	582.88
299.675	558.88
299.905	576.88
300.136	577.88
300.366	590.88
300.597	579.88
300.827	588.88
301.057	614.88
301.288	619.88
301.518	585.88
301.748	605.88
301.979	611.88
302.209	620.88
302.439	598.88
302.669	601.88
302.9	611.88
303.13	588.88
303.36	576.88
303.59	573.88
303.82	566.88
304.051	591.88
304.281	590.88
304.511	560.88
304.741	585.88
304.971	603.88
305.201	570.88
305.431	569.88
305.661	585.88
305.891	611.88
306.121	593.88
306.352	575.88
306.582	578.88
306.812	565.88
307.042	548.88
307.272	561.88
307.502	555.88
307.731	575.88
307.961	574.88
308.191	553.88
308.421	563.88
308.651	563.88
308.881	574.88
309.111	565.88
309.341	545.88
309.571	574.88
309.8	549.88
310.03	559.88
310.26	568.88
310.49	565.88
310.72	573.88
310.949	583.88
311.179	560.88
311.409	564.88
311.639	576.88
311.868	571.88
312.098	592.88
312.328	597.88
312.557	582.88
312.787	594.88
313.017	581.88
313.246	600.88
313.476	576.88
313.706	623.88
313.935	623.88
314.165	599.88
314.394	628.88
314.624	617.88
314.853	606.88
315.083	602.88
315.312	594.88
315.542	579.88
315.771	586.88
316.001	591.88
316.23	605.88
316.46	566.88
316.689	598.88
316.919	592.88
317.148	587.88
317.377	589.88
317.607	585.88
317.836	580.88
318.065	592.88
318.295	597.88
318.524	575.88
318.753	591.88
318.983	582.88
319.212	563.88
319.441	561.88
319.67	595.88
319.9	584.88
320.129	590.88
320.358	583.88
320.587	597.88
320.816	569.88
321.046	559.88
321.275	566.88
321.504	578.88
321.733	592.88
321.962	576.88
322.191	591.88
322.42	574.88
322.649	612.88
322.878	597.88
323.108	590.88
323.337	622.88
323.566	606.88
323.795	577.88
324.024	591.88
324.253	593.88
324.482	592.88
324.71	623.88
324.939	623.88
325.168	632.88
325.397	610.88
325.626	593.88
325.855	632.88
326.084	631.88
326.313	658.88
326.542	645.88
326.77	660.88
326.999	643.88
327.228	625.88
327.457	640.88
327.686	634.88
327.914	617.88
328.143	635.88
328.372	643.88
328.6	649.88
328.829	644.88
329.058	654.88
329.287	642.88
329.515	658.88
329.744	650.88
329.972	648.88
330.201	638.88
330.43	658.88
330.658	658.88
330.887	673.88
331.115	650.88
331.344	662.88
331.572	667.88
331.801	698.88
332.03	705.88
332.258	714.88
332.486	761.88
332.715	779.88
332.943	809.88
333.172	805.88
333.4	859.88
333.629	894.88
333.857	913.88
334.085	898.88
334.314	865.88
334.542	868.88
334.771	831.88
334.999	792.88
335.227	806.88
335.455	801.88
335.684	797.88
335.912	815.88
336.14	762.88
336.369	758.88
336.597	787.88
336.825	775.88
337.053	780.88
337.281	791.88
337.51	744.88
337.738	754.88
337.966	715.88
338.194	705.88
338.422	693.88
338.65	713.88
338.878	713.88
339.106	705.88
339.334	699.88
339.562	707.88
339.79	678.88
340.018	681.88
340.246	687.88
340.474	690.88
340.702	666.88
340.93	675.88
341.158	699.88
341.386	654.88
341.614	670.88
341.842	658.88
342.07	647.88
342.298	658.88
342.526	663.88
342.754	665.88
342.981	650.88
343.209	669.88
343.437	717.88
343.665	771.88
343.893	806.88
344.12	857.88
344.348	805.88
344.576	729.88
344.804	735.88
345.031	718.88
345.259	668.88
345.487	683.88
345.714	666.88
345.942	674.88
346.17	659.88
346.397	672.88
346.625	673.88
346.853	652.88
347.08	662.88
347.308	645.88
347.535	646.88
347.763	669.88
347.99	662.88
348.218	662.88
348.445	667.88
348.673	655.88
348.9	669.88
349.128	661.88
349.355	644.88
349.583	671.88
349.81	671.88
350.037	629.88
350.265	621.88
350.492	623.88
350.72	633.88
350.947	631.88
351.174	621.88
351.402	611.88
351.629	605.88
351.856	621.88
352.083	642.88
352.311	618.88
352.538	639.88
352.765	611.88
352.992	622.88
353.22	603.88
353.447	628.88
353.674	616.88
353.901	621.88
354.128	630.88
354.355	615.88
354.583	618.88
354.81	636.88
355.037	627.88
355.264	617.88
355.491	615.88
355.718	611.88
355.945	625.88
356.172	616.88
356.399	625.88
356.626	635.88
356.853	645.88
357.08	601.88
357.307	627.88
357.534	601.88
357.761	632.88
357.988	641.88
358.215	627.88
358.441	632.88
358.668	628.88
358.895	625.88
359.122	637.88
359.349	612.88
359.576	617.88
359.802	619.88
360.029	643.88
360.256	657.88
360.483	656.88
360.709	625.88
360.936	627.88
361.163	613.88
361.39	639.88
361.616	618.88
361.843	600.88
362.07	630.88
362.296	646.88
362.523	629.88
362.749	625.88
362.976	635.88
363.203	598.88
363.429	602.88
363.656	622.88
363.882	626.88
364.109	632.88
364.335	596.88
364.562	637.88
364.788	631.88
365.015	618.88
365.241	592.88
365.468	584.88
365.694	613.88
365.92	607.88
366.147	597.88
366.373	613.88
366.599	598.88
366.826	605.88
367.052	627.88
367.278	615.88
367.505	631.88
367.731	612.88
367.957	605.88
368.184	615.88
368.41	638.88
368.636	641.88
368.862	656.88
369.089	627.88
369.315	626.88
369.541	640.88
369.767	646.88
369.993	630.88
370.219	647.88
370.445	682.88
370.672	676.88
370.898	674.88
371.124	673.88
371.35	676.88
371.576	696.88
371.802	685.88
372.028	697.88
372.254	682.88
372.48	697.88
372.706	692.88
372.932	699.88
373.158	718.88
373.384	694.88
373.61	697.88
373.835	672.88
374.061	669.88
374.287	691.88
374.513	682.88
374.739	725.88
374.965	773.88
375.191	747.88
375.416	764.88
375.642	735.88
375.868	727.88
376.094	714.88
376.319	713.88
376.545	709.88
376.771	695.88
376.997	693.88
377.222	697.88
377.448	672.88
377.674	683.88
377.899	697.88
378.125	674.88
378.35	705.88
378.576	665.88
378.802	666.88
379.027	702.88
379.253	680.88
379.478	655.88
379.704	675.88
379.929	679.88
380.155	659.88
380.38	671.88
380.606	659.88
380.831	642.88
381.057	679.88
381.282	685.88
381.507	669.88
381.733	693.88
381.958	683.88
382.184	693.88
382.409	712.88
382.634	704.88
382.86	693.88
383.085	735.88
383.31	721.88
383.535	723.88
383.761	747.88
383.986	790.88
384.211	793.88
384.436	801.88
384.662	807.88
384.887	806.88
385.112	831.88
385.337	848.88
385.562	832.88
385.787	831.88
386.013	822.88
386.238	811.88
386.463	830.88
386.688	849.88
386.913	807.88
387.138	810.88
387.363	821.88
387.588	775.88
387.813	797.88
388.038	799.88
388.263	817.88
388.488	789.88
388.713	805.88
388.938	794.88
389.163	810.88
389.387	823.88
389.612	779.88
389.837	808.88
390.062	761.88
390.287	779.88
390.512	814.88
390.736	813.88
390.961	787.88
391.186	820.88
391.411	889.88
391.636	885.88
391.86	898.88
392.085	928.88
392.31	908.88
392.534	918.88
392.759	908.88
392.984	872.88
393.208	864.88
393.433	865.88
393.658	867.88
393.882	863.88
394.107	895.88
394.331	895.88
394.556	864.88
394.78	886.88
395.005	881.88
395.229	881.88
395.454	915.88
395.678	930.88
395.903	936.88
396.127	902.88
396.352	897.88
396.576	855.88
396.801	848.88
397.025	878.88
397.249	864.88
397.474	917.88
397.698	901.88
397.922	923.88
398.147	915.88
398.371	916.88
398.595	949.88
398.82	999.88
399.044	1070.88
399.268	1170.88
399.492	1392.88
399.717	1607.88
399.941	1620.88
400.165	1418.88
400.389	1281.88
400.613	1149.88
400.837	1064.88
401.062	1067.88
401.286	1040.88
401.51	1037.88
401.734	1027.88
401.958	1033.88
402.182	1053.88
402.406	1053.88
402.63	1053.88
402.854	1119.88
403.078	1122.88
403.302	1146.88
403.526	1182.88
403.75	1172.88
403.974	1235.88
404.198	1235.88
404.422	1241.88
404.645	1192.88
404.869	1191.88
405.093	1186.88
405.317	1138.88
405.541	1143.88
405.765	1151.88
405.988	1141.88
406.212	1137.88
406.436	1113.88
406.66	1146.88
406.883	1133.88
407.107	1219.88
407.331	1325.88
407.555	1355.88
407.778	1367.88
408.002	1325.88
408.226	1229.88
408.449	1209.88
408.673	1169.88
408.896	1133.88
409.12	1145.88
409.344	1171.88
409.567	1168.88
409.791	1191.88
410.014	1194.88
410.238	1173.88
410.461	1187.88
410.685	1124.88
410.908	1119.88
411.132	1118.88
411.355	1040.88
411.578	1058.88
411.802	1095.88
412.025	1076.88
412.249	1074.88
412.472	1050.88
412.695	1071.88
412.919	1027.88
413.142	1030.88
413.365	1036.88
413.589	1035.88
413.812	1038.88
414.035	1039.88
414.258	1042.88
414.482	1013.88
414.705	1051.88
414.928	1040.88
415.151	1034.88
415.374	1043.88
415.597	1053.88
415.821	1013.88
416.044	999.88
416.267	1021.88
416.49	1027.88
416.713	991.88
416.936	989.88
417.159	1000.88
417.382	1016.88
417.605	1010.88
417.828	1003.88
418.051	1011.88
418.274	1011.88
418.497	1041.88
418.72	1058.88
418.943	1073.88
419.166	1135.88
419.389	1203.88
419.611	1190.88
419.834	1114.88
420.057	1098.88
420.28	1039.88
420.503	1002.88
420.726	1007.88
420.948	1024.88
421.171	1011.88
421.394	1009.88
421.617	987.88
421.839	1011.88
422.062	1035.88
422.285	1018.88
422.507	1031.88
422.73	1064.88
422.953	1043.88
423.175	1078.88
423.398	1096.88
423.621	1098.88
423.843	1122.88
424.066	1143.88
424.288	1139.88
424.511	1115.88
424.733	1104.88
424.956	1065.88
425.178	1063.88
425.401	1034.88
425.623	1046.88
425.846	998.88
426.068	1009.88
426.291	975.88
426.513	967.88
426.735	978.88
426.958	970.88
427.18	919.88
427.402	957.88
427.625	944.88
427.847	916.88
428.069	927.88
428.292	935.88
428.514	907.88
428.736	896.88
428.958	937.88
429.181	895.88
429.403	896.88
429.625	907.88
429.847	901.88
430.069	879.88
430.292	904.88
430.514	891.88
430.736	881.88
430.958	890.88
431.18	894.88
431.402	897.88
431.624	901.88
431.846	915.88
432.068	919.88
432.29	936.88
432.512	929.88
432.734	911.88
432.956	925.88
433.178	944.88
433.4	889.88
433.622	916.88
433.844	929.88
434.066	964.88
434.287	936.88
434.509	1010.88
434.731	1000.88
434.953	1036.88
435.175	1056.88
435.397	1057.88
435.618	961.88
435.84	961.88
436.062	892.88
436.284	908.88
436.505	909.88
436.727	927.88
436.949	935.88
437.17	922.88
437.392	917.88
437.614	896.88
437.835	866.88
438.057	885.88
438.278	857.88
438.5	868.88
438.721	857.88
438.943	889.88
439.165	889.88
439.386	903.88
439.608	915.88
439.829	934.88
440.05	915.88
440.272	927.88
440.493	953.88
440.715	965.88
440.936	943.88
441.158	971.88
441.379	975.88
441.6	1049.88
441.822	1086.88
442.043	1051.88
442.264	1053.88
442.486	1034.88
442.707	1019.88
442.928	1041.88
443.149	1012.88
443.371	1017.88
443.592	1022.88
443.813	1025.88
444.034	1043.88
444.255	1104.88
444.476	1155.88
444.698	1227.88
444.919	1286.88
445.14	1353.88
445.361	1205.88
445.582	1076.88
445.803	1029.88
446.024	1018.88
446.245	994.88
446.466	965.88
446.687	958.88
446.908	903.88
447.129	933.88
447.35	925.88
447.571	882.88
447.792	867.88
448.013	911.88
448.234	881.88
448.455	880.88
448.675	853.88
448.896	854.88
449.117	872.88
449.338	834.88
449.559	833.88
449.779	822.88
450	817.88
450.221	826.88
450.442	856.88
450.662	857.88
450.883	870.88
451.104	919.88
451.324	863.88
451.545	889.88
451.766	867.88
451.986	873.88
452.207	838.88
452.428	882.88
452.648	835.88
452.869	820.88
453.089	832.88
453.31	862.88
453.53	847.88
453.751	834.88
453.971	839.88
454.192	809.88
454.412	776.88
454.633	813.88
454.853	822.88
455.073	813.88
455.294	815.88
455.514	788.88
455.734	790.88
455.955	809.88
456.175	818.88
456.395	801.88
456.616	796.88
456.836	822.88
457.056	791.88
457.276	765.88
457.497	800.88
457.717	786.88
457.937	791.88
458.157	827.88
458.377	835.88
458.598	856.88
458.818	853.88
459.038	880.88
459.258	901.88
459.478	949.88
459.698	951.88
459.918	989.88
460.138	1041.88
460.358	1080.88
460.578	1107.88
460.798	1117.88
461.018	1122.88
461.238	1104.88
461.458	1082.88
461.678	1089.88
461.898	1101.88
462.118	1102.88
462.338	1166.88
462.558	1217.88
462.777	1263.88
462.997	1391.88
463.217	1491.88
463.437	1524.88
463.657	1423.88
463.876	1336.88
464.096	1316.88
464.316	1302.88
464.536	1313.88
464.755	1263.88
464.975	1213.88
465.195	1142.88
465.414	1095.88
465.634	987.88
465.854	947.88
466.073	945.88
466.293	913.88
466.512	903.88
466.732	903.88
466.951	921.88
467.171	888.88
467.391	910.88
467.61	899.88
467.829	897.88
468.049	872.88
468.268	877.88
468.488	858.88
468.707	830.88
468.927	858.88
469.146	866.88
469.365	867.88
469.585	870.88
469.804	887.88
470.023	903.88
470.243	930.88
470.462	917.88
470.681	948.88
470.901	920.88
471.12	921.88
471.339	894.88
471.558	890.88
471.777	869.88
471.997	859.88
472.216	869.88
472.435	851.88
472.654	831.88
472.873	822.88
473.092	831.88
473.311	824.88
473.53	829.88
473.749	807.88
473.968	844.88
474.187	839.88
474.406	821.88
474.625	842.88
474.844	819.88
475.063	827.88
475.282	841.88
475.501	830.88
475.72	854.88
475.939	840.88
476.158	864.88
476.377	839.88
476.596	835.88
476.814	883.88
477.033	872.88
477.252	903.88
477.471	919.88
477.69	925.88
477.908	957.88
478.127	976.88
478.346	998.88
478.564	1009.88
478.783	1033.88
479.002	1037.88
479.22	1009.88
479.439	1038.88
479.658	1007.88
479.876	1002.88
480.095	1009.88
480.313	1105.88
480.532	1106.88
480.751	1105.88
480.969	1081.88
481.188	1038.88
481.406	978.88
481.624	950.88
481.843	949.88
482.061	938.88
482.28	946.88
482.498	926.88
482.717	920.88
482.935	898.88
483.153	938.88
483.372	919.88
483.59	913.88
483.808	937.88
484.027	954.88
484.245	943.88
484.463	949.88
484.681	965.88
484.9	951.88
485.118	955.88
485.336	983.88
485.554	989.88
485.772	966.88
485.99	991.88
486.209	1012.88
486.427	1027.88
486.645	997.88
486.863	1035.88
487.081	1002.88
487.299	1002.88
487.517	979.88
487.735	971.88
487.953	973.88
488.171	959.88
488.389	977.88
488.607	970.88
488.825	969.88
489.043	966.88
489.261	969.88
489.479	972.88
489.696	982.88
489.914	978.88
490.132	968.88
490.35	993.88
490.568	993.88
490.786	972.88
491.003	977.88
491.221	985.88
491.439	983.88
491.657	1029.88
491.874	979.88
492.092	999.88
492.31	1013.88
492.527	982.88
492.745	1006.88
492.963	1013.88
493.18	1029.88
493.398	994.88
493.615	1007.88
493.833	1010.88
494.05	1043.88
494.268	1036.88
494.485	1040.88
494.703	1053.88
494.92	1053.88
495.138	1045.88
495.355	1050.88
495.573	1041.88
495.79	1048.88
496.008	1041.88
496.225	1080.88
496.442	1081.88
496.66	1041.88
496.877	1057.88
497.094	1121.88
497.312	1101.88
497.529	1152.88
497.746	1152.88
497.963	1215.88
498.181	1246.88
498.398	1285.88
498.615	1393.88
498.832	1465.88
499.049	1577.88
499.267	1746.88
499.484	1932.88
499.701	2136.88
499.918	2343.88
500.135	2737.88
500.352	3150.88
500.569	3312.88
500.786	3284.88
501.003	3050.88
501.22	2679.88
501.437	2367.88
501.654	2057.88
501.871	1878.88
502.088	1719.88
502.305	1588.88
502.522	1510.88
502.739	1438.88
502.956	1391.88
503.172	1276.88
503.389	1283.88
503.606	1190.88
503.823	1171.88
504.04	1183.88
504.256	1217.88
504.473	1264.88
504.69	1256.88
504.907	1247.88
505.123	1156.88
505.34	1093.88
505.557	1051.88
505.773	1018.88
505.99	982.88
506.207	983.88
506.423	960.88
506.64	943.88
506.856	934.88
507.073	921.88
507.289	922.88
507.506	931.88
507.722	888.88
507.939	923.88
508.155	894.88
508.372	898.88
508.588	859.88
508.805	860.88
509.021	874.88
509.238	870.88
509.454	858.88
509.67	850.88
509.887	858.88
510.103	878.88
510.319	847.88
510.536	842.88
510.752	834.88
510.968	829.88
511.184	829.88
511.401	850.88
511.617	836.88
511.833	858.88
512.049	861.88
512.265	829.88
512.481	843.88
512.698	799.88
512.914	848.88
513.13	861.88
513.346	851.88
513.562	859.88
513.778	849.88
513.994	859.88
514.21	839.88
514.426	855.88
514.642	841.88
514.858	855.88
515.074	870.88
515.29	870.88
515.506	887.88
515.721	895.88
515.937	898.88
516.153	907.88
516.369	916.88
516.585	953.88
516.801	983.88
517.016	1029.88
517.232	1085.88
517.448	1178.88
517.664	1177.88
517.879	1221.88
518.095	1215.88
518.311	1182.88
518.527	1104.88
518.742	1085.88
518.958	1036.88
519.173	985.88
519.389	944.88
519.605	926.88
519.82	881.88
520.036	913.88
520.251	895.88
520.467	842.88
520.682	847.88
520.898	850.88
521.113	850.88
521.329	846.88
521.544	826.88
521.76	818.88
521.975	790.88
522.19	805.88
522.406	799.88
522.621	808.88
522.836	815.88
523.052	792.88
523.267	789.88
523.482	768.88
523.698	777.88
523.913	766.88
524.128	789.88
524.343	780.88
524.559	776.88
524.774	772.88
524.989	788.88
525.204	783.88
525.419	783.88
525.634	752.88
525.849	752.88
526.064	773.88
526.28	771.88
526.495	773.88
526.71	767.88
526.925	779.88
527.14	798.88
527.355	757.88
527.57	772.88
527.785	758.88
527.999	771.88
528.214	756.88
528.429	767.88
528.644	752.88
528.859	772.88
529.074	762.88
529.289	752.88
529.503	728.88
529.718	780.88
529.933	760.88
530.148	760.88
530.363	771.88
530.577	750.88
530.792	764.88
531.007	767.88
531.221	775.88
531.436	738.88
531.651	766.88
531.865	744.88
532.08	756.88
532.295	773.88
532.509	780.88
532.724	757.88
532.938	740.88
533.153	754.88
533.367	746.88
533.582	776.88
533.796	739.88
534.011	753.88
534.225	767.88
534.44	735.88
534.654	734.88
534.868	768.88
535.083	763.88
535.297	740.88
535.511	727.88
535.726	752.88
535.94	720.88
536.154	711.88
536.369	709.88
536.583	741.88
536.797	714.88
537.011	697.88
537.225	708.88
537.44	683.88
537.654	707.88
537.868	688.88
538.082	681.88
538.296	697.88
538.51	686.88
538.724	701.88
538.938	693.88
539.153	690.88
539.367	704.88
539.581	701.88
539.795	674.88
540.009	689.88
540.222	662.88
540.436	674.88
540.65	694.88
540.864	669.88
541.078	692.88
541.292	673.88
541.506	687.88
541.72	680.88
541.934	664.88
542.147	700.88
542.361	671.88
542.575	660.88
542.789	671.88
543.002	655.88
543.216	679.88
543.43	689.88
543.644	662.88
543.857	649.88
544.071	674.88
544.285	689.88
544.498	665.88
544.712	683.88
544.925	682.88
545.139	675.88
545.352	710.88
545.566	709.88
545.779	713.88
545.993	708.88
546.206	723.88
546.42	696.88
546.633	697.88
546.847	690.88
547.06	667.88
547.274	696.88
547.487	709.88
547.7	692.88
547.914	677.88
548.127	698.88
548.34	727.88
548.554	726.88
548.767	697.88
548.98	722.88
549.193	718.88
549.407	696.88
549.62	710.88
549.833	751.88
550.046	752.88
550.259	706.88
550.473	689.88
550.686	670.88
550.899	700.88
551.112	695.88
551.325	673.88
551.538	673.88
551.751	693.88
551.964	690.88
552.177	703.88
552.39	686.88
552.603	707.88
552.816	745.88
553.029	759.88
553.242	777.88
553.455	784.88
553.667	795.88
553.88	775.88
554.093	750.88
554.306	734.88
554.519	719.88
554.732	719.88
554.944	677.88
555.157	678.88
555.37	667.88
555.583	658.88
555.795	651.88
556.008	634.88
556.221	645.88
556.433	657.88
556.646	608.88
556.859	613.88
557.071	594.88
557.284	613.88
557.496	610.88
557.709	628.88
557.921	614.88
558.134	588.88
558.346	594.88
558.559	572.88
558.771	609.88
558.984	600.88
559.196	587.88
559.409	593.88
559.621	584.88
559.833	579.88
560.046	583.88
560.258	571.88
560.47	591.88
560.683	581.88
560.895	537.88
561.107	561.88
561.32	569.88
561.532	582.88
561.744	585.88
561.956	581.88
562.168	578.88
562.381	547.88
562.593	590.88
562.805	586.88
563.017	583.88
563.229	598.88
563.441	584.88
563.653	577.88
563.865	592.88
564.077	573.88
564.289	592.88
564.501	594.88
564.713	592.88
564.925	613.88
565.137	633.88
565.349	632.88
565.561	660.88
565.773	688.88
565.985	730.88
566.197	761.88
566.408	817.88
566.62	893.88
566.832	990.88
567.044	979.88
567.255	998.88
567.467	1019.88
567.679	1037.88
567.891	1135.88
568.102	1178.88
568.314	1119.88
568.526	975.88
568.737	936.88
568.949	820.88
569.161	785.88
569.372	701.88
569.584	671.88
569.795	640.88
570.007	649.88
570.218	597.88
570.43	575.88
570.641	593.88
570.853	569.88
571.064	626.88
571.276	610.88
571.487	589.88
571.698	586.88
571.91	551.88
572.121	519.88
572.333	527.88
572.544	516.88
572.755	513.88
572.966	508.88
573.178	507.88
573.389	482.88
573.6	479.88
573.811	482.88
574.023	502.88
574.234	477.88
574.445	478.88
574.656	476.88
574.867	480.88
575.078	497.88
575.289	480.88
575.501	472.88
575.712	483.88
575.923	447.88
576.134	448.88
576.345	455.88
576.556	457.88
576.767	458.88
576.978	448.88
577.188	457.88
577.399	463.88
577.61	465.88
577.821	469.88
578.032	434.88
578.243	428.88
578.454	439.88
578.665	442.88
578.875	420.88
579.086	413.88
579.297	429.88
579.508	447.88
579.718	422.88
579.929	419.88
580.14	440.88
580.35	439.88
580.561	429.88
580.772	412.88
580.982	398.88
581.193	402.88
581.403	421.88
581.614	409.88
581.825	415.88
582.035	403.88
582.246	418.88
582.456	426.88
582.667	420.88
582.877	421.88
583.087	419.88
583.298	412.88
583.508	387.88
583.719	401.88
583.929	411.88
584.139	411.88
584.35	396.88
584.56	376.88
584.77	377.88
584.981	388.88
585.191	381.88
585.401	405.88
585.611	407.88
585.821	414.88
586.032	411.88
586.242	387.88
586.452	406.88
586.662	391.88
586.872	392.88
587.082	383.88
587.292	373.88
587.502	363.88
587.713	383.88
587.923	405.88
588.133	382.88
588.343	381.88
588.553	390.88
588.762	358.88
588.972	383.88
589.182	409.88
589.392	386.88
589.602	388.88
589.812	377.88
590.022	398.88
590.232	413.88
590.441	393.88
590.651	380.88
590.861	395.88
591.071	402.88
591.281	389.88
591.49	410.88
591.7	396.88
591.91	432.88
592.119	423.88
592.329	439.88
592.539	450.88
592.748	458.88
592.958	489.88
593.167	477.88
593.377	490.88
593.587	513.88
593.796	511.88
594.006	521.88
594.215	527.88
594.424	512.88
594.634	495.88
594.843	497.88
595.053	486.88
595.262	437.88
595.472	434.88
595.681	408.88
595.89	427.88
596.1	389.88
596.309	392.88
596.518	371.88
596.727	374.88
596.937	376.88
597.146	371.88
597.355	353.88
597.564	356.88
597.774	357.88
597.983	371.88
598.192	358.88
598.401	356.88
598.61	354.88
598.819	329.88
599.028	329.88
599.237	339.88
599.446	340.88
599.655	340.88
599.864	338.88
600.073	330.88
600.282	324.88
600.491	321.88
600.7	323.88
600.909	328.88
601.118	347.88
601.327	334.88
601.536	331.88
601.745	323.88
601.953	337.88
602.162	317.88
602.371	330.88
602.58	324.88
602.789	330.88
602.997	312.88
603.206	318.88
603.415	317.88
603.623	333.88
603.832	315.88
604.041	320.88
604.249	321.88
604.458	324.88
604.666	317.88
604.875	294.88
605.084	302.88
605.292	306.88
605.501	304.88
605.709	309.88
605.918	309.88
606.126	305.88
606.334	296.88
606.543	294.88
606.751	315.88
606.96	288.88
607.168	311.88
607.376	305.88
607.585	304.88
607.793	279.88
608.001	290.88
608.21	306.88
608.418	306.88
608.626	295.88
608.834	287.88
609.043	310.88
609.251	294.88
609.459	290.88
609.667	296.88
609.875	307.88
610.083	309.88
610.291	289.88
610.499	280.88
610.707	297.88
610.916	292.88
611.124	294.88
611.332	292.88
611.54	281.88
611.748	283.88
611.955	294.88
612.163	296.88
612.371	277.88
612.579	300.88
612.787	286.88
612.995	283.88
613.203	302.88
613.411	292.88
613.618	285.88
613.826	283.88
614.034	287.88
614.242	275.88
614.449	278.88
614.657	294.88
614.865	275.88
615.072	259.88
615.28	267.88
615.488	290.88
615.695	260.88
615.903	269.88
616.111	282.88
616.318	297.88
616.526	290.88
616.733	278.88
616.941	288.88
617.148	283.88
617.356	277.88
617.563	295.88
617.771	296.88
617.978	291.88
618.185	279.88
618.393	290.88
618.6	277.88
618.807	276.88
619.015	273.88
619.222	289.88
619.429	267.88
619.637	293.88
619.844	280.88
620.051	286.88
620.258	269.88
620.466	255.88
620.673	256.88
620.88	249.88
621.087	258.88
621.294	271.88
621.501	263.88
621.708	264.88
621.915	257.88
622.122	272.88
622.329	264.88
622.536	245.88
622.743	259.88
622.95	275.88
623.157	267.88
623.364	273.88
623.571	258.88
623.778	255.88
623.985	250.88
624.192	255.88
624.399	232.88
624.606	247.88
624.812	269.88
625.019	240.88
625.226	238.88
625.433	250.88
625.639	250.88
625.846	227.88
626.053	234.88
626.259	247.88
626.466	238.88
626.673	233.88
626.879	253.88
627.086	230.88
627.293	253.88
627.499	241.88
627.706	237.88
627.912	241.88
628.119	222.88
628.325	231.88
628.532	227.88
628.738	241.88
628.945	234.88
629.151	229.88
629.357	229.88
629.564	230.88
629.77	229.88
629.976	234.88
630.183	215.88
630.389	221.88
630.595	223.88
630.802	236.88
631.008	232.88
631.214	218.88
631.42	225.88
631.627	218.88
631.833	228.88
632.039	215.88
632.245	219.88
632.451	207.88
632.657	221.88
632.863	220.88
633.069	229.88
633.275	226.88
633.481	207.88
633.688	224.88
633.893	216.88
634.099	209.88
634.305	216.88
634.511	210.88
634.717	240.88
634.923	218.88
635.129	208.88
635.335	214.88
635.541	184.88
635.747	224.88
635.952	198.88
636.158	204.88
636.364	210.88
636.57	185.88
636.775	201.88
636.981	213.88
637.187	188.88
637.392	205.88
637.598	210.88
637.804	217.88
638.009	208.88
638.215	228.88
638.421	202.88
638.626	190.88
638.832	198.88
639.037	194.88
639.243	203.88
639.448	194.88
639.654	195.88
639.859	195.88
640.065	200.88
640.27	198.88
640.475	199.88
640.681	195.88
640.886	179.88
641.091	190.88
641.297	203.88
641.502	186.88
641.707	186.88
641.913	203.88
642.118	177.88
642.323	185.88
642.528	195.88
642.733	178.88
642.939	197.88
643.144	192.88
643.349	194.88
643.554	193.88
643.759	179.88
643.964	196.88
644.169	188.88
644.374	176.88
644.579	189.88
644.784	202.88
644.989	177.88
645.194	170.88
645.399	187.88
645.604	175.88
645.809	185.88
646.014	184.88
646.219	196.88
646.423	193.88
646.628	181.88
646.833	194.88
647.038	184.88
647.243	190.88
647.447	183.88
647.652	190.88
647.857	187.88
648.062	193.88
648.266	194.88
648.471	203.88
648.676	192.88
648.88	202.88
649.085	192.88
649.289	182.88
649.494	177.88
649.698	196.88
649.903	165.88
650.107	187.88
650.312	184.88
650.516	175.88
650.721	164.88
650.925	168.88
651.13	157.88
651.334	163.88
651.539	162.88
651.743	158.88
651.947	176.88
652.152	149.88
652.356	143.88
652.56	154.88
652.764	165.88
652.969	139.88
653.173	140.88
653.377	163.88
653.581	128.88
653.785	137.88
653.99	140.88
654.194	135.88
654.398	140.88
654.602	149.88
654.806	127.88
655.01	131.88
655.214	141.88
655.418	125.88
655.622	129.88
655.826	128.88
656.03	120.88
656.234	125.88
656.438	130.88
656.642	129.88
656.846	125.88
657.049	114.88
657.253	121.88
657.457	116.88
657.661	102.88
657.865	114.88
658.068	107.88
658.272	135.88
658.476	106.88
658.68	100.88
658.883	98.88
659.087	95.88
659.291	83.88
659.494	103.88
659.698	85.88
659.901	90.88
660.105	98.88
660.309	96.88
660.512	95.88
660.716	90.88
660.919	100.88
661.123	85.88
661.326	95.88
661.53	91.88
661.733	90.88
661.936	88.88
662.14	90.88
662.343	80.88
662.546	81.88
662.75	89.88
662.953	75.88
663.156	86.88
663.36	89.88
663.563	81.88
663.766	82.88
663.969	87.88
664.173	74.88
664.376	83.88
664.579	76.88
664.782	67.88
664.985	71.88
665.188	87.88
665.391	87.88
665.594	81.88
665.797	81.88
666	76.88
666.203	74.88
666.406	79.88
666.609	90.88
666.812	68.88
667.015	72.88
667.218	84.88
667.421	84.88
667.624	58.88
667.827	87.88
668.03	62.88
668.232	73.88
668.435	80.88
668.638	79.88
668.841	89.88
669.043	73.88
669.246	65.88
669.449	82.88
669.651	85.88
669.854	83.88
670.057	68.88
670.259	85.88
670.462	87.88
670.665	80.88
670.867	80.88
671.07	82.88
671.272	86.88
671.475	76.88
671.677	72.88
671.88	86.88
672.082	81.88
672.284	63.88
672.487	80.88
672.689	86.88
672.892	75.88
