Data from NiCl2@0.5M.TitratingCurve.Agarose3%dH2O.NegLispCup.LampEnergy10.LIBS07252019_HRD10591_18-18-48-576.txt Node
Date: Thu Jul 25 18:18:48 EDT 2019
User: cochatt
Spectrometer: HR+D1059
Trigger mode: 1
Integration Time (sec): 1.000000E-1
Scans to average: 1
Electric dark correction enabled: true
Nonlinearity correction enabled: false
Boxcar width: 0
XAxis mode: Wavelengths
Number of Pixels in Spectrum: 2048
>>>>>Begin Spectral Data<<<<<
223.165	-2.19
223.4	-2.19
223.635	-2.19
223.869	-12.19
224.104	-9.19
224.338	-23.19
224.573	-20.19
224.808	-10.19
225.042	-5.19
225.277	-0.19
225.511	0.81
225.746	0.81
225.98	7.81
226.215	7.81
226.449	4.81
226.683	17.81
226.918	16.81
227.152	25.81
227.387	42.81
227.621	47.81
227.856	39.81
228.09	37.81
228.324	39.81
228.559	43.81
228.793	85.81
229.027	161.81
229.262	177.81
229.496	179.81
229.73	191.81
229.964	205.81
230.199	227.81
230.433	228.81
230.667	235.81
230.901	212.81
231.136	215.81
231.37	207.81
231.604	221.81
231.838	254.81
232.072	259.81
232.306	244.81
232.541	229.81
232.775	228.81
233.009	202.81
233.243	236.81
233.477	209.81
233.711	217.81
233.945	202.81
234.179	219.81
234.413	237.81
234.647	244.81
234.881	241.81
235.115	229.81
235.349	222.81
235.583	229.81
235.817	224.81
236.051	223.81
236.285	232.81
236.519	226.81
236.753	229.81
236.987	227.81
237.221	250.81
237.455	237.81
237.689	228.81
237.922	255.81
238.156	255.81
238.39	266.81
238.624	266.81
238.858	267.81
239.091	244.81
239.325	275.81
239.559	303.81
239.793	308.81
240.027	322.81
240.26	291.81
240.494	291.81
240.728	274.81
240.961	285.81
241.195	269.81
241.429	293.81
241.662	300.81
241.896	331.81
242.13	324.81
242.363	328.81
242.597	297.81
242.83	306.81
243.064	304.81
243.298	324.81
243.531	313.81
243.765	328.81
243.998	329.81
244.232	371.81
244.465	343.81
244.699	348.81
244.932	335.81
245.166	330.81
245.399	335.81
245.633	327.81
245.866	351.81
246.099	349.81
246.333	346.81
246.566	364.81
246.8	361.81
247.033	354.81
247.266	356.81
247.5	372.81
247.733	379.81
247.966	365.81
248.2	372.81
248.433	383.81
248.666	379.81
248.899	375.81
249.133	372.81
249.366	385.81
249.599	386.81
249.832	387.81
250.066	401.81
250.299	396.81
250.532	410.81
250.765	410.81
250.998	418.81
251.231	416.81
251.465	450.81
251.698	452.81
251.931	428.81
252.164	427.81
252.397	434.81
252.63	415.81
252.863	445.81
253.096	449.81
253.329	453.81
253.562	451.81
253.795	432.81
254.028	450.81
254.261	472.81
254.494	456.81
254.727	462.81
254.96	475.81
255.193	484.81
255.426	489.81
255.659	472.81
255.892	490.81
256.124	472.81
256.357	474.81
256.59	508.81
256.823	490.81
257.056	473.81
257.289	499.81
257.521	497.81
257.754	509.81
257.987	463.81
258.22	525.81
258.452	519.81
258.685	536.81
258.918	522.81
259.151	499.81
259.383	510.81
259.616	509.81
259.849	541.81
260.081	516.81
260.314	515.81
260.547	525.81
260.779	550.81
261.012	545.81
261.244	544.81
261.477	533.81
261.71	572.81
261.942	549.81
262.175	545.81
262.407	555.81
262.64	536.81
262.872	564.81
263.105	572.81
263.337	580.81
263.57	571.81
263.802	578.81
264.035	599.81
264.267	601.81
264.499	573.81
264.732	584.81
264.964	604.81
265.197	608.81
265.429	578.81
265.661	600.81
265.894	591.81
266.126	599.81
266.358	641.81
266.591	641.81
266.823	624.81
267.055	611.81
267.287	616.81
267.52	619.81
267.752	612.81
267.984	629.81
268.216	628.81
268.448	640.81
268.681	623.81
268.913	641.81
269.145	641.81
269.377	635.81
269.609	639.81
269.841	643.81
270.073	643.81
270.306	647.81
270.538	640.81
270.77	653.81
271.002	671.81
271.234	645.81
271.466	682.81
271.698	672.81
271.93	680.81
272.162	699.81
272.394	677.81
272.626	699.81
272.858	698.81
273.09	707.81
273.322	700.81
273.553	695.81
273.785	688.81
274.017	721.81
274.249	701.81
274.481	711.81
274.713	698.81
274.945	753.81
275.176	744.81
275.408	721.81
275.64	771.81
275.872	714.81
276.104	747.81
276.335	736.81
276.567	755.81
276.799	726.81
277.031	755.81
277.262	741.81
277.494	755.81
277.726	778.81
277.957	773.81
278.189	768.81
278.421	766.81
278.652	779.81
278.884	766.81
279.115	762.81
279.347	779.81
279.579	774.81
279.81	801.81
280.042	792.81
280.273	814.81
280.505	786.81
280.736	792.81
280.968	796.81
281.199	787.81
281.431	826.81
281.662	821.81
281.894	794.81
282.125	827.81
282.356	824.81
282.588	816.81
282.819	837.81
283.051	827.81
283.282	828.81
283.513	860.81
283.745	863.81
283.976	859.81
284.207	829.81
284.439	820.81
284.67	827.81
284.901	864.81
285.132	868.81
285.364	839.81
285.595	867.81
285.826	869.81
286.057	876.81
286.288	880.81
286.52	861.81
286.751	853.81
286.982	883.81
287.213	881.81
287.444	875.81
287.675	894.81
287.906	889.81
288.138	887.81
288.369	900.81
288.6	891.81
288.831	897.81
289.062	894.81
289.293	906.81
289.524	904.81
289.755	915.81
289.986	885.81
290.217	907.81
290.448	899.81
290.679	899.81
290.91	906.81
291.141	930.81
291.371	906.81
291.602	914.81
291.833	922.81
292.064	930.81
292.295	922.81
292.526	912.81
292.757	905.81
292.987	923.81
293.218	926.81
293.449	920.81
293.68	912.81
293.91	903.81
294.141	915.81
294.372	918.81
294.603	965.81
294.833	933.81
295.064	928.81
295.295	924.81
295.525	925.81
295.756	951.81
295.987	948.81
296.217	957.81
296.448	989.81
296.679	946.81
296.909	935.81
297.14	961.81
297.37	989.81
297.601	976.81
297.831	966.81
298.062	949.81
298.292	980.81
298.523	997.81
298.753	1017.81
298.984	1000.81
299.214	978.81
299.445	1030.81
299.675	1013.81
299.905	1024.81
300.136	1026.81
300.366	1062.81
300.597	1057.81
300.827	1063.81
301.057	1047.81
301.288	1071.81
301.518	1063.81
301.748	1060.81
301.979	1029.81
302.209	1101.81
302.439	1085.81
302.669	1053.81
302.9	1066.81
303.13	1073.81
303.36	1055.81
303.59	1088.81
303.82	1109.81
304.051	1070.81
304.281	1087.81
304.511	1093.81
304.741	1105.81
304.971	1083.81
305.201	1079.81
305.431	1115.81
305.661	1119.81
305.891	1127.81
306.121	1088.81
306.352	1079.81
306.582	1054.81
306.812	1046.81
307.042	1054.81
307.272	1056.81
307.502	1058.81
307.731	1064.81
307.961	1042.81
308.191	1080.81
308.421	1072.81
308.651	1060.81
308.881	1080.81
309.111	1057.81
309.341	1073.81
309.571	1101.81
309.8	1067.81
310.03	1096.81
310.26	1138.81
310.49	1167.81
310.72	1095.81
310.949	1061.81
311.179	1089.81
311.409	1125.81
311.639	1121.81
311.868	1086.81
312.098	1104.81
312.328	1113.81
312.557	1112.81
312.787	1112.81
313.017	1116.81
313.246	1140.81
313.476	1149.81
313.706	1171.81
313.935	1153.81
314.165	1151.81
314.394	1159.81
314.624	1143.81
314.853	1133.81
315.083	1153.81
315.312	1153.81
315.542	1160.81
315.771	1147.81
316.001	1144.81
316.23	1167.81
316.46	1159.81
316.689	1173.81
316.919	1130.81
317.148	1173.81
317.377	1156.81
317.607	1143.81
317.836	1188.81
318.065	1133.81
318.295	1151.81
318.524	1179.81
318.753	1148.81
318.983	1145.81
319.212	1111.81
319.441	1113.81
319.67	1144.81
319.9	1151.81
320.129	1173.81
320.358	1166.81
320.587	1153.81
320.816	1158.81
321.046	1157.81
321.275	1182.81
321.504	1153.81
321.733	1174.81
321.962	1177.81
322.191	1194.81
322.42	1172.81
322.649	1176.81
322.878	1187.81
323.108	1162.81
323.337	1207.81
323.566	1245.81
323.795	1213.81
324.024	1235.81
324.253	1201.81
324.482	1207.81
324.71	1196.81
324.939	1187.81
325.168	1216.81
325.397	1242.81
325.626	1236.81
325.855	1248.81
326.084	1262.81
326.313	1280.81
326.542	1252.81
326.77	1247.81
326.999	1234.81
327.228	1235.81
327.457	1224.81
327.686	1237.81
327.914	1251.81
328.143	1273.81
328.372	1258.81
328.6	1235.81
328.829	1255.81
329.058	1269.81
329.287	1275.81
329.515	1263.81
329.744	1257.81
329.972	1265.81
330.201	1248.81
330.43	1269.81
330.658	1297.81
330.887	1319.81
331.115	1299.81
331.344	1336.81
331.572	1319.81
331.801	1357.81
332.03	1381.81
332.258	1388.81
332.486	1405.81
332.715	1379.81
332.943	1401.81
333.172	1421.81
333.4	1447.81
333.629	1499.81
333.857	1498.81
334.085	1496.81
334.314	1512.81
334.542	1505.81
334.771	1505.81
334.999	1480.81
335.227	1504.81
335.455	1486.81
335.684	1503.81
335.912	1520.81
336.14	1488.81
336.369	1480.81
336.597	1514.81
336.825	1534.81
337.053	1522.81
337.281	1514.81
337.51	1487.81
337.738	1460.81
337.966	1417.81
338.194	1477.81
338.422	1445.81
338.65	1364.81
338.878	1395.81
339.106	1408.81
339.334	1422.81
339.562	1436.81
339.79	1350.81
340.018	1319.81
340.246	1336.81
340.474	1353.81
340.702	1329.81
340.93	1331.81
341.158	1325.81
341.386	1384.81
341.614	1470.81
341.842	1429.81
342.07	1362.81
342.298	1349.81
342.526	1362.81
342.754	1339.81
342.981	1301.81
343.209	1368.81
343.437	1409.81
343.665	1433.81
343.893	1478.81
344.12	1482.81
344.348	1461.81
344.576	1437.81
344.804	1475.81
345.031	1425.81
345.259	1391.81
345.487	1360.81
345.714	1361.81
345.942	1407.81
346.17	1431.81
346.397	1363.81
346.625	1327.81
346.853	1267.81
347.08	1308.81
347.308	1279.81
347.535	1288.81
347.763	1296.81
347.99	1254.81
348.218	1253.81
348.445	1310.81
348.673	1275.81
348.9	1236.81
349.128	1277.81
349.355	1303.81
349.583	1339.81
349.81	1228.81
350.037	1237.81
350.265	1235.81
350.492	1267.81
350.72	1216.81
350.947	1243.81
351.174	1277.81
351.402	1327.81
351.629	1314.81
351.856	1330.81
352.083	1259.81
352.311	1272.81
352.538	1331.81
352.765	1392.81
352.992	1265.81
353.22	1203.81
353.447	1201.81
353.674	1177.81
353.901	1184.81
354.128	1161.81
354.355	1209.81
354.583	1211.81
354.81	1175.81
355.037	1189.81
355.264	1196.81
355.491	1215.81
355.718	1170.81
355.945	1184.81
356.172	1186.81
356.399	1220.81
356.626	1251.81
356.853	1301.81
357.08	1236.81
357.307	1236.81
357.534	1181.81
357.761	1206.81
357.988	1207.81
358.215	1203.81
358.441	1195.81
358.668	1215.81
358.895	1190.81
359.122	1156.81
359.349	1218.81
359.576	1197.81
359.802	1225.81
360.029	1207.81
360.256	1190.81
360.483	1175.81
360.709	1186.81
360.936	1211.81
361.163	1205.81
361.39	1196.81
361.616	1203.81
361.843	1231.81
362.07	1300.81
362.296	1266.81
362.523	1207.81
362.749	1202.81
362.976	1193.81
363.203	1185.81
363.429	1205.81
363.656	1196.81
363.882	1186.81
364.109	1165.81
364.335	1185.81
364.562	1181.81
364.788	1185.81
365.015	1190.81
365.241	1173.81
365.468	1181.81
365.694	1196.81
365.92	1160.81
366.147	1185.81
366.373	1169.81
366.599	1170.81
366.826	1173.81
367.052	1145.81
367.278	1210.81
367.505	1189.81
367.731	1189.81
367.957	1179.81
368.184	1192.81
368.41	1176.81
368.636	1178.81
368.862	1172.81
369.089	1189.81
369.315	1191.81
369.541	1210.81
369.767	1217.81
369.993	1204.81
370.219	1192.81
370.445	1230.81
370.672	1217.81
370.898	1189.81
371.124	1247.81
371.35	1239.81
371.576	1220.81
371.802	1251.81
372.028	1217.81
372.254	1252.81
372.48	1259.81
372.706	1272.81
372.932	1271.81
373.158	1277.81
373.384	1270.81
373.61	1228.81
373.835	1253.81
374.061	1264.81
374.287	1254.81
374.513	1261.81
374.739	1285.81
374.965	1324.81
375.191	1311.81
375.416	1299.81
375.642	1332.81
375.868	1283.81
376.094	1238.81
376.319	1258.81
376.545	1259.81
376.771	1249.81
376.997	1209.81
377.222	1228.81
377.448	1237.81
377.674	1276.81
377.899	1265.81
378.125	1251.81
378.35	1215.81
378.576	1229.81
378.802	1184.81
379.027	1186.81
379.253	1248.81
379.478	1206.81
379.704	1214.81
379.929	1229.81
380.155	1256.81
380.38	1221.81
380.606	1226.81
380.831	1239.81
381.057	1233.81
381.282	1227.81
381.507	1218.81
381.733	1236.81
381.958	1265.81
382.184	1239.81
382.409	1250.81
382.634	1249.81
382.86	1298.81
383.085	1258.81
383.31	1315.81
383.535	1311.81
383.761	1257.81
383.986	1281.81
384.211	1357.81
384.436	1335.81
384.662	1348.81
384.887	1379.81
385.112	1348.81
385.337	1365.81
385.562	1409.81
385.787	1431.81
386.013	1430.81
386.238	1432.81
386.463	1392.81
386.688	1405.81
386.913	1399.81
387.138	1403.81
387.363	1444.81
387.588	1382.81
387.813	1427.81
388.038	1427.81
388.263	1447.81
388.488	1456.81
388.713	1413.81
388.938	1402.81
389.163	1416.81
389.387	1389.81
389.612	1405.81
389.837	1402.81
390.062	1396.81
390.287	1430.81
390.512	1425.81
390.736	1427.81
390.961	1448.81
391.186	1440.81
391.411	1483.81
391.636	1490.81
391.86	1528.81
392.085	1579.81
392.31	1536.81
392.534	1528.81
392.759	1501.81
392.984	1481.81
393.208	1495.81
393.433	1492.81
393.658	1512.81
393.882	1457.81
394.107	1444.81
394.331	1502.81
394.556	1500.81
394.78	1512.81
395.005	1500.81
395.229	1482.81
395.454	1547.81
395.678	1529.81
395.903	1556.81
396.127	1528.81
396.352	1522.81
396.576	1527.81
396.801	1544.81
397.025	1555.81
397.249	1526.81
397.474	1571.81
397.698	1583.81
397.922	1576.81
398.147	1595.81
398.371	1653.81
398.595	1671.81
398.82	1732.81
399.044	1775.81
399.268	1899.81
399.492	2033.81
399.717	2137.81
399.941	2187.81
400.165	2113.81
400.389	2020.81
400.613	1926.81
400.837	1829.81
401.062	1795.81
401.286	1766.81
401.51	1760.81
401.734	1721.81
401.958	1786.81
402.182	1755.81
402.406	1746.81
402.63	1748.81
402.854	1761.81
403.078	1771.81
403.302	1778.81
403.526	1829.81
403.75	1787.81
403.974	1811.81
404.198	1848.81
404.422	1846.81
404.645	1812.81
404.869	1816.81
405.093	1834.81
405.317	1846.81
405.541	1816.81
405.765	1806.81
405.988	1854.81
406.212	1855.81
406.436	1844.81
406.66	1931.81
406.883	1904.81
407.107	1947.81
407.331	1998.81
407.555	2084.81
407.778	2085.81
408.002	2081.81
408.226	2067.81
408.449	2004.81
408.673	1994.81
408.896	1933.81
409.12	1907.81
409.344	1941.81
409.567	1911.81
409.791	1950.81
410.014	1897.81
410.238	1898.81
410.461	1891.81
410.685	1881.81
410.908	1843.81
411.132	1817.81
411.355	1769.81
411.578	1767.81
411.802	1804.81
412.025	1817.81
412.249	1815.81
412.472	1822.81
412.695	1799.81
412.919	1751.81
413.142	1769.81
413.365	1745.81
413.589	1767.81
413.812	1777.81
414.035	1737.81
414.258	1743.81
414.482	1715.81
414.705	1772.81
414.928	1780.81
415.151	1777.81
415.374	1729.81
415.597	1748.81
415.821	1727.81
416.044	1731.81
416.267	1713.81
416.49	1683.81
416.713	1703.81
416.936	1713.81
417.159	1675.81
417.382	1672.81
417.605	1687.81
417.828	1697.81
418.051	1722.81
418.274	1695.81
418.497	1704.81
418.72	1727.81
418.943	1723.81
419.166	1817.81
419.389	1929.81
419.611	1929.81
419.834	1872.81
420.057	1759.81
420.28	1713.81
420.503	1659.81
420.726	1702.81
420.948	1713.81
421.171	1681.81
421.394	1709.81
421.617	1665.81
421.839	1700.81
422.062	1717.81
422.285	1679.81
422.507	1692.81
422.73	1740.81
422.953	1732.81
423.175	1724.81
423.398	1713.81
423.621	1698.81
423.843	1753.81
424.066	1735.81
424.288	1740.81
424.511	1723.81
424.733	1702.81
424.956	1694.81
425.178	1711.81
425.401	1717.81
425.623	1704.81
425.846	1679.81
426.068	1673.81
426.291	1660.81
426.513	1634.81
426.735	1654.81
426.958	1667.81
427.18	1645.81
427.402	1622.81
427.625	1685.81
427.847	1645.81
428.069	1640.81
428.292	1635.81
428.514	1593.81
428.736	1635.81
428.958	1656.81
429.181	1618.81
429.403	1581.81
429.625	1599.81
429.847	1588.81
430.069	1596.81
430.292	1606.81
430.514	1621.81
430.736	1609.81
430.958	1595.81
431.18	1622.81
431.402	1637.81
431.624	1618.81
431.846	1634.81
432.068	1637.81
432.29	1647.81
432.512	1625.81
432.734	1659.81
432.956	1632.81
433.178	1636.81
433.4	1656.81
433.622	1665.81
433.844	1629.81
434.066	1660.81
434.287	1697.81
434.509	1724.81
434.731	1705.81
434.953	1739.81
435.175	1789.81
435.397	1826.81
435.618	1713.81
435.84	1661.81
436.062	1660.81
436.284	1641.81
436.505	1656.81
436.727	1651.81
436.949	1658.81
437.17	1652.81
437.392	1652.81
437.614	1606.81
437.835	1580.81
438.057	1592.81
438.278	1597.81
438.5	1610.81
438.721	1575.81
438.943	1581.81
439.165	1601.81
439.386	1564.81
439.608	1608.81
439.829	1624.81
440.05	1627.81
440.272	1649.81
440.493	1667.81
440.715	1665.81
440.936	1691.81
441.158	1695.81
441.379	1715.81
441.6	1758.81
441.822	1751.81
442.043	1795.81
442.264	1750.81
442.486	1745.81
442.707	1785.81
442.928	1780.81
443.149	1766.81
443.371	1743.81
443.592	1833.81
443.813	1834.81
444.034	1779.81
444.255	1803.81
444.476	1895.81
444.698	1912.81
444.919	1967.81
445.14	2009.81
445.361	1939.81
445.582	1832.81
445.803	1789.81
446.024	1724.81
446.245	1675.81
446.466	1707.81
446.687	1666.81
446.908	1654.81
447.129	1609.81
447.35	1603.81
447.571	1612.81
447.792	1557.81
448.013	1552.81
448.234	1583.81
448.455	1539.81
448.675	1538.81
448.896	1544.81
449.117	1501.81
449.338	1516.81
449.559	1479.81
449.779	1521.81
450	1487.81
450.221	1487.81
450.442	1511.81
450.662	1505.81
450.883	1525.81
451.104	1581.81
451.324	1569.81
451.545	1524.81
451.766	1523.81
451.986	1520.81
452.207	1532.81
452.428	1491.81
452.648	1509.81
452.869	1473.81
453.089	1497.81
453.31	1535.81
453.53	1449.81
453.751	1475.81
453.971	1482.81
454.192	1499.81
454.412	1497.81
454.633	1449.81
454.853	1431.81
455.073	1457.81
455.294	1477.81
455.514	1480.81
455.734	1473.81
455.955	1522.81
456.175	1481.81
456.395	1459.81
456.616	1448.81
456.836	1457.81
457.056	1467.81
457.276	1451.81
457.497	1493.81
457.717	1499.81
457.937	1519.81
458.157	1529.81
458.377	1517.81
458.598	1484.81
458.818	1548.81
459.038	1572.81
459.258	1612.81
459.478	1684.81
459.698	1815.81
459.918	1801.81
460.138	1866.81
460.358	1850.81
460.578	1821.81
460.798	1943.81
461.018	1944.81
461.238	1893.81
461.458	1839.81
461.678	1861.81
461.898	1946.81
462.118	1917.81
462.338	1965.81
462.558	2016.81
462.777	2095.81
462.997	2178.81
463.217	2302.81
463.437	2343.81
463.657	2210.81
463.876	2163.81
464.096	2088.81
464.316	2075.81
464.536	2087.81
464.755	2039.81
464.975	1965.81
465.195	1935.81
465.414	1886.81
465.634	1788.81
465.854	1728.81
466.073	1750.81
466.293	1673.81
466.512	1663.81
466.732	1641.81
466.951	1662.81
467.171	1649.81
467.391	1662.81
467.61	1637.81
467.829	1626.81
468.049	1584.81
468.268	1589.81
468.488	1612.81
468.707	1556.81
468.927	1592.81
469.146	1590.81
469.365	1601.81
469.585	1595.81
469.804	1634.81
470.023	1624.81
470.243	1640.81
470.462	1657.81
470.681	1656.81
470.901	1654.81
471.12	1662.81
471.339	1606.81
471.558	1575.81
471.777	1657.81
471.997	1599.81
472.216	1579.81
472.435	1586.81
472.654	1575.81
472.873	1525.81
473.092	1565.81
473.311	1579.81
473.53	1551.81
473.749	1569.81
473.968	1578.81
474.187	1585.81
474.406	1577.81
474.625	1571.81
474.844	1593.81
475.063	1586.81
475.282	1649.81
475.501	1630.81
475.72	1633.81
475.939	1628.81
476.158	1614.81
476.377	1647.81
476.596	1665.81
476.814	1663.81
477.033	1663.81
477.252	1699.81
477.471	1729.81
477.69	1770.81
477.908	1777.81
478.127	1811.81
478.346	1829.81
478.564	1865.81
478.783	1847.81
479.002	1946.81
479.22	1989.81
479.439	1948.81
479.658	1929.81
479.876	1926.81
480.095	1916.81
480.313	1919.81
480.532	1941.81
480.751	1995.81
480.969	1955.81
481.188	1930.81
481.406	1879.81
481.624	1829.81
481.843	1855.81
482.061	1824.81
482.28	1834.81
482.498	1841.81
482.717	1851.81
482.935	1845.81
483.153	1878.81
483.372	1864.81
483.59	1948.81
483.808	1927.81
484.027	1831.81
484.245	1889.81
484.463	1898.81
484.681	1874.81
484.9	1857.81
485.118	1879.81
485.336	1905.81
485.554	1894.81
485.772	1917.81
485.99	1891.81
486.209	1898.81
486.427	1888.81
486.645	1905.81
486.863	1979.81
487.081	1914.81
487.299	1913.81
487.517	1907.81
487.735	1946.81
487.953	1946.81
488.171	1941.81
488.389	1923.81
488.607	1918.81
488.825	1910.81
489.043	1872.81
489.261	1906.81
489.479	1903.81
489.696	1932.81
489.914	1915.81
490.132	1941.81
490.35	1946.81
490.568	1975.81
490.786	1944.81
491.003	1957.81
491.221	1956.81
491.439	1966.81
491.657	1919.81
491.874	1999.81
492.092	1995.81
492.31	2019.81
492.527	2046.81
492.745	2003.81
492.963	2004.81
493.18	1993.81
493.398	1996.81
493.615	2035.81
493.833	2020.81
494.05	2018.81
494.268	2011.81
494.485	2034.81
494.703	2017.81
494.92	2113.81
495.138	2099.81
495.355	2083.81
495.573	2141.81
495.79	2086.81
496.008	2154.81
496.225	2146.81
496.442	2131.81
496.66	2189.81
496.877	2164.81
497.094	2245.81
497.312	2249.81
497.529	2277.81
497.746	2333.81
497.963	2410.81
498.181	2491.81
498.398	2565.81
498.615	2682.81
498.832	2739.81
499.049	2946.81
499.267	3027.81
499.484	3264.81
499.701	3386.81
499.918	3619.81
500.135	3913.81
500.352	4130.81
500.569	4195.81
500.786	4227.81
501.003	4092.81
501.22	3912.81
501.437	3644.81
501.654	3399.81
501.871	3222.81
502.088	3065.81
502.305	2909.81
502.522	2751.81
502.739	2729.81
502.956	2595.81
503.172	2519.81
503.389	2464.81
503.606	2380.81
503.823	2336.81
504.04	2344.81
504.256	2287.81
504.473	2298.81
504.69	2240.81
504.907	2248.81
505.123	2186.81
505.34	2150.81
505.557	2016.81
505.773	2020.81
505.99	1989.81
506.207	1919.81
506.423	1905.81
506.64	1879.81
506.856	1888.81
507.073	1868.81
507.289	1837.81
507.506	1801.81
507.722	1785.81
507.939	1811.81
508.155	1815.81
508.372	1844.81
508.588	1766.81
508.805	1781.81
509.021	1698.81
509.238	1729.81
509.454	1713.81
509.67	1676.81
509.887	1696.81
510.103	1685.81
510.319	1654.81
510.536	1648.81
510.752	1654.81
510.968	1632.81
511.184	1611.81
511.401	1624.81
511.617	1642.81
511.833	1652.81
512.049	1631.81
512.265	1641.81
512.481	1662.81
512.698	1616.81
512.914	1624.81
513.13	1630.81
513.346	1630.81
513.562	1655.81
513.778	1659.81
513.994	1665.81
514.21	1642.81
514.426	1685.81
514.642	1683.81
514.858	1723.81
515.074	1699.81
515.29	1658.81
515.506	1702.81
515.721	1715.81
515.937	1724.81
516.153	1741.81
516.369	1731.81
516.585	1820.81
516.801	1785.81
517.016	1841.81
517.232	1923.81
517.448	1922.81
517.664	2000.81
517.879	1980.81
518.095	1988.81
518.311	1952.81
518.527	1918.81
518.742	1876.81
518.958	1841.81
519.173	1813.81
519.389	1779.81
519.605	1739.81
519.82	1707.81
520.036	1696.81
520.251	1668.81
520.467	1619.81
520.682	1632.81
520.898	1601.81
521.113	1606.81
521.329	1592.81
521.544	1548.81
521.76	1580.81
521.975	1576.81
522.19	1564.81
522.406	1525.81
522.621	1509.81
522.836	1552.81
523.052	1528.81
523.267	1531.81
523.482	1518.81
523.698	1514.81
523.913	1491.81
524.128	1490.81
524.343	1452.81
524.559	1468.81
524.774	1449.81
524.989	1437.81
525.204	1455.81
525.419	1454.81
525.634	1451.81
525.849	1455.81
526.064	1451.81
526.28	1477.81
526.495	1445.81
526.71	1407.81
526.925	1444.81
527.14	1441.81
527.355	1433.81
527.57	1436.81
527.785	1437.81
527.999	1438.81
528.214	1438.81
528.429	1429.81
528.644	1446.81
528.859	1445.81
529.074	1435.81
529.289	1433.81
529.503	1433.81
529.718	1439.81
529.933	1412.81
530.148	1442.81
530.363	1432.81
530.577	1420.81
530.792	1409.81
531.007	1384.81
531.221	1413.81
531.436	1411.81
531.651	1402.81
531.865	1401.81
532.08	1418.81
532.295	1414.81
532.509	1407.81
532.724	1376.81
532.938	1376.81
533.153	1368.81
533.367	1410.81
533.582	1378.81
533.796	1396.81
534.011	1403.81
534.225	1388.81
534.44	1359.81
534.654	1378.81
534.868	1362.81
535.083	1384.81
535.297	1373.81
535.511	1336.81
535.726	1321.81
535.94	1376.81
536.154	1351.81
536.369	1305.81
536.583	1319.81
536.797	1317.81
537.011	1299.81
537.225	1316.81
537.44	1312.81
537.654	1324.81
537.868	1284.81
538.082	1243.81
538.296	1275.81
538.51	1289.81
538.724	1293.81
538.938	1296.81
539.153	1266.81
539.367	1290.81
539.581	1245.81
539.795	1255.81
540.009	1269.81
540.222	1242.81
540.436	1287.81
540.65	1270.81
540.864	1256.81
541.078	1253.81
541.292	1300.81
541.506	1270.81
541.72	1271.81
541.934	1284.81
542.147	1282.81
542.361	1292.81
542.575	1261.81
542.789	1255.81
543.002	1275.81
543.216	1238.81
543.43	1256.81
543.644	1214.81
543.857	1254.81
544.071	1252.81
544.285	1280.81
544.498	1290.81
544.712	1268.81
544.925	1249.81
545.139	1259.81
545.352	1254.81
545.566	1266.81
545.779	1269.81
545.993	1284.81
546.206	1266.81
546.42	1266.81
546.633	1290.81
546.847	1283.81
547.06	1274.81
547.274	1254.81
547.487	1253.81
547.7	1278.81
547.914	1324.81
548.127	1283.81
548.34	1297.81
548.554	1287.81
548.767	1267.81
548.98	1273.81
549.193	1265.81
549.407	1264.81
549.62	1281.81
549.833	1280.81
550.046	1254.81
550.259	1323.81
550.473	1239.81
550.686	1281.81
550.899	1226.81
551.112	1245.81
551.325	1257.81
551.538	1248.81
551.751	1207.81
551.964	1236.81
552.177	1254.81
552.39	1269.81
552.603	1265.81
552.816	1324.81
553.029	1302.81
553.242	1304.81
553.455	1306.81
553.667	1300.81
553.88	1310.81
554.093	1249.81
554.306	1241.81
554.519	1236.81
554.732	1216.81
554.944	1179.81
555.157	1171.81
555.37	1186.81
555.583	1186.81
555.795	1158.81
556.008	1130.81
556.221	1147.81
556.433	1132.81
556.646	1110.81
556.859	1109.81
557.071	1109.81
557.284	1078.81
557.496	1084.81
557.709	1099.81
557.921	1083.81
558.134	1077.81
558.346	1077.81
558.559	1079.81
558.771	1044.81
558.984	1069.81
559.196	1029.81
559.409	1084.81
559.621	1041.81
559.833	1062.81
560.046	1065.81
560.258	1056.81
560.47	1082.81
560.683	1037.81
560.895	1095.81
561.107	1059.81
561.32	1054.81
561.532	1033.81
561.744	1076.81
561.956	1075.81
562.168	1046.81
562.381	1065.81
562.593	1052.81
562.805	1077.81
563.017	1071.81
563.229	1079.81
563.441	1052.81
563.653	1095.81
563.865	1042.81
564.077	1083.81
564.289	1068.81
564.501	1088.81
564.713	1129.81
564.925	1148.81
565.137	1157.81
565.349	1159.81
565.561	1165.81
565.773	1199.81
565.985	1223.81
566.197	1267.81
566.408	1301.81
566.62	1364.81
566.832	1373.81
567.044	1411.81
567.255	1450.81
567.467	1447.81
567.679	1480.81
567.891	1515.81
568.102	1499.81
568.314	1472.81
568.526	1426.81
568.737	1319.81
568.949	1265.81
569.161	1232.81
569.372	1169.81
569.584	1137.81
569.795	1099.81
570.007	1087.81
570.218	1038.81
570.43	1035.81
570.641	1038.81
570.853	1019.81
571.064	1025.81
571.276	1011.81
571.487	986.81
571.698	966.81
571.91	963.81
572.121	943.81
572.333	931.81
572.544	909.81
572.755	904.81
572.966	908.81
573.178	892.81
573.389	859.81
573.6	817.81
573.811	871.81
574.023	834.81
574.234	858.81
574.445	825.81
574.656	836.81
574.867	834.81
575.078	811.81
575.289	829.81
575.501	818.81
575.712	811.81
575.923	813.81
576.134	794.81
576.345	790.81
576.556	790.81
576.767	778.81
576.978	796.81
577.188	768.81
577.399	767.81
577.61	777.81
577.821	761.81
578.032	760.81
578.243	748.81
578.454	771.81
578.665	759.81
578.875	736.81
579.086	739.81
579.297	752.81
579.508	767.81
579.718	736.81
579.929	732.81
580.14	723.81
580.35	727.81
580.561	715.81
580.772	728.81
580.982	713.81
581.193	687.81
581.403	721.81
581.614	723.81
581.825	699.81
582.035	720.81
582.246	679.81
582.456	694.81
582.667	707.81
582.877	682.81
583.087	667.81
583.298	698.81
583.508	672.81
583.719	688.81
583.929	703.81
584.139	688.81
584.35	699.81
584.56	694.81
584.77	666.81
584.981	667.81
585.191	678.81
585.401	648.81
585.611	652.81
585.821	679.81
586.032	677.81
586.242	674.81
586.452	665.81
586.662	675.81
586.872	665.81
587.082	677.81
587.292	672.81
587.502	669.81
587.713	659.81
587.923	645.81
588.133	683.81
588.343	645.81
588.553	690.81
588.762	659.81
588.972	683.81
589.182	861.81
589.392	819.81
589.602	711.81
589.812	840.81
590.022	749.81
590.232	677.81
590.441	661.81
590.651	669.81
590.861	662.81
591.071	653.81
591.281	690.81
591.49	655.81
591.7	692.81
591.91	692.81
592.119	677.81
592.329	703.81
592.539	680.81
592.748	679.81
592.958	691.81
593.167	716.81
593.377	727.81
593.587	744.81
593.796	715.81
594.006	736.81
594.215	746.81
594.424	717.81
594.634	702.81
594.843	705.81
595.053	681.81
595.262	677.81
595.472	709.81
595.681	649.81
595.89	656.81
596.1	639.81
596.309	617.81
596.518	647.81
596.727	632.81
596.937	606.81
597.146	603.81
597.355	606.81
597.564	573.81
597.774	591.81
597.983	563.81
598.192	583.81
598.401	571.81
598.61	549.81
598.819	568.81
599.028	548.81
599.237	567.81
599.446	555.81
599.655	548.81
599.864	537.81
600.073	547.81
600.282	527.81
600.491	544.81
600.7	546.81
600.909	532.81
601.118	524.81
601.327	545.81
601.536	527.81
601.745	536.81
601.953	526.81
602.162	514.81
602.371	513.81
602.58	514.81
602.789	476.81
602.997	499.81
603.206	516.81
603.415	528.81
603.623	493.81
603.832	508.81
604.041	481.81
604.249	515.81
604.458	486.81
604.666	490.81
604.875	501.81
605.084	492.81
605.292	481.81
605.501	499.81
605.709	481.81
605.918	501.81
606.126	489.81
606.334	499.81
606.543	495.81
606.751	489.81
606.96	472.81
607.168	479.81
607.376	481.81
607.585	471.81
607.793	485.81
608.001	481.81
608.21	472.81
608.418	468.81
608.626	462.81
608.834	460.81
609.043	462.81
609.251	436.81
609.459	459.81
609.667	452.81
609.875	448.81
610.083	458.81
610.291	487.81
610.499	442.81
610.707	479.81
610.916	458.81
611.124	459.81
611.332	473.81
611.54	458.81
611.748	458.81
611.955	460.81
612.163	466.81
612.371	445.81
612.579	443.81
612.787	469.81
612.995	444.81
613.203	465.81
613.411	452.81
613.618	444.81
613.826	440.81
614.034	451.81
614.242	446.81
614.449	428.81
614.657	436.81
614.865	429.81
615.072	442.81
615.28	413.81
615.488	438.81
615.695	434.81
615.903	445.81
616.111	423.81
616.318	431.81
616.526	431.81
616.733	443.81
616.941	431.81
617.148	434.81
617.356	428.81
617.563	435.81
617.771	413.81
617.978	423.81
618.185	415.81
618.393	429.81
618.6	436.81
618.807	420.81
619.015	431.81
619.222	421.81
619.429	425.81
619.637	411.81
619.844	424.81
620.051	432.81
620.258	417.81
620.466	388.81
620.673	389.81
620.88	413.81
621.087	390.81
621.294	401.81
621.501	393.81
621.708	369.81
621.915	392.81
622.122	395.81
622.329	407.81
622.536	406.81
622.743	396.81
622.95	387.81
623.157	405.81
623.364	394.81
623.571	359.81
623.778	397.81
623.985	411.81
624.192	391.81
624.399	375.81
624.606	377.81
624.812	404.81
625.019	368.81
625.226	363.81
625.433	364.81
625.639	383.81
625.846	366.81
626.053	368.81
626.259	388.81
626.466	367.81
626.673	362.81
626.879	377.81
627.086	360.81
627.293	351.81
627.499	358.81
627.706	349.81
627.912	369.81
628.119	365.81
628.325	368.81
628.532	349.81
628.738	373.81
628.945	356.81
629.151	343.81
629.357	359.81
629.564	333.81
629.77	336.81
629.976	337.81
630.183	358.81
630.389	325.81
630.595	328.81
630.802	334.81
631.008	335.81
631.214	340.81
631.42	342.81
631.627	333.81
631.833	352.81
632.039	330.81
632.245	348.81
632.451	340.81
632.657	344.81
632.863	336.81
633.069	304.81
633.275	306.81
633.481	326.81
633.688	307.81
633.893	330.81
634.099	326.81
634.305	308.81
634.511	324.81
634.717	327.81
634.923	312.81
635.129	320.81
635.335	331.81
635.541	324.81
635.747	306.81
635.952	314.81
636.158	301.81
636.364	305.81
636.57	299.81
636.775	299.81
636.981	321.81
637.187	308.81
637.392	299.81
637.598	316.81
637.804	288.81
638.009	307.81
638.215	313.81
638.421	306.81
638.626	294.81
638.832	311.81
639.037	291.81
639.243	303.81
639.448	293.81
639.654	301.81
639.859	285.81
640.065	278.81
640.27	269.81
640.475	277.81
640.681	306.81
640.886	267.81
641.091	288.81
641.297	295.81
641.502	277.81
641.707	296.81
641.913	274.81
642.118	287.81
642.323	303.81
642.528	302.81
642.733	275.81
642.939	290.81
643.144	299.81
643.349	272.81
643.554	269.81
643.759	268.81
643.964	269.81
644.169	269.81
644.374	268.81
644.579	262.81
644.784	279.81
644.989	276.81
645.194	273.81
645.399	258.81
645.604	272.81
645.809	277.81
646.014	279.81
646.219	264.81
646.423	272.81
646.628	294.81
646.833	284.81
647.038	268.81
647.243	268.81
647.447	261.81
647.652	269.81
647.857	292.81
648.062	268.81
648.266	275.81
648.471	288.81
648.676	294.81
648.88	269.81
649.085	278.81
649.289	275.81
649.494	279.81
649.698	282.81
649.903	279.81
650.107	271.81
650.312	272.81
650.516	274.81
650.721	256.81
650.925	244.81
651.13	235.81
651.334	241.81
651.539	234.81
651.743	238.81
651.947	244.81
652.152	243.81
652.356	228.81
652.56	224.81
652.764	223.81
652.969	214.81
653.173	219.81
653.377	213.81
653.581	231.81
653.785	231.81
653.99	201.81
654.194	199.81
654.398	203.81
654.602	200.81
654.806	200.81
655.01	190.81
655.214	185.81
655.418	203.81
655.622	187.81
655.826	206.81
656.03	186.81
656.234	208.81
656.438	188.81
656.642	196.81
656.846	183.81
657.049	188.81
657.253	181.81
657.457	167.81
657.661	156.81
657.865	159.81
658.068	158.81
658.272	159.81
658.476	151.81
658.68	129.81
658.883	128.81
659.087	147.81
659.291	134.81
659.494	131.81
659.698	132.81
659.901	115.81
660.105	121.81
660.309	103.81
660.512	97.81
660.716	108.81
660.919	85.81
661.123	100.81
661.326	104.81
661.53	116.81
661.733	102.81
661.936	89.81
662.14	88.81
662.343	95.81
662.546	93.81
662.75	95.81
662.953	103.81
663.156	87.81
663.36	105.81
663.563	91.81
663.766	70.81
663.969	84.81
664.173	88.81
664.376	79.81
664.579	84.81
664.782	78.81
664.985	85.81
665.188	85.81
665.391	87.81
665.594	87.81
665.797	78.81
666	73.81
666.203	71.81
666.406	86.81
666.609	68.81
666.812	85.81
667.015	95.81
667.218	84.81
667.421	63.81
667.624	80.81
667.827	98.81
668.03	92.81
668.232	80.81
668.435	86.81
668.638	93.81
668.841	99.81
669.043	84.81
669.246	75.81
669.449	76.81
669.651	91.81
669.854	83.81
670.057	80.81
670.259	80.81
670.462	92.81
670.665	84.81
670.867	80.81
671.07	62.81
671.272	86.81
671.475	82.81
671.677	95.81
671.88	81.81
672.082	91.81
672.284	73.81
672.487	79.81
672.689	80.81
672.892	79.81
