Data from NiCl2@0.0625M.TitratingCurve.Agarose3%dH2O.NegLispCup.LampEnergy10.LIBS07252019_HRD10591_18-33-26-577.txt Node
Date: Thu Jul 25 18:33:26 EDT 2019
User: cochatt
Spectrometer: HR+D1059
Trigger mode: 1
Integration Time (sec): 1.000000E-1
Scans to average: 1
Electric dark correction enabled: true
Nonlinearity correction enabled: false
Boxcar width: 0
XAxis mode: Wavelengths
Number of Pixels in Spectrum: 2048
>>>>>Begin Spectral Data<<<<<
223.165	-15.06
223.4	-15.06
223.635	-15.06
223.869	-26.06
224.104	-29.06
224.338	-13.06
224.573	-9.06
224.808	-7.06
225.042	-19.06
225.277	-3.06
225.511	-5.06
225.746	-11.06
225.98	12.94
226.215	28.94
226.449	6.94
226.683	17.94
226.918	35.94
227.152	34.94
227.387	28.94
227.621	50.94
227.856	52.94
228.09	51.94
228.324	51.94
228.559	43.94
228.793	68.94
229.027	149.94
229.262	166.94
229.496	153.94
229.73	182.94
229.964	184.94
230.199	196.94
230.433	187.94
230.667	195.94
230.901	209.94
231.136	189.94
231.37	189.94
231.604	188.94
231.838	192.94
232.072	191.94
232.306	210.94
232.541	233.94
232.775	208.94
233.009	211.94
233.243	217.94
233.477	217.94
233.711	224.94
233.945	239.94
234.179	233.94
234.413	222.94
234.647	230.94
234.881	222.94
235.115	225.94
235.349	244.94
235.583	241.94
235.817	225.94
236.051	241.94
236.285	244.94
236.519	230.94
236.753	228.94
236.987	235.94
237.221	249.94
237.455	241.94
237.689	244.94
237.922	251.94
238.156	244.94
238.39	272.94
238.624	272.94
238.858	266.94
239.091	264.94
239.325	259.94
239.559	273.94
239.793	275.94
240.027	273.94
240.26	280.94
240.494	291.94
240.728	298.94
240.961	282.94
241.195	285.94
241.429	294.94
241.662	304.94
241.896	294.94
242.13	318.94
242.363	291.94
242.597	306.94
242.83	326.94
243.064	332.94
243.298	330.94
243.531	335.94
243.765	338.94
243.998	346.94
244.232	355.94
244.465	354.94
244.699	348.94
244.932	355.94
245.166	360.94
245.399	375.94
245.633	349.94
245.866	343.94
246.099	368.94
246.333	345.94
246.566	359.94
246.8	363.94
247.033	371.94
247.266	392.94
247.5	384.94
247.733	394.94
247.966	380.94
248.2	390.94
248.433	393.94
248.666	408.94
248.899	404.94
249.133	385.94
249.366	415.94
249.599	422.94
249.832	424.94
250.066	422.94
250.299	421.94
250.532	436.94
250.765	434.94
250.998	427.94
251.231	430.94
251.465	450.94
251.698	449.94
251.931	434.94
252.164	440.94
252.397	454.94
252.63	486.94
252.863	466.94
253.096	457.94
253.329	466.94
253.562	464.94
253.795	480.94
254.028	481.94
254.261	460.94
254.494	478.94
254.727	483.94
254.96	460.94
255.193	498.94
255.426	476.94
255.659	498.94
255.892	508.94
256.124	475.94
256.357	495.94
256.59	490.94
256.823	489.94
257.056	525.94
257.289	499.94
257.521	527.94
257.754	506.94
257.987	535.94
258.22	518.94
258.452	501.94
258.685	539.94
258.918	542.94
259.151	525.94
259.383	534.94
259.616	530.94
259.849	537.94
260.081	546.94
260.314	558.94
260.547	566.94
260.779	553.94
261.012	554.94
261.244	537.94
261.477	574.94
261.71	558.94
261.942	552.94
262.175	554.94
262.407	575.94
262.64	582.94
262.872	575.94
263.105	583.94
263.337	592.94
263.57	591.94
263.802	567.94
264.035	600.94
264.267	602.94
264.499	587.94
264.732	569.94
264.964	598.94
265.197	613.94
265.429	632.94
265.661	608.94
265.894	615.94
266.126	599.94
266.358	646.94
266.591	644.94
266.823	619.94
267.055	627.94
267.287	652.94
267.52	634.94
267.752	647.94
267.984	648.94
268.216	644.94
268.448	624.94
268.681	650.94
268.913	652.94
269.145	660.94
269.377	652.94
269.609	694.94
269.841	662.94
270.073	665.94
270.306	670.94
270.538	657.94
270.77	664.94
271.002	675.94
271.234	676.94
271.466	682.94
271.698	699.94
271.93	675.94
272.162	675.94
272.394	722.94
272.626	685.94
272.858	702.94
273.09	687.94
273.322	712.94
273.553	697.94
273.785	728.94
274.017	710.94
274.249	714.94
274.481	726.94
274.713	724.94
274.945	756.94
275.176	743.94
275.408	756.94
275.64	732.94
275.872	755.94
276.104	738.94
276.335	746.94
276.567	753.94
276.799	752.94
277.031	750.94
277.262	746.94
277.494	757.94
277.726	777.94
277.957	768.94
278.189	795.94
278.421	750.94
278.652	794.94
278.884	763.94
279.115	778.94
279.347	812.94
279.579	808.94
279.81	806.94
280.042	783.94
280.273	823.94
280.505	832.94
280.736	828.94
280.968	823.94
281.199	826.94
281.431	819.94
281.662	841.94
281.894	828.94
282.125	841.94
282.356	853.94
282.588	851.94
282.819	837.94
283.051	858.94
283.282	871.94
283.513	863.94
283.745	846.94
283.976	879.94
284.207	896.94
284.439	884.94
284.67	885.94
284.901	869.94
285.132	886.94
285.364	882.94
285.595	890.94
285.826	886.94
286.057	881.94
286.288	910.94
286.52	909.94
286.751	898.94
286.982	897.94
287.213	896.94
287.444	919.94
287.675	916.94
287.906	899.94
288.138	926.94
288.369	928.94
288.6	938.94
288.831	937.94
289.062	913.94
289.293	902.94
289.524	946.94
289.755	937.94
289.986	916.94
290.217	916.94
290.448	931.94
290.679	954.94
290.91	947.94
291.141	917.94
291.371	910.94
291.602	955.94
291.833	946.94
292.064	948.94
292.295	954.94
292.526	960.94
292.757	917.94
292.987	934.94
293.218	969.94
293.449	952.94
293.68	939.94
293.91	961.94
294.141	947.94
294.372	942.94
294.603	949.94
294.833	946.94
295.064	1000.94
295.295	960.94
295.525	986.94
295.756	937.94
295.987	952.94
296.217	955.94
296.448	951.94
296.679	985.94
296.909	976.94
297.14	985.94
297.37	1018.94
297.601	1004.94
297.831	984.94
298.062	1027.94
298.292	1030.94
298.523	1039.94
298.753	1049.94
298.984	1024.94
299.214	1009.94
299.445	1059.94
299.675	1026.94
299.905	1052.94
300.136	1024.94
300.366	1054.94
300.597	1067.94
300.827	1077.94
301.057	1072.94
301.288	1056.94
301.518	1086.94
301.748	1108.94
301.979	1111.94
302.209	1131.94
302.439	1092.94
302.669	1101.94
302.9	1067.94
303.13	1071.94
303.36	1097.94
303.59	1075.94
303.82	1068.94
304.051	1076.94
304.281	1079.94
304.511	1076.94
304.741	1068.94
304.971	1095.94
305.201	1089.94
305.431	1087.94
305.661	1106.94
305.891	1078.94
306.121	1092.94
306.352	1080.94
306.582	1088.94
306.812	1080.94
307.042	1084.94
307.272	1066.94
307.502	1087.94
307.731	1094.94
307.961	1090.94
308.191	1075.94
308.421	1068.94
308.651	1054.94
308.881	1044.94
309.111	1067.94
309.341	1081.94
309.571	1078.94
309.8	1088.94
310.03	1098.94
310.26	1072.94
310.49	1057.94
310.72	1093.94
310.949	1081.94
311.179	1106.94
311.409	1073.94
311.639	1108.94
311.868	1111.94
312.098	1123.94
312.328	1139.94
312.557	1119.94
312.787	1127.94
313.017	1098.94
313.246	1108.94
313.476	1134.94
313.706	1117.94
313.935	1146.94
314.165	1162.94
314.394	1157.94
314.624	1163.94
314.853	1167.94
315.083	1200.94
315.312	1188.94
315.542	1170.94
315.771	1164.94
316.001	1146.94
316.23	1170.94
316.46	1137.94
316.689	1145.94
316.919	1132.94
317.148	1148.94
317.377	1165.94
317.607	1133.94
317.836	1132.94
318.065	1144.94
318.295	1159.94
318.524	1154.94
318.753	1131.94
318.983	1147.94
319.212	1142.94
319.441	1136.94
319.67	1143.94
319.9	1144.94
320.129	1170.94
320.358	1124.94
320.587	1156.94
320.816	1151.94
321.046	1162.94
321.275	1155.94
321.504	1170.94
321.733	1156.94
321.962	1201.94
322.191	1184.94
322.42	1188.94
322.649	1174.94
322.878	1176.94
323.108	1190.94
323.337	1156.94
323.566	1179.94
323.795	1194.94
324.024	1187.94
324.253	1180.94
324.482	1176.94
324.71	1212.94
324.939	1206.94
325.168	1195.94
325.397	1202.94
325.626	1198.94
325.855	1224.94
326.084	1272.94
326.313	1256.94
326.542	1237.94
326.77	1275.94
326.999	1273.94
327.228	1255.94
327.457	1251.94
327.686	1239.94
327.914	1245.94
328.143	1254.94
328.372	1246.94
328.6	1288.94
328.829	1268.94
329.058	1262.94
329.287	1247.94
329.515	1266.94
329.744	1258.94
329.972	1296.94
330.201	1259.94
330.43	1289.94
330.658	1293.94
330.887	1317.94
331.115	1310.94
331.344	1333.94
331.572	1321.94
331.801	1368.94
332.03	1346.94
332.258	1383.94
332.486	1397.94
332.715	1446.94
332.943	1478.94
333.172	1507.94
333.4	1579.94
333.629	1636.94
333.857	1627.94
334.085	1584.94
334.314	1624.94
334.542	1588.94
334.771	1598.94
334.999	1565.94
335.227	1577.94
335.455	1569.94
335.684	1570.94
335.912	1564.94
336.14	1522.94
336.369	1539.94
336.597	1540.94
336.825	1500.94
337.053	1520.94
337.281	1472.94
337.51	1485.94
337.738	1423.94
337.966	1425.94
338.194	1403.94
338.422	1397.94
338.65	1382.94
338.878	1348.94
339.106	1428.94
339.334	1402.94
339.562	1376.94
339.79	1326.94
340.018	1335.94
340.246	1299.94
340.474	1354.94
340.702	1318.94
340.93	1361.94
341.158	1330.94
341.386	1319.94
341.614	1341.94
341.842	1328.94
342.07	1303.94
342.298	1298.94
342.526	1301.94
342.754	1310.94
342.981	1320.94
343.209	1351.94
343.437	1424.94
343.665	1440.94
343.893	1560.94
344.12	1575.94
344.348	1534.94
344.576	1498.94
344.804	1442.94
345.031	1386.94
345.259	1353.94
345.487	1331.94
345.714	1329.94
345.942	1295.94
346.17	1295.94
346.397	1258.94
346.625	1319.94
346.853	1282.94
347.08	1274.94
347.308	1291.94
347.535	1289.94
347.763	1282.94
347.99	1290.94
348.218	1267.94
348.445	1252.94
348.673	1267.94
348.9	1270.94
349.128	1243.94
349.355	1262.94
349.583	1243.94
349.81	1232.94
350.037	1250.94
350.265	1241.94
350.492	1244.94
350.72	1222.94
350.947	1259.94
351.174	1239.94
351.402	1265.94
351.629	1222.94
351.856	1186.94
352.083	1201.94
352.311	1233.94
352.538	1210.94
352.765	1216.94
352.992	1240.94
353.22	1206.94
353.447	1215.94
353.674	1210.94
353.901	1216.94
354.128	1223.94
354.355	1199.94
354.583	1213.94
354.81	1218.94
355.037	1219.94
355.264	1242.94
355.491	1220.94
355.718	1209.94
355.945	1218.94
356.172	1240.94
356.399	1230.94
356.626	1250.94
356.853	1228.94
357.08	1227.94
357.307	1195.94
357.534	1236.94
357.761	1230.94
357.988	1246.94
358.215	1243.94
358.441	1214.94
358.668	1213.94
358.895	1228.94
359.122	1193.94
359.349	1227.94
359.576	1214.94
359.802	1254.94
360.029	1218.94
360.256	1246.94
360.483	1232.94
360.709	1222.94
360.936	1215.94
361.163	1236.94
361.39	1227.94
361.616	1214.94
361.843	1233.94
362.07	1259.94
362.296	1222.94
362.523	1246.94
362.749	1205.94
362.976	1218.94
363.203	1241.94
363.429	1212.94
363.656	1217.94
363.882	1219.94
364.109	1211.94
364.335	1220.94
364.562	1207.94
364.788	1238.94
365.015	1223.94
365.241	1202.94
365.468	1234.94
365.694	1234.94
365.92	1211.94
366.147	1189.94
366.373	1234.94
366.599	1257.94
366.826	1283.94
367.052	1237.94
367.278	1244.94
367.505	1232.94
367.731	1251.94
367.957	1237.94
368.184	1265.94
368.41	1249.94
368.636	1209.94
368.862	1280.94
369.089	1255.94
369.315	1264.94
369.541	1280.94
369.767	1282.94
369.993	1278.94
370.219	1251.94
370.445	1306.94
370.672	1302.94
370.898	1303.94
371.124	1342.94
371.35	1330.94
371.576	1307.94
371.802	1362.94
372.028	1364.94
372.254	1382.94
372.48	1354.94
372.706	1365.94
372.932	1364.94
373.158	1398.94
373.384	1359.94
373.61	1374.94
373.835	1331.94
374.061	1340.94
374.287	1360.94
374.513	1400.94
374.739	1418.94
374.965	1462.94
375.191	1446.94
375.416	1439.94
375.642	1421.94
375.868	1421.94
376.094	1381.94
376.319	1348.94
376.545	1335.94
376.771	1318.94
376.997	1312.94
377.222	1318.94
377.448	1297.94
377.674	1335.94
377.899	1311.94
378.125	1299.94
378.35	1317.94
378.576	1312.94
378.802	1315.94
379.027	1311.94
379.253	1324.94
379.478	1337.94
379.704	1316.94
379.929	1347.94
380.155	1334.94
380.38	1309.94
380.606	1329.94
380.831	1306.94
381.057	1319.94
381.282	1319.94
381.507	1326.94
381.733	1372.94
381.958	1338.94
382.184	1368.94
382.409	1374.94
382.634	1369.94
382.86	1404.94
383.085	1412.94
383.31	1401.94
383.535	1417.94
383.761	1440.94
383.986	1467.94
384.211	1500.94
384.436	1519.94
384.662	1562.94
384.887	1547.94
385.112	1546.94
385.337	1601.94
385.562	1579.94
385.787	1566.94
386.013	1569.94
386.238	1622.94
386.463	1620.94
386.688	1616.94
386.913	1568.94
387.138	1582.94
387.363	1584.94
387.588	1557.94
387.813	1573.94
388.038	1576.94
388.263	1574.94
388.488	1587.94
388.713	1582.94
388.938	1572.94
389.163	1573.94
389.387	1605.94
389.612	1575.94
389.837	1537.94
390.062	1591.94
390.287	1602.94
390.512	1577.94
390.736	1602.94
390.961	1596.94
391.186	1677.94
391.411	1708.94
391.636	1698.94
391.86	1687.94
392.085	1800.94
392.31	1786.94
392.534	1724.94
392.759	1733.94
392.984	1734.94
393.208	1737.94
393.433	1676.94
393.658	1724.94
393.882	1696.94
394.107	1676.94
394.331	1720.94
394.556	1696.94
394.78	1703.94
395.005	1754.94
395.229	1690.94
395.454	1749.94
395.678	1740.94
395.903	1776.94
396.127	1744.94
396.352	1699.94
396.576	1698.94
396.801	1671.94
397.025	1736.94
397.249	1798.94
397.474	1798.94
397.698	1790.94
397.922	1815.94
398.147	1812.94
398.371	1822.94
398.595	1898.94
398.82	1975.94
399.044	2068.94
399.268	2204.94
399.492	2504.94
399.717	2689.94
399.941	2736.94
400.165	2504.94
400.389	2374.94
400.613	2183.94
400.837	2113.94
401.062	2061.94
401.286	1994.94
401.51	1970.94
401.734	1965.94
401.958	1984.94
402.182	1984.94
402.406	2002.94
402.63	2036.94
402.854	2034.94
403.078	2048.94
403.302	2076.94
403.526	2103.94
403.75	2140.94
403.974	2139.94
404.198	2165.94
404.422	2142.94
404.645	2139.94
404.869	2145.94
405.093	2153.94
405.317	2149.94
405.541	2127.94
405.765	2125.94
405.988	2111.94
406.212	2137.94
406.436	2160.94
406.66	2208.94
406.883	2235.94
407.107	2316.94
407.331	2397.94
407.555	2433.94
407.778	2461.94
408.002	2387.94
408.226	2420.94
408.449	2366.94
408.673	2230.94
408.896	2264.94
409.12	2242.94
409.344	2228.94
409.567	2209.94
409.791	2218.94
410.014	2168.94
410.238	2174.94
410.461	2148.94
410.685	2154.94
410.908	2138.94
411.132	2130.94
411.355	2061.94
411.578	2063.94
411.802	2080.94
412.025	2094.94
412.249	2094.94
412.472	2088.94
412.695	2046.94
412.919	1938.94
413.142	1999.94
413.365	1945.94
413.589	1990.94
413.812	1993.94
414.035	1961.94
414.258	1963.94
414.482	1985.94
414.705	2005.94
414.928	1960.94
415.151	1996.94
415.374	1985.94
415.597	1967.94
415.821	1883.94
416.044	1888.94
416.267	1883.94
416.49	1895.94
416.713	1855.94
416.936	1908.94
417.159	1849.94
417.382	1862.94
417.605	1894.94
417.828	1910.94
418.051	1916.94
418.274	1931.94
418.497	1883.94
418.72	1941.94
418.943	1913.94
419.166	2077.94
419.389	2154.94
419.611	2130.94
419.834	2059.94
420.057	1980.94
420.28	1951.94
420.503	1874.94
420.726	1854.94
420.948	1861.94
421.171	1894.94
421.394	1849.94
421.617	1869.94
421.839	1922.94
422.062	1913.94
422.285	1884.94
422.507	1949.94
422.73	1938.94
422.953	1920.94
423.175	1921.94
423.398	1963.94
423.621	1919.94
423.843	2000.94
424.066	1966.94
424.288	1942.94
424.511	1939.94
424.733	1954.94
424.956	1918.94
425.178	1934.94
425.401	1915.94
425.623	1906.94
425.846	1859.94
426.068	1824.94
426.291	1808.94
426.513	1855.94
426.735	1828.94
426.958	1801.94
427.18	1737.94
427.402	1785.94
427.625	1775.94
427.847	1729.94
428.069	1744.94
428.292	1745.94
428.514	1694.94
428.736	1672.94
428.958	1769.94
429.181	1670.94
429.403	1675.94
429.625	1744.94
429.847	1680.94
430.069	1678.94
430.292	1695.94
430.514	1667.94
430.736	1701.94
430.958	1714.94
431.18	1736.94
431.402	1727.94
431.624	1754.94
431.846	1731.94
432.068	1718.94
432.29	1758.94
432.512	1752.94
432.734	1761.94
432.956	1760.94
433.178	1752.94
433.4	1734.94
433.622	1775.94
433.844	1730.94
434.066	1808.94
434.287	1811.94
434.509	1853.94
434.731	1895.94
434.953	1919.94
435.175	1897.94
435.397	1913.94
435.618	1829.94
435.84	1798.94
436.062	1763.94
436.284	1750.94
436.505	1718.94
436.727	1694.94
436.949	1752.94
437.17	1737.94
437.392	1716.94
437.614	1702.94
437.835	1634.94
438.057	1664.94
438.278	1617.94
438.5	1627.94
438.721	1642.94
438.943	1679.94
439.165	1651.94
439.386	1654.94
439.608	1682.94
439.829	1667.94
440.05	1678.94
440.272	1696.94
440.493	1679.94
440.715	1712.94
440.936	1711.94
441.158	1760.94
441.379	1778.94
441.6	1876.94
441.822	1896.94
442.043	1867.94
442.264	1865.94
442.486	1814.94
442.707	1792.94
442.928	1822.94
443.149	1831.94
443.371	1847.94
443.592	1876.94
443.813	1876.94
444.034	1877.94
444.255	1954.94
444.476	2016.94
444.698	2080.94
444.919	2082.94
445.14	2204.94
445.361	2058.94
445.582	1931.94
445.803	1820.94
446.024	1783.94
446.245	1782.94
446.466	1769.94
446.687	1697.94
446.908	1691.94
447.129	1669.94
447.35	1674.94
447.571	1637.94
447.792	1597.94
448.013	1615.94
448.234	1578.94
448.455	1537.94
448.675	1562.94
448.896	1551.94
449.117	1524.94
449.338	1524.94
449.559	1528.94
449.779	1543.94
450	1515.94
450.221	1505.94
450.442	1534.94
450.662	1534.94
450.883	1542.94
451.104	1527.94
451.324	1511.94
451.545	1558.94
451.766	1532.94
451.986	1534.94
452.207	1498.94
452.428	1504.94
452.648	1507.94
452.869	1523.94
453.089	1487.94
453.31	1534.94
453.53	1494.94
453.751	1483.94
453.971	1443.94
454.192	1473.94
454.412	1434.94
454.633	1422.94
454.853	1448.94
455.073	1439.94
455.294	1462.94
455.514	1415.94
455.734	1468.94
455.955	1398.94
456.175	1464.94
456.395	1396.94
456.616	1409.94
456.836	1448.94
457.056	1461.94
457.276	1414.94
457.497	1470.94
457.717	1451.94
457.937	1482.94
458.157	1470.94
458.377	1495.94
458.598	1557.94
458.818	1557.94
459.038	1599.94
459.258	1660.94
459.478	1696.94
459.698	1767.94
459.918	1777.94
460.138	1820.94
460.358	1855.94
460.578	1897.94
460.798	1907.94
461.018	1951.94
461.238	1962.94
461.458	1945.94
461.678	1975.94
461.898	1957.94
462.118	2010.94
462.338	2065.94
462.558	2121.94
462.777	2188.94
462.997	2343.94
463.217	2426.94
463.437	2477.94
463.657	2315.94
463.876	2275.94
464.096	2206.94
464.316	2206.94
464.536	2192.94
464.755	2150.94
464.975	2073.94
465.195	1993.94
465.414	1924.94
465.634	1801.94
465.854	1846.94
466.073	1742.94
466.293	1676.94
466.512	1618.94
466.732	1625.94
466.951	1611.94
467.171	1626.94
467.391	1622.94
467.61	1633.94
467.829	1582.94
468.049	1610.94
468.268	1575.94
468.488	1558.94
468.707	1567.94
468.927	1562.94
469.146	1574.94
469.365	1605.94
469.585	1576.94
469.804	1583.94
470.023	1636.94
470.243	1623.94
470.462	1629.94
470.681	1659.94
470.901	1678.94
471.12	1658.94
471.339	1646.94
471.558	1619.94
471.777	1596.94
471.997	1592.94
472.216	1566.94
472.435	1551.94
472.654	1553.94
472.873	1569.94
473.092	1573.94
473.311	1538.94
473.53	1544.94
473.749	1551.94
473.968	1559.94
474.187	1515.94
474.406	1544.94
474.625	1583.94
474.844	1538.94
475.063	1585.94
475.282	1553.94
475.501	1581.94
475.72	1580.94
475.939	1610.94
476.158	1609.94
476.377	1605.94
476.596	1620.94
476.814	1652.94
477.033	1662.94
477.252	1681.94
477.471	1722.94
477.69	1730.94
477.908	1816.94
478.127	1840.94
478.346	1842.94
478.564	1874.94
478.783	1877.94
479.002	1915.94
479.22	1964.94
479.439	1932.94
479.658	1943.94
479.876	1920.94
480.095	1943.94
480.313	2032.94
480.532	2061.94
480.751	2028.94
480.969	1986.94
481.188	1984.94
481.406	1954.94
481.624	1886.94
481.843	1878.94
482.061	1873.94
482.28	1887.94
482.498	1889.94
482.717	1865.94
482.935	1858.94
483.153	1956.94
483.372	1926.94
483.59	1956.94
483.808	1947.94
484.027	1945.94
484.245	1949.94
484.463	1971.94
484.681	2016.94
484.9	1981.94
485.118	2035.94
485.336	2026.94
485.554	2014.94
485.772	2073.94
485.99	2047.94
486.209	2053.94
486.427	2070.94
486.645	2070.94
486.863	2059.94
487.081	2035.94
487.299	2063.94
487.517	2056.94
487.735	2045.94
487.953	2048.94
488.171	2020.94
488.389	2015.94
488.607	1996.94
488.825	1971.94
489.043	1978.94
489.261	1950.94
489.479	1962.94
489.696	1933.94
489.914	1974.94
490.132	2026.94
490.35	1990.94
490.568	1972.94
490.786	1979.94
491.003	1970.94
491.221	1974.94
491.439	1991.94
491.657	1922.94
491.874	1926.94
492.092	1932.94
492.31	1901.94
492.527	1922.94
492.745	1935.94
492.963	1947.94
493.18	1952.94
493.398	1961.94
493.615	2011.94
493.833	2018.94
494.05	1978.94
494.268	1977.94
494.485	1996.94
494.703	1999.94
494.92	2006.94
495.138	1940.94
495.355	2002.94
495.573	1995.94
495.79	2045.94
496.008	2038.94
496.225	2069.94
496.442	2046.94
496.66	2092.94
496.877	2112.94
497.094	2095.94
497.312	2147.94
497.529	2186.94
497.746	2240.94
497.963	2305.94
498.181	2420.94
498.398	2496.94
498.615	2619.94
498.832	2753.94
499.049	2944.94
499.267	3177.94
499.484	3384.94
499.701	3667.94
499.918	3970.94
500.135	4423.94
500.352	4811.94
500.569	4982.94
500.786	4948.94
501.003	4707.94
501.22	4384.94
501.437	3968.94
501.654	3561.94
501.871	3320.94
502.088	3098.94
502.305	2920.94
502.522	2771.94
502.739	2622.94
502.956	2556.94
503.172	2464.94
503.389	2375.94
503.606	2283.94
503.823	2272.94
504.04	2219.94
504.256	2251.94
504.473	2233.94
504.69	2246.94
504.907	2185.94
505.123	2088.94
505.34	2024.94
505.557	1918.94
505.773	1911.94
505.99	1856.94
506.207	1816.94
506.423	1803.94
506.64	1780.94
506.856	1742.94
507.073	1692.94
507.289	1698.94
507.506	1691.94
507.722	1680.94
507.939	1665.94
508.155	1657.94
508.372	1640.94
508.588	1625.94
508.805	1616.94
509.021	1592.94
509.238	1577.94
509.454	1563.94
509.67	1599.94
509.887	1619.94
510.103	1559.94
510.319	1578.94
510.536	1560.94
510.752	1544.94
510.968	1573.94
511.184	1541.94
511.401	1556.94
511.617	1568.94
511.833	1524.94
512.049	1531.94
512.265	1530.94
512.481	1559.94
512.698	1535.94
512.914	1518.94
513.13	1540.94
513.346	1498.94
513.562	1522.94
513.778	1528.94
513.994	1552.94
514.21	1576.94
514.426	1527.94
514.642	1548.94
514.858	1594.94
515.074	1559.94
515.29	1614.94
515.506	1608.94
515.721	1610.94
515.937	1691.94
516.153	1652.94
516.369	1714.94
516.585	1757.94
516.801	1811.94
517.016	1851.94
517.232	1888.94
517.448	1980.94
517.664	1992.94
517.879	2038.94
518.095	2018.94
518.311	1990.94
518.527	1919.94
518.742	1876.94
518.958	1798.94
519.173	1777.94
519.389	1716.94
519.605	1679.94
519.82	1628.94
520.036	1599.94
520.251	1564.94
520.467	1563.94
520.682	1571.94
520.898	1553.94
521.113	1509.94
521.329	1496.94
521.544	1530.94
521.76	1477.94
521.975	1486.94
522.19	1447.94
522.406	1452.94
522.621	1470.94
522.836	1465.94
523.052	1454.94
523.267	1450.94
523.482	1430.94
523.698	1404.94
523.913	1402.94
524.128	1423.94
524.343	1399.94
524.559	1403.94
524.774	1369.94
524.989	1401.94
525.204	1411.94
525.419	1388.94
525.634	1387.94
525.849	1385.94
526.064	1378.94
526.28	1387.94
526.495	1370.94
526.71	1387.94
526.925	1375.94
527.14	1384.94
527.355	1375.94
527.57	1371.94
527.785	1346.94
527.999	1408.94
528.214	1356.94
528.429	1394.94
528.644	1366.94
528.859	1355.94
529.074	1360.94
529.289	1372.94
529.503	1319.94
529.718	1369.94
529.933	1342.94
530.148	1347.94
530.363	1328.94
530.577	1346.94
530.792	1333.94
531.007	1321.94
531.221	1339.94
531.436	1370.94
531.651	1349.94
531.865	1363.94
532.08	1338.94
532.295	1347.94
532.509	1334.94
532.724	1339.94
532.938	1350.94
533.153	1359.94
533.367	1355.94
533.582	1334.94
533.796	1333.94
534.011	1310.94
534.225	1322.94
534.44	1304.94
534.654	1321.94
534.868	1296.94
535.083	1293.94
535.297	1285.94
535.511	1288.94
535.726	1293.94
535.94	1300.94
536.154	1263.94
536.369	1243.94
536.583	1257.94
536.797	1279.94
537.011	1257.94
537.225	1254.94
537.44	1255.94
537.654	1292.94
537.868	1223.94
538.082	1240.94
538.296	1260.94
538.51	1212.94
538.724	1231.94
538.938	1246.94
539.153	1218.94
539.367	1216.94
539.581	1251.94
539.795	1223.94
540.009	1220.94
540.222	1217.94
540.436	1210.94
540.65	1203.94
540.864	1170.94
541.078	1194.94
541.292	1224.94
541.506	1187.94
541.72	1210.94
541.934	1212.94
542.147	1199.94
542.361	1186.94
542.575	1206.94
542.789	1185.94
543.002	1170.94
543.216	1189.94
543.43	1220.94
543.644	1188.94
543.857	1169.94
544.071	1170.94
544.285	1184.94
544.498	1164.94
544.712	1175.94
544.925	1182.94
545.139	1209.94
545.352	1188.94
545.566	1217.94
545.779	1188.94
545.993	1201.94
546.206	1249.94
546.42	1185.94
546.633	1193.94
546.847	1205.94
547.06	1221.94
547.274	1217.94
547.487	1160.94
547.7	1187.94
547.914	1208.94
548.127	1206.94
548.34	1180.94
548.554	1191.94
548.767	1191.94
548.98	1245.94
549.193	1232.94
549.407	1227.94
549.62	1217.94
549.833	1219.94
550.046	1238.94
550.259	1232.94
550.473	1214.94
550.686	1185.94
550.899	1173.94
551.112	1155.94
551.325	1172.94
551.538	1183.94
551.751	1187.94
551.964	1223.94
552.177	1194.94
552.39	1262.94
552.603	1230.94
552.816	1264.94
553.029	1257.94
553.242	1312.94
553.455	1287.94
553.667	1266.94
553.88	1267.94
554.093	1241.94
554.306	1216.94
554.519	1219.94
554.732	1171.94
554.944	1154.94
555.157	1158.94
555.37	1151.94
555.583	1129.94
555.795	1109.94
556.008	1103.94
556.221	1061.94
556.433	1096.94
556.646	1107.94
556.859	1048.94
557.071	1042.94
557.284	1035.94
557.496	1046.94
557.709	1033.94
557.921	1016.94
558.134	982.94
558.346	1045.94
558.559	1032.94
558.771	1009.94
558.984	985.94
559.196	978.94
559.409	978.94
559.621	995.94
559.833	1012.94
560.046	1015.94
560.258	988.94
560.47	978.94
560.683	998.94
560.895	967.94
561.107	998.94
561.32	981.94
561.532	986.94
561.744	989.94
561.956	972.94
562.168	994.94
562.381	995.94
562.593	1006.94
562.805	1000.94
563.017	1020.94
563.229	1007.94
563.441	1010.94
563.653	1013.94
563.865	1014.94
564.077	1037.94
564.289	1029.94
564.501	1064.94
564.713	1066.94
564.925	1094.94
565.137	1090.94
565.349	1085.94
565.561	1138.94
565.773	1166.94
565.985	1206.94
566.197	1272.94
566.408	1345.94
566.62	1425.94
566.832	1528.94
567.044	1562.94
567.255	1531.94
567.467	1605.94
567.679	1683.94
567.891	1723.94
568.102	1732.94
568.314	1656.94
568.526	1528.94
568.737	1407.94
568.949	1366.94
569.161	1249.94
569.372	1162.94
569.584	1130.94
569.795	1083.94
570.007	1080.94
570.218	1059.94
570.43	1022.94
570.641	1001.94
570.853	990.94
571.064	1032.94
571.276	1006.94
571.487	969.94
571.698	942.94
571.91	919.94
572.121	887.94
572.333	881.94
572.544	896.94
572.755	887.94
572.966	889.94
573.178	850.94
573.389	828.94
573.6	843.94
573.811	822.94
574.023	816.94
574.234	820.94
574.445	811.94
574.656	807.94
574.867	826.94
575.078	818.94
575.289	801.94
575.501	790.94
575.712	762.94
575.923	754.94
576.134	752.94
576.345	765.94
576.556	761.94
576.767	739.94
576.978	740.94
577.188	747.94
577.399	743.94
577.61	739.94
577.821	723.94
578.032	731.94
578.243	697.94
578.454	743.94
578.665	745.94
578.875	698.94
579.086	728.94
579.297	720.94
579.508	709.94
579.718	705.94
579.929	711.94
580.14	705.94
580.35	700.94
580.561	691.94
580.772	706.94
580.982	679.94
581.193	674.94
581.403	684.94
581.614	689.94
581.825	684.94
582.035	678.94
582.246	680.94
582.456	676.94
582.667	679.94
582.877	685.94
583.087	682.94
583.298	688.94
583.508	685.94
583.719	684.94
583.929	661.94
584.139	650.94
584.35	656.94
584.56	642.94
584.77	662.94
584.981	637.94
585.191	651.94
585.401	642.94
585.611	666.94
585.821	662.94
586.032	624.94
586.242	622.94
586.452	656.94
586.662	636.94
586.872	655.94
587.082	655.94
587.292	638.94
587.502	631.94
587.713	632.94
587.923	647.94
588.133	644.94
588.343	635.94
588.553	628.94
588.762	639.94
588.972	650.94
589.182	680.94
589.392	654.94
589.602	635.94
589.812	648.94
590.022	627.94
590.232	640.94
590.441	650.94
590.651	658.94
590.861	653.94
591.071	643.94
591.281	676.94
591.49	658.94
591.7	663.94
591.91	667.94
592.119	682.94
592.329	696.94
592.539	706.94
592.748	711.94
592.958	750.94
593.167	750.94
593.377	789.94
593.587	778.94
593.796	775.94
594.006	790.94
594.215	778.94
594.424	789.94
594.634	774.94
594.843	712.94
595.053	716.94
595.262	698.94
595.472	696.94
595.681	651.94
595.89	650.94
596.1	617.94
596.309	607.94
596.518	609.94
596.727	607.94
596.937	597.94
597.146	593.94
597.355	603.94
597.564	588.94
597.774	550.94
597.983	560.94
598.192	554.94
598.401	595.94
598.61	541.94
598.819	565.94
599.028	526.94
599.237	553.94
599.446	551.94
599.655	535.94
599.864	540.94
600.073	525.94
600.282	528.94
600.491	553.94
600.7	540.94
600.909	541.94
601.118	530.94
601.327	535.94
601.536	519.94
601.745	508.94
601.953	523.94
602.162	516.94
602.371	502.94
602.58	512.94
602.789	516.94
602.997	504.94
603.206	493.94
603.415	518.94
603.623	507.94
603.832	515.94
604.041	500.94
604.249	498.94
604.458	495.94
604.666	488.94
604.875	496.94
605.084	480.94
605.292	482.94
605.501	472.94
605.709	471.94
605.918	512.94
606.126	478.94
606.334	479.94
606.543	469.94
606.751	478.94
606.96	503.94
607.168	468.94
607.376	471.94
607.585	476.94
607.793	466.94
608.001	452.94
608.21	478.94
608.418	461.94
608.626	476.94
608.834	444.94
609.043	475.94
609.251	480.94
609.459	473.94
609.667	465.94
609.875	455.94
610.083	451.94
610.291	476.94
610.499	445.94
610.707	470.94
610.916	465.94
611.124	430.94
611.332	455.94
611.54	460.94
611.748	457.94
611.955	440.94
612.163	444.94
612.371	457.94
612.579	453.94
612.787	456.94
612.995	451.94
613.203	450.94
613.411	443.94
613.618	450.94
613.826	446.94
614.034	450.94
614.242	464.94
614.449	446.94
614.657	436.94
614.865	442.94
615.072	457.94
615.28	441.94
615.488	451.94
615.695	447.94
615.903	447.94
616.111	435.94
616.318	466.94
616.526	445.94
616.733	474.94
616.941	450.94
617.148	446.94
617.356	457.94
617.563	446.94
617.771	431.94
617.978	441.94
618.185	448.94
618.393	454.94
618.6	435.94
618.807	432.94
619.015	425.94
619.222	440.94
619.429	432.94
619.637	464.94
619.844	425.94
620.051	424.94
620.258	422.94
620.466	407.94
620.673	424.94
620.88	408.94
621.087	392.94
621.294	410.94
621.501	409.94
621.708	403.94
621.915	398.94
622.122	400.94
622.329	403.94
622.536	410.94
622.743	413.94
622.95	387.94
623.157	382.94
623.364	374.94
623.571	403.94
623.778	371.94
623.985	410.94
624.192	403.94
624.399	401.94
624.606	402.94
624.812	393.94
625.019	380.94
625.226	376.94
625.433	383.94
625.639	395.94
625.846	376.94
626.053	355.94
626.259	378.94
626.466	378.94
626.673	386.94
626.879	360.94
627.086	366.94
627.293	366.94
627.499	359.94
627.706	388.94
627.912	375.94
628.119	370.94
628.325	356.94
628.532	373.94
628.738	362.94
628.945	363.94
629.151	359.94
629.357	350.94
629.564	372.94
629.77	356.94
629.976	357.94
630.183	359.94
630.389	354.94
630.595	345.94
630.802	335.94
631.008	329.94
631.214	338.94
631.42	343.94
631.627	356.94
631.833	343.94
632.039	337.94
632.245	322.94
632.451	325.94
632.657	314.94
632.863	327.94
633.069	340.94
633.275	338.94
633.481	331.94
633.688	333.94
633.893	326.94
634.099	336.94
634.305	316.94
634.511	315.94
634.717	328.94
634.923	302.94
635.129	318.94
635.335	317.94
635.541	320.94
635.747	307.94
635.952	323.94
636.158	307.94
636.364	308.94
636.57	292.94
636.775	321.94
636.981	312.94
637.187	314.94
637.392	303.94
637.598	322.94
637.804	319.94
638.009	317.94
638.215	302.94
638.421	269.94
638.626	312.94
638.832	318.94
639.037	291.94
639.243	303.94
639.448	295.94
639.654	308.94
639.859	304.94
640.065	294.94
640.27	306.94
640.475	297.94
640.681	311.94
640.886	302.94
641.091	309.94
641.297	300.94
641.502	285.94
641.707	281.94
641.913	298.94
642.118	297.94
642.323	281.94
642.528	308.94
642.733	304.94
642.939	304.94
643.144	285.94
643.349	290.94
643.554	278.94
643.759	285.94
643.964	294.94
644.169	294.94
644.374	298.94
644.579	306.94
644.784	295.94
644.989	297.94
645.194	280.94
645.399	291.94
645.604	302.94
645.809	294.94
646.014	304.94
646.219	310.94
646.423	303.94
646.628	312.94
646.833	321.94
647.038	324.94
647.243	294.94
647.447	292.94
647.652	304.94
647.857	314.94
648.062	327.94
648.266	320.94
648.471	319.94
648.676	327.94
648.88	331.94
649.085	321.94
649.289	320.94
649.494	322.94
649.698	305.94
649.903	297.94
650.107	310.94
650.312	317.94
650.516	299.94
650.721	298.94
650.925	314.94
651.13	303.94
651.334	296.94
651.539	303.94
651.743	288.94
651.947	286.94
652.152	287.94
652.356	303.94
652.56	290.94
652.764	289.94
652.969	285.94
653.173	283.94
653.377	279.94
653.581	287.94
653.785	283.94
653.99	280.94
654.194	274.94
654.398	287.94
654.602	312.94
654.806	286.94
655.01	302.94
655.214	310.94
655.418	314.94
655.622	330.94
655.826	346.94
656.03	381.94
656.234	396.94
656.438	419.94
656.642	422.94
656.846	362.94
657.049	343.94
657.253	333.94
657.457	288.94
657.661	264.94
657.865	240.94
658.068	226.94
658.272	209.94
658.476	185.94
658.68	182.94
658.883	158.94
659.087	160.94
659.291	147.94
659.494	144.94
659.698	140.94
659.901	138.94
660.105	144.94
660.309	137.94
660.512	132.94
660.716	130.94
660.919	126.94
661.123	120.94
661.326	115.94
661.53	113.94
661.733	105.94
661.936	100.94
662.14	102.94
662.343	87.94
662.546	100.94
662.75	94.94
662.953	95.94
663.156	76.94
663.36	82.94
663.563	83.94
663.766	74.94
663.969	79.94
664.173	92.94
664.376	85.94
664.579	74.94
664.782	86.94
664.985	84.94
665.188	84.94
665.391	99.94
665.594	70.94
665.797	86.94
666	79.94
666.203	77.94
666.406	73.94
666.609	80.94
666.812	90.94
667.015	88.94
667.218	71.94
667.421	70.94
667.624	85.94
667.827	82.94
668.03	97.94
668.232	83.94
668.435	81.94
668.638	83.94
668.841	86.94
669.043	82.94
669.246	83.94
669.449	88.94
669.651	75.94
669.854	79.94
670.057	96.94
670.259	78.94
670.462	80.94
670.665	68.94
670.867	100.94
671.07	82.94
671.272	74.94
671.475	89.94
671.677	86.94
671.88	76.94
672.082	65.94
672.284	82.94
672.487	87.94
672.689	70.94
672.892	78.94
