Data from NiCl2@0.5M.TitratingCurve.Agarose3%dH2O.NegLispCup.LampEnergy10.LIBS07252019_HRD10591_18-18-29-571.txt Node
Date: Thu Jul 25 18:18:29 EDT 2019
User: cochatt
Spectrometer: HR+D1059
Trigger mode: 1
Integration Time (sec): 1.000000E-1
Scans to average: 1
Electric dark correction enabled: true
Nonlinearity correction enabled: false
Boxcar width: 0
XAxis mode: Wavelengths
Number of Pixels in Spectrum: 2048
>>>>>Begin Spectral Data<<<<<
223.165	-14.31
223.4	-14.31
223.635	-14.31
223.869	-35.31
224.104	-13.31
224.338	-12.31
224.573	-7.31
224.808	-13.31
225.042	-10.31
225.277	-4.31
225.511	-12.31
225.746	2.69
225.98	5.69
226.215	22.69
226.449	5.69
226.683	19.69
226.918	34.69
227.152	31.69
227.387	31.69
227.621	33.69
227.856	38.69
228.09	36.69
228.324	33.69
228.559	54.69
228.793	89.69
229.027	162.69
229.262	179.69
229.496	164.69
229.73	165.69
229.964	194.69
230.199	252.69
230.433	250.69
230.667	226.69
230.901	221.69
231.136	217.69
231.37	206.69
231.604	222.69
231.838	265.69
232.072	256.69
232.306	241.69
232.541	247.69
232.775	210.69
233.009	213.69
233.243	224.69
233.477	215.69
233.711	221.69
233.945	211.69
234.179	211.69
234.413	229.69
234.647	234.69
234.881	229.69
235.115	219.69
235.349	229.69
235.583	207.69
235.817	211.69
236.051	225.69
236.285	214.69
236.519	221.69
236.753	242.69
236.987	239.69
237.221	251.69
237.455	250.69
237.689	250.69
237.922	258.69
238.156	251.69
238.39	242.69
238.624	230.69
238.858	240.69
239.091	241.69
239.325	259.69
239.559	274.69
239.793	301.69
240.027	314.69
240.26	280.69
240.494	277.69
240.728	277.69
240.961	283.69
241.195	273.69
241.429	275.69
241.662	310.69
241.896	338.69
242.13	330.69
242.363	316.69
242.597	293.69
242.83	295.69
243.064	289.69
243.298	295.69
243.531	327.69
243.765	319.69
243.998	360.69
244.232	332.69
244.465	324.69
244.699	302.69
244.932	333.69
245.166	340.69
245.399	354.69
245.633	341.69
245.866	334.69
246.099	335.69
246.333	335.69
246.566	334.69
246.8	330.69
247.033	358.69
247.266	330.69
247.5	360.69
247.733	357.69
247.966	379.69
248.2	360.69
248.433	357.69
248.666	372.69
248.899	367.69
249.133	355.69
249.366	381.69
249.599	372.69
249.832	378.69
250.066	395.69
250.299	397.69
250.532	386.69
250.765	399.69
250.998	402.69
251.231	413.69
251.465	430.69
251.698	439.69
251.931	408.69
252.164	406.69
252.397	423.69
252.63	427.69
252.863	427.69
253.096	422.69
253.329	443.69
253.562	448.69
253.795	436.69
254.028	430.69
254.261	434.69
254.494	445.69
254.727	445.69
254.96	460.69
255.193	450.69
255.426	462.69
255.659	459.69
255.892	433.69
256.124	437.69
256.357	466.69
256.59	474.69
256.823	469.69
257.056	454.69
257.289	472.69
257.521	484.69
257.754	494.69
257.987	464.69
258.22	482.69
258.452	499.69
258.685	507.69
258.918	486.69
259.151	482.69
259.383	515.69
259.616	489.69
259.849	500.69
260.081	505.69
260.314	523.69
260.547	516.69
260.779	498.69
261.012	535.69
261.244	543.69
261.477	531.69
261.71	552.69
261.942	530.69
262.175	537.69
262.407	546.69
262.64	549.69
262.872	543.69
263.105	539.69
263.337	553.69
263.57	549.69
263.802	559.69
264.035	540.69
264.267	546.69
264.499	550.69
264.732	571.69
264.964	591.69
265.197	557.69
265.429	550.69
265.661	539.69
265.894	579.69
266.126	570.69
266.358	588.69
266.591	591.69
266.823	599.69
267.055	583.69
267.287	614.69
267.52	590.69
267.752	600.69
267.984	582.69
268.216	607.69
268.448	632.69
268.681	642.69
268.913	628.69
269.145	622.69
269.377	647.69
269.609	614.69
269.841	635.69
270.073	633.69
270.306	620.69
270.538	618.69
270.77	626.69
271.002	624.69
271.234	621.69
271.466	645.69
271.698	652.69
271.93	650.69
272.162	648.69
272.394	637.69
272.626	643.69
272.858	636.69
273.09	689.69
273.322	670.69
273.553	676.69
273.785	666.69
274.017	691.69
274.249	688.69
274.481	677.69
274.713	671.69
274.945	703.69
275.176	696.69
275.408	693.69
275.64	687.69
275.872	705.69
276.104	715.69
276.335	716.69
276.567	729.69
276.799	715.69
277.031	752.69
277.262	726.69
277.494	711.69
277.726	765.69
277.957	742.69
278.189	726.69
278.421	727.69
278.652	751.69
278.884	716.69
279.115	752.69
279.347	771.69
279.579	740.69
279.81	763.69
280.042	785.69
280.273	778.69
280.505	767.69
280.736	763.69
280.968	773.69
281.199	785.69
281.431	787.69
281.662	801.69
281.894	790.69
282.125	774.69
282.356	823.69
282.588	810.69
282.819	799.69
283.051	821.69
283.282	795.69
283.513	815.69
283.745	821.69
283.976	813.69
284.207	837.69
284.439	827.69
284.67	835.69
284.901	833.69
285.132	852.69
285.364	825.69
285.595	834.69
285.826	837.69
286.057	843.69
286.288	865.69
286.52	869.69
286.751	884.69
286.982	850.69
287.213	843.69
287.444	872.69
287.675	856.69
287.906	892.69
288.138	879.69
288.369	867.69
288.6	866.69
288.831	891.69
289.062	856.69
289.293	879.69
289.524	897.69
289.755	881.69
289.986	903.69
290.217	866.69
290.448	863.69
290.679	884.69
290.91	907.69
291.141	887.69
291.371	858.69
291.602	881.69
291.833	913.69
292.064	899.69
292.295	878.69
292.526	896.69
292.757	916.69
292.987	880.69
293.218	886.69
293.449	928.69
293.68	917.69
293.91	872.69
294.141	893.69
294.372	947.69
294.603	921.69
294.833	942.69
295.064	927.69
295.295	929.69
295.525	921.69
295.756	914.69
295.987	914.69
296.217	912.69
296.448	914.69
296.679	924.69
296.909	931.69
297.14	945.69
297.37	976.69
297.601	961.69
297.831	927.69
298.062	970.69
298.292	976.69
298.523	1005.69
298.753	967.69
298.984	946.69
299.214	974.69
299.445	989.69
299.675	998.69
299.905	987.69
300.136	995.69
300.366	1076.69
300.597	1103.69
300.827	1047.69
301.057	1026.69
301.288	1059.69
301.518	1089.69
301.748	1074.69
301.979	1049.69
302.209	1059.69
302.439	1019.69
302.669	1040.69
302.9	1050.69
303.13	1029.69
303.36	1044.69
303.59	1049.69
303.82	1082.69
304.051	1093.69
304.281	1042.69
304.511	1063.69
304.741	1069.69
304.971	1067.69
305.201	1101.69
305.431	1130.69
305.661	1093.69
305.891	1083.69
306.121	1072.69
306.352	1024.69
306.582	1038.69
306.812	1040.69
307.042	1035.69
307.272	1024.69
307.502	983.69
307.731	1041.69
307.961	1010.69
308.191	1018.69
308.421	1051.69
308.651	1041.69
308.881	1034.69
309.111	1035.69
309.341	1031.69
309.571	1032.69
309.8	1098.69
310.03	1086.69
310.26	1156.69
310.49	1189.69
310.72	1104.69
310.949	1067.69
311.179	1064.69
311.409	1075.69
311.639	1066.69
311.868	1051.69
312.098	1048.69
312.328	1074.69
312.557	1083.69
312.787	1118.69
313.017	1104.69
313.246	1105.69
313.476	1139.69
313.706	1185.69
313.935	1137.69
314.165	1121.69
314.394	1085.69
314.624	1121.69
314.853	1085.69
315.083	1140.69
315.312	1133.69
315.542	1123.69
315.771	1120.69
316.001	1116.69
316.23	1118.69
316.46	1131.69
316.689	1117.69
316.919	1117.69
317.148	1109.69
317.377	1106.69
317.607	1112.69
317.836	1107.69
318.065	1115.69
318.295	1100.69
318.524	1108.69
318.753	1118.69
318.983	1103.69
319.212	1118.69
319.441	1137.69
319.67	1120.69
319.9	1129.69
320.129	1126.69
320.358	1128.69
320.587	1137.69
320.816	1115.69
321.046	1130.69
321.275	1135.69
321.504	1161.69
321.733	1139.69
321.962	1154.69
322.191	1179.69
322.42	1158.69
322.649	1149.69
322.878	1157.69
323.108	1144.69
323.337	1154.69
323.566	1190.69
323.795	1203.69
324.024	1186.69
324.253	1185.69
324.482	1149.69
324.71	1176.69
324.939	1155.69
325.168	1215.69
325.397	1166.69
325.626	1188.69
325.855	1153.69
326.084	1223.69
326.313	1203.69
326.542	1197.69
326.77	1226.69
326.999	1219.69
327.228	1209.69
327.457	1163.69
327.686	1215.69
327.914	1216.69
328.143	1188.69
328.372	1218.69
328.6	1203.69
328.829	1214.69
329.058	1230.69
329.287	1224.69
329.515	1246.69
329.744	1233.69
329.972	1247.69
330.201	1238.69
330.43	1249.69
330.658	1267.69
330.887	1294.69
331.115	1296.69
331.344	1319.69
331.572	1289.69
331.801	1326.69
332.03	1401.69
332.258	1355.69
332.486	1356.69
332.715	1403.69
332.943	1412.69
333.172	1459.69
333.4	1478.69
333.629	1490.69
333.857	1504.69
334.085	1490.69
334.314	1511.69
334.542	1488.69
334.771	1512.69
334.999	1501.69
335.227	1465.69
335.455	1493.69
335.684	1447.69
335.912	1498.69
336.14	1494.69
336.369	1498.69
336.597	1495.69
336.825	1507.69
337.053	1538.69
337.281	1480.69
337.51	1442.69
337.738	1477.69
337.966	1419.69
338.194	1493.69
338.422	1473.69
338.65	1356.69
338.878	1344.69
339.106	1397.69
339.334	1463.69
339.562	1407.69
339.79	1332.69
340.018	1303.69
340.246	1317.69
340.474	1296.69
340.702	1295.69
340.93	1305.69
341.158	1325.69
341.386	1385.69
341.614	1490.69
341.842	1433.69
342.07	1317.69
342.298	1305.69
342.526	1383.69
342.754	1291.69
342.981	1277.69
343.209	1334.69
343.437	1399.69
343.665	1491.69
343.893	1515.69
344.12	1529.69
344.348	1488.69
344.576	1487.69
344.804	1460.69
345.031	1433.69
345.259	1390.69
345.487	1384.69
345.714	1358.69
345.942	1413.69
346.17	1465.69
346.397	1401.69
346.625	1292.69
346.853	1248.69
347.08	1266.69
347.308	1308.69
347.535	1291.69
347.763	1265.69
347.99	1249.69
348.218	1256.69
348.445	1247.69
348.673	1234.69
348.9	1216.69
349.128	1274.69
349.355	1334.69
349.583	1366.69
349.81	1250.69
350.037	1205.69
350.265	1205.69
350.492	1230.69
350.72	1212.69
350.947	1241.69
351.174	1306.69
351.402	1345.69
351.629	1385.69
351.856	1360.69
352.083	1240.69
352.311	1261.69
352.538	1361.69
352.765	1421.69
352.992	1212.69
353.22	1179.69
353.447	1174.69
353.674	1155.69
353.901	1169.69
354.128	1178.69
354.355	1150.69
354.583	1152.69
354.81	1179.69
355.037	1198.69
355.264	1165.69
355.491	1173.69
355.718	1174.69
355.945	1198.69
356.172	1184.69
356.399	1279.69
356.626	1229.69
356.853	1306.69
357.08	1205.69
357.307	1222.69
357.534	1200.69
357.761	1194.69
357.988	1171.69
358.215	1181.69
358.441	1184.69
358.668	1177.69
358.895	1161.69
359.122	1169.69
359.349	1154.69
359.576	1205.69
359.802	1207.69
360.029	1231.69
360.256	1217.69
360.483	1185.69
360.709	1174.69
360.936	1228.69
361.163	1222.69
361.39	1256.69
361.616	1215.69
361.843	1285.69
362.07	1342.69
362.296	1339.69
362.523	1209.69
362.749	1188.69
362.976	1157.69
363.203	1177.69
363.429	1143.69
363.656	1137.69
363.882	1172.69
364.109	1161.69
364.335	1166.69
364.562	1192.69
364.788	1168.69
365.015	1176.69
365.241	1203.69
365.468	1179.69
365.694	1174.69
365.92	1153.69
366.147	1139.69
366.373	1167.69
366.599	1174.69
366.826	1146.69
367.052	1175.69
367.278	1157.69
367.505	1180.69
367.731	1204.69
367.957	1188.69
368.184	1172.69
368.41	1199.69
368.636	1206.69
368.862	1205.69
369.089	1195.69
369.315	1186.69
369.541	1177.69
369.767	1211.69
369.993	1200.69
370.219	1213.69
370.445	1239.69
370.672	1217.69
370.898	1250.69
371.124	1202.69
371.35	1249.69
371.576	1270.69
371.802	1253.69
372.028	1285.69
372.254	1241.69
372.48	1238.69
372.706	1277.69
372.932	1263.69
373.158	1261.69
373.384	1266.69
373.61	1276.69
373.835	1292.69
374.061	1258.69
374.287	1273.69
374.513	1290.69
374.739	1354.69
374.965	1326.69
375.191	1338.69
375.416	1338.69
375.642	1293.69
375.868	1295.69
376.094	1261.69
376.319	1255.69
376.545	1261.69
376.771	1256.69
376.997	1233.69
377.222	1215.69
377.448	1226.69
377.674	1266.69
377.899	1263.69
378.125	1224.69
378.35	1210.69
378.576	1254.69
378.802	1226.69
379.027	1268.69
379.253	1209.69
379.478	1247.69
379.704	1230.69
379.929	1228.69
380.155	1199.69
380.38	1244.69
380.606	1232.69
380.831	1258.69
381.057	1273.69
381.282	1240.69
381.507	1258.69
381.733	1286.69
381.958	1253.69
382.184	1257.69
382.409	1290.69
382.634	1286.69
382.86	1258.69
383.085	1283.69
383.31	1369.69
383.535	1350.69
383.761	1332.69
383.986	1340.69
384.211	1357.69
384.436	1398.69
384.662	1395.69
384.887	1437.69
385.112	1411.69
385.337	1421.69
385.562	1427.69
385.787	1466.69
386.013	1513.69
386.238	1473.69
386.463	1457.69
386.688	1444.69
386.913	1419.69
387.138	1454.69
387.363	1480.69
387.588	1477.69
387.813	1464.69
388.038	1431.69
388.263	1473.69
388.488	1489.69
388.713	1468.69
388.938	1469.69
389.163	1458.69
389.387	1478.69
389.612	1448.69
389.837	1446.69
390.062	1403.69
390.287	1463.69
390.512	1461.69
390.736	1465.69
390.961	1490.69
391.186	1505.69
391.411	1545.69
391.636	1579.69
391.86	1605.69
392.085	1593.69
392.31	1582.69
392.534	1581.69
392.759	1579.69
392.984	1555.69
393.208	1546.69
393.433	1591.69
393.658	1570.69
393.882	1546.69
394.107	1537.69
394.331	1521.69
394.556	1482.69
394.78	1581.69
395.005	1597.69
395.229	1547.69
395.454	1601.69
395.678	1618.69
395.903	1664.69
396.127	1625.69
396.352	1587.69
396.576	1609.69
396.801	1542.69
397.025	1561.69
397.249	1607.69
397.474	1675.69
397.698	1625.69
397.922	1690.69
398.147	1660.69
398.371	1703.69
398.595	1730.69
398.82	1800.69
399.044	1959.69
399.268	2025.69
399.492	2214.69
399.717	2369.69
399.941	2426.69
400.165	2311.69
400.389	2149.69
400.613	2045.69
400.837	1933.69
401.062	1914.69
401.286	1874.69
401.51	1834.69
401.734	1832.69
401.958	1904.69
402.182	1849.69
402.406	1828.69
402.63	1858.69
402.854	1862.69
403.078	1883.69
403.302	1869.69
403.526	1919.69
403.75	1951.69
403.974	1956.69
404.198	1922.69
404.422	1959.69
404.645	1953.69
404.869	1918.69
405.093	1962.69
405.317	1952.69
405.541	1943.69
405.765	1964.69
405.988	1950.69
406.212	1985.69
406.436	1973.69
406.66	2052.69
406.883	1954.69
407.107	2124.69
407.331	2177.69
407.555	2229.69
407.778	2246.69
408.002	2207.69
408.226	2158.69
408.449	2152.69
408.673	2087.69
408.896	2096.69
409.12	2032.69
409.344	2016.69
409.567	1985.69
409.791	1957.69
410.014	1968.69
410.238	1962.69
410.461	1973.69
410.685	1965.69
410.908	1911.69
411.132	1908.69
411.355	1871.69
411.578	1888.69
411.802	1888.69
412.025	1899.69
412.249	1959.69
412.472	1926.69
412.695	1875.69
412.919	1853.69
413.142	1822.69
413.365	1859.69
413.589	1823.69
413.812	1848.69
414.035	1813.69
414.258	1817.69
414.482	1819.69
414.705	1838.69
414.928	1831.69
415.151	1846.69
415.374	1827.69
415.597	1815.69
415.821	1768.69
416.044	1764.69
416.267	1731.69
416.49	1721.69
416.713	1757.69
416.936	1803.69
417.159	1751.69
417.382	1759.69
417.605	1765.69
417.828	1752.69
418.051	1755.69
418.274	1789.69
418.497	1750.69
418.72	1797.69
418.943	1776.69
419.166	1861.69
419.389	2022.69
419.611	1999.69
419.834	1869.69
420.057	1839.69
420.28	1777.69
420.503	1774.69
420.726	1744.69
420.948	1735.69
421.171	1749.69
421.394	1745.69
421.617	1747.69
421.839	1725.69
422.062	1764.69
422.285	1748.69
422.507	1742.69
422.73	1769.69
422.953	1801.69
423.175	1811.69
423.398	1800.69
423.621	1816.69
423.843	1854.69
424.066	1800.69
424.288	1782.69
424.511	1791.69
424.733	1801.69
424.956	1759.69
425.178	1771.69
425.401	1754.69
425.623	1804.69
425.846	1742.69
426.068	1774.69
426.291	1734.69
426.513	1698.69
426.735	1693.69
426.958	1719.69
427.18	1640.69
427.402	1663.69
427.625	1673.69
427.847	1641.69
428.069	1667.69
428.292	1672.69
428.514	1619.69
428.736	1635.69
428.958	1701.69
429.181	1619.69
429.403	1631.69
429.625	1627.69
429.847	1600.69
430.069	1615.69
430.292	1633.69
430.514	1619.69
430.736	1624.69
430.958	1624.69
431.18	1587.69
431.402	1646.69
431.624	1633.69
431.846	1666.69
432.068	1683.69
432.29	1706.69
432.512	1647.69
432.734	1659.69
432.956	1690.69
433.178	1669.69
433.4	1734.69
433.622	1719.69
433.844	1710.69
434.066	1707.69
434.287	1734.69
434.509	1706.69
434.731	1792.69
434.953	1776.69
435.175	1833.69
435.397	1859.69
435.618	1720.69
435.84	1731.69
436.062	1701.69
436.284	1665.69
436.505	1671.69
436.727	1689.69
436.949	1665.69
437.17	1681.69
437.392	1665.69
437.614	1639.69
437.835	1608.69
438.057	1617.69
438.278	1580.69
438.5	1575.69
438.721	1591.69
438.943	1613.69
439.165	1602.69
439.386	1597.69
439.608	1586.69
439.829	1645.69
440.05	1635.69
440.272	1663.69
440.493	1691.69
440.715	1706.69
440.936	1715.69
441.158	1732.69
441.379	1747.69
441.6	1831.69
441.822	1821.69
442.043	1775.69
442.264	1740.69
442.486	1755.69
442.707	1812.69
442.928	1753.69
443.149	1781.69
443.371	1741.69
443.592	1898.69
443.813	1891.69
444.034	1811.69
444.255	1844.69
444.476	1949.69
444.698	2008.69
444.919	2055.69
445.14	2094.69
445.361	1997.69
445.582	1866.69
445.803	1787.69
446.024	1742.69
446.245	1707.69
446.466	1756.69
446.687	1667.69
446.908	1684.69
447.129	1623.69
447.35	1613.69
447.571	1579.69
447.792	1516.69
448.013	1564.69
448.234	1528.69
448.455	1513.69
448.675	1568.69
448.896	1533.69
449.117	1491.69
449.338	1496.69
449.559	1495.69
449.779	1475.69
450	1461.69
450.221	1484.69
450.442	1499.69
450.662	1496.69
450.883	1521.69
451.104	1576.69
451.324	1529.69
451.545	1510.69
451.766	1504.69
451.986	1490.69
452.207	1490.69
452.428	1462.69
452.648	1453.69
452.869	1474.69
453.089	1473.69
453.31	1485.69
453.53	1479.69
453.751	1464.69
453.971	1453.69
454.192	1472.69
454.412	1484.69
454.633	1470.69
454.853	1444.69
455.073	1411.69
455.294	1443.69
455.514	1451.69
455.734	1468.69
455.955	1461.69
456.175	1462.69
456.395	1422.69
456.616	1442.69
456.836	1454.69
457.056	1433.69
457.276	1406.69
457.497	1440.69
457.717	1518.69
457.937	1463.69
458.157	1464.69
458.377	1505.69
458.598	1514.69
458.818	1525.69
459.038	1555.69
459.258	1616.69
459.478	1713.69
459.698	1863.69
459.918	1854.69
460.138	1870.69
460.358	1890.69
460.578	1886.69
460.798	1975.69
461.018	1949.69
461.238	1924.69
461.458	1907.69
461.678	1855.69
461.898	1939.69
462.118	1887.69
462.338	2054.69
462.558	2081.69
462.777	2153.69
462.997	2247.69
463.217	2315.69
463.437	2436.69
463.657	2342.69
463.876	2175.69
464.096	2183.69
464.316	2203.69
464.536	2175.69
464.755	2108.69
464.975	2020.69
465.195	1965.69
465.414	1915.69
465.634	1781.69
465.854	1785.69
466.073	1730.69
466.293	1732.69
466.512	1636.69
466.732	1607.69
466.951	1645.69
467.171	1635.69
467.391	1645.69
467.61	1599.69
467.829	1609.69
468.049	1608.69
468.268	1604.69
468.488	1545.69
468.707	1578.69
468.927	1551.69
469.146	1613.69
469.365	1637.69
469.585	1591.69
469.804	1637.69
470.023	1634.69
470.243	1642.69
470.462	1626.69
470.681	1650.69
470.901	1655.69
471.12	1645.69
471.339	1660.69
471.558	1622.69
471.777	1650.69
471.997	1611.69
472.216	1617.69
472.435	1547.69
472.654	1565.69
472.873	1580.69
473.092	1576.69
473.311	1570.69
473.53	1590.69
473.749	1540.69
473.968	1562.69
474.187	1583.69
474.406	1565.69
474.625	1622.69
474.844	1564.69
475.063	1591.69
475.282	1595.69
475.501	1633.69
475.72	1595.69
475.939	1633.69
476.158	1631.69
476.377	1678.69
476.596	1640.69
476.814	1672.69
477.033	1664.69
477.252	1680.69
477.471	1729.69
477.69	1791.69
477.908	1796.69
478.127	1841.69
478.346	1881.69
478.564	1885.69
478.783	1939.69
479.002	2024.69
479.22	2068.69
479.439	1984.69
479.658	1923.69
479.876	1952.69
480.095	1954.69
480.313	2016.69
480.532	2041.69
480.751	2024.69
480.969	1984.69
481.188	1950.69
481.406	1949.69
481.624	1955.69
481.843	1875.69
482.061	1911.69
482.28	1871.69
482.498	1877.69
482.717	1865.69
482.935	1874.69
483.153	1921.69
483.372	1960.69
483.59	2000.69
483.808	1949.69
484.027	1914.69
484.245	1957.69
484.463	1926.69
484.681	2013.69
484.9	1958.69
485.118	1983.69
485.336	1952.69
485.554	2030.69
485.772	2041.69
485.99	1963.69
486.209	2006.69
486.427	2002.69
486.645	2021.69
486.863	2015.69
487.081	2037.69
487.299	2026.69
487.517	2022.69
487.735	2021.69
487.953	2063.69
488.171	2000.69
488.389	2009.69
488.607	2019.69
488.825	1966.69
489.043	1966.69
489.261	1951.69
489.479	1967.69
489.696	1986.69
489.914	1970.69
490.132	1978.69
490.35	1944.69
490.568	1984.69
490.786	2009.69
491.003	1978.69
491.221	1986.69
491.439	1996.69
491.657	2006.69
491.874	1992.69
492.092	2029.69
492.31	2020.69
492.527	2005.69
492.745	2019.69
492.963	2019.69
493.18	2059.69
493.398	1991.69
493.615	2076.69
493.833	2002.69
494.05	2071.69
494.268	2083.69
494.485	2091.69
494.703	2064.69
494.92	2049.69
495.138	2055.69
495.355	2034.69
495.573	2035.69
495.79	2060.69
496.008	2113.69
496.225	2088.69
496.442	2164.69
496.66	2165.69
496.877	2163.69
497.094	2244.69
497.312	2226.69
497.529	2258.69
497.746	2333.69
497.963	2357.69
498.181	2507.69
498.398	2587.69
498.615	2709.69
498.832	2807.69
499.049	2968.69
499.267	3158.69
499.484	3352.69
499.701	3571.69
499.918	3891.69
500.135	4183.69
500.352	4515.69
500.569	4609.69
500.786	4537.69
501.003	4364.69
501.22	4155.69
501.437	3832.69
501.654	3521.69
501.871	3242.69
502.088	3131.69
502.305	3009.69
502.522	2920.69
502.739	2729.69
502.956	2524.69
503.172	2537.69
503.389	2395.69
503.606	2387.69
503.823	2377.69
504.04	2295.69
504.256	2304.69
504.473	2267.69
504.69	2220.69
504.907	2275.69
505.123	2183.69
505.34	2129.69
505.557	1979.69
505.773	1977.69
505.99	1929.69
506.207	1881.69
506.423	1881.69
506.64	1830.69
506.856	1841.69
507.073	1827.69
507.289	1789.69
507.506	1789.69
507.722	1765.69
507.939	1744.69
508.155	1760.69
508.372	1757.69
508.588	1733.69
508.805	1695.69
509.021	1666.69
509.238	1674.69
509.454	1646.69
509.67	1634.69
509.887	1604.69
510.103	1597.69
510.319	1607.69
510.536	1614.69
510.752	1635.69
510.968	1618.69
511.184	1562.69
511.401	1625.69
511.617	1556.69
511.833	1619.69
512.049	1540.69
512.265	1616.69
512.481	1610.69
512.698	1559.69
512.914	1568.69
513.13	1623.69
513.346	1594.69
513.562	1594.69
513.778	1613.69
513.994	1615.69
514.21	1625.69
514.426	1611.69
514.642	1562.69
514.858	1661.69
515.074	1641.69
515.29	1655.69
515.506	1656.69
515.721	1683.69
515.937	1696.69
516.153	1688.69
516.369	1725.69
516.585	1754.69
516.801	1798.69
517.016	1865.69
517.232	1891.69
517.448	1958.69
517.664	2017.69
517.879	1959.69
518.095	1998.69
518.311	2029.69
518.527	1915.69
518.742	1876.69
518.958	1852.69
519.173	1810.69
519.389	1726.69
519.605	1689.69
519.82	1676.69
520.036	1663.69
520.251	1617.69
520.467	1641.69
520.682	1606.69
520.898	1568.69
521.113	1522.69
521.329	1561.69
521.544	1557.69
521.76	1553.69
521.975	1480.69
522.19	1512.69
522.406	1485.69
522.621	1470.69
522.836	1482.69
523.052	1453.69
523.267	1415.69
523.482	1442.69
523.698	1461.69
523.913	1421.69
524.128	1462.69
524.343	1456.69
524.559	1429.69
524.774	1419.69
524.989	1422.69
525.204	1415.69
525.419	1399.69
525.634	1381.69
525.849	1450.69
526.064	1436.69
526.28	1437.69
526.495	1376.69
526.71	1407.69
526.925	1401.69
527.14	1400.69
527.355	1405.69
527.57	1389.69
527.785	1426.69
527.999	1363.69
528.214	1408.69
528.429	1436.69
528.644	1409.69
528.859	1415.69
529.074	1433.69
529.289	1404.69
529.503	1394.69
529.718	1383.69
529.933	1393.69
530.148	1389.69
530.363	1369.69
530.577	1361.69
530.792	1348.69
531.007	1355.69
531.221	1374.69
531.436	1360.69
531.651	1377.69
531.865	1355.69
532.08	1358.69
532.295	1368.69
532.509	1360.69
532.724	1358.69
532.938	1389.69
533.153	1370.69
533.367	1377.69
533.582	1320.69
533.796	1357.69
534.011	1341.69
534.225	1361.69
534.44	1344.69
534.654	1297.69
534.868	1315.69
535.083	1342.69
535.297	1298.69
535.511	1316.69
535.726	1289.69
535.94	1289.69
536.154	1309.69
536.369	1277.69
536.583	1266.69
536.797	1303.69
537.011	1291.69
537.225	1267.69
537.44	1281.69
537.654	1258.69
537.868	1272.69
538.082	1269.69
538.296	1259.69
538.51	1274.69
538.724	1279.69
538.938	1271.69
539.153	1240.69
539.367	1256.69
539.581	1234.69
539.795	1208.69
540.009	1236.69
540.222	1264.69
540.436	1255.69
540.65	1186.69
540.864	1211.69
541.078	1240.69
541.292	1209.69
541.506	1234.69
541.72	1227.69
541.934	1229.69
542.147	1236.69
542.361	1235.69
542.575	1226.69
542.789	1233.69
543.002	1240.69
543.216	1225.69
543.43	1234.69
543.644	1181.69
543.857	1198.69
544.071	1226.69
544.285	1254.69
544.498	1236.69
544.712	1237.69
544.925	1275.69
545.139	1254.69
545.352	1261.69
545.566	1221.69
545.779	1246.69
545.993	1243.69
546.206	1255.69
546.42	1254.69
546.633	1248.69
546.847	1256.69
547.06	1253.69
547.274	1236.69
547.487	1248.69
547.7	1238.69
547.914	1261.69
548.127	1265.69
548.34	1251.69
548.554	1234.69
548.767	1231.69
548.98	1267.69
549.193	1274.69
549.407	1245.69
549.62	1267.69
549.833	1271.69
550.046	1274.69
550.259	1270.69
550.473	1236.69
550.686	1256.69
550.899	1235.69
551.112	1240.69
551.325	1227.69
551.538	1207.69
551.751	1219.69
551.964	1201.69
552.177	1220.69
552.39	1274.69
552.603	1284.69
552.816	1295.69
553.029	1285.69
553.242	1304.69
553.455	1306.69
553.667	1310.69
553.88	1289.69
554.093	1244.69
554.306	1254.69
554.519	1208.69
554.732	1208.69
554.944	1186.69
555.157	1209.69
555.37	1137.69
555.583	1118.69
555.795	1134.69
556.008	1128.69
556.221	1091.69
556.433	1098.69
556.646	1093.69
556.859	1105.69
557.071	1126.69
557.284	1070.69
557.496	1063.69
557.709	1076.69
557.921	1064.69
558.134	1075.69
558.346	1037.69
558.559	1064.69
558.771	1050.69
558.984	1047.69
559.196	1039.69
559.409	1050.69
559.621	1049.69
559.833	1025.69
560.046	1010.69
560.258	1019.69
560.47	1011.69
560.683	1022.69
560.895	1013.69
561.107	1013.69
561.32	1001.69
561.532	1040.69
561.744	1025.69
561.956	1029.69
562.168	1019.69
562.381	1029.69
562.593	1011.69
562.805	1049.69
563.017	1055.69
563.229	1042.69
563.441	1031.69
563.653	1053.69
563.865	1039.69
564.077	1039.69
564.289	1087.69
564.501	1076.69
564.713	1096.69
564.925	1102.69
565.137	1105.69
565.349	1155.69
565.561	1148.69
565.773	1222.69
565.985	1235.69
566.197	1293.69
566.408	1327.69
566.62	1413.69
566.832	1464.69
567.044	1497.69
567.255	1499.69
567.467	1519.69
567.679	1604.69
567.891	1597.69
568.102	1591.69
568.314	1567.69
568.526	1509.69
568.737	1384.69
568.949	1306.69
569.161	1231.69
569.372	1185.69
569.584	1118.69
569.795	1119.69
570.007	1085.69
570.218	1051.69
570.43	1017.69
570.641	1001.69
570.853	1013.69
571.064	999.69
571.276	984.69
571.487	981.69
571.698	958.69
571.91	959.69
572.121	905.69
572.333	898.69
572.544	886.69
572.755	884.69
572.966	875.69
573.178	848.69
573.389	860.69
573.6	871.69
573.811	817.69
574.023	822.69
574.234	832.69
574.445	799.69
574.656	791.69
574.867	814.69
575.078	802.69
575.289	795.69
575.501	821.69
575.712	793.69
575.923	778.69
576.134	791.69
576.345	778.69
576.556	763.69
576.767	758.69
576.978	759.69
577.188	739.69
577.399	761.69
577.61	763.69
577.821	744.69
578.032	714.69
578.243	758.69
578.454	743.69
578.665	715.69
578.875	719.69
579.086	735.69
579.297	730.69
579.508	746.69
579.718	747.69
579.929	707.69
580.14	690.69
580.35	691.69
580.561	707.69
580.772	703.69
580.982	687.69
581.193	696.69
581.403	696.69
581.614	710.69
581.825	697.69
582.035	673.69
582.246	683.69
582.456	671.69
582.667	664.69
582.877	685.69
583.087	697.69
583.298	680.69
583.508	669.69
583.719	667.69
583.929	657.69
584.139	646.69
584.35	658.69
584.56	671.69
584.77	656.69
584.981	659.69
585.191	661.69
585.401	655.69
585.611	659.69
585.821	624.69
586.032	642.69
586.242	639.69
586.452	661.69
586.662	636.69
586.872	655.69
587.082	626.69
587.292	648.69
587.502	643.69
587.713	639.69
587.923	647.69
588.133	648.69
588.343	654.69
588.553	631.69
588.762	653.69
588.972	677.69
589.182	848.69
589.392	811.69
589.602	682.69
589.812	821.69
590.022	716.69
590.232	655.69
590.441	656.69
590.651	667.69
590.861	661.69
591.071	654.69
591.281	665.69
591.49	636.69
591.7	665.69
591.91	667.69
592.119	677.69
592.329	690.69
592.539	720.69
592.748	713.69
592.958	729.69
593.167	721.69
593.377	733.69
593.587	736.69
593.796	740.69
594.006	753.69
594.215	731.69
594.424	752.69
594.634	734.69
594.843	713.69
595.053	708.69
595.262	710.69
595.472	678.69
595.681	661.69
595.89	644.69
596.1	642.69
596.309	633.69
596.518	610.69
596.727	618.69
596.937	578.69
597.146	606.69
597.355	586.69
597.564	568.69
597.774	588.69
597.983	565.69
598.192	555.69
598.401	555.69
598.61	548.69
598.819	529.69
599.028	533.69
599.237	535.69
599.446	539.69
599.655	538.69
599.864	538.69
600.073	531.69
600.282	533.69
600.491	538.69
600.7	536.69
600.909	511.69
601.118	549.69
601.327	516.69
601.536	516.69
601.745	538.69
601.953	528.69
602.162	541.69
602.371	485.69
602.58	501.69
602.789	515.69
602.997	497.69
603.206	501.69
603.415	507.69
603.623	482.69
603.832	505.69
604.041	495.69
604.249	481.69
604.458	480.69
604.666	481.69
604.875	497.69
605.084	489.69
605.292	487.69
605.501	485.69
605.709	473.69
605.918	479.69
606.126	490.69
606.334	457.69
606.543	486.69
606.751	480.69
606.96	466.69
607.168	466.69
607.376	449.69
607.585	456.69
607.793	464.69
608.001	459.69
608.21	490.69
608.418	467.69
608.626	457.69
608.834	456.69
609.043	465.69
609.251	462.69
609.459	464.69
609.667	463.69
609.875	450.69
610.083	470.69
610.291	463.69
610.499	470.69
610.707	442.69
610.916	452.69
611.124	453.69
611.332	446.69
611.54	456.69
611.748	449.69
611.955	447.69
612.163	446.69
612.371	448.69
612.579	440.69
612.787	457.69
612.995	449.69
613.203	451.69
613.411	453.69
613.618	432.69
613.826	432.69
614.034	447.69
614.242	430.69
614.449	451.69
614.657	454.69
614.865	438.69
615.072	440.69
615.28	458.69
615.488	424.69
615.695	436.69
615.903	439.69
616.111	431.69
616.318	444.69
616.526	453.69
616.733	440.69
616.941	450.69
617.148	421.69
617.356	445.69
617.563	432.69
617.771	441.69
617.978	439.69
618.185	424.69
618.393	420.69
618.6	446.69
618.807	439.69
619.015	419.69
619.222	429.69
619.429	404.69
619.637	418.69
619.844	422.69
620.051	409.69
620.258	418.69
620.466	423.69
620.673	416.69
620.88	413.69
621.087	414.69
621.294	403.69
621.501	411.69
621.708	398.69
621.915	407.69
622.122	405.69
622.329	414.69
622.536	389.69
622.743	393.69
622.95	423.69
623.157	385.69
623.364	397.69
623.571	403.69
623.778	393.69
623.985	368.69
624.192	394.69
624.399	376.69
624.606	390.69
624.812	394.69
625.019	386.69
625.226	387.69
625.433	371.69
625.639	379.69
625.846	362.69
626.053	377.69
626.259	388.69
626.466	362.69
626.673	375.69
626.879	347.69
627.086	353.69
627.293	358.69
627.499	360.69
627.706	366.69
627.912	355.69
628.119	370.69
628.325	346.69
628.532	358.69
628.738	353.69
628.945	337.69
629.151	359.69
629.357	331.69
629.564	350.69
629.77	339.69
629.976	353.69
630.183	338.69
630.389	340.69
630.595	336.69
630.802	349.69
631.008	344.69
631.214	346.69
631.42	337.69
631.627	345.69
631.833	348.69
632.039	337.69
632.245	324.69
632.451	328.69
632.657	332.69
632.863	315.69
633.069	328.69
633.275	327.69
633.481	317.69
633.688	310.69
633.893	313.69
634.099	317.69
634.305	321.69
634.511	327.69
634.717	326.69
634.923	312.69
635.129	306.69
635.335	312.69
635.541	311.69
635.747	304.69
635.952	312.69
636.158	302.69
636.364	289.69
636.57	302.69
636.775	320.69
636.981	312.69
637.187	329.69
637.392	309.69
637.598	306.69
637.804	310.69
638.009	301.69
638.215	289.69
638.421	309.69
638.626	292.69
638.832	300.69
639.037	299.69
639.243	311.69
639.448	295.69
639.654	282.69
639.859	301.69
640.065	301.69
640.27	302.69
640.475	285.69
640.681	286.69
640.886	297.69
641.091	268.69
641.297	273.69
641.502	291.69
641.707	302.69
641.913	285.69
642.118	282.69
642.323	296.69
642.528	289.69
642.733	265.69
642.939	287.69
643.144	294.69
643.349	280.69
643.554	277.69
643.759	284.69
643.964	300.69
644.169	283.69
644.374	264.69
644.579	295.69
644.784	287.69
644.989	294.69
645.194	290.69
645.399	307.69
645.604	279.69
645.809	277.69
646.014	278.69
646.219	284.69
646.423	297.69
646.628	275.69
646.833	277.69
647.038	293.69
647.243	291.69
647.447	292.69
647.652	288.69
647.857	306.69
648.062	307.69
648.266	293.69
648.471	318.69
648.676	297.69
648.88	292.69
649.085	312.69
649.289	290.69
649.494	302.69
649.698	296.69
649.903	277.69
650.107	287.69
650.312	301.69
650.516	283.69
650.721	279.69
650.925	257.69
651.13	267.69
651.334	297.69
651.539	274.69
651.743	275.69
651.947	281.69
652.152	293.69
652.356	267.69
652.56	265.69
652.764	277.69
652.969	266.69
653.173	273.69
653.377	257.69
653.581	272.69
653.785	287.69
653.99	274.69
654.194	255.69
654.398	247.69
654.602	273.69
654.806	282.69
655.01	279.69
655.214	270.69
655.418	289.69
655.622	290.69
655.826	282.69
656.03	306.69
656.234	311.69
656.438	329.69
656.642	339.69
656.846	292.69
657.049	281.69
657.253	254.69
657.457	239.69
657.661	224.69
657.865	214.69
658.068	201.69
658.272	199.69
658.476	192.69
658.68	171.69
658.883	164.69
659.087	147.69
659.291	146.69
659.494	154.69
659.698	135.69
659.901	125.69
660.105	129.69
660.309	118.69
660.512	122.69
660.716	113.69
660.919	117.69
661.123	102.69
661.326	102.69
661.53	109.69
661.733	91.69
661.936	99.69
662.14	91.69
662.343	102.69
662.546	98.69
662.75	90.69
662.953	74.69
663.156	81.69
663.36	74.69
663.563	81.69
663.766	88.69
663.969	76.69
664.173	82.69
664.376	79.69
664.579	81.69
664.782	91.69
664.985	87.69
665.188	78.69
665.391	74.69
665.594	74.69
665.797	85.69
666	75.69
666.203	81.69
666.406	70.69
666.609	66.69
666.812	74.69
667.015	88.69
667.218	74.69
667.421	82.69
667.624	83.69
667.827	89.69
668.03	84.69
668.232	76.69
668.435	69.69
668.638	64.69
668.841	76.69
669.043	79.69
669.246	94.69
669.449	74.69
669.651	79.69
669.854	75.69
670.057	84.69
670.259	69.69
670.462	77.69
670.665	59.69
670.867	80.69
671.07	85.69
671.272	75.69
671.475	87.69
671.677	87.69
671.88	80.69
672.082	84.69
672.284	94.69
672.487	71.69
672.689	70.69
672.892	65.69
