Data from NiCl2@0.125M.TitratingCurve.Agarose3%dH2O.NegLispCup.LampEnergy10.LIBS07252019_HRD10591_18-29-49-574.txt Node
Date: Thu Jul 25 18:29:49 EDT 2019
User: cochatt
Spectrometer: HR+D1059
Trigger mode: 1
Integration Time (sec): 1.000000E-1
Scans to average: 1
Electric dark correction enabled: true
Nonlinearity correction enabled: false
Boxcar width: 0
XAxis mode: Wavelengths
Number of Pixels in Spectrum: 2048
>>>>>Begin Spectral Data<<<<<
223.165	-22.12
223.4	-22.12
223.635	-22.12
223.869	-36.12
224.104	-18.12
224.338	-20.12
224.573	-17.12
224.808	-4.12
225.042	0.88
225.277	-12.12
225.511	-7.12
225.746	17.88
225.98	5.88
226.215	6.88
226.449	27.88
226.683	9.88
226.918	26.88
227.152	40.88
227.387	36.88
227.621	51.88
227.856	45.88
228.09	51.88
228.324	46.88
228.559	55.88
228.793	60.88
229.027	89.88
229.262	116.88
229.496	135.88
229.73	117.88
229.964	128.88
230.199	118.88
230.433	139.88
230.667	136.88
230.901	139.88
231.136	139.88
231.37	129.88
231.604	139.88
231.838	144.88
232.072	135.88
232.306	151.88
232.541	132.88
232.775	155.88
233.009	137.88
233.243	141.88
233.477	140.88
233.711	137.88
233.945	154.88
234.179	127.88
234.413	151.88
234.647	155.88
234.881	147.88
235.115	153.88
235.349	166.88
235.583	153.88
235.817	156.88
236.051	151.88
236.285	146.88
236.519	144.88
236.753	143.88
236.987	144.88
237.221	148.88
237.455	155.88
237.689	151.88
237.922	161.88
238.156	153.88
238.39	156.88
238.624	153.88
238.858	167.88
239.091	169.88
239.325	167.88
239.559	161.88
239.793	171.88
240.027	159.88
240.26	184.88
240.494	173.88
240.728	149.88
240.961	188.88
241.195	160.88
241.429	193.88
241.662	177.88
241.896	188.88
242.13	189.88
242.363	185.88
242.597	187.88
242.83	188.88
243.064	209.88
243.298	189.88
243.531	198.88
243.765	184.88
243.998	187.88
244.232	191.88
244.465	186.88
244.699	217.88
244.932	195.88
245.166	217.88
245.399	206.88
245.633	219.88
245.866	219.88
246.099	223.88
246.333	220.88
246.566	208.88
246.8	232.88
247.033	201.88
247.266	224.88
247.5	216.88
247.733	212.88
247.966	224.88
248.2	232.88
248.433	229.88
248.666	227.88
248.899	237.88
249.133	221.88
249.366	228.88
249.599	223.88
249.832	236.88
250.066	241.88
250.299	252.88
250.532	238.88
250.765	233.88
250.998	230.88
251.231	229.88
251.465	262.88
251.698	255.88
251.931	240.88
252.164	263.88
252.397	245.88
252.63	259.88
252.863	243.88
253.096	239.88
253.329	242.88
253.562	240.88
253.795	247.88
254.028	259.88
254.261	260.88
254.494	264.88
254.727	260.88
254.96	264.88
255.193	262.88
255.426	269.88
255.659	272.88
255.892	273.88
256.124	272.88
256.357	257.88
256.59	296.88
256.823	272.88
257.056	273.88
257.289	287.88
257.521	272.88
257.754	287.88
257.987	266.88
258.22	283.88
258.452	289.88
258.685	273.88
258.918	298.88
259.151	274.88
259.383	279.88
259.616	280.88
259.849	273.88
260.081	294.88
260.314	284.88
260.547	274.88
260.779	307.88
261.012	312.88
261.244	294.88
261.477	315.88
261.71	295.88
261.942	294.88
262.175	294.88
262.407	322.88
262.64	309.88
262.872	307.88
263.105	314.88
263.337	300.88
263.57	296.88
263.802	317.88
264.035	329.88
264.267	317.88
264.499	324.88
264.732	318.88
264.964	325.88
265.197	320.88
265.429	312.88
265.661	325.88
265.894	331.88
266.126	330.88
266.358	323.88
266.591	331.88
266.823	327.88
267.055	332.88
267.287	323.88
267.52	321.88
267.752	347.88
267.984	331.88
268.216	336.88
268.448	327.88
268.681	349.88
268.913	353.88
269.145	332.88
269.377	355.88
269.609	348.88
269.841	345.88
270.073	341.88
270.306	336.88
270.538	350.88
270.77	342.88
271.002	333.88
271.234	345.88
271.466	350.88
271.698	354.88
271.93	347.88
272.162	349.88
272.394	349.88
272.626	347.88
272.858	350.88
273.09	357.88
273.322	344.88
273.553	369.88
273.785	341.88
274.017	379.88
274.249	381.88
274.481	369.88
274.713	371.88
274.945	379.88
275.176	381.88
275.408	377.88
275.64	369.88
275.872	365.88
276.104	389.88
276.335	374.88
276.567	400.88
276.799	384.88
277.031	394.88
277.262	372.88
277.494	380.88
277.726	406.88
277.957	393.88
278.189	377.88
278.421	381.88
278.652	393.88
278.884	400.88
279.115	383.88
279.347	404.88
279.579	407.88
279.81	429.88
280.042	411.88
280.273	417.88
280.505	422.88
280.736	414.88
280.968	406.88
281.199	412.88
281.431	417.88
281.662	418.88
281.894	452.88
282.125	426.88
282.356	415.88
282.588	412.88
282.819	420.88
283.051	442.88
283.282	441.88
283.513	428.88
283.745	443.88
283.976	440.88
284.207	439.88
284.439	424.88
284.67	469.88
284.901	427.88
285.132	437.88
285.364	449.88
285.595	440.88
285.826	424.88
286.057	441.88
286.288	437.88
286.52	447.88
286.751	437.88
286.982	469.88
287.213	450.88
287.444	448.88
287.675	452.88
287.906	460.88
288.138	463.88
288.369	468.88
288.6	460.88
288.831	473.88
289.062	457.88
289.293	468.88
289.524	480.88
289.755	460.88
289.986	448.88
290.217	483.88
290.448	455.88
290.679	469.88
290.91	494.88
291.141	477.88
291.371	495.88
291.602	485.88
291.833	484.88
292.064	490.88
292.295	500.88
292.526	504.88
292.757	452.88
292.987	477.88
293.218	465.88
293.449	474.88
293.68	473.88
293.91	471.88
294.141	464.88
294.372	471.88
294.603	469.88
294.833	480.88
295.064	500.88
295.295	477.88
295.525	469.88
295.756	493.88
295.987	494.88
296.217	493.88
296.448	492.88
296.679	502.88
296.909	491.88
297.14	497.88
297.37	516.88
297.601	533.88
297.831	505.88
298.062	518.88
298.292	536.88
298.523	551.88
298.753	527.88
298.984	517.88
299.214	530.88
299.445	499.88
299.675	533.88
299.905	534.88
300.136	534.88
300.366	529.88
300.597	542.88
300.827	549.88
301.057	528.88
301.288	573.88
301.518	549.88
301.748	556.88
301.979	547.88
302.209	565.88
302.439	563.88
302.669	540.88
302.9	541.88
303.13	534.88
303.36	551.88
303.59	537.88
303.82	533.88
304.051	541.88
304.281	530.88
304.511	536.88
304.741	550.88
304.971	517.88
305.201	525.88
305.431	553.88
305.661	538.88
305.891	533.88
306.121	545.88
306.352	539.88
306.582	518.88
306.812	531.88
307.042	511.88
307.272	537.88
307.502	526.88
307.731	523.88
307.961	529.88
308.191	535.88
308.421	542.88
308.651	543.88
308.881	517.88
309.111	523.88
309.341	505.88
309.571	530.88
309.8	519.88
310.03	519.88
310.26	544.88
310.49	526.88
310.72	502.88
310.949	512.88
311.179	515.88
311.409	522.88
311.639	530.88
311.868	533.88
312.098	530.88
312.328	540.88
312.557	555.88
312.787	564.88
313.017	551.88
313.246	569.88
313.476	550.88
313.706	571.88
313.935	564.88
314.165	572.88
314.394	557.88
314.624	558.88
314.853	545.88
315.083	550.88
315.312	559.88
315.542	568.88
315.771	542.88
316.001	541.88
316.23	548.88
316.46	542.88
316.689	551.88
316.919	527.88
317.148	559.88
317.377	541.88
317.607	552.88
317.836	559.88
318.065	563.88
318.295	564.88
318.524	524.88
318.753	547.88
318.983	547.88
319.212	520.88
319.441	561.88
319.67	535.88
319.9	549.88
320.129	553.88
320.358	536.88
320.587	543.88
320.816	542.88
321.046	574.88
321.275	542.88
321.504	552.88
321.733	553.88
321.962	551.88
322.191	551.88
322.42	567.88
322.649	561.88
322.878	575.88
323.108	554.88
323.337	561.88
323.566	549.88
323.795	569.88
324.024	576.88
324.253	571.88
324.482	559.88
324.71	581.88
324.939	563.88
325.168	569.88
325.397	571.88
325.626	601.88
325.855	574.88
326.084	599.88
326.313	596.88
326.542	608.88
326.77	628.88
326.999	596.88
327.228	579.88
327.457	607.88
327.686	581.88
327.914	603.88
328.143	594.88
328.372	606.88
328.6	602.88
328.829	590.88
329.058	603.88
329.287	580.88
329.515	607.88
329.744	604.88
329.972	598.88
330.201	604.88
330.43	626.88
330.658	619.88
330.887	637.88
331.115	620.88
331.344	619.88
331.572	615.88
331.801	654.88
332.03	644.88
332.258	677.88
332.486	663.88
332.715	687.88
332.943	755.88
333.172	775.88
333.4	808.88
333.629	829.88
333.857	838.88
334.085	816.88
334.314	766.88
334.542	760.88
334.771	782.88
334.999	731.88
335.227	755.88
335.455	753.88
335.684	750.88
335.912	721.88
336.14	727.88
336.369	738.88
336.597	716.88
336.825	726.88
337.053	726.88
337.281	714.88
337.51	672.88
337.738	674.88
337.966	682.88
338.194	648.88
338.422	645.88
338.65	650.88
338.878	647.88
339.106	623.88
339.334	629.88
339.562	631.88
339.79	613.88
340.018	625.88
340.246	595.88
340.474	596.88
340.702	644.88
340.93	640.88
341.158	629.88
341.386	637.88
341.614	613.88
341.842	607.88
342.07	622.88
342.298	624.88
342.526	637.88
342.754	619.88
342.981	628.88
343.209	639.88
343.437	641.88
343.665	705.88
343.893	747.88
344.12	780.88
344.348	747.88
344.576	707.88
344.804	696.88
345.031	649.88
345.259	608.88
345.487	620.88
345.714	615.88
345.942	619.88
346.17	632.88
346.397	628.88
346.625	619.88
346.853	608.88
347.08	602.88
347.308	597.88
347.535	629.88
347.763	607.88
347.99	639.88
348.218	611.88
348.445	613.88
348.673	608.88
348.9	620.88
349.128	619.88
349.355	588.88
349.583	615.88
349.81	586.88
350.037	592.88
350.265	598.88
350.492	581.88
350.72	564.88
350.947	560.88
351.174	581.88
351.402	599.88
351.629	575.88
351.856	581.88
352.083	606.88
352.311	602.88
352.538	591.88
352.765	581.88
352.992	575.88
353.22	582.88
353.447	589.88
353.674	567.88
353.901	572.88
354.128	593.88
354.355	591.88
354.583	572.88
354.81	593.88
355.037	566.88
355.264	589.88
355.491	596.88
355.718	598.88
355.945	598.88
356.172	568.88
356.399	593.88
356.626	612.88
356.853	570.88
357.08	576.88
357.307	594.88
357.534	566.88
357.761	599.88
357.988	584.88
358.215	580.88
358.441	604.88
358.668	560.88
358.895	591.88
359.122	581.88
359.349	611.88
359.576	579.88
359.802	580.88
360.029	566.88
360.256	596.88
360.483	588.88
360.709	565.88
360.936	614.88
361.163	575.88
361.39	573.88
361.616	587.88
361.843	577.88
362.07	569.88
362.296	600.88
362.523	579.88
362.749	609.88
362.976	576.88
363.203	576.88
363.429	566.88
363.656	577.88
363.882	575.88
364.109	591.88
364.335	580.88
364.562	601.88
364.788	608.88
365.015	578.88
365.241	563.88
365.468	564.88
365.694	563.88
365.92	588.88
366.147	571.88
366.373	565.88
366.599	596.88
366.826	558.88
367.052	578.88
367.278	574.88
367.505	594.88
367.731	593.88
367.957	574.88
368.184	590.88
368.41	586.88
368.636	592.88
368.862	608.88
369.089	595.88
369.315	624.88
369.541	612.88
369.767	619.88
369.993	588.88
370.219	630.88
370.445	631.88
370.672	634.88
370.898	612.88
371.124	614.88
371.35	628.88
371.576	623.88
371.802	645.88
372.028	639.88
372.254	624.88
372.48	645.88
372.706	619.88
372.932	684.88
373.158	649.88
373.384	649.88
373.61	646.88
373.835	635.88
374.061	616.88
374.287	635.88
374.513	657.88
374.739	666.88
374.965	660.88
375.191	710.88
375.416	700.88
375.642	696.88
375.868	668.88
376.094	663.88
376.319	637.88
376.545	636.88
376.771	641.88
376.997	643.88
377.222	667.88
377.448	658.88
377.674	660.88
377.899	630.88
378.125	637.88
378.35	633.88
378.576	620.88
378.802	629.88
379.027	623.88
379.253	637.88
379.478	614.88
379.704	628.88
379.929	637.88
380.155	629.88
380.38	612.88
380.606	651.88
380.831	611.88
381.057	640.88
381.282	621.88
381.507	638.88
381.733	645.88
381.958	625.88
382.184	624.88
382.409	645.88
382.634	675.88
382.86	667.88
383.085	676.88
383.31	663.88
383.535	679.88
383.761	716.88
383.986	698.88
384.211	718.88
384.436	744.88
384.662	767.88
384.887	761.88
385.112	764.88
385.337	768.88
385.562	759.88
385.787	768.88
386.013	777.88
386.238	780.88
386.463	744.88
386.688	780.88
386.913	749.88
387.138	765.88
387.363	766.88
387.588	724.88
387.813	719.88
388.038	755.88
388.263	755.88
388.488	728.88
388.713	745.88
388.938	738.88
389.163	726.88
389.387	726.88
389.612	727.88
389.837	731.88
390.062	730.88
390.287	744.88
390.512	737.88
390.736	734.88
390.961	758.88
391.186	765.88
391.411	797.88
391.636	800.88
391.86	824.88
392.085	883.88
392.31	845.88
392.534	812.88
392.759	817.88
392.984	806.88
393.208	777.88
393.433	779.88
393.658	795.88
393.882	828.88
394.107	796.88
394.331	804.88
394.556	802.88
394.78	813.88
395.005	812.88
395.229	809.88
395.454	831.88
395.678	851.88
395.903	855.88
396.127	842.88
396.352	814.88
396.576	789.88
396.801	782.88
397.025	804.88
397.249	801.88
397.474	851.88
397.698	840.88
397.922	840.88
398.147	824.88
398.371	841.88
398.595	860.88
398.82	904.88
399.044	986.88
399.268	1063.88
399.492	1272.88
399.717	1511.88
399.941	1465.88
400.165	1272.88
400.389	1154.88
400.613	1028.88
400.837	959.88
401.062	957.88
401.286	944.88
401.51	974.88
401.734	923.88
401.958	927.88
402.182	935.88
402.406	963.88
402.63	987.88
402.854	1019.88
403.078	1030.88
403.302	1060.88
403.526	1069.88
403.75	1080.88
403.974	1114.88
404.198	1127.88
404.422	1125.88
404.645	1113.88
404.869	1096.88
405.093	1095.88
405.317	1071.88
405.541	1061.88
405.765	1046.88
405.988	1001.88
406.212	1031.88
406.436	1042.88
406.66	1080.88
406.883	1083.88
407.107	1135.88
407.331	1216.88
407.555	1232.88
407.778	1272.88
408.002	1184.88
408.226	1175.88
408.449	1114.88
408.673	1094.88
408.896	1077.88
409.12	1067.88
409.344	1100.88
409.567	1097.88
409.791	1085.88
410.014	1059.88
410.238	1067.88
410.461	1036.88
410.685	1064.88
410.908	1016.88
411.132	1040.88
411.355	1000.88
411.578	986.88
411.802	947.88
412.025	959.88
412.249	988.88
412.472	1001.88
412.695	975.88
412.919	918.88
413.142	948.88
413.365	923.88
413.589	973.88
413.812	966.88
414.035	940.88
414.258	921.88
414.482	959.88
414.705	954.88
414.928	980.88
415.151	986.88
415.374	946.88
415.597	912.88
415.821	936.88
416.044	940.88
416.267	929.88
416.49	952.88
416.713	916.88
416.936	954.88
417.159	935.88
417.382	943.88
417.605	939.88
417.828	922.88
418.051	950.88
418.274	935.88
418.497	963.88
418.72	988.88
418.943	981.88
419.166	1018.88
419.389	1085.88
419.611	1056.88
419.834	1020.88
420.057	990.88
420.28	990.88
420.503	956.88
420.726	943.88
420.948	928.88
421.171	921.88
421.394	927.88
421.617	934.88
421.839	924.88
422.062	939.88
422.285	933.88
422.507	956.88
422.73	964.88
422.953	976.88
423.175	984.88
423.398	984.88
423.621	1023.88
423.843	1022.88
424.066	1007.88
424.288	1012.88
424.511	1032.88
424.733	986.88
424.956	963.88
425.178	958.88
425.401	951.88
425.623	961.88
425.846	935.88
426.068	901.88
426.291	897.88
426.513	892.88
426.735	891.88
426.958	890.88
427.18	871.88
427.402	853.88
427.625	863.88
427.847	863.88
428.069	862.88
428.292	855.88
428.514	839.88
428.736	846.88
428.958	855.88
429.181	808.88
429.403	817.88
429.625	809.88
429.847	813.88
430.069	801.88
430.292	810.88
430.514	865.88
430.736	808.88
430.958	814.88
431.18	840.88
431.402	836.88
431.624	825.88
431.846	853.88
432.068	848.88
432.29	889.88
432.512	832.88
432.734	863.88
432.956	844.88
433.178	858.88
433.4	873.88
433.622	857.88
433.844	873.88
434.066	861.88
434.287	867.88
434.509	862.88
434.731	933.88
434.953	946.88
435.175	973.88
435.397	958.88
435.618	901.88
435.84	888.88
436.062	886.88
436.284	841.88
436.505	851.88
436.727	864.88
436.949	847.88
437.17	837.88
437.392	852.88
437.614	845.88
437.835	804.88
438.057	804.88
438.278	804.88
438.5	806.88
438.721	812.88
438.943	832.88
439.165	839.88
439.386	829.88
439.608	845.88
439.829	854.88
440.05	837.88
440.272	854.88
440.493	861.88
440.715	882.88
440.936	883.88
441.158	905.88
441.379	919.88
441.6	954.88
441.822	985.88
442.043	993.88
442.264	940.88
442.486	921.88
442.707	949.88
442.928	939.88
443.149	942.88
443.371	931.88
443.592	942.88
443.813	961.88
444.034	938.88
444.255	1004.88
444.476	1042.88
444.698	1124.88
444.919	1211.88
445.14	1247.88
445.361	1117.88
445.582	1003.88
445.803	923.88
446.024	926.88
446.245	879.88
446.466	872.88
446.687	853.88
446.908	854.88
447.129	832.88
447.35	851.88
447.571	827.88
447.792	806.88
448.013	816.88
448.234	776.88
448.455	795.88
448.675	772.88
448.896	791.88
449.117	775.88
449.338	777.88
449.559	795.88
449.779	803.88
450	776.88
450.221	794.88
450.442	799.88
450.662	796.88
450.883	797.88
451.104	819.88
451.324	815.88
451.545	804.88
451.766	787.88
451.986	791.88
452.207	793.88
452.428	790.88
452.648	800.88
452.869	788.88
453.089	772.88
453.31	766.88
453.53	796.88
453.751	781.88
453.971	751.88
454.192	756.88
454.412	737.88
454.633	754.88
454.853	761.88
455.073	733.88
455.294	735.88
455.514	746.88
455.734	763.88
455.955	735.88
456.175	729.88
456.395	721.88
456.616	724.88
456.836	755.88
457.056	734.88
457.276	707.88
457.497	725.88
457.717	740.88
457.937	726.88
458.157	751.88
458.377	784.88
458.598	764.88
458.818	792.88
459.038	832.88
459.258	814.88
459.478	853.88
459.698	869.88
459.918	899.88
460.138	947.88
460.358	989.88
460.578	1032.88
460.798	1001.88
461.018	1017.88
461.238	997.88
461.458	999.88
461.678	992.88
461.898	1041.88
462.118	1011.88
462.338	1079.88
462.558	1109.88
462.777	1160.88
462.997	1244.88
463.217	1376.88
463.437	1411.88
463.657	1269.88
463.876	1217.88
464.096	1187.88
464.316	1184.88
464.536	1217.88
464.755	1116.88
464.975	1099.88
465.195	1051.88
465.414	969.88
465.634	919.88
465.854	879.88
466.073	852.88
466.293	874.88
466.512	860.88
466.732	808.88
466.951	811.88
467.171	818.88
467.391	801.88
467.61	832.88
467.829	814.88
468.049	820.88
468.268	779.88
468.488	783.88
468.707	776.88
468.927	803.88
469.146	777.88
469.365	806.88
469.585	788.88
469.804	839.88
470.023	827.88
470.243	845.88
470.462	845.88
470.681	872.88
470.901	850.88
471.12	847.88
471.339	806.88
471.558	790.88
471.777	798.88
471.997	800.88
472.216	767.88
472.435	777.88
472.654	777.88
472.873	809.88
473.092	761.88
473.311	742.88
473.53	756.88
473.749	757.88
473.968	766.88
474.187	737.88
474.406	773.88
474.625	757.88
474.844	763.88
475.063	736.88
475.282	767.88
475.501	765.88
475.72	780.88
475.939	798.88
476.158	759.88
476.377	816.88
476.596	785.88
476.814	796.88
477.033	806.88
477.252	814.88
477.471	832.88
477.69	843.88
477.908	867.88
478.127	892.88
478.346	910.88
478.564	896.88
478.783	927.88
479.002	941.88
479.22	955.88
479.439	961.88
479.658	938.88
479.876	947.88
480.095	918.88
480.313	1001.88
480.532	1031.88
480.751	1053.88
480.969	976.88
481.188	947.88
481.406	895.88
481.624	901.88
481.843	885.88
482.061	866.88
482.28	865.88
482.498	870.88
482.717	864.88
482.935	856.88
483.153	847.88
483.372	862.88
483.59	873.88
483.808	870.88
484.027	845.88
484.245	875.88
484.463	857.88
484.681	864.88
484.9	872.88
485.118	885.88
485.336	921.88
485.554	901.88
485.772	896.88
485.99	941.88
486.209	925.88
486.427	920.88
486.645	955.88
486.863	928.88
487.081	913.88
487.299	910.88
487.517	909.88
487.735	924.88
487.953	911.88
488.171	910.88
488.389	888.88
488.607	902.88
488.825	903.88
489.043	871.88
489.261	887.88
489.479	912.88
489.696	880.88
489.914	899.88
490.132	897.88
490.35	896.88
490.568	868.88
490.786	899.88
491.003	906.88
491.221	894.88
491.439	900.88
491.657	899.88
491.874	914.88
492.092	899.88
492.31	910.88
492.527	934.88
492.745	922.88
492.963	925.88
493.18	933.88
493.398	939.88
493.615	969.88
493.833	951.88
494.05	987.88
494.268	952.88
494.485	972.88
494.703	956.88
494.92	972.88
495.138	945.88
495.355	980.88
495.573	952.88
495.79	956.88
496.008	985.88
496.225	977.88
496.442	951.88
496.66	985.88
496.877	1001.88
497.094	1046.88
497.312	1011.88
497.529	1061.88
497.746	1036.88
497.963	1086.88
498.181	1144.88
498.398	1194.88
498.615	1273.88
498.832	1335.88
499.049	1467.88
499.267	1507.88
499.484	1707.88
499.701	1882.88
499.918	2106.88
500.135	2472.88
500.352	2901.88
500.569	3036.88
500.786	3048.88
501.003	2797.88
501.22	2462.88
501.437	2135.88
501.654	1872.88
501.871	1648.88
502.088	1559.88
502.305	1467.88
502.522	1353.88
502.739	1282.88
502.956	1223.88
503.172	1153.88
503.389	1151.88
503.606	1105.88
503.823	1079.88
504.04	1082.88
504.256	1092.88
504.473	1123.88
504.69	1173.88
504.907	1161.88
505.123	1079.88
505.34	1008.88
505.557	997.88
505.773	948.88
505.99	906.88
506.207	896.88
506.423	882.88
506.64	887.88
506.856	865.88
507.073	859.88
507.289	863.88
507.506	862.88
507.722	860.88
507.939	843.88
508.155	821.88
508.372	828.88
508.588	826.88
508.805	808.88
509.021	799.88
509.238	798.88
509.454	815.88
509.67	801.88
509.887	808.88
510.103	790.88
510.319	788.88
510.536	779.88
510.752	784.88
510.968	773.88
511.184	780.88
511.401	795.88
511.617	785.88
511.833	773.88
512.049	763.88
512.265	775.88
512.481	785.88
512.698	763.88
512.914	752.88
513.13	787.88
513.346	771.88
513.562	804.88
513.778	775.88
513.994	781.88
514.21	809.88
514.426	799.88
514.642	785.88
514.858	788.88
515.074	806.88
515.29	786.88
515.506	794.88
515.721	800.88
515.937	823.88
516.153	849.88
516.369	857.88
516.585	869.88
516.801	934.88
517.016	951.88
517.232	1011.88
517.448	1063.88
517.664	1112.88
517.879	1092.88
518.095	1113.88
518.311	1060.88
518.527	1031.88
518.742	969.88
518.958	960.88
519.173	909.88
519.389	889.88
519.605	811.88
519.82	838.88
520.036	817.88
520.251	813.88
520.467	776.88
520.682	792.88
520.898	786.88
521.113	775.88
521.329	771.88
521.544	787.88
521.76	759.88
521.975	747.88
522.19	718.88
522.406	723.88
522.621	757.88
522.836	745.88
523.052	721.88
523.267	744.88
523.482	710.88
523.698	733.88
523.913	709.88
524.128	695.88
524.343	738.88
524.559	740.88
524.774	710.88
524.989	742.88
525.204	705.88
525.419	718.88
525.634	732.88
525.849	717.88
526.064	706.88
526.28	724.88
526.495	698.88
526.71	692.88
526.925	703.88
527.14	691.88
527.355	721.88
527.57	685.88
527.785	721.88
527.999	672.88
528.214	694.88
528.429	679.88
528.644	696.88
528.859	722.88
529.074	717.88
529.289	727.88
529.503	679.88
529.718	719.88
529.933	702.88
530.148	698.88
530.363	704.88
530.577	706.88
530.792	680.88
531.007	716.88
531.221	731.88
531.436	719.88
531.651	718.88
531.865	706.88
532.08	700.88
532.295	734.88
532.509	712.88
532.724	708.88
532.938	723.88
533.153	725.88
533.367	689.88
533.582	673.88
533.796	719.88
534.011	706.88
534.225	716.88
534.44	668.88
534.654	717.88
534.868	695.88
535.083	689.88
535.297	708.88
535.511	676.88
535.726	699.88
535.94	665.88
536.154	667.88
536.369	653.88
536.583	661.88
536.797	668.88
537.011	679.88
537.225	669.88
537.44	672.88
537.654	660.88
537.868	644.88
538.082	633.88
538.296	649.88
538.51	647.88
538.724	654.88
538.938	648.88
539.153	649.88
539.367	635.88
539.581	661.88
539.795	613.88
540.009	623.88
540.222	643.88
540.436	622.88
540.65	642.88
540.864	640.88
541.078	623.88
541.292	639.88
541.506	649.88
541.72	629.88
541.934	658.88
542.147	623.88
542.361	641.88
542.575	635.88
542.789	622.88
543.002	614.88
543.216	639.88
543.43	615.88
543.644	619.88
543.857	629.88
544.071	614.88
544.285	612.88
544.498	639.88
544.712	643.88
544.925	641.88
545.139	644.88
545.352	637.88
545.566	638.88
545.779	661.88
545.993	641.88
546.206	654.88
546.42	663.88
546.633	649.88
546.847	611.88
547.06	658.88
547.274	637.88
547.487	641.88
547.7	633.88
547.914	634.88
548.127	650.88
548.34	632.88
548.554	641.88
548.767	646.88
548.98	653.88
549.193	631.88
549.407	664.88
549.62	655.88
549.833	673.88
550.046	657.88
550.259	648.88
550.473	641.88
550.686	648.88
550.899	642.88
551.112	625.88
551.325	647.88
551.538	640.88
551.751	617.88
551.964	617.88
552.177	636.88
552.39	641.88
552.603	644.88
552.816	672.88
553.029	696.88
553.242	692.88
553.455	719.88
553.667	735.88
553.88	713.88
554.093	693.88
554.306	672.88
554.519	645.88
554.732	644.88
554.944	639.88
555.157	618.88
555.37	593.88
555.583	632.88
555.795	592.88
556.008	589.88
556.221	582.88
556.433	574.88
556.646	559.88
556.859	567.88
557.071	574.88
557.284	581.88
557.496	551.88
557.709	561.88
557.921	574.88
558.134	540.88
558.346	575.88
558.559	551.88
558.771	542.88
558.984	552.88
559.196	538.88
559.409	553.88
559.621	554.88
559.833	528.88
560.046	542.88
560.258	553.88
560.47	542.88
560.683	541.88
560.895	546.88
561.107	559.88
561.32	524.88
561.532	537.88
561.744	542.88
561.956	556.88
562.168	531.88
562.381	536.88
562.593	556.88
562.805	526.88
563.017	527.88
563.229	535.88
563.441	551.88
563.653	560.88
563.865	554.88
564.077	558.88
564.289	540.88
564.501	554.88
564.713	573.88
564.925	557.88
565.137	582.88
565.349	621.88
565.561	622.88
565.773	631.88
565.985	645.88
566.197	681.88
566.408	745.88
566.62	838.88
566.832	899.88
567.044	897.88
567.255	871.88
567.467	926.88
567.679	974.88
567.891	1074.88
568.102	1065.88
568.314	1042.88
568.526	919.88
568.737	823.88
568.949	772.88
569.161	695.88
569.372	653.88
569.584	600.88
569.795	582.88
570.007	560.88
570.218	560.88
570.43	552.88
570.641	537.88
570.853	550.88
571.064	575.88
571.276	576.88
571.487	551.88
571.698	536.88
571.91	504.88
572.121	499.88
572.333	477.88
572.544	486.88
572.755	463.88
572.966	464.88
573.178	469.88
573.389	452.88
573.6	439.88
573.811	449.88
574.023	443.88
574.234	435.88
574.445	452.88
574.656	445.88
574.867	451.88
575.078	445.88
575.289	446.88
575.501	435.88
575.712	428.88
575.923	447.88
576.134	440.88
576.345	445.88
576.556	433.88
576.767	431.88
576.978	415.88
577.188	429.88
577.399	440.88
577.61	421.88
577.821	412.88
578.032	413.88
578.243	400.88
578.454	395.88
578.665	409.88
578.875	432.88
579.086	400.88
579.297	424.88
579.508	390.88
579.718	417.88
579.929	385.88
580.14	397.88
580.35	400.88
580.561	415.88
580.772	398.88
580.982	390.88
581.193	389.88
581.403	391.88
581.614	393.88
581.825	388.88
582.035	390.88
582.246	382.88
582.456	393.88
582.667	372.88
582.877	367.88
583.087	369.88
583.298	382.88
583.508	400.88
583.719	374.88
583.929	364.88
584.139	391.88
584.35	379.88
584.56	373.88
584.77	380.88
584.981	381.88
585.191	390.88
585.401	371.88
585.611	365.88
585.821	366.88
586.032	353.88
586.242	365.88
586.452	376.88
586.662	364.88
586.872	356.88
587.082	363.88
587.292	375.88
587.502	350.88
587.713	351.88
587.923	376.88
588.133	378.88
588.343	371.88
588.553	361.88
588.762	387.88
588.972	381.88
589.182	390.88
589.392	378.88
589.602	365.88
589.812	375.88
590.022	387.88
590.232	341.88
590.441	374.88
590.651	360.88
590.861	354.88
591.071	377.88
591.281	369.88
591.49	377.88
591.7	397.88
591.91	399.88
592.119	400.88
592.329	397.88
592.539	411.88
592.748	430.88
592.958	451.88
593.167	449.88
593.377	444.88
593.587	490.88
593.796	480.88
594.006	465.88
594.215	500.88
594.424	476.88
594.634	484.88
594.843	444.88
595.053	438.88
595.262	401.88
595.472	399.88
595.681	397.88
595.89	383.88
596.1	386.88
596.309	375.88
596.518	362.88
596.727	336.88
596.937	357.88
597.146	349.88
597.355	324.88
597.564	329.88
597.774	354.88
597.983	329.88
598.192	327.88
598.401	329.88
598.61	336.88
598.819	336.88
599.028	314.88
599.237	325.88
599.446	325.88
599.655	339.88
599.864	332.88
600.073	317.88
600.282	327.88
600.491	304.88
600.7	314.88
600.909	310.88
601.118	314.88
601.327	308.88
601.536	296.88
601.745	297.88
601.953	308.88
602.162	316.88
602.371	313.88
602.58	294.88
602.789	301.88
602.997	295.88
603.206	304.88
603.415	295.88
603.623	312.88
603.832	297.88
604.041	296.88
604.249	295.88
604.458	297.88
604.666	287.88
604.875	295.88
605.084	289.88
605.292	299.88
605.501	306.88
605.709	295.88
605.918	284.88
606.126	303.88
606.334	273.88
606.543	301.88
606.751	270.88
606.96	300.88
607.168	273.88
607.376	309.88
607.585	265.88
607.793	279.88
608.001	285.88
608.21	293.88
608.418	292.88
608.626	282.88
608.834	300.88
609.043	283.88
609.251	275.88
609.459	282.88
609.667	275.88
609.875	278.88
610.083	281.88
610.291	292.88
610.499	271.88
610.707	269.88
610.916	267.88
611.124	270.88
611.332	263.88
611.54	292.88
611.748	272.88
611.955	283.88
612.163	268.88
612.371	255.88
612.579	255.88
612.787	267.88
612.995	270.88
613.203	272.88
613.411	276.88
613.618	262.88
613.826	267.88
614.034	287.88
614.242	295.88
614.449	263.88
614.657	272.88
614.865	276.88
615.072	288.88
615.28	268.88
615.488	268.88
615.695	264.88
615.903	265.88
616.111	284.88
616.318	292.88
616.526	267.88
616.733	273.88
616.941	276.88
617.148	272.88
617.356	270.88
617.563	266.88
617.771	276.88
617.978	262.88
618.185	265.88
618.393	279.88
618.6	260.88
618.807	274.88
619.015	267.88
619.222	255.88
619.429	272.88
619.637	283.88
619.844	261.88
620.051	254.88
620.258	257.88
620.466	269.88
620.673	262.88
620.88	271.88
621.087	247.88
621.294	261.88
621.501	245.88
621.708	251.88
621.915	239.88
622.122	245.88
622.329	251.88
622.536	251.88
622.743	246.88
622.95	247.88
623.157	233.88
623.364	243.88
623.571	243.88
623.778	234.88
623.985	238.88
624.192	241.88
624.399	233.88
624.606	261.88
624.812	259.88
625.019	233.88
625.226	236.88
625.433	244.88
625.639	228.88
625.846	225.88
626.053	230.88
626.259	253.88
626.466	229.88
626.673	236.88
626.879	214.88
627.086	225.88
627.293	229.88
627.499	230.88
627.706	233.88
627.912	237.88
628.119	213.88
628.325	236.88
628.532	230.88
628.738	234.88
628.945	214.88
629.151	210.88
629.357	229.88
629.564	225.88
629.77	220.88
629.976	217.88
630.183	205.88
630.389	204.88
630.595	209.88
630.802	230.88
631.008	220.88
631.214	230.88
631.42	227.88
631.627	232.88
631.833	207.88
632.039	227.88
632.245	220.88
632.451	215.88
632.657	192.88
632.863	217.88
633.069	210.88
633.275	202.88
633.481	211.88
633.688	209.88
633.893	200.88
634.099	215.88
634.305	216.88
634.511	211.88
634.717	199.88
634.923	196.88
635.129	203.88
635.335	200.88
635.541	213.88
635.747	208.88
635.952	199.88
636.158	201.88
636.364	200.88
636.57	191.88
636.775	201.88
636.981	202.88
637.187	208.88
637.392	199.88
637.598	192.88
637.804	189.88
638.009	183.88
638.215	213.88
638.421	192.88
638.626	201.88
638.832	177.88
639.037	181.88
639.243	197.88
639.448	193.88
639.654	198.88
639.859	181.88
640.065	198.88
640.27	188.88
640.475	204.88
640.681	193.88
640.886	196.88
641.091	189.88
641.297	176.88
641.502	197.88
641.707	201.88
641.913	181.88
642.118	188.88
642.323	183.88
642.528	199.88
642.733	203.88
642.939	192.88
643.144	202.88
643.349	186.88
643.554	192.88
643.759	195.88
643.964	165.88
644.169	190.88
644.374	178.88
644.579	181.88
644.784	182.88
644.989	192.88
645.194	185.88
645.399	179.88
645.604	176.88
645.809	183.88
646.014	177.88
646.219	185.88
646.423	187.88
646.628	180.88
646.833	186.88
647.038	184.88
647.243	171.88
647.447	181.88
647.652	191.88
647.857	184.88
648.062	196.88
648.266	191.88
648.471	213.88
648.676	186.88
648.88	187.88
649.085	173.88
649.289	187.88
649.494	180.88
649.698	185.88
649.903	183.88
650.107	188.88
650.312	180.88
650.516	180.88
650.721	189.88
650.925	165.88
651.13	171.88
651.334	178.88
651.539	156.88
651.743	164.88
651.947	172.88
652.152	172.88
652.356	158.88
652.56	157.88
652.764	159.88
652.969	157.88
653.173	156.88
653.377	148.88
653.581	149.88
653.785	166.88
653.99	151.88
654.194	120.88
654.398	153.88
654.602	129.88
654.806	139.88
655.01	153.88
655.214	139.88
655.418	147.88
655.622	122.88
655.826	148.88
656.03	139.88
656.234	133.88
656.438	132.88
656.642	131.88
656.846	123.88
657.049	124.88
657.253	133.88
657.457	136.88
657.661	123.88
657.865	130.88
658.068	121.88
658.272	119.88
658.476	116.88
658.68	97.88
658.883	111.88
659.087	112.88
659.291	104.88
659.494	101.88
659.698	112.88
659.901	108.88
660.105	106.88
660.309	103.88
660.512	102.88
660.716	113.88
660.919	99.88
661.123	112.88
661.326	89.88
661.53	92.88
661.733	100.88
661.936	93.88
662.14	91.88
662.343	91.88
662.546	84.88
662.75	94.88
662.953	79.88
663.156	92.88
663.36	85.88
663.563	100.88
663.766	87.88
663.969	93.88
664.173	85.88
664.376	89.88
664.579	86.88
664.782	94.88
664.985	75.88
665.188	75.88
665.391	63.88
665.594	85.88
665.797	86.88
666	101.88
666.203	87.88
666.406	90.88
666.609	85.88
666.812	93.88
667.015	92.88
667.218	84.88
667.421	80.88
667.624	88.88
667.827	76.88
668.03	99.88
668.232	79.88
668.435	96.88
668.638	81.88
668.841	72.88
669.043	93.88
669.246	93.88
669.449	77.88
669.651	84.88
669.854	82.88
670.057	90.88
670.259	88.88
670.462	88.88
670.665	95.88
670.867	81.88
671.07	77.88
671.272	74.88
671.475	83.88
671.677	90.88
671.88	97.88
672.082	80.88
672.284	90.88
672.487	90.88
672.689	82.88
672.892	100.88
