Data from NiCl2@0.0625M.TitratingCurve.Agarose3%dH2O.NegLispCup.LampEnergy10.LIBS07252019_HRD10591_18-35-04-576.txt Node
Date: Thu Jul 25 18:35:04 EDT 2019
User: cochatt
Spectrometer: HR+D1059
Trigger mode: 1
Integration Time (sec): 1.000000E-1
Scans to average: 1
Electric dark correction enabled: true
Nonlinearity correction enabled: false
Boxcar width: 0
XAxis mode: Wavelengths
Number of Pixels in Spectrum: 2048
>>>>>Begin Spectral Data<<<<<
223.165	-15.25
223.4	-15.25
223.635	-15.25
223.869	-23.25
224.104	-22.25
224.338	-15.25
224.573	2.75
224.808	-18.25
225.042	0.75
225.277	-12.25
225.511	-13.25
225.746	4.75
225.98	9.75
226.215	16.75
226.449	23.75
226.683	19.75
226.918	17.75
227.152	23.75
227.387	39.75
227.621	43.75
227.856	48.75
228.09	43.75
228.324	52.75
228.559	40.75
228.793	81.75
229.027	141.75
229.262	147.75
229.496	140.75
229.73	166.75
229.964	169.75
230.199	173.75
230.433	157.75
230.667	190.75
230.901	181.75
231.136	189.75
231.37	181.75
231.604	176.75
231.838	206.75
232.072	199.75
232.306	200.75
232.541	184.75
232.775	202.75
233.009	205.75
233.243	193.75
233.477	206.75
233.711	188.75
233.945	202.75
234.179	184.75
234.413	203.75
234.647	219.75
234.881	202.75
235.115	204.75
235.349	192.75
235.583	214.75
235.817	208.75
236.051	229.75
236.285	213.75
236.519	220.75
236.753	220.75
236.987	234.75
237.221	247.75
237.455	236.75
237.689	226.75
237.922	244.75
238.156	239.75
238.39	237.75
238.624	233.75
238.858	248.75
239.091	258.75
239.325	262.75
239.559	247.75
239.793	254.75
240.027	267.75
240.26	267.75
240.494	277.75
240.728	268.75
240.961	284.75
241.195	287.75
241.429	295.75
241.662	290.75
241.896	291.75
242.13	271.75
242.363	304.75
242.597	272.75
242.83	294.75
243.064	293.75
243.298	308.75
243.531	308.75
243.765	304.75
243.998	303.75
244.232	300.75
244.465	315.75
244.699	330.75
244.932	323.75
245.166	344.75
245.399	316.75
245.633	327.75
245.866	343.75
246.099	334.75
246.333	336.75
246.566	329.75
246.8	348.75
247.033	334.75
247.266	350.75
247.5	353.75
247.733	345.75
247.966	344.75
248.2	349.75
248.433	340.75
248.666	357.75
248.899	370.75
249.133	386.75
249.366	387.75
249.599	392.75
249.832	367.75
250.066	380.75
250.299	396.75
250.532	392.75
250.765	411.75
250.998	403.75
251.231	403.75
251.465	414.75
251.698	418.75
251.931	426.75
252.164	422.75
252.397	404.75
252.63	419.75
252.863	430.75
253.096	417.75
253.329	450.75
253.562	442.75
253.795	422.75
254.028	438.75
254.261	446.75
254.494	437.75
254.727	436.75
254.96	447.75
255.193	444.75
255.426	440.75
255.659	450.75
255.892	451.75
256.124	461.75
256.357	456.75
256.59	455.75
256.823	475.75
257.056	463.75
257.289	461.75
257.521	459.75
257.754	475.75
257.987	462.75
258.22	482.75
258.452	471.75
258.685	482.75
258.918	481.75
259.151	485.75
259.383	516.75
259.616	476.75
259.849	470.75
260.081	510.75
260.314	502.75
260.547	515.75
260.779	494.75
261.012	517.75
261.244	509.75
261.477	532.75
261.71	511.75
261.942	524.75
262.175	519.75
262.407	527.75
262.64	531.75
262.872	538.75
263.105	536.75
263.337	537.75
263.57	540.75
263.802	558.75
264.035	529.75
264.267	548.75
264.499	554.75
264.732	544.75
264.964	571.75
265.197	574.75
265.429	547.75
265.661	578.75
265.894	571.75
266.126	595.75
266.358	570.75
266.591	566.75
266.823	588.75
267.055	564.75
267.287	588.75
267.52	582.75
267.752	584.75
267.984	592.75
268.216	600.75
268.448	582.75
268.681	586.75
268.913	611.75
269.145	610.75
269.377	616.75
269.609	598.75
269.841	607.75
270.073	620.75
270.306	591.75
270.538	620.75
270.77	627.75
271.002	616.75
271.234	628.75
271.466	635.75
271.698	622.75
271.93	654.75
272.162	637.75
272.394	635.75
272.626	649.75
272.858	663.75
273.09	643.75
273.322	660.75
273.553	629.75
273.785	638.75
274.017	654.75
274.249	645.75
274.481	652.75
274.713	677.75
274.945	670.75
275.176	694.75
275.408	698.75
275.64	682.75
275.872	690.75
276.104	695.75
276.335	680.75
276.567	682.75
276.799	720.75
277.031	710.75
277.262	682.75
277.494	698.75
277.726	698.75
277.957	710.75
278.189	709.75
278.421	697.75
278.652	711.75
278.884	714.75
279.115	735.75
279.347	727.75
279.579	723.75
279.81	752.75
280.042	743.75
280.273	727.75
280.505	755.75
280.736	748.75
280.968	748.75
281.199	740.75
281.431	777.75
281.662	779.75
281.894	769.75
282.125	770.75
282.356	785.75
282.588	759.75
282.819	794.75
283.051	778.75
283.282	777.75
283.513	790.75
283.745	810.75
283.976	787.75
284.207	802.75
284.439	802.75
284.67	818.75
284.901	809.75
285.132	772.75
285.364	802.75
285.595	812.75
285.826	835.75
286.057	800.75
286.288	814.75
286.52	822.75
286.751	829.75
286.982	830.75
287.213	841.75
287.444	853.75
287.675	818.75
287.906	859.75
288.138	829.75
288.369	840.75
288.6	861.75
288.831	862.75
289.062	854.75
289.293	831.75
289.524	869.75
289.755	839.75
289.986	838.75
290.217	859.75
290.448	859.75
290.679	875.75
290.91	864.75
291.141	857.75
291.371	874.75
291.602	883.75
291.833	859.75
292.064	874.75
292.295	842.75
292.526	849.75
292.757	867.75
292.987	863.75
293.218	848.75
293.449	879.75
293.68	853.75
293.91	872.75
294.141	877.75
294.372	875.75
294.603	906.75
294.833	878.75
295.064	889.75
295.295	922.75
295.525	888.75
295.756	874.75
295.987	869.75
296.217	915.75
296.448	861.75
296.679	883.75
296.909	906.75
297.14	899.75
297.37	918.75
297.601	918.75
297.831	917.75
298.062	905.75
298.292	922.75
298.523	944.75
298.753	941.75
298.984	926.75
299.214	925.75
299.445	913.75
299.675	939.75
299.905	920.75
300.136	939.75
300.366	967.75
300.597	962.75
300.827	979.75
301.057	1008.75
301.288	983.75
301.518	972.75
301.748	974.75
301.979	991.75
302.209	1002.75
302.439	979.75
302.669	1005.75
302.9	1010.75
303.13	958.75
303.36	992.75
303.59	1000.75
303.82	980.75
304.051	983.75
304.281	1000.75
304.511	987.75
304.741	1000.75
304.971	1000.75
305.201	995.75
305.431	983.75
305.661	974.75
305.891	991.75
306.121	993.75
306.352	992.75
306.582	977.75
306.812	943.75
307.042	985.75
307.272	972.75
307.502	976.75
307.731	983.75
307.961	968.75
308.191	970.75
308.421	984.75
308.651	1001.75
308.881	978.75
309.111	990.75
309.341	995.75
309.571	971.75
309.8	980.75
310.03	989.75
310.26	1015.75
310.49	996.75
310.72	981.75
310.949	983.75
311.179	1000.75
311.409	971.75
311.639	1006.75
311.868	1012.75
312.098	992.75
312.328	1031.75
312.557	1016.75
312.787	1049.75
313.017	1020.75
313.246	1012.75
313.476	1037.75
313.706	1076.75
313.935	1057.75
314.165	1092.75
314.394	1058.75
314.624	1098.75
314.853	1065.75
315.083	1066.75
315.312	1055.75
315.542	1058.75
315.771	1052.75
316.001	1068.75
316.23	1066.75
316.46	1044.75
316.689	1046.75
316.919	1032.75
317.148	1042.75
317.377	1043.75
317.607	1069.75
317.836	1039.75
318.065	1042.75
318.295	1049.75
318.524	1058.75
318.753	1037.75
318.983	1044.75
319.212	1058.75
319.441	1011.75
319.67	1063.75
319.9	1036.75
320.129	1045.75
320.358	1035.75
320.587	1034.75
320.816	1056.75
321.046	1054.75
321.275	1054.75
321.504	1050.75
321.733	1044.75
321.962	1050.75
322.191	1059.75
322.42	1075.75
322.649	1070.75
322.878	1082.75
323.108	1044.75
323.337	1056.75
323.566	1058.75
323.795	1099.75
324.024	1092.75
324.253	1078.75
324.482	1094.75
324.71	1104.75
324.939	1093.75
325.168	1103.75
325.397	1107.75
325.626	1124.75
325.855	1128.75
326.084	1111.75
326.313	1135.75
326.542	1159.75
326.77	1154.75
326.999	1135.75
327.228	1129.75
327.457	1107.75
327.686	1139.75
327.914	1116.75
328.143	1142.75
328.372	1118.75
328.6	1126.75
328.829	1145.75
329.058	1136.75
329.287	1107.75
329.515	1154.75
329.744	1151.75
329.972	1184.75
330.201	1157.75
330.43	1168.75
330.658	1162.75
330.887	1177.75
331.115	1165.75
331.344	1191.75
331.572	1192.75
331.801	1214.75
332.03	1243.75
332.258	1266.75
332.486	1249.75
332.715	1333.75
332.943	1382.75
333.172	1391.75
333.4	1432.75
333.629	1432.75
333.857	1492.75
334.085	1490.75
334.314	1509.75
334.542	1459.75
334.771	1427.75
334.999	1428.75
335.227	1438.75
335.455	1404.75
335.684	1371.75
335.912	1400.75
336.14	1386.75
336.369	1394.75
336.597	1374.75
336.825	1391.75
337.053	1384.75
337.281	1343.75
337.51	1314.75
337.738	1329.75
337.966	1311.75
338.194	1294.75
338.422	1252.75
338.65	1247.75
338.878	1260.75
339.106	1261.75
339.334	1257.75
339.562	1242.75
339.79	1219.75
340.018	1230.75
340.246	1161.75
340.474	1173.75
340.702	1196.75
340.93	1200.75
341.158	1196.75
341.386	1188.75
341.614	1220.75
341.842	1168.75
342.07	1174.75
342.298	1174.75
342.526	1190.75
342.754	1214.75
342.981	1228.75
343.209	1204.75
343.437	1261.75
343.665	1311.75
343.893	1378.75
344.12	1396.75
344.348	1405.75
344.576	1334.75
344.804	1295.75
345.031	1257.75
345.259	1229.75
345.487	1237.75
345.714	1206.75
345.942	1198.75
346.17	1197.75
346.397	1176.75
346.625	1152.75
346.853	1152.75
347.08	1147.75
347.308	1155.75
347.535	1164.75
347.763	1181.75
347.99	1126.75
348.218	1141.75
348.445	1144.75
348.673	1131.75
348.9	1144.75
349.128	1168.75
349.355	1134.75
349.583	1170.75
349.81	1145.75
350.037	1141.75
350.265	1096.75
350.492	1117.75
350.72	1136.75
350.947	1110.75
351.174	1113.75
351.402	1143.75
351.629	1122.75
351.856	1154.75
352.083	1128.75
352.311	1100.75
352.538	1101.75
352.765	1140.75
352.992	1115.75
353.22	1093.75
353.447	1071.75
353.674	1085.75
353.901	1071.75
354.128	1097.75
354.355	1064.75
354.583	1086.75
354.81	1104.75
355.037	1096.75
355.264	1098.75
355.491	1087.75
355.718	1132.75
355.945	1109.75
356.172	1109.75
356.399	1121.75
356.626	1123.75
356.853	1151.75
357.08	1116.75
357.307	1115.75
357.534	1105.75
357.761	1128.75
357.988	1131.75
358.215	1113.75
358.441	1109.75
358.668	1099.75
358.895	1139.75
359.122	1094.75
359.349	1102.75
359.576	1098.75
359.802	1124.75
360.029	1129.75
360.256	1146.75
360.483	1105.75
360.709	1128.75
360.936	1140.75
361.163	1124.75
361.39	1107.75
361.616	1105.75
361.843	1108.75
362.07	1114.75
362.296	1129.75
362.523	1127.75
362.749	1100.75
362.976	1104.75
363.203	1103.75
363.429	1126.75
363.656	1143.75
363.882	1129.75
364.109	1112.75
364.335	1088.75
364.562	1112.75
364.788	1125.75
365.015	1088.75
365.241	1124.75
365.468	1126.75
365.694	1105.75
365.92	1102.75
366.147	1103.75
366.373	1124.75
366.599	1123.75
366.826	1132.75
367.052	1101.75
367.278	1148.75
367.505	1128.75
367.731	1144.75
367.957	1146.75
368.184	1141.75
368.41	1160.75
368.636	1089.75
368.862	1159.75
369.089	1166.75
369.315	1162.75
369.541	1154.75
369.767	1158.75
369.993	1146.75
370.219	1160.75
370.445	1162.75
370.672	1189.75
370.898	1158.75
371.124	1199.75
371.35	1223.75
371.576	1222.75
371.802	1183.75
372.028	1225.75
372.254	1241.75
372.48	1234.75
372.706	1252.75
372.932	1261.75
373.158	1246.75
373.384	1216.75
373.61	1187.75
373.835	1208.75
374.061	1236.75
374.287	1215.75
374.513	1223.75
374.739	1263.75
374.965	1309.75
375.191	1353.75
375.416	1291.75
375.642	1271.75
375.868	1254.75
376.094	1241.75
376.319	1220.75
376.545	1205.75
376.771	1215.75
376.997	1223.75
377.222	1203.75
377.448	1211.75
377.674	1202.75
377.899	1181.75
378.125	1192.75
378.35	1187.75
378.576	1195.75
378.802	1202.75
379.027	1227.75
379.253	1194.75
379.478	1151.75
379.704	1169.75
379.929	1182.75
380.155	1188.75
380.38	1191.75
380.606	1187.75
380.831	1220.75
381.057	1196.75
381.282	1207.75
381.507	1206.75
381.733	1224.75
381.958	1171.75
382.184	1210.75
382.409	1248.75
382.634	1251.75
382.86	1251.75
383.085	1263.75
383.31	1278.75
383.535	1291.75
383.761	1304.75
383.986	1334.75
384.211	1317.75
384.436	1357.75
384.662	1353.75
384.887	1418.75
385.112	1403.75
385.337	1394.75
385.562	1388.75
385.787	1426.75
386.013	1420.75
386.238	1436.75
386.463	1431.75
386.688	1448.75
386.913	1431.75
387.138	1447.75
387.363	1446.75
387.588	1412.75
387.813	1404.75
388.038	1415.75
388.263	1403.75
388.488	1433.75
388.713	1454.75
388.938	1471.75
389.163	1414.75
389.387	1415.75
389.612	1407.75
389.837	1436.75
390.062	1374.75
390.287	1413.75
390.512	1414.75
390.736	1419.75
390.961	1455.75
391.186	1471.75
391.411	1511.75
391.636	1557.75
391.86	1576.75
392.085	1601.75
392.31	1602.75
392.534	1553.75
392.759	1545.75
392.984	1514.75
393.208	1501.75
393.433	1522.75
393.658	1511.75
393.882	1534.75
394.107	1532.75
394.331	1519.75
394.556	1520.75
394.78	1510.75
395.005	1502.75
395.229	1544.75
395.454	1555.75
395.678	1620.75
395.903	1599.75
396.127	1586.75
396.352	1525.75
396.576	1514.75
396.801	1543.75
397.025	1579.75
397.249	1601.75
397.474	1622.75
397.698	1643.75
397.922	1640.75
398.147	1626.75
398.371	1649.75
398.595	1696.75
398.82	1787.75
399.044	1865.75
399.268	2038.75
399.492	2250.75
399.717	2457.75
399.941	2486.75
400.165	2332.75
400.389	2106.75
400.613	1976.75
400.837	1908.75
401.062	1896.75
401.286	1835.75
401.51	1820.75
401.734	1780.75
401.958	1806.75
402.182	1831.75
402.406	1815.75
402.63	1840.75
402.854	1856.75
403.078	1821.75
403.302	1920.75
403.526	1886.75
403.75	1930.75
403.974	1978.75
404.198	1968.75
404.422	1959.75
404.645	1936.75
404.869	1899.75
405.093	1942.75
405.317	1937.75
405.541	1954.75
405.765	1951.75
405.988	1922.75
406.212	1946.75
406.436	1915.75
406.66	1976.75
406.883	1975.75
407.107	2088.75
407.331	2152.75
407.555	2232.75
407.778	2266.75
408.002	2186.75
408.226	2176.75
408.449	2096.75
408.673	2064.75
408.896	2064.75
409.12	2021.75
409.344	1992.75
409.567	1972.75
409.791	1964.75
410.014	1978.75
410.238	1956.75
410.461	1951.75
410.685	1971.75
410.908	1945.75
411.132	1909.75
411.355	1838.75
411.578	1854.75
411.802	1833.75
412.025	1850.75
412.249	1877.75
412.472	1880.75
412.695	1829.75
412.919	1820.75
413.142	1751.75
413.365	1790.75
413.589	1798.75
413.812	1771.75
414.035	1780.75
414.258	1780.75
414.482	1799.75
414.705	1830.75
414.928	1759.75
415.151	1801.75
415.374	1779.75
415.597	1788.75
415.821	1752.75
416.044	1707.75
416.267	1733.75
416.49	1738.75
416.713	1712.75
416.936	1741.75
417.159	1694.75
417.382	1690.75
417.605	1718.75
417.828	1723.75
418.051	1740.75
418.274	1721.75
418.497	1722.75
418.72	1767.75
418.943	1751.75
419.166	1858.75
419.389	1993.75
419.611	1970.75
419.834	1860.75
420.057	1808.75
420.28	1745.75
420.503	1726.75
420.726	1694.75
420.948	1668.75
421.171	1721.75
421.394	1705.75
421.617	1695.75
421.839	1692.75
422.062	1734.75
422.285	1703.75
422.507	1758.75
422.73	1794.75
422.953	1774.75
423.175	1748.75
423.398	1759.75
423.621	1770.75
423.843	1763.75
424.066	1757.75
424.288	1767.75
424.511	1758.75
424.733	1782.75
424.956	1719.75
425.178	1733.75
425.401	1753.75
425.623	1734.75
425.846	1650.75
426.068	1709.75
426.291	1670.75
426.513	1648.75
426.735	1650.75
426.958	1622.75
427.18	1590.75
427.402	1600.75
427.625	1624.75
427.847	1597.75
428.069	1552.75
428.292	1579.75
428.514	1601.75
428.736	1551.75
428.958	1582.75
429.181	1507.75
429.403	1538.75
429.625	1568.75
429.847	1534.75
430.069	1501.75
430.292	1579.75
430.514	1513.75
430.736	1566.75
430.958	1537.75
431.18	1577.75
431.402	1583.75
431.624	1574.75
431.846	1590.75
432.068	1587.75
432.29	1594.75
432.512	1585.75
432.734	1587.75
432.956	1589.75
433.178	1576.75
433.4	1599.75
433.622	1620.75
433.844	1644.75
434.066	1631.75
434.287	1622.75
434.509	1668.75
434.731	1718.75
434.953	1755.75
435.175	1694.75
435.397	1703.75
435.618	1687.75
435.84	1646.75
436.062	1564.75
436.284	1591.75
436.505	1590.75
436.727	1562.75
436.949	1559.75
437.17	1554.75
437.392	1509.75
437.614	1506.75
437.835	1513.75
438.057	1494.75
438.278	1487.75
438.5	1488.75
438.721	1509.75
438.943	1521.75
439.165	1479.75
439.386	1476.75
439.608	1545.75
439.829	1547.75
440.05	1541.75
440.272	1527.75
440.493	1517.75
440.715	1589.75
440.936	1587.75
441.158	1619.75
441.379	1614.75
441.6	1708.75
441.822	1720.75
442.043	1734.75
442.264	1677.75
442.486	1662.75
442.707	1657.75
442.928	1623.75
443.149	1683.75
443.371	1673.75
443.592	1693.75
443.813	1717.75
444.034	1720.75
444.255	1800.75
444.476	1856.75
444.698	1891.75
444.919	1941.75
445.14	2002.75
445.361	1903.75
445.582	1746.75
445.803	1707.75
446.024	1684.75
446.245	1650.75
446.466	1548.75
446.687	1550.75
446.908	1574.75
447.129	1555.75
447.35	1477.75
447.571	1486.75
447.792	1442.75
448.013	1442.75
448.234	1412.75
448.455	1414.75
448.675	1378.75
448.896	1420.75
449.117	1370.75
449.338	1375.75
449.559	1390.75
449.779	1384.75
450	1354.75
450.221	1383.75
450.442	1407.75
450.662	1408.75
450.883	1394.75
451.104	1422.75
451.324	1396.75
451.545	1387.75
451.766	1396.75
451.986	1386.75
452.207	1417.75
452.428	1383.75
452.648	1364.75
452.869	1335.75
453.089	1320.75
453.31	1382.75
453.53	1338.75
453.751	1337.75
453.971	1332.75
454.192	1341.75
454.412	1298.75
454.633	1319.75
454.853	1325.75
455.073	1319.75
455.294	1325.75
455.514	1316.75
455.734	1334.75
455.955	1314.75
456.175	1284.75
456.395	1297.75
456.616	1298.75
456.836	1318.75
457.056	1327.75
457.276	1287.75
457.497	1315.75
457.717	1357.75
457.937	1366.75
458.157	1351.75
458.377	1398.75
458.598	1394.75
458.818	1437.75
459.038	1444.75
459.258	1485.75
459.478	1505.75
459.698	1587.75
459.918	1607.75
460.138	1683.75
460.358	1672.75
460.578	1731.75
460.798	1768.75
461.018	1772.75
461.238	1759.75
461.458	1768.75
461.678	1750.75
461.898	1806.75
462.118	1785.75
462.338	1864.75
462.558	1910.75
462.777	2019.75
462.997	2116.75
463.217	2243.75
463.437	2237.75
463.657	2131.75
463.876	2047.75
464.096	2042.75
464.316	2016.75
464.536	1976.75
464.755	1930.75
464.975	1917.75
465.195	1813.75
465.414	1739.75
465.634	1661.75
465.854	1594.75
466.073	1558.75
466.293	1529.75
466.512	1554.75
466.732	1481.75
466.951	1453.75
467.171	1465.75
467.391	1472.75
467.61	1452.75
467.829	1424.75
468.049	1454.75
468.268	1412.75
468.488	1407.75
468.707	1384.75
468.927	1425.75
469.146	1404.75
469.365	1398.75
469.585	1417.75
469.804	1438.75
470.023	1500.75
470.243	1490.75
470.462	1520.75
470.681	1506.75
470.901	1485.75
471.12	1494.75
471.339	1456.75
471.558	1462.75
471.777	1479.75
471.997	1428.75
472.216	1437.75
472.435	1418.75
472.654	1394.75
472.873	1397.75
473.092	1427.75
473.311	1398.75
473.53	1402.75
473.749	1411.75
473.968	1394.75
474.187	1362.75
474.406	1401.75
474.625	1419.75
474.844	1417.75
475.063	1413.75
475.282	1423.75
475.501	1412.75
475.72	1443.75
475.939	1431.75
476.158	1448.75
476.377	1469.75
476.596	1438.75
476.814	1501.75
477.033	1488.75
477.252	1549.75
477.471	1567.75
477.69	1559.75
477.908	1572.75
478.127	1655.75
478.346	1644.75
478.564	1677.75
478.783	1711.75
479.002	1704.75
479.22	1739.75
479.439	1758.75
479.658	1726.75
479.876	1765.75
480.095	1804.75
480.313	1871.75
480.532	1830.75
480.751	1858.75
480.969	1818.75
481.188	1752.75
481.406	1754.75
481.624	1691.75
481.843	1716.75
482.061	1681.75
482.28	1672.75
482.498	1688.75
482.717	1665.75
482.935	1711.75
483.153	1696.75
483.372	1712.75
483.59	1715.75
483.808	1722.75
484.027	1719.75
484.245	1732.75
484.463	1766.75
484.681	1824.75
484.9	1839.75
485.118	1802.75
485.336	1894.75
485.554	1867.75
485.772	1859.75
485.99	1868.75
486.209	1856.75
486.427	1876.75
486.645	1812.75
486.863	1870.75
487.081	1838.75
487.299	1832.75
487.517	1831.75
487.735	1841.75
487.953	1826.75
488.171	1803.75
488.389	1818.75
488.607	1770.75
488.825	1753.75
489.043	1760.75
489.261	1775.75
489.479	1774.75
489.696	1726.75
489.914	1755.75
490.132	1772.75
490.35	1764.75
490.568	1793.75
490.786	1748.75
491.003	1725.75
491.221	1740.75
491.439	1721.75
491.657	1783.75
491.874	1734.75
492.092	1757.75
492.31	1744.75
492.527	1723.75
492.745	1779.75
492.963	1771.75
493.18	1731.75
493.398	1751.75
493.615	1788.75
493.833	1758.75
494.05	1778.75
494.268	1797.75
494.485	1795.75
494.703	1799.75
494.92	1833.75
495.138	1788.75
495.355	1807.75
495.573	1786.75
495.79	1799.75
496.008	1839.75
496.225	1854.75
496.442	1861.75
496.66	1869.75
496.877	1888.75
497.094	1906.75
497.312	1944.75
497.529	1982.75
497.746	2021.75
497.963	2119.75
498.181	2182.75
498.398	2201.75
498.615	2411.75
498.832	2494.75
499.049	2656.75
499.267	2816.75
499.484	3062.75
499.701	3348.75
499.918	3682.75
500.135	3980.75
500.352	4382.75
500.569	4523.75
500.786	4497.75
501.003	4320.75
501.22	3933.75
501.437	3632.75
501.654	3216.75
501.871	3071.75
502.088	2776.75
502.305	2665.75
502.522	2543.75
502.739	2451.75
502.956	2302.75
503.172	2241.75
503.389	2154.75
503.606	2074.75
503.823	2013.75
504.04	2015.75
504.256	1983.75
504.473	2036.75
504.69	2027.75
504.907	1983.75
505.123	1918.75
505.34	1815.75
505.557	1768.75
505.773	1727.75
505.99	1684.75
506.207	1637.75
506.423	1588.75
506.64	1602.75
506.856	1546.75
507.073	1562.75
507.289	1541.75
507.506	1510.75
507.722	1584.75
507.939	1558.75
508.155	1519.75
508.372	1475.75
508.588	1502.75
508.805	1458.75
509.021	1487.75
509.238	1428.75
509.454	1433.75
509.67	1441.75
509.887	1460.75
510.103	1426.75
510.319	1394.75
510.536	1407.75
510.752	1424.75
510.968	1388.75
511.184	1381.75
511.401	1414.75
511.617	1398.75
511.833	1387.75
512.049	1380.75
512.265	1386.75
512.481	1395.75
512.698	1414.75
512.914	1416.75
513.13	1414.75
513.346	1365.75
513.562	1390.75
513.778	1356.75
513.994	1396.75
514.21	1407.75
514.426	1381.75
514.642	1404.75
514.858	1432.75
515.074	1444.75
515.29	1431.75
515.506	1449.75
515.721	1480.75
515.937	1554.75
516.153	1507.75
516.369	1579.75
516.585	1566.75
516.801	1599.75
517.016	1672.75
517.232	1724.75
517.448	1794.75
517.664	1811.75
517.879	1876.75
518.095	1832.75
518.311	1827.75
518.527	1754.75
518.742	1694.75
518.958	1630.75
519.173	1629.75
519.389	1535.75
519.605	1552.75
519.82	1496.75
520.036	1481.75
520.251	1446.75
520.467	1416.75
520.682	1403.75
520.898	1374.75
521.113	1384.75
521.329	1375.75
521.544	1368.75
521.76	1361.75
521.975	1344.75
522.19	1297.75
522.406	1316.75
522.621	1323.75
522.836	1313.75
523.052	1282.75
523.267	1287.75
523.482	1300.75
523.698	1303.75
523.913	1278.75
524.128	1279.75
524.343	1272.75
524.559	1267.75
524.774	1263.75
524.989	1250.75
525.204	1266.75
525.419	1227.75
525.634	1214.75
525.849	1222.75
526.064	1251.75
526.28	1237.75
526.495	1215.75
526.71	1278.75
526.925	1231.75
527.14	1197.75
527.355	1226.75
527.57	1196.75
527.785	1215.75
527.999	1222.75
528.214	1246.75
528.429	1248.75
528.644	1259.75
528.859	1232.75
529.074	1233.75
529.289	1236.75
529.503	1227.75
529.718	1214.75
529.933	1220.75
530.148	1231.75
530.363	1220.75
530.577	1218.75
530.792	1218.75
531.007	1228.75
531.221	1244.75
531.436	1208.75
531.651	1222.75
531.865	1198.75
532.08	1244.75
532.295	1246.75
532.509	1219.75
532.724	1204.75
532.938	1195.75
533.153	1230.75
533.367	1205.75
533.582	1212.75
533.796	1222.75
534.011	1227.75
534.225	1234.75
534.44	1194.75
534.654	1210.75
534.868	1191.75
535.083	1208.75
535.297	1190.75
535.511	1141.75
535.726	1162.75
535.94	1142.75
536.154	1172.75
536.369	1145.75
536.583	1128.75
536.797	1150.75
537.011	1141.75
537.225	1135.75
537.44	1142.75
537.654	1152.75
537.868	1134.75
538.082	1093.75
538.296	1106.75
538.51	1088.75
538.724	1108.75
538.938	1064.75
539.153	1095.75
539.367	1097.75
539.581	1061.75
539.795	1062.75
540.009	1087.75
540.222	1092.75
540.436	1070.75
540.65	1109.75
540.864	1098.75
541.078	1086.75
541.292	1081.75
541.506	1094.75
541.72	1058.75
541.934	1054.75
542.147	1084.75
542.361	1091.75
542.575	1061.75
542.789	1055.75
543.002	1066.75
543.216	1055.75
543.43	1052.75
543.644	1071.75
543.857	1092.75
544.071	1092.75
544.285	1072.75
544.498	1079.75
544.712	1056.75
544.925	1093.75
545.139	1072.75
545.352	1086.75
545.566	1104.75
545.779	1075.75
545.993	1082.75
546.206	1085.75
546.42	1091.75
546.633	1081.75
546.847	1090.75
547.06	1082.75
547.274	1058.75
547.487	1112.75
547.7	1077.75
547.914	1108.75
548.127	1093.75
548.34	1089.75
548.554	1091.75
548.767	1119.75
548.98	1091.75
549.193	1098.75
549.407	1097.75
549.62	1115.75
549.833	1106.75
550.046	1114.75
550.259	1093.75
550.473	1066.75
550.686	1118.75
550.899	1097.75
551.112	1070.75
551.325	1096.75
551.538	1077.75
551.751	1075.75
551.964	1108.75
552.177	1094.75
552.39	1116.75
552.603	1118.75
552.816	1125.75
553.029	1171.75
553.242	1158.75
553.455	1177.75
553.667	1184.75
553.88	1148.75
554.093	1140.75
554.306	1123.75
554.519	1102.75
554.732	1076.75
554.944	1039.75
555.157	1030.75
555.37	1034.75
555.583	999.75
555.795	1012.75
556.008	996.75
556.221	967.75
556.433	944.75
556.646	982.75
556.859	932.75
557.071	969.75
557.284	934.75
557.496	916.75
557.709	956.75
557.921	946.75
558.134	942.75
558.346	911.75
558.559	935.75
558.771	927.75
558.984	900.75
559.196	910.75
559.409	904.75
559.621	923.75
559.833	895.75
560.046	903.75
560.258	902.75
560.47	901.75
560.683	903.75
560.895	921.75
561.107	904.75
561.32	895.75
561.532	889.75
561.744	902.75
561.956	890.75
562.168	922.75
562.381	918.75
562.593	912.75
562.805	910.75
563.017	882.75
563.229	927.75
563.441	906.75
563.653	922.75
563.865	920.75
564.077	928.75
564.289	954.75
564.501	976.75
564.713	996.75
564.925	989.75
565.137	1005.75
565.349	999.75
565.561	1048.75
565.773	1116.75
565.985	1103.75
566.197	1198.75
566.408	1220.75
566.62	1332.75
566.832	1367.75
567.044	1418.75
567.255	1436.75
567.467	1462.75
567.679	1508.75
567.891	1549.75
568.102	1553.75
568.314	1500.75
568.526	1399.75
568.737	1304.75
568.949	1193.75
569.161	1151.75
569.372	1036.75
569.584	1019.75
569.795	988.75
570.007	978.75
570.218	960.75
570.43	918.75
570.641	910.75
570.853	914.75
571.064	926.75
571.276	903.75
571.487	865.75
571.698	854.75
571.91	844.75
572.121	818.75
572.333	803.75
572.544	817.75
572.755	801.75
572.966	774.75
573.178	783.75
573.389	759.75
573.6	731.75
573.811	730.75
574.023	757.75
574.234	731.75
574.445	744.75
574.656	728.75
574.867	738.75
575.078	727.75
575.289	716.75
575.501	716.75
575.712	704.75
575.923	692.75
576.134	707.75
576.345	700.75
576.556	692.75
576.767	690.75
576.978	707.75
577.188	682.75
577.399	691.75
577.61	668.75
577.821	683.75
578.032	655.75
578.243	668.75
578.454	662.75
578.665	649.75
578.875	657.75
579.086	657.75
579.297	656.75
579.508	637.75
579.718	636.75
579.929	645.75
580.14	638.75
580.35	641.75
580.561	610.75
580.772	634.75
580.982	617.75
581.193	622.75
581.403	632.75
581.614	637.75
581.825	623.75
582.035	632.75
582.246	610.75
582.456	610.75
582.667	608.75
582.877	628.75
583.087	580.75
583.298	615.75
583.508	619.75
583.719	606.75
583.929	632.75
584.139	613.75
584.35	599.75
584.56	607.75
584.77	583.75
584.981	582.75
585.191	603.75
585.401	600.75
585.611	589.75
585.821	592.75
586.032	582.75
586.242	622.75
586.452	592.75
586.662	583.75
586.872	574.75
587.082	587.75
587.292	601.75
587.502	589.75
587.713	601.75
587.923	578.75
588.133	570.75
588.343	611.75
588.553	612.75
588.762	575.75
588.972	598.75
589.182	616.75
589.392	588.75
589.602	590.75
589.812	606.75
590.022	606.75
590.232	588.75
590.441	595.75
590.651	588.75
590.861	602.75
591.071	606.75
591.281	623.75
591.49	630.75
591.7	626.75
591.91	638.75
592.119	637.75
592.329	634.75
592.539	652.75
592.748	672.75
592.958	653.75
593.167	662.75
593.377	693.75
593.587	718.75
593.796	699.75
594.006	713.75
594.215	700.75
594.424	700.75
594.634	678.75
594.843	657.75
595.053	660.75
595.262	651.75
595.472	616.75
595.681	616.75
595.89	606.75
596.1	579.75
596.309	573.75
596.518	564.75
596.727	542.75
596.937	567.75
597.146	552.75
597.355	532.75
597.564	515.75
597.774	524.75
597.983	527.75
598.192	547.75
598.401	521.75
598.61	515.75
598.819	506.75
599.028	501.75
599.237	505.75
599.446	473.75
599.655	495.75
599.864	479.75
600.073	468.75
600.282	484.75
600.491	489.75
600.7	479.75
600.909	473.75
601.118	478.75
601.327	468.75
601.536	468.75
601.745	460.75
601.953	465.75
602.162	466.75
602.371	474.75
602.58	482.75
602.789	471.75
602.997	447.75
603.206	471.75
603.415	463.75
603.623	447.75
603.832	451.75
604.041	463.75
604.249	471.75
604.458	456.75
604.666	472.75
604.875	448.75
605.084	458.75
605.292	451.75
605.501	444.75
605.709	465.75
605.918	438.75
606.126	453.75
606.334	415.75
606.543	434.75
606.751	435.75
606.96	428.75
607.168	448.75
607.376	437.75
607.585	439.75
607.793	444.75
608.001	426.75
608.21	424.75
608.418	437.75
608.626	447.75
608.834	434.75
609.043	440.75
609.251	424.75
609.459	421.75
609.667	443.75
609.875	426.75
610.083	418.75
610.291	421.75
610.499	415.75
610.707	418.75
610.916	418.75
611.124	414.75
611.332	419.75
611.54	416.75
611.748	409.75
611.955	397.75
612.163	410.75
612.371	422.75
612.579	422.75
612.787	415.75
612.995	418.75
613.203	411.75
613.411	430.75
613.618	413.75
613.826	421.75
614.034	401.75
614.242	412.75
614.449	419.75
614.657	394.75
614.865	384.75
615.072	411.75
615.28	408.75
615.488	402.75
615.695	412.75
615.903	421.75
616.111	391.75
616.318	399.75
616.526	419.75
616.733	432.75
616.941	412.75
617.148	409.75
617.356	405.75
617.563	419.75
617.771	407.75
617.978	387.75
618.185	404.75
618.393	401.75
618.6	398.75
618.807	390.75
619.015	396.75
619.222	390.75
619.429	406.75
619.637	390.75
619.844	400.75
620.051	365.75
620.258	392.75
620.466	371.75
620.673	356.75
620.88	363.75
621.087	366.75
621.294	382.75
621.501	374.75
621.708	376.75
621.915	381.75
622.122	378.75
622.329	379.75
622.536	365.75
622.743	370.75
622.95	366.75
623.157	380.75
623.364	364.75
623.571	364.75
623.778	371.75
623.985	371.75
624.192	357.75
624.399	352.75
624.606	349.75
624.812	356.75
625.019	334.75
625.226	337.75
625.433	351.75
625.639	350.75
625.846	367.75
626.053	329.75
626.259	347.75
626.466	345.75
626.673	328.75
626.879	343.75
627.086	327.75
627.293	334.75
627.499	350.75
627.706	341.75
627.912	330.75
628.119	336.75
628.325	335.75
628.532	328.75
628.738	346.75
628.945	328.75
629.151	322.75
629.357	333.75
629.564	327.75
629.77	334.75
629.976	329.75
630.183	310.75
630.389	326.75
630.595	308.75
630.802	313.75
631.008	313.75
631.214	317.75
631.42	327.75
631.627	314.75
631.833	295.75
632.039	318.75
632.245	300.75
632.451	312.75
632.657	308.75
632.863	311.75
633.069	307.75
633.275	309.75
633.481	285.75
633.688	299.75
633.893	291.75
634.099	304.75
634.305	315.75
634.511	302.75
634.717	294.75
634.923	295.75
635.129	290.75
635.335	306.75
635.541	303.75
635.747	308.75
635.952	286.75
636.158	287.75
636.364	298.75
636.57	308.75
636.775	300.75
636.981	297.75
637.187	292.75
637.392	278.75
637.598	275.75
637.804	291.75
638.009	290.75
638.215	294.75
638.421	298.75
638.626	286.75
638.832	286.75
639.037	283.75
639.243	277.75
639.448	289.75
639.654	274.75
639.859	270.75
640.065	262.75
640.27	278.75
640.475	282.75
640.681	291.75
640.886	266.75
641.091	285.75
641.297	275.75
641.502	288.75
641.707	299.75
641.913	278.75
642.118	277.75
642.323	285.75
642.528	284.75
642.733	286.75
642.939	256.75
643.144	264.75
643.349	278.75
643.554	260.75
643.759	266.75
643.964	267.75
644.169	272.75
644.374	279.75
644.579	275.75
644.784	291.75
644.989	284.75
645.194	264.75
645.399	276.75
645.604	277.75
645.809	269.75
646.014	286.75
646.219	268.75
646.423	285.75
646.628	304.75
646.833	271.75
647.038	259.75
647.243	278.75
647.447	290.75
647.652	294.75
647.857	298.75
648.062	282.75
648.266	276.75
648.471	303.75
648.676	314.75
648.88	303.75
649.085	300.75
649.289	285.75
649.494	276.75
649.698	276.75
649.903	286.75
650.107	310.75
650.312	286.75
650.516	288.75
650.721	279.75
650.925	266.75
651.13	264.75
651.334	270.75
651.539	248.75
651.743	267.75
651.947	257.75
652.152	293.75
652.356	268.75
652.56	266.75
652.764	248.75
652.969	244.75
653.173	277.75
653.377	258.75
653.581	277.75
653.785	250.75
653.99	282.75
654.194	256.75
654.398	258.75
654.602	259.75
654.806	254.75
655.01	278.75
655.214	281.75
655.418	282.75
655.622	306.75
655.826	333.75
656.03	327.75
656.234	342.75
656.438	384.75
656.642	404.75
656.846	338.75
657.049	324.75
657.253	294.75
657.457	250.75
657.661	231.75
657.865	198.75
658.068	199.75
658.272	189.75
658.476	165.75
658.68	167.75
658.883	156.75
659.087	143.75
659.291	152.75
659.494	142.75
659.698	133.75
659.901	140.75
660.105	119.75
660.309	126.75
660.512	126.75
660.716	109.75
660.919	121.75
661.123	102.75
661.326	92.75
661.53	114.75
661.733	106.75
661.936	96.75
662.14	86.75
662.343	97.75
662.546	103.75
662.75	95.75
662.953	109.75
663.156	98.75
663.36	96.75
663.563	102.75
663.766	78.75
663.969	100.75
664.173	88.75
664.376	90.75
664.579	85.75
664.782	94.75
664.985	86.75
665.188	87.75
665.391	94.75
665.594	72.75
665.797	73.75
666	99.75
666.203	80.75
666.406	83.75
666.609	91.75
666.812	90.75
667.015	74.75
667.218	88.75
667.421	78.75
667.624	85.75
667.827	75.75
668.03	84.75
668.232	77.75
668.435	87.75
668.638	85.75
668.841	86.75
669.043	90.75
669.246	82.75
669.449	86.75
669.651	85.75
669.854	79.75
670.057	104.75
670.259	82.75
670.462	96.75
670.665	85.75
670.867	93.75
671.07	79.75
671.272	87.75
671.475	93.75
671.677	86.75
671.88	83.75
672.082	90.75
672.284	73.75
672.487	71.75
672.689	82.75
672.892	72.75
