Data from NiCl2@0.0625M.TitratingCurve.Agarose3%dH2O.NegLispCup.LampEnergy10.LIBS07252019_HRD10591_18-35-41-577.txt Node
Date: Thu Jul 25 18:35:41 EDT 2019
User: cochatt
Spectrometer: HR+D1059
Trigger mode: 1
Integration Time (sec): 1.000000E-1
Scans to average: 1
Electric dark correction enabled: true
Nonlinearity correction enabled: false
Boxcar width: 0
XAxis mode: Wavelengths
Number of Pixels in Spectrum: 2048
>>>>>Begin Spectral Data<<<<<
223.165	-17.62
223.4	-17.62
223.635	-17.62
223.869	-10.62
224.104	-26.62
224.338	-21.62
224.573	-19.62
224.808	-14.62
225.042	0.38
225.277	-12.62
225.511	8.38
225.746	12.38
225.98	8.38
226.215	12.38
226.449	7.38
226.683	21.38
226.918	20.38
227.152	32.38
227.387	38.38
227.621	30.38
227.856	38.38
228.09	51.38
228.324	38.38
228.559	55.38
228.793	76.38
229.027	114.38
229.262	129.38
229.496	127.38
229.73	125.38
229.964	140.38
230.199	158.38
230.433	148.38
230.667	152.38
230.901	160.38
231.136	151.38
231.37	162.38
231.604	155.38
231.838	164.38
232.072	153.38
232.306	167.38
232.541	163.38
232.775	174.38
233.009	161.38
233.243	165.38
233.477	157.38
233.711	171.38
233.945	173.38
234.179	171.38
234.413	169.38
234.647	158.38
234.881	166.38
235.115	166.38
235.349	168.38
235.583	173.38
235.817	168.38
236.051	164.38
236.285	184.38
236.519	189.38
236.753	184.38
236.987	171.38
237.221	185.38
237.455	196.38
237.689	194.38
237.922	194.38
238.156	200.38
238.39	172.38
238.624	188.38
238.858	203.38
239.091	196.38
239.325	204.38
239.559	202.38
239.793	199.38
240.027	217.38
240.26	210.38
240.494	212.38
240.728	186.38
240.961	195.38
241.195	221.38
241.429	230.38
241.662	223.38
241.896	224.38
242.13	225.38
242.363	224.38
242.597	233.38
242.83	247.38
243.064	242.38
243.298	257.38
243.531	236.38
243.765	240.38
243.998	236.38
244.232	242.38
244.465	233.38
244.699	266.38
244.932	242.38
245.166	260.38
245.399	256.38
245.633	262.38
245.866	253.38
246.099	247.38
246.333	270.38
246.566	256.38
246.8	262.38
247.033	289.38
247.266	267.38
247.5	267.38
247.733	277.38
247.966	280.38
248.2	258.38
248.433	286.38
248.666	268.38
248.899	293.38
249.133	280.38
249.366	282.38
249.599	304.38
249.832	283.38
250.066	297.38
250.299	293.38
250.532	265.38
250.765	293.38
250.998	298.38
251.231	303.38
251.465	304.38
251.698	304.38
251.931	328.38
252.164	325.38
252.397	301.38
252.63	320.38
252.863	328.38
253.096	317.38
253.329	332.38
253.562	324.38
253.795	330.38
254.028	346.38
254.261	321.38
254.494	323.38
254.727	335.38
254.96	334.38
255.193	342.38
255.426	340.38
255.659	345.38
255.892	356.38
256.124	368.38
256.357	344.38
256.59	342.38
256.823	357.38
257.056	365.38
257.289	353.38
257.521	352.38
257.754	356.38
257.987	357.38
258.22	378.38
258.452	368.38
258.685	379.38
258.918	371.38
259.151	360.38
259.383	362.38
259.616	356.38
259.849	369.38
260.081	361.38
260.314	375.38
260.547	383.38
260.779	377.38
261.012	375.38
261.244	376.38
261.477	401.38
261.71	383.38
261.942	389.38
262.175	412.38
262.407	377.38
262.64	390.38
262.872	392.38
263.105	402.38
263.337	404.38
263.57	408.38
263.802	402.38
264.035	413.38
264.267	424.38
264.499	408.38
264.732	407.38
264.964	422.38
265.197	418.38
265.429	409.38
265.661	432.38
265.894	429.38
266.126	436.38
266.358	421.38
266.591	436.38
266.823	433.38
267.055	428.38
267.287	428.38
267.52	429.38
267.752	429.38
267.984	442.38
268.216	457.38
268.448	438.38
268.681	419.38
268.913	429.38
269.145	444.38
269.377	460.38
269.609	455.38
269.841	456.38
270.073	446.38
270.306	469.38
270.538	445.38
270.77	463.38
271.002	454.38
271.234	487.38
271.466	497.38
271.698	448.38
271.93	471.38
272.162	465.38
272.394	478.38
272.626	470.38
272.858	474.38
273.09	468.38
273.322	487.38
273.553	490.38
273.785	481.38
274.017	499.38
274.249	508.38
274.481	501.38
274.713	467.38
274.945	475.38
275.176	502.38
275.408	487.38
275.64	500.38
275.872	500.38
276.104	508.38
276.335	507.38
276.567	500.38
276.799	512.38
277.031	528.38
277.262	525.38
277.494	520.38
277.726	532.38
277.957	544.38
278.189	504.38
278.421	527.38
278.652	532.38
278.884	536.38
279.115	538.38
279.347	521.38
279.579	556.38
279.81	535.38
280.042	546.38
280.273	542.38
280.505	548.38
280.736	541.38
280.968	540.38
281.199	568.38
281.431	541.38
281.662	558.38
281.894	580.38
282.125	546.38
282.356	588.38
282.588	561.38
282.819	580.38
283.051	572.38
283.282	568.38
283.513	575.38
283.745	592.38
283.976	578.38
284.207	589.38
284.439	586.38
284.67	584.38
284.901	602.38
285.132	600.38
285.364	597.38
285.595	604.38
285.826	588.38
286.057	625.38
286.288	604.38
286.52	599.38
286.751	619.38
286.982	623.38
287.213	604.38
287.444	608.38
287.675	610.38
287.906	614.38
288.138	606.38
288.369	608.38
288.6	604.38
288.831	613.38
289.062	623.38
289.293	635.38
289.524	621.38
289.755	615.38
289.986	622.38
290.217	623.38
290.448	618.38
290.679	637.38
290.91	640.38
291.141	634.38
291.371	628.38
291.602	636.38
291.833	620.38
292.064	653.38
292.295	636.38
292.526	653.38
292.757	661.38
292.987	633.38
293.218	622.38
293.449	643.38
293.68	636.38
293.91	632.38
294.141	626.38
294.372	631.38
294.603	654.38
294.833	648.38
295.064	626.38
295.295	641.38
295.525	657.38
295.756	663.38
295.987	656.38
296.217	641.38
296.448	652.38
296.679	660.38
296.909	651.38
297.14	667.38
297.37	670.38
297.601	658.38
297.831	698.38
298.062	670.38
298.292	651.38
298.523	709.38
298.753	706.38
298.984	684.38
299.214	708.38
299.445	664.38
299.675	689.38
299.905	681.38
300.136	691.38
300.366	671.38
300.597	685.38
300.827	707.38
301.057	716.38
301.288	706.38
301.518	706.38
301.748	713.38
301.979	690.38
302.209	725.38
302.439	729.38
302.669	726.38
302.9	729.38
303.13	713.38
303.36	722.38
303.59	704.38
303.82	725.38
304.051	737.38
304.281	739.38
304.511	715.38
304.741	698.38
304.971	714.38
305.201	721.38
305.431	720.38
305.661	710.38
305.891	722.38
306.121	716.38
306.352	708.38
306.582	712.38
306.812	704.38
307.042	719.38
307.272	729.38
307.502	709.38
307.731	710.38
307.961	702.38
308.191	712.38
308.421	707.38
308.651	703.38
308.881	716.38
309.111	718.38
309.341	709.38
309.571	703.38
309.8	705.38
310.03	752.38
310.26	734.38
310.49	720.38
310.72	719.38
310.949	758.38
311.179	741.38
311.409	735.38
311.639	733.38
311.868	737.38
312.098	729.38
312.328	751.38
312.557	753.38
312.787	732.38
313.017	736.38
313.246	764.38
313.476	752.38
313.706	770.38
313.935	740.38
314.165	758.38
314.394	754.38
314.624	775.38
314.853	766.38
315.083	774.38
315.312	755.38
315.542	754.38
315.771	738.38
316.001	772.38
316.23	779.38
316.46	762.38
316.689	742.38
316.919	766.38
317.148	748.38
317.377	742.38
317.607	727.38
317.836	728.38
318.065	766.38
318.295	730.38
318.524	742.38
318.753	756.38
318.983	773.38
319.212	775.38
319.441	725.38
319.67	750.38
319.9	750.38
320.129	739.38
320.358	755.38
320.587	776.38
320.816	770.38
321.046	762.38
321.275	789.38
321.504	756.38
321.733	792.38
321.962	776.38
322.191	772.38
322.42	766.38
322.649	779.38
322.878	801.38
323.108	772.38
323.337	790.38
323.566	780.38
323.795	784.38
324.024	771.38
324.253	805.38
324.482	794.38
324.71	778.38
324.939	822.38
325.168	788.38
325.397	796.38
325.626	789.38
325.855	802.38
326.084	824.38
326.313	823.38
326.542	834.38
326.77	835.38
326.999	802.38
327.228	790.38
327.457	825.38
327.686	823.38
327.914	802.38
328.143	840.38
328.372	846.38
328.6	802.38
328.829	818.38
329.058	848.38
329.287	870.38
329.515	836.38
329.744	830.38
329.972	834.38
330.201	840.38
330.43	837.38
330.658	880.38
330.887	877.38
331.115	873.38
331.344	877.38
331.572	886.38
331.801	888.38
332.03	893.38
332.258	924.38
332.486	904.38
332.715	917.38
332.943	959.38
333.172	960.38
333.4	1015.38
333.629	1012.38
333.857	1057.38
334.085	1048.38
334.314	1054.38
334.542	1059.38
334.771	1058.38
334.999	1039.38
335.227	1024.38
335.455	1039.38
335.684	1022.38
335.912	1003.38
336.14	999.38
336.369	988.38
336.597	1001.38
336.825	967.38
337.053	987.38
337.281	949.38
337.51	951.38
337.738	963.38
337.966	933.38
338.194	935.38
338.422	927.38
338.65	896.38
338.878	892.38
339.106	917.38
339.334	892.38
339.562	914.38
339.79	883.38
340.018	881.38
340.246	856.38
340.474	908.38
340.702	868.38
340.93	889.38
341.158	896.38
341.386	869.38
341.614	908.38
341.842	854.38
342.07	872.38
342.298	860.38
342.526	874.38
342.754	883.38
342.981	850.38
343.209	900.38
343.437	910.38
343.665	931.38
343.893	993.38
344.12	1008.38
344.348	979.38
344.576	932.38
344.804	946.38
345.031	904.38
345.259	884.38
345.487	867.38
345.714	880.38
345.942	874.38
346.17	857.38
346.397	861.38
346.625	822.38
346.853	856.38
347.08	839.38
347.308	838.38
347.535	829.38
347.763	864.38
347.99	825.38
348.218	843.38
348.445	822.38
348.673	810.38
348.9	845.38
349.128	848.38
349.355	804.38
349.583	818.38
349.81	829.38
350.037	810.38
350.265	797.38
350.492	782.38
350.72	782.38
350.947	785.38
351.174	786.38
351.402	828.38
351.629	788.38
351.856	805.38
352.083	768.38
352.311	830.38
352.538	802.38
352.765	791.38
352.992	783.38
353.22	790.38
353.447	793.38
353.674	783.38
353.901	773.38
354.128	795.38
354.355	803.38
354.583	784.38
354.81	792.38
355.037	819.38
355.264	807.38
355.491	801.38
355.718	788.38
355.945	774.38
356.172	781.38
356.399	797.38
356.626	793.38
356.853	801.38
357.08	778.38
357.307	783.38
357.534	799.38
357.761	796.38
357.988	797.38
358.215	798.38
358.441	812.38
358.668	806.38
358.895	813.38
359.122	821.38
359.349	796.38
359.576	813.38
359.802	816.38
360.029	786.38
360.256	801.38
360.483	817.38
360.709	834.38
360.936	799.38
361.163	797.38
361.39	798.38
361.616	795.38
361.843	801.38
362.07	820.38
362.296	795.38
362.523	800.38
362.749	803.38
362.976	790.38
363.203	817.38
363.429	794.38
363.656	817.38
363.882	813.38
364.109	786.38
364.335	813.38
364.562	803.38
364.788	814.38
365.015	794.38
365.241	816.38
365.468	797.38
365.694	800.38
365.92	816.38
366.147	790.38
366.373	787.38
366.599	803.38
366.826	799.38
367.052	792.38
367.278	802.38
367.505	813.38
367.731	796.38
367.957	816.38
368.184	800.38
368.41	798.38
368.636	804.38
368.862	843.38
369.089	806.38
369.315	833.38
369.541	826.38
369.767	812.38
369.993	862.38
370.219	852.38
370.445	822.38
370.672	837.38
370.898	852.38
371.124	877.38
371.35	844.38
371.576	867.38
371.802	875.38
372.028	869.38
372.254	870.38
372.48	886.38
372.706	896.38
372.932	895.38
373.158	885.38
373.384	885.38
373.61	868.38
373.835	850.38
374.061	882.38
374.287	896.38
374.513	882.38
374.739	902.38
374.965	935.38
375.191	958.38
375.416	933.38
375.642	927.38
375.868	900.38
376.094	908.38
376.319	906.38
376.545	890.38
376.771	868.38
376.997	871.38
377.222	887.38
377.448	867.38
377.674	858.38
377.899	864.38
378.125	836.38
378.35	871.38
378.576	860.38
378.802	837.38
379.027	866.38
379.253	865.38
379.478	845.38
379.704	873.38
379.929	849.38
380.155	851.38
380.38	864.38
380.606	872.38
380.831	860.38
381.057	855.38
381.282	861.38
381.507	854.38
381.733	883.38
381.958	864.38
382.184	870.38
382.409	883.38
382.634	886.38
382.86	879.38
383.085	889.38
383.31	903.38
383.535	928.38
383.761	920.38
383.986	932.38
384.211	934.38
384.436	965.38
384.662	978.38
384.887	985.38
385.112	976.38
385.337	980.38
385.562	988.38
385.787	1011.38
386.013	1004.38
386.238	1003.38
386.463	992.38
386.688	1007.38
386.913	1037.38
387.138	1029.38
387.363	1022.38
387.588	1020.38
387.813	1049.38
388.038	1024.38
388.263	997.38
388.488	1029.38
388.713	1024.38
388.938	1021.38
389.163	1017.38
389.387	1010.38
389.612	1002.38
389.837	1012.38
390.062	1010.38
390.287	1033.38
390.512	1016.38
390.736	1024.38
390.961	1018.38
391.186	1043.38
391.411	1057.38
391.636	1101.38
391.86	1121.38
392.085	1133.38
392.31	1123.38
392.534	1102.38
392.759	1086.38
392.984	1109.38
393.208	1100.38
393.433	1073.38
393.658	1061.38
393.882	1088.38
394.107	1070.38
394.331	1082.38
394.556	1070.38
394.78	1088.38
395.005	1078.38
395.229	1083.38
395.454	1125.38
395.678	1148.38
395.903	1152.38
396.127	1129.38
396.352	1093.38
396.576	1086.38
396.801	1084.38
397.025	1138.38
397.249	1136.38
397.474	1147.38
397.698	1115.38
397.922	1136.38
398.147	1166.38
398.371	1185.38
398.595	1224.38
398.82	1276.38
399.044	1369.38
399.268	1402.38
399.492	1520.38
399.717	1709.38
399.941	1712.38
400.165	1624.38
400.389	1486.38
400.613	1415.38
400.837	1312.38
401.062	1316.38
401.286	1291.38
401.51	1284.38
401.734	1246.38
401.958	1275.38
402.182	1262.38
402.406	1280.38
402.63	1297.38
402.854	1314.38
403.078	1319.38
403.302	1328.38
403.526	1351.38
403.75	1377.38
403.974	1380.38
404.198	1355.38
404.422	1402.38
404.645	1362.38
404.869	1363.38
405.093	1342.38
405.317	1358.38
405.541	1350.38
405.765	1397.38
405.988	1358.38
406.212	1368.38
406.436	1334.38
406.66	1412.38
406.883	1419.38
407.107	1469.38
407.331	1494.38
407.555	1587.38
407.778	1561.38
408.002	1543.38
408.226	1525.38
408.449	1494.38
408.673	1444.38
408.896	1413.38
409.12	1395.38
409.344	1426.38
409.567	1390.38
409.791	1406.38
410.014	1410.38
410.238	1358.38
410.461	1393.38
410.685	1348.38
410.908	1320.38
411.132	1315.38
411.355	1308.38
411.578	1302.38
411.802	1335.38
412.025	1357.38
412.249	1325.38
412.472	1337.38
412.695	1267.38
412.919	1269.38
413.142	1302.38
413.365	1275.38
413.589	1291.38
413.812	1265.38
414.035	1235.38
414.258	1254.38
414.482	1261.38
414.705	1279.38
414.928	1269.38
415.151	1271.38
415.374	1272.38
415.597	1256.38
415.821	1231.38
416.044	1218.38
416.267	1246.38
416.49	1226.38
416.713	1247.38
416.936	1231.38
417.159	1211.38
417.382	1222.38
417.605	1175.38
417.828	1174.38
418.051	1220.38
418.274	1240.38
418.497	1193.38
418.72	1226.38
418.943	1229.38
419.166	1305.38
419.389	1403.38
419.611	1361.38
419.834	1338.38
420.057	1296.38
420.28	1254.38
420.503	1223.38
420.726	1213.38
420.948	1215.38
421.171	1214.38
421.394	1224.38
421.617	1220.38
421.839	1210.38
422.062	1227.38
422.285	1216.38
422.507	1220.38
422.73	1182.38
422.953	1243.38
423.175	1257.38
423.398	1257.38
423.621	1234.38
423.843	1253.38
424.066	1260.38
424.288	1261.38
424.511	1241.38
424.733	1233.38
424.956	1214.38
425.178	1231.38
425.401	1213.38
425.623	1226.38
425.846	1225.38
426.068	1166.38
426.291	1188.38
426.513	1178.38
426.735	1194.38
426.958	1189.38
427.18	1125.38
427.402	1145.38
427.625	1156.38
427.847	1114.38
428.069	1138.38
428.292	1128.38
428.514	1084.38
428.736	1102.38
428.958	1120.38
429.181	1106.38
429.403	1126.38
429.625	1098.38
429.847	1101.38
430.069	1096.38
430.292	1108.38
430.514	1091.38
430.736	1120.38
430.958	1106.38
431.18	1111.38
431.402	1107.38
431.624	1106.38
431.846	1109.38
432.068	1124.38
432.29	1139.38
432.512	1104.38
432.734	1099.38
432.956	1131.38
433.178	1150.38
433.4	1152.38
433.622	1137.38
433.844	1168.38
434.066	1150.38
434.287	1152.38
434.509	1172.38
434.731	1221.38
434.953	1200.38
435.175	1213.38
435.397	1230.38
435.618	1180.38
435.84	1189.38
436.062	1138.38
436.284	1130.38
436.505	1102.38
436.727	1103.38
436.949	1140.38
437.17	1134.38
437.392	1100.38
437.614	1092.38
437.835	1058.38
438.057	1104.38
438.278	1038.38
438.5	1061.38
438.721	1046.38
438.943	1107.38
439.165	1071.38
439.386	1062.38
439.608	1117.38
439.829	1112.38
440.05	1124.38
440.272	1092.38
440.493	1116.38
440.715	1125.38
440.936	1152.38
441.158	1144.38
441.379	1168.38
441.6	1227.38
441.822	1213.38
442.043	1204.38
442.264	1186.38
442.486	1165.38
442.707	1155.38
442.928	1202.38
443.149	1179.38
443.371	1175.38
443.592	1162.38
443.813	1220.38
444.034	1219.38
444.255	1269.38
444.476	1296.38
444.698	1332.38
444.919	1388.38
445.14	1474.38
445.361	1358.38
445.582	1264.38
445.803	1203.38
446.024	1166.38
446.245	1177.38
446.466	1125.38
446.687	1109.38
446.908	1142.38
447.129	1077.38
447.35	1072.38
447.571	1048.38
447.792	1057.38
448.013	1043.38
448.234	1042.38
448.455	1033.38
448.675	984.38
448.896	1018.38
449.117	992.38
449.338	1014.38
449.559	997.38
449.779	1021.38
450	1013.38
450.221	1015.38
450.442	1028.38
450.662	984.38
450.883	1000.38
451.104	1026.38
451.324	1027.38
451.545	1002.38
451.766	994.38
451.986	990.38
452.207	1002.38
452.428	987.38
452.648	982.38
452.869	978.38
453.089	981.38
453.31	981.38
453.53	980.38
453.751	952.38
453.971	977.38
454.192	960.38
454.412	950.38
454.633	943.38
454.853	957.38
455.073	946.38
455.294	950.38
455.514	957.38
455.734	939.38
455.955	933.38
456.175	941.38
456.395	931.38
456.616	940.38
456.836	954.38
457.056	965.38
457.276	939.38
457.497	952.38
457.717	958.38
457.937	970.38
458.157	971.38
458.377	962.38
458.598	974.38
458.818	998.38
459.038	1072.38
459.258	1080.38
459.478	1086.38
459.698	1144.38
459.918	1130.38
460.138	1200.38
460.358	1220.38
460.578	1234.38
460.798	1248.38
461.018	1285.38
461.238	1248.38
461.458	1255.38
461.678	1214.38
461.898	1254.38
462.118	1241.38
462.338	1340.38
462.558	1370.38
462.777	1407.38
462.997	1464.38
463.217	1537.38
463.437	1556.38
463.657	1489.38
463.876	1437.38
464.096	1425.38
464.316	1381.38
464.536	1450.38
464.755	1421.38
464.975	1367.38
465.195	1288.38
465.414	1218.38
465.634	1188.38
465.854	1142.38
466.073	1142.38
466.293	1145.38
466.512	1077.38
466.732	1088.38
466.951	1064.38
467.171	1056.38
467.391	1047.38
467.61	1036.38
467.829	1044.38
468.049	1056.38
468.268	1013.38
468.488	1042.38
468.707	995.38
468.927	1046.38
469.146	1032.38
469.365	1021.38
469.585	1022.38
469.804	1064.38
470.023	1082.38
470.243	1081.38
470.462	1099.38
470.681	1060.38
470.901	1089.38
471.12	1068.38
471.339	1033.38
471.558	1040.38
471.777	1035.38
471.997	1048.38
472.216	1008.38
472.435	1015.38
472.654	975.38
472.873	988.38
473.092	968.38
473.311	1017.38
473.53	999.38
473.749	979.38
473.968	1011.38
474.187	1011.38
474.406	975.38
474.625	1000.38
474.844	987.38
475.063	987.38
475.282	1017.38
475.501	1028.38
475.72	1045.38
475.939	1032.38
476.158	1037.38
476.377	1074.38
476.596	1034.38
476.814	1073.38
477.033	1086.38
477.252	1098.38
477.471	1133.38
477.69	1130.38
477.908	1128.38
478.127	1148.38
478.346	1173.38
478.564	1170.38
478.783	1196.38
479.002	1225.38
479.22	1225.38
479.439	1229.38
479.658	1233.38
479.876	1287.38
480.095	1264.38
480.313	1344.38
480.532	1323.38
480.751	1338.38
480.969	1250.38
481.188	1238.38
481.406	1233.38
481.624	1222.38
481.843	1200.38
482.061	1200.38
482.28	1197.38
482.498	1201.38
482.717	1165.38
482.935	1202.38
483.153	1197.38
483.372	1188.38
483.59	1206.38
483.808	1226.38
484.027	1226.38
484.245	1219.38
484.463	1258.38
484.681	1272.38
484.9	1252.38
485.118	1266.38
485.336	1292.38
485.554	1253.38
485.772	1285.38
485.99	1287.38
486.209	1265.38
486.427	1264.38
486.645	1280.38
486.863	1294.38
487.081	1260.38
487.299	1254.38
487.517	1252.38
487.735	1257.38
487.953	1256.38
488.171	1299.38
488.389	1259.38
488.607	1262.38
488.825	1241.38
489.043	1255.38
489.261	1220.38
489.479	1238.38
489.696	1221.38
489.914	1233.38
490.132	1232.38
490.35	1228.38
490.568	1231.38
490.786	1266.38
491.003	1284.38
491.221	1290.38
491.439	1251.38
491.657	1226.38
491.874	1264.38
492.092	1242.38
492.31	1239.38
492.527	1251.38
492.745	1235.38
492.963	1281.38
493.18	1257.38
493.398	1273.38
493.615	1256.38
493.833	1242.38
494.05	1293.38
494.268	1281.38
494.485	1282.38
494.703	1309.38
494.92	1301.38
495.138	1264.38
495.355	1307.38
495.573	1301.38
495.79	1272.38
496.008	1301.38
496.225	1304.38
496.442	1309.38
496.66	1372.38
496.877	1348.38
497.094	1389.38
497.312	1387.38
497.529	1397.38
497.746	1476.38
497.963	1505.38
498.181	1512.38
498.398	1585.38
498.615	1712.38
498.832	1763.38
499.049	1872.38
499.267	1953.38
499.484	2133.38
499.701	2321.38
499.918	2490.38
500.135	2785.38
500.352	3004.38
500.569	3108.38
500.786	3080.38
501.003	2944.38
501.22	2734.38
501.437	2498.38
501.654	2247.38
501.871	2084.38
502.088	1918.38
502.305	1805.38
502.522	1749.38
502.739	1736.38
502.956	1604.38
503.172	1525.38
503.389	1471.38
503.606	1448.38
503.823	1440.38
504.04	1428.38
504.256	1443.38
504.473	1425.38
504.69	1459.38
504.907	1382.38
505.123	1322.38
505.34	1288.38
505.557	1257.38
505.773	1232.38
505.99	1204.38
506.207	1165.38
506.423	1170.38
506.64	1119.38
506.856	1138.38
507.073	1123.38
507.289	1119.38
507.506	1093.38
507.722	1107.38
507.939	1101.38
508.155	1080.38
508.372	1077.38
508.588	1062.38
508.805	1054.38
509.021	1033.38
509.238	1053.38
509.454	1062.38
509.67	1028.38
509.887	978.38
510.103	1010.38
510.319	1014.38
510.536	1014.38
510.752	991.38
510.968	1009.38
511.184	992.38
511.401	1012.38
511.617	996.38
511.833	1000.38
512.049	1030.38
512.265	1018.38
512.481	1022.38
512.698	998.38
512.914	1005.38
513.13	1024.38
513.346	979.38
513.562	1027.38
513.778	982.38
513.994	999.38
514.21	1026.38
514.426	1008.38
514.642	1020.38
514.858	1011.38
515.074	1051.38
515.29	1038.38
515.506	1030.38
515.721	1062.38
515.937	1054.38
516.153	1085.38
516.369	1109.38
516.585	1102.38
516.801	1165.38
517.016	1209.38
517.232	1225.38
517.448	1238.38
517.664	1312.38
517.879	1275.38
518.095	1312.38
518.311	1291.38
518.527	1245.38
518.742	1212.38
518.958	1170.38
519.173	1150.38
519.389	1102.38
519.605	1097.38
519.82	1064.38
520.036	1036.38
520.251	1025.38
520.467	1025.38
520.682	1010.38
520.898	1001.38
521.113	965.38
521.329	954.38
521.544	973.38
521.76	978.38
521.975	959.38
522.19	945.38
522.406	920.38
522.621	952.38
522.836	961.38
523.052	926.38
523.267	902.38
523.482	933.38
523.698	915.38
523.913	920.38
524.128	930.38
524.343	939.38
524.559	910.38
524.774	914.38
524.989	915.38
525.204	882.38
525.419	893.38
525.634	886.38
525.849	918.38
526.064	900.38
526.28	904.38
526.495	878.38
526.71	891.38
526.925	900.38
527.14	858.38
527.355	904.38
527.57	902.38
527.785	882.38
527.999	905.38
528.214	904.38
528.429	897.38
528.644	888.38
528.859	898.38
529.074	883.38
529.289	869.38
529.503	878.38
529.718	886.38
529.933	880.38
530.148	846.38
530.363	849.38
530.577	853.38
530.792	862.38
531.007	884.38
531.221	880.38
531.436	884.38
531.651	875.38
531.865	857.38
532.08	874.38
532.295	853.38
532.509	864.38
532.724	865.38
532.938	889.38
533.153	886.38
533.367	859.38
533.582	872.38
533.796	893.38
534.011	840.38
534.225	874.38
534.44	864.38
534.654	865.38
534.868	860.38
535.083	847.38
535.297	833.38
535.511	796.38
535.726	828.38
535.94	845.38
536.154	823.38
536.369	822.38
536.583	805.38
536.797	797.38
537.011	821.38
537.225	806.38
537.44	819.38
537.654	830.38
537.868	794.38
538.082	813.38
538.296	777.38
538.51	790.38
538.724	829.38
538.938	777.38
539.153	794.38
539.367	785.38
539.581	805.38
539.795	783.38
540.009	801.38
540.222	761.38
540.436	770.38
540.65	764.38
540.864	772.38
541.078	776.38
541.292	779.38
541.506	769.38
541.72	778.38
541.934	776.38
542.147	761.38
542.361	816.38
542.575	768.38
542.789	781.38
543.002	765.38
543.216	756.38
543.43	768.38
543.644	765.38
543.857	780.38
544.071	738.38
544.285	759.38
544.498	794.38
544.712	771.38
544.925	785.38
545.139	802.38
545.352	779.38
545.566	778.38
545.779	797.38
545.993	812.38
546.206	789.38
546.42	779.38
546.633	800.38
546.847	777.38
547.06	784.38
547.274	820.38
547.487	764.38
547.7	776.38
547.914	803.38
548.127	777.38
548.34	779.38
548.554	784.38
548.767	765.38
548.98	772.38
549.193	781.38
549.407	783.38
549.62	793.38
549.833	796.38
550.046	787.38
550.259	821.38
550.473	766.38
550.686	808.38
550.899	790.38
551.112	779.38
551.325	768.38
551.538	746.38
551.751	772.38
551.964	774.38
552.177	782.38
552.39	793.38
552.603	800.38
552.816	837.38
553.029	802.38
553.242	844.38
553.455	850.38
553.667	840.38
553.88	813.38
554.093	802.38
554.306	805.38
554.519	800.38
554.732	795.38
554.944	752.38
555.157	736.38
555.37	744.38
555.583	742.38
555.795	731.38
556.008	728.38
556.221	715.38
556.433	677.38
556.646	694.38
556.859	688.38
557.071	694.38
557.284	711.38
557.496	701.38
557.709	684.38
557.921	681.38
558.134	684.38
558.346	690.38
558.559	702.38
558.771	664.38
558.984	666.38
559.196	653.38
559.409	673.38
559.621	648.38
559.833	645.38
560.046	666.38
560.258	644.38
560.47	635.38
560.683	637.38
560.895	648.38
561.107	642.38
561.32	656.38
561.532	666.38
561.744	646.38
561.956	658.38
562.168	646.38
562.381	670.38
562.593	674.38
562.805	672.38
563.017	643.38
563.229	669.38
563.441	663.38
563.653	655.38
563.865	669.38
564.077	653.38
564.289	652.38
564.501	705.38
564.713	696.38
564.925	730.38
565.137	708.38
565.349	720.38
565.561	747.38
565.773	776.38
565.985	809.38
566.197	846.38
566.408	882.38
566.62	912.38
566.832	970.38
567.044	984.38
567.255	1006.38
567.467	1029.38
567.679	1042.38
567.891	1084.38
568.102	1078.38
568.314	1044.38
568.526	959.38
568.737	909.38
568.949	848.38
569.161	810.38
569.372	772.38
569.584	748.38
569.795	707.38
570.007	687.38
570.218	636.38
570.43	686.38
570.641	673.38
570.853	681.38
571.064	678.38
571.276	662.38
571.487	643.38
571.698	642.38
571.91	614.38
572.121	605.38
572.333	595.38
572.544	586.38
572.755	590.38
572.966	564.38
573.178	572.38
573.389	569.38
573.6	555.38
573.811	546.38
574.023	545.38
574.234	524.38
574.445	556.38
574.656	554.38
574.867	537.38
575.078	540.38
575.289	528.38
575.501	530.38
575.712	523.38
575.923	514.38
576.134	514.38
576.345	506.38
576.556	503.38
576.767	512.38
576.978	501.38
577.188	494.38
577.399	484.38
577.61	490.38
577.821	487.38
578.032	493.38
578.243	485.38
578.454	482.38
578.665	476.38
578.875	486.38
579.086	473.38
579.297	473.38
579.508	490.38
579.718	471.38
579.929	486.38
580.14	470.38
580.35	450.38
580.561	476.38
580.772	452.38
580.982	470.38
581.193	467.38
581.403	461.38
581.614	483.38
581.825	485.38
582.035	442.38
582.246	445.38
582.456	477.38
582.667	440.38
582.877	466.38
583.087	439.38
583.298	444.38
583.508	459.38
583.719	439.38
583.929	456.38
584.139	469.38
584.35	450.38
584.56	442.38
584.77	429.38
584.981	444.38
585.191	446.38
585.401	443.38
585.611	441.38
585.821	444.38
586.032	426.38
586.242	436.38
586.452	414.38
586.662	451.38
586.872	426.38
587.082	434.38
587.292	412.38
587.502	416.38
587.713	436.38
587.923	432.38
588.133	426.38
588.343	410.38
588.553	439.38
588.762	445.38
588.972	422.38
589.182	444.38
589.392	447.38
589.602	433.38
589.812	437.38
590.022	445.38
590.232	429.38
590.441	435.38
590.651	434.38
590.861	449.38
591.071	426.38
591.281	459.38
591.49	448.38
591.7	460.38
591.91	473.38
592.119	461.38
592.329	472.38
592.539	470.38
592.748	490.38
592.958	466.38
593.167	513.38
593.377	508.38
593.587	530.38
593.796	530.38
594.006	516.38
594.215	512.38
594.424	509.38
594.634	503.38
594.843	518.38
595.053	486.38
595.262	477.38
595.472	440.38
595.681	440.38
595.89	449.38
596.1	456.38
596.309	420.38
596.518	417.38
596.727	413.38
596.937	410.38
597.146	401.38
597.355	396.38
597.564	409.38
597.774	384.38
597.983	390.38
598.192	378.38
598.401	370.38
598.61	366.38
598.819	384.38
599.028	373.38
599.237	359.38
599.446	392.38
599.655	374.38
599.864	357.38
600.073	337.38
600.282	368.38
600.491	368.38
600.7	354.38
600.909	370.38
601.118	370.38
601.327	364.38
601.536	356.38
601.745	354.38
601.953	346.38
602.162	365.38
602.371	340.38
602.58	360.38
602.789	360.38
602.997	348.38
603.206	349.38
603.415	338.38
603.623	322.38
603.832	348.38
604.041	348.38
604.249	365.38
604.458	343.38
604.666	324.38
604.875	326.38
605.084	326.38
605.292	345.38
605.501	341.38
605.709	337.38
605.918	334.38
606.126	332.38
606.334	345.38
606.543	314.38
606.751	343.38
606.96	333.38
607.168	314.38
607.376	301.38
607.585	325.38
607.793	326.38
608.001	311.38
608.21	333.38
608.418	323.38
608.626	343.38
608.834	315.38
609.043	306.38
609.251	322.38
609.459	315.38
609.667	351.38
609.875	344.38
610.083	331.38
610.291	310.38
610.499	311.38
610.707	316.38
610.916	326.38
611.124	300.38
611.332	314.38
611.54	322.38
611.748	334.38
611.955	331.38
612.163	322.38
612.371	321.38
612.579	311.38
612.787	314.38
612.995	309.38
613.203	295.38
613.411	308.38
613.618	308.38
613.826	305.38
614.034	322.38
614.242	310.38
614.449	288.38
614.657	307.38
614.865	306.38
615.072	300.38
615.28	300.38
615.488	315.38
615.695	292.38
615.903	312.38
616.111	304.38
616.318	305.38
616.526	311.38
616.733	299.38
616.941	293.38
617.148	312.38
617.356	316.38
617.563	324.38
617.771	310.38
617.978	304.38
618.185	294.38
618.393	287.38
618.6	292.38
618.807	295.38
619.015	309.38
619.222	297.38
619.429	292.38
619.637	312.38
619.844	304.38
620.051	290.38
620.258	293.38
620.466	277.38
620.673	281.38
620.88	269.38
621.087	282.38
621.294	288.38
621.501	282.38
621.708	290.38
621.915	276.38
622.122	268.38
622.329	282.38
622.536	287.38
622.743	296.38
622.95	285.38
623.157	283.38
623.364	261.38
623.571	266.38
623.778	264.38
623.985	289.38
624.192	265.38
624.399	281.38
624.606	277.38
624.812	259.38
625.019	274.38
625.226	261.38
625.433	285.38
625.639	271.38
625.846	269.38
626.053	272.38
626.259	254.38
626.466	261.38
626.673	268.38
626.879	265.38
627.086	261.38
627.293	256.38
627.499	238.38
627.706	256.38
627.912	236.38
628.119	268.38
628.325	260.38
628.532	260.38
628.738	261.38
628.945	258.38
629.151	262.38
629.357	233.38
629.564	256.38
629.77	243.38
629.976	256.38
630.183	242.38
630.389	235.38
630.595	250.38
630.802	244.38
631.008	246.38
631.214	253.38
631.42	244.38
631.627	234.38
631.833	236.38
632.039	245.38
632.245	241.38
632.451	253.38
632.657	242.38
632.863	240.38
633.069	240.38
633.275	233.38
633.481	239.38
633.688	229.38
633.893	231.38
634.099	238.38
634.305	239.38
634.511	240.38
634.717	262.38
634.923	225.38
635.129	238.38
635.335	225.38
635.541	221.38
635.747	203.38
635.952	245.38
636.158	227.38
636.364	211.38
636.57	236.38
636.775	221.38
636.981	224.38
637.187	230.38
637.392	218.38
637.598	225.38
637.804	213.38
638.009	221.38
638.215	221.38
638.421	229.38
638.626	205.38
638.832	240.38
639.037	218.38
639.243	231.38
639.448	231.38
639.654	222.38
639.859	200.38
640.065	210.38
640.27	218.38
640.475	216.38
640.681	221.38
640.886	206.38
641.091	206.38
641.297	225.38
641.502	223.38
641.707	222.38
641.913	205.38
642.118	211.38
642.323	207.38
642.528	215.38
642.733	225.38
642.939	210.38
643.144	196.38
643.349	210.38
643.554	213.38
643.759	211.38
643.964	206.38
644.169	210.38
644.374	208.38
644.579	207.38
644.784	212.38
644.989	199.38
645.194	207.38
645.399	202.38
645.604	214.38
645.809	218.38
646.014	219.38
646.219	201.38
646.423	214.38
646.628	216.38
646.833	211.38
647.038	213.38
647.243	212.38
647.447	204.38
647.652	196.38
647.857	230.38
648.062	222.38
648.266	233.38
648.471	231.38
648.676	243.38
648.88	222.38
649.085	224.38
649.289	218.38
649.494	243.38
649.698	221.38
649.903	228.38
650.107	216.38
650.312	221.38
650.516	220.38
650.721	218.38
650.925	213.38
651.13	198.38
651.334	205.38
651.539	200.38
651.743	215.38
651.947	208.38
652.152	212.38
652.356	190.38
652.56	193.38
652.764	205.38
652.969	198.38
653.173	195.38
653.377	200.38
653.581	197.38
653.785	192.38
653.99	202.38
654.194	202.38
654.398	205.38
654.602	209.38
654.806	217.38
655.01	205.38
655.214	211.38
655.418	215.38
655.622	212.38
655.826	237.38
656.03	245.38
656.234	230.38
656.438	238.38
656.642	249.38
656.846	237.38
657.049	214.38
657.253	188.38
657.457	188.38
657.661	186.38
657.865	178.38
658.068	168.38
658.272	148.38
658.476	135.38
658.68	142.38
658.883	113.38
659.087	130.38
659.291	127.38
659.494	134.38
659.698	106.38
659.901	109.38
660.105	118.38
660.309	114.38
660.512	104.38
660.716	92.38
660.919	101.38
661.123	98.38
661.326	93.38
661.53	100.38
661.733	103.38
661.936	99.38
662.14	91.38
662.343	99.38
662.546	99.38
662.75	85.38
662.953	90.38
663.156	87.38
663.36	78.38
663.563	83.38
663.766	85.38
663.969	71.38
664.173	78.38
664.376	92.38
664.579	86.38
664.782	84.38
664.985	81.38
665.188	73.38
665.391	86.38
665.594	77.38
665.797	100.38
666	82.38
666.203	91.38
666.406	76.38
666.609	85.38
666.812	71.38
667.015	64.38
667.218	78.38
667.421	89.38
667.624	75.38
667.827	81.38
668.03	73.38
668.232	76.38
668.435	75.38
668.638	92.38
668.841	82.38
669.043	88.38
669.246	84.38
669.449	90.38
669.651	84.38
669.854	90.38
670.057	74.38
670.259	81.38
670.462	86.38
670.665	84.38
670.867	91.38
671.07	77.38
671.272	81.38
671.475	83.38
671.677	96.38
671.88	86.38
672.082	69.38
672.284	76.38
672.487	72.38
672.689	94.38
672.892	75.38
