Data from NiCl2@0.25M.TitratingCurve.Agarose3%dH2O.NegLispCup.LampEnergy10.LIBS07252019_HRD10591_18-25-42-573.txt Node
Date: Thu Jul 25 18:25:42 EDT 2019
User: cochatt
Spectrometer: HR+D1059
Trigger mode: 1
Integration Time (sec): 1.000000E-1
Scans to average: 1
Electric dark correction enabled: true
Nonlinearity correction enabled: false
Boxcar width: 0
XAxis mode: Wavelengths
Number of Pixels in Spectrum: 2048
>>>>>Begin Spectral Data<<<<<
223.165	-4.94
223.4	-4.94
223.635	-4.94
223.869	-6.94
224.104	-11.94
224.338	-17.94
224.573	-15.94
224.808	-17.94
225.042	-21.94
225.277	-16.94
225.511	-3.94
225.746	3.06
225.98	-1.94
226.215	9.06
226.449	24.06
226.683	34.06
226.918	14.06
227.152	36.06
227.387	31.06
227.621	25.06
227.856	43.06
228.09	57.06
228.324	64.06
228.559	62.06
228.793	74.06
229.027	114.06
229.262	136.06
229.496	143.06
229.73	155.06
229.964	144.06
230.199	159.06
230.433	147.06
230.667	167.06
230.901	162.06
231.136	164.06
231.37	177.06
231.604	177.06
231.838	168.06
232.072	177.06
232.306	163.06
232.541	186.06
232.775	181.06
233.009	191.06
233.243	186.06
233.477	184.06
233.711	177.06
233.945	188.06
234.179	193.06
234.413	160.06
234.647	185.06
234.881	204.06
235.115	182.06
235.349	214.06
235.583	189.06
235.817	198.06
236.051	186.06
236.285	187.06
236.519	189.06
236.753	196.06
236.987	197.06
237.221	211.06
237.455	194.06
237.689	209.06
237.922	205.06
238.156	208.06
238.39	226.06
238.624	213.06
238.858	197.06
239.091	221.06
239.325	227.06
239.559	220.06
239.793	217.06
240.027	232.06
240.26	217.06
240.494	249.06
240.728	230.06
240.961	245.06
241.195	245.06
241.429	241.06
241.662	245.06
241.896	245.06
242.13	257.06
242.363	248.06
242.597	245.06
242.83	263.06
243.064	238.06
243.298	260.06
243.531	267.06
243.765	244.06
243.998	278.06
244.232	274.06
244.465	282.06
244.699	283.06
244.932	276.06
245.166	291.06
245.399	279.06
245.633	267.06
245.866	279.06
246.099	287.06
246.333	302.06
246.566	310.06
246.8	291.06
247.033	296.06
247.266	300.06
247.5	292.06
247.733	311.06
247.966	298.06
248.2	319.06
248.433	322.06
248.666	316.06
248.899	315.06
249.133	328.06
249.366	309.06
249.599	315.06
249.832	326.06
250.066	323.06
250.299	319.06
250.532	318.06
250.765	326.06
250.998	354.06
251.231	341.06
251.465	340.06
251.698	332.06
251.931	340.06
252.164	350.06
252.397	344.06
252.63	354.06
252.863	379.06
253.096	365.06
253.329	364.06
253.562	369.06
253.795	369.06
254.028	375.06
254.261	393.06
254.494	374.06
254.727	387.06
254.96	377.06
255.193	365.06
255.426	371.06
255.659	383.06
255.892	395.06
256.124	392.06
256.357	397.06
256.59	380.06
256.823	408.06
257.056	384.06
257.289	389.06
257.521	414.06
257.754	413.06
257.987	392.06
258.22	413.06
258.452	398.06
258.685	404.06
258.918	388.06
259.151	403.06
259.383	412.06
259.616	417.06
259.849	417.06
260.081	432.06
260.314	426.06
260.547	433.06
260.779	437.06
261.012	425.06
261.244	434.06
261.477	434.06
261.71	448.06
261.942	430.06
262.175	443.06
262.407	439.06
262.64	447.06
262.872	445.06
263.105	452.06
263.337	423.06
263.57	447.06
263.802	475.06
264.035	442.06
264.267	459.06
264.499	474.06
264.732	466.06
264.964	479.06
265.197	467.06
265.429	477.06
265.661	446.06
265.894	478.06
266.126	484.06
266.358	481.06
266.591	486.06
266.823	483.06
267.055	486.06
267.287	494.06
267.52	482.06
267.752	498.06
267.984	490.06
268.216	487.06
268.448	491.06
268.681	512.06
268.913	531.06
269.145	513.06
269.377	505.06
269.609	518.06
269.841	495.06
270.073	506.06
270.306	509.06
270.538	532.06
270.77	510.06
271.002	537.06
271.234	512.06
271.466	525.06
271.698	534.06
271.93	518.06
272.162	524.06
272.394	526.06
272.626	537.06
272.858	559.06
273.09	553.06
273.322	570.06
273.553	563.06
273.785	541.06
274.017	535.06
274.249	533.06
274.481	579.06
274.713	567.06
274.945	574.06
275.176	556.06
275.408	562.06
275.64	587.06
275.872	584.06
276.104	566.06
276.335	577.06
276.567	600.06
276.799	596.06
277.031	588.06
277.262	602.06
277.494	590.06
277.726	600.06
277.957	604.06
278.189	573.06
278.421	595.06
278.652	581.06
278.884	601.06
279.115	617.06
279.347	612.06
279.579	602.06
279.81	607.06
280.042	618.06
280.273	620.06
280.505	623.06
280.736	614.06
280.968	619.06
281.199	622.06
281.431	645.06
281.662	624.06
281.894	645.06
282.125	656.06
282.356	625.06
282.588	644.06
282.819	669.06
283.051	645.06
283.282	644.06
283.513	636.06
283.745	671.06
283.976	659.06
284.207	644.06
284.439	639.06
284.67	665.06
284.901	701.06
285.132	686.06
285.364	683.06
285.595	671.06
285.826	694.06
286.057	691.06
286.288	662.06
286.52	700.06
286.751	699.06
286.982	691.06
287.213	702.06
287.444	692.06
287.675	680.06
287.906	699.06
288.138	691.06
288.369	705.06
288.6	710.06
288.831	724.06
289.062	730.06
289.293	723.06
289.524	707.06
289.755	713.06
289.986	735.06
290.217	727.06
290.448	715.06
290.679	717.06
290.91	708.06
291.141	729.06
291.371	727.06
291.602	741.06
291.833	734.06
292.064	710.06
292.295	716.06
292.526	724.06
292.757	713.06
292.987	705.06
293.218	699.06
293.449	714.06
293.68	742.06
293.91	742.06
294.141	738.06
294.372	755.06
294.603	742.06
294.833	743.06
295.064	728.06
295.295	754.06
295.525	721.06
295.756	765.06
295.987	746.06
296.217	755.06
296.448	746.06
296.679	765.06
296.909	753.06
297.14	757.06
297.37	794.06
297.601	781.06
297.831	790.06
298.062	805.06
298.292	807.06
298.523	842.06
298.753	834.06
298.984	793.06
299.214	829.06
299.445	792.06
299.675	771.06
299.905	785.06
300.136	802.06
300.366	791.06
300.597	777.06
300.827	828.06
301.057	806.06
301.288	827.06
301.518	851.06
301.748	854.06
301.979	838.06
302.209	843.06
302.439	838.06
302.669	851.06
302.9	842.06
303.13	836.06
303.36	822.06
303.59	823.06
303.82	828.06
304.051	830.06
304.281	845.06
304.511	792.06
304.741	836.06
304.971	833.06
305.201	808.06
305.431	829.06
305.661	831.06
305.891	798.06
306.121	798.06
306.352	812.06
306.582	808.06
306.812	807.06
307.042	814.06
307.272	819.06
307.502	793.06
307.731	803.06
307.961	823.06
308.191	796.06
308.421	811.06
308.651	799.06
308.881	784.06
309.111	812.06
309.341	801.06
309.571	801.06
309.8	822.06
310.03	802.06
310.26	806.06
310.49	828.06
310.72	825.06
310.949	827.06
311.179	835.06
311.409	827.06
311.639	840.06
311.868	834.06
312.098	837.06
312.328	842.06
312.557	826.06
312.787	813.06
313.017	861.06
313.246	850.06
313.476	872.06
313.706	863.06
313.935	890.06
314.165	881.06
314.394	867.06
314.624	905.06
314.853	875.06
315.083	872.06
315.312	866.06
315.542	867.06
315.771	870.06
316.001	869.06
316.23	880.06
316.46	873.06
316.689	867.06
316.919	876.06
317.148	847.06
317.377	842.06
317.607	820.06
317.836	848.06
318.065	837.06
318.295	868.06
318.524	835.06
318.753	851.06
318.983	852.06
319.212	851.06
319.441	851.06
319.67	858.06
319.9	867.06
320.129	836.06
320.358	854.06
320.587	843.06
320.816	823.06
321.046	838.06
321.275	859.06
321.504	842.06
321.733	867.06
321.962	844.06
322.191	856.06
322.42	874.06
322.649	842.06
322.878	877.06
323.108	854.06
323.337	911.06
323.566	851.06
323.795	875.06
324.024	853.06
324.253	871.06
324.482	871.06
324.71	877.06
324.939	889.06
325.168	893.06
325.397	893.06
325.626	906.06
325.855	947.06
326.084	920.06
326.313	939.06
326.542	938.06
326.77	955.06
326.999	930.06
327.228	914.06
327.457	908.06
327.686	924.06
327.914	931.06
328.143	931.06
328.372	951.06
328.6	952.06
328.829	964.06
329.058	924.06
329.287	940.06
329.515	930.06
329.744	929.06
329.972	946.06
330.201	956.06
330.43	946.06
330.658	940.06
330.887	947.06
331.115	966.06
331.344	989.06
331.572	981.06
331.801	988.06
332.03	1001.06
332.258	1036.06
332.486	1055.06
332.715	1114.06
332.943	1150.06
333.172	1189.06
333.4	1256.06
333.629	1252.06
333.857	1286.06
334.085	1230.06
334.314	1255.06
334.542	1242.06
334.771	1213.06
334.999	1213.06
335.227	1208.06
335.455	1181.06
335.684	1192.06
335.912	1187.06
336.14	1167.06
336.369	1137.06
336.597	1157.06
336.825	1116.06
337.053	1134.06
337.281	1118.06
337.51	1090.06
337.738	1064.06
337.966	1086.06
338.194	1044.06
338.422	1028.06
338.65	1042.06
338.878	1014.06
339.106	1013.06
339.334	1016.06
339.562	997.06
339.79	990.06
340.018	972.06
340.246	968.06
340.474	946.06
340.702	994.06
340.93	986.06
341.158	981.06
341.386	1012.06
341.614	940.06
341.842	984.06
342.07	979.06
342.298	960.06
342.526	978.06
342.754	954.06
342.981	966.06
343.209	980.06
343.437	1038.06
343.665	1126.06
343.893	1175.06
344.12	1196.06
344.348	1193.06
344.576	1109.06
344.804	1061.06
345.031	1016.06
345.259	1008.06
345.487	1007.06
345.714	966.06
345.942	977.06
346.17	949.06
346.397	950.06
346.625	958.06
346.853	953.06
347.08	927.06
347.308	937.06
347.535	953.06
347.763	946.06
347.99	957.06
348.218	929.06
348.445	961.06
348.673	953.06
348.9	914.06
349.128	939.06
349.355	941.06
349.583	916.06
349.81	917.06
350.037	904.06
350.265	906.06
350.492	908.06
350.72	908.06
350.947	892.06
351.174	919.06
351.402	929.06
351.629	905.06
351.856	912.06
352.083	908.06
352.311	910.06
352.538	909.06
352.765	910.06
352.992	895.06
353.22	878.06
353.447	898.06
353.674	878.06
353.901	878.06
354.128	906.06
354.355	911.06
354.583	893.06
354.81	894.06
355.037	897.06
355.264	905.06
355.491	895.06
355.718	915.06
355.945	927.06
356.172	898.06
356.399	883.06
356.626	921.06
356.853	902.06
357.08	889.06
357.307	928.06
357.534	913.06
357.761	911.06
357.988	926.06
358.215	910.06
358.441	896.06
358.668	893.06
358.895	914.06
359.122	911.06
359.349	916.06
359.576	897.06
359.802	889.06
360.029	901.06
360.256	896.06
360.483	898.06
360.709	904.06
360.936	909.06
361.163	892.06
361.39	904.06
361.616	938.06
361.843	902.06
362.07	920.06
362.296	925.06
362.523	891.06
362.749	891.06
362.976	905.06
363.203	896.06
363.429	890.06
363.656	926.06
363.882	888.06
364.109	914.06
364.335	891.06
364.562	866.06
364.788	875.06
365.015	885.06
365.241	893.06
365.468	882.06
365.694	894.06
365.92	873.06
366.147	891.06
366.373	889.06
366.599	915.06
366.826	883.06
367.052	907.06
367.278	911.06
367.505	916.06
367.731	929.06
367.957	926.06
368.184	915.06
368.41	899.06
368.636	936.06
368.862	910.06
369.089	943.06
369.315	929.06
369.541	944.06
369.767	929.06
369.993	928.06
370.219	966.06
370.445	929.06
370.672	950.06
370.898	935.06
371.124	981.06
371.35	996.06
371.576	991.06
371.802	990.06
372.028	950.06
372.254	973.06
372.48	988.06
372.706	1008.06
372.932	1017.06
373.158	1008.06
373.384	1003.06
373.61	1013.06
373.835	947.06
374.061	1004.06
374.287	999.06
374.513	979.06
374.739	1031.06
374.965	1089.06
375.191	1093.06
375.416	1121.06
375.642	1075.06
375.868	1066.06
376.094	1009.06
376.319	1031.06
376.545	1026.06
376.771	967.06
376.997	978.06
377.222	1013.06
377.448	1014.06
377.674	985.06
377.899	967.06
378.125	946.06
378.35	990.06
378.576	982.06
378.802	976.06
379.027	973.06
379.253	969.06
379.478	977.06
379.704	954.06
379.929	981.06
380.155	981.06
380.38	979.06
380.606	999.06
380.831	981.06
381.057	985.06
381.282	989.06
381.507	960.06
381.733	989.06
381.958	1011.06
382.184	1000.06
382.409	1005.06
382.634	1010.06
382.86	1021.06
383.085	1050.06
383.31	1035.06
383.535	1077.06
383.761	1085.06
383.986	1099.06
384.211	1130.06
384.436	1161.06
384.662	1156.06
384.887	1178.06
385.112	1183.06
385.337	1189.06
385.562	1177.06
385.787	1197.06
386.013	1220.06
386.238	1221.06
386.463	1209.06
386.688	1221.06
386.913	1195.06
387.138	1179.06
387.363	1232.06
387.588	1198.06
387.813	1195.06
388.038	1180.06
388.263	1167.06
388.488	1201.06
388.713	1209.06
388.938	1172.06
389.163	1148.06
389.387	1163.06
389.612	1194.06
389.837	1159.06
390.062	1157.06
390.287	1175.06
390.512	1167.06
390.736	1161.06
390.961	1214.06
391.186	1210.06
391.411	1246.06
391.636	1335.06
391.86	1327.06
392.085	1366.06
392.31	1323.06
392.534	1297.06
392.759	1318.06
392.984	1263.06
393.208	1291.06
393.433	1293.06
393.658	1274.06
393.882	1276.06
394.107	1266.06
394.331	1263.06
394.556	1257.06
394.78	1277.06
395.005	1303.06
395.229	1301.06
395.454	1336.06
395.678	1366.06
395.903	1342.06
396.127	1339.06
396.352	1302.06
396.576	1278.06
396.801	1295.06
397.025	1291.06
397.249	1335.06
397.474	1347.06
397.698	1333.06
397.922	1356.06
398.147	1364.06
398.371	1399.06
398.595	1433.06
398.82	1501.06
399.044	1605.06
399.268	1777.06
399.492	2022.06
399.717	2243.06
399.941	2284.06
400.165	2081.06
400.389	1869.06
400.613	1689.06
400.837	1630.06
401.062	1560.06
401.286	1557.06
401.51	1541.06
401.734	1506.06
401.958	1570.06
402.182	1540.06
402.406	1549.06
402.63	1593.06
402.854	1631.06
403.078	1621.06
403.302	1657.06
403.526	1690.06
403.75	1678.06
403.974	1734.06
404.198	1704.06
404.422	1759.06
404.645	1704.06
404.869	1713.06
405.093	1694.06
405.317	1684.06
405.541	1694.06
405.765	1685.06
405.988	1662.06
406.212	1682.06
406.436	1667.06
406.66	1711.06
406.883	1733.06
407.107	1849.06
407.331	1915.06
407.555	1990.06
407.778	1996.06
408.002	1954.06
408.226	1882.06
408.449	1811.06
408.673	1729.06
408.896	1738.06
409.12	1672.06
409.344	1737.06
409.567	1726.06
409.791	1725.06
410.014	1715.06
410.238	1657.06
410.461	1697.06
410.685	1667.06
410.908	1646.06
411.132	1610.06
411.355	1549.06
411.578	1589.06
411.802	1542.06
412.025	1598.06
412.249	1599.06
412.472	1626.06
412.695	1563.06
412.919	1514.06
413.142	1504.06
413.365	1524.06
413.589	1499.06
413.812	1549.06
414.035	1489.06
414.258	1493.06
414.482	1492.06
414.705	1547.06
414.928	1547.06
415.151	1521.06
415.374	1520.06
415.597	1467.06
415.821	1487.06
416.044	1471.06
416.267	1440.06
416.49	1465.06
416.713	1469.06
416.936	1478.06
417.159	1481.06
417.382	1453.06
417.605	1456.06
417.828	1459.06
418.051	1467.06
418.274	1503.06
418.497	1472.06
418.72	1518.06
418.943	1517.06
419.166	1634.06
419.389	1780.06
419.611	1706.06
419.834	1587.06
420.057	1573.06
420.28	1541.06
420.503	1494.06
420.726	1457.06
420.948	1460.06
421.171	1483.06
421.394	1461.06
421.617	1476.06
421.839	1495.06
422.062	1503.06
422.285	1467.06
422.507	1522.06
422.73	1491.06
422.953	1547.06
423.175	1527.06
423.398	1570.06
423.621	1537.06
423.843	1578.06
424.066	1587.06
424.288	1540.06
424.511	1565.06
424.733	1514.06
424.956	1541.06
425.178	1535.06
425.401	1492.06
425.623	1509.06
425.846	1430.06
426.068	1464.06
426.291	1434.06
426.513	1422.06
426.735	1418.06
426.958	1388.06
427.18	1352.06
427.402	1397.06
427.625	1335.06
427.847	1281.06
428.069	1322.06
428.292	1340.06
428.514	1303.06
428.736	1316.06
428.958	1334.06
429.181	1281.06
429.403	1267.06
429.625	1275.06
429.847	1300.06
430.069	1281.06
430.292	1258.06
430.514	1244.06
430.736	1270.06
430.958	1289.06
431.18	1293.06
431.402	1294.06
431.624	1305.06
431.846	1311.06
432.068	1306.06
432.29	1351.06
432.512	1301.06
432.734	1329.06
432.956	1308.06
433.178	1292.06
433.4	1339.06
433.622	1323.06
433.844	1332.06
434.066	1333.06
434.287	1324.06
434.509	1403.06
434.731	1433.06
434.953	1461.06
435.175	1473.06
435.397	1466.06
435.618	1383.06
435.84	1370.06
436.062	1338.06
436.284	1332.06
436.505	1295.06
436.727	1315.06
436.949	1305.06
437.17	1309.06
437.392	1287.06
437.614	1251.06
437.835	1217.06
438.057	1280.06
438.278	1231.06
438.5	1239.06
438.721	1301.06
438.943	1270.06
439.165	1251.06
439.386	1273.06
439.608	1287.06
439.829	1266.06
440.05	1262.06
440.272	1291.06
440.493	1281.06
440.715	1326.06
440.936	1367.06
441.158	1355.06
441.379	1379.06
441.6	1463.06
441.822	1461.06
442.043	1490.06
442.264	1468.06
442.486	1429.06
442.707	1452.06
442.928	1426.06
443.149	1396.06
443.371	1447.06
443.592	1462.06
443.813	1444.06
444.034	1479.06
444.255	1546.06
444.476	1579.06
444.698	1669.06
444.919	1721.06
445.14	1754.06
445.361	1680.06
445.582	1540.06
445.803	1465.06
446.024	1389.06
446.245	1375.06
446.466	1383.06
446.687	1306.06
446.908	1334.06
447.129	1289.06
447.35	1297.06
447.571	1261.06
447.792	1216.06
448.013	1253.06
448.234	1235.06
448.455	1191.06
448.675	1194.06
448.896	1182.06
449.117	1172.06
449.338	1206.06
449.559	1161.06
449.779	1163.06
450	1173.06
450.221	1178.06
450.442	1182.06
450.662	1171.06
450.883	1156.06
451.104	1241.06
451.324	1228.06
451.545	1220.06
451.766	1226.06
451.986	1148.06
452.207	1178.06
452.428	1187.06
452.648	1186.06
452.869	1134.06
453.089	1138.06
453.31	1142.06
453.53	1133.06
453.751	1141.06
453.971	1111.06
454.192	1123.06
454.412	1117.06
454.633	1127.06
454.853	1134.06
455.073	1095.06
455.294	1115.06
455.514	1105.06
455.734	1099.06
455.955	1099.06
456.175	1124.06
456.395	1091.06
456.616	1093.06
456.836	1090.06
457.056	1101.06
457.276	1070.06
457.497	1124.06
457.717	1114.06
457.937	1103.06
458.157	1119.06
458.377	1135.06
458.598	1186.06
458.818	1189.06
459.038	1249.06
459.258	1247.06
459.478	1331.06
459.698	1379.06
459.918	1412.06
460.138	1457.06
460.358	1549.06
460.578	1558.06
460.798	1576.06
461.018	1570.06
461.238	1540.06
461.458	1518.06
461.678	1549.06
461.898	1574.06
462.118	1582.06
462.338	1644.06
462.558	1708.06
462.777	1797.06
462.997	1903.06
463.217	2039.06
463.437	2059.06
463.657	1950.06
463.876	1855.06
464.096	1815.06
464.316	1807.06
464.536	1810.06
464.755	1754.06
464.975	1658.06
465.195	1598.06
465.414	1545.06
465.634	1431.06
465.854	1387.06
466.073	1337.06
466.293	1310.06
466.512	1296.06
466.732	1254.06
466.951	1253.06
467.171	1238.06
467.391	1273.06
467.61	1245.06
467.829	1225.06
468.049	1210.06
468.268	1191.06
468.488	1171.06
468.707	1186.06
468.927	1161.06
469.146	1188.06
469.365	1195.06
469.585	1219.06
469.804	1237.06
470.023	1266.06
470.243	1264.06
470.462	1253.06
470.681	1299.06
470.901	1288.06
471.12	1285.06
471.339	1267.06
471.558	1251.06
471.777	1205.06
471.997	1236.06
472.216	1229.06
472.435	1222.06
472.654	1167.06
472.873	1157.06
473.092	1150.06
473.311	1189.06
473.53	1179.06
473.749	1146.06
473.968	1163.06
474.187	1152.06
474.406	1161.06
474.625	1152.06
474.844	1168.06
475.063	1185.06
475.282	1184.06
475.501	1230.06
475.72	1196.06
475.939	1216.06
476.158	1235.06
476.377	1225.06
476.596	1230.06
476.814	1257.06
477.033	1244.06
477.252	1283.06
477.471	1291.06
477.69	1320.06
477.908	1348.06
478.127	1372.06
478.346	1411.06
478.564	1403.06
478.783	1432.06
479.002	1454.06
479.22	1510.06
479.439	1470.06
479.658	1450.06
479.876	1462.06
480.095	1435.06
480.313	1544.06
480.532	1593.06
480.751	1590.06
480.969	1514.06
481.188	1464.06
481.406	1419.06
481.624	1394.06
481.843	1418.06
482.061	1348.06
482.28	1323.06
482.498	1310.06
482.717	1317.06
482.935	1361.06
483.153	1365.06
483.372	1316.06
483.59	1349.06
483.808	1310.06
484.027	1329.06
484.245	1363.06
484.463	1366.06
484.681	1366.06
484.9	1376.06
485.118	1383.06
485.336	1398.06
485.554	1419.06
485.772	1407.06
485.99	1406.06
486.209	1451.06
486.427	1419.06
486.645	1399.06
486.863	1435.06
487.081	1447.06
487.299	1429.06
487.517	1380.06
487.735	1384.06
487.953	1401.06
488.171	1398.06
488.389	1388.06
488.607	1372.06
488.825	1386.06
489.043	1376.06
489.261	1386.06
489.479	1420.06
489.696	1393.06
489.914	1384.06
490.132	1404.06
490.35	1413.06
490.568	1439.06
490.786	1431.06
491.003	1457.06
491.221	1441.06
491.439	1424.06
491.657	1422.06
491.874	1405.06
492.092	1396.06
492.31	1429.06
492.527	1442.06
492.745	1471.06
492.963	1457.06
493.18	1449.06
493.398	1467.06
493.615	1464.06
493.833	1475.06
494.05	1477.06
494.268	1473.06
494.485	1510.06
494.703	1552.06
494.92	1490.06
495.138	1498.06
495.355	1493.06
495.573	1497.06
495.79	1533.06
496.008	1540.06
496.225	1545.06
496.442	1545.06
496.66	1568.06
496.877	1587.06
497.094	1627.06
497.312	1655.06
497.529	1673.06
497.746	1729.06
497.963	1806.06
498.181	1906.06
498.398	1973.06
498.615	2074.06
498.832	2246.06
499.049	2402.06
499.267	2621.06
499.484	2878.06
499.701	3166.06
499.918	3469.06
500.135	3957.06
500.352	4436.06
500.569	4604.06
500.786	4522.06
501.003	4289.06
501.22	3926.06
501.437	3477.06
501.654	3140.06
501.871	2793.06
502.088	2545.06
502.305	2384.06
502.522	2331.06
502.739	2163.06
502.956	2054.06
503.172	1954.06
503.389	1841.06
503.606	1819.06
503.823	1825.06
504.04	1786.06
504.256	1807.06
504.473	1820.06
504.69	1819.06
504.907	1780.06
505.123	1679.06
505.34	1653.06
505.557	1534.06
505.773	1503.06
505.99	1454.06
506.207	1443.06
506.423	1431.06
506.64	1362.06
506.856	1384.06
507.073	1377.06
507.289	1330.06
507.506	1339.06
507.722	1311.06
507.939	1306.06
508.155	1262.06
508.372	1267.06
508.588	1265.06
508.805	1275.06
509.021	1289.06
509.238	1254.06
509.454	1241.06
509.67	1228.06
509.887	1194.06
510.103	1231.06
510.319	1213.06
510.536	1239.06
510.752	1203.06
510.968	1233.06
511.184	1207.06
511.401	1206.06
511.617	1175.06
511.833	1202.06
512.049	1183.06
512.265	1193.06
512.481	1219.06
512.698	1203.06
512.914	1202.06
513.13	1215.06
513.346	1199.06
513.562	1198.06
513.778	1193.06
513.994	1211.06
514.21	1231.06
514.426	1197.06
514.642	1227.06
514.858	1252.06
515.074	1253.06
515.29	1275.06
515.506	1250.06
515.721	1293.06
515.937	1289.06
516.153	1362.06
516.369	1361.06
516.585	1402.06
516.801	1455.06
517.016	1493.06
517.232	1555.06
517.448	1639.06
517.664	1726.06
517.879	1733.06
518.095	1707.06
518.311	1687.06
518.527	1585.06
518.742	1537.06
518.958	1526.06
519.173	1463.06
519.389	1377.06
519.605	1378.06
519.82	1305.06
520.036	1292.06
520.251	1230.06
520.467	1247.06
520.682	1210.06
520.898	1199.06
521.113	1195.06
521.329	1206.06
521.544	1182.06
521.76	1171.06
521.975	1180.06
522.19	1163.06
522.406	1145.06
522.621	1179.06
522.836	1149.06
523.052	1174.06
523.267	1119.06
523.482	1117.06
523.698	1124.06
523.913	1102.06
524.128	1113.06
524.343	1110.06
524.559	1089.06
524.774	1083.06
524.989	1093.06
525.204	1130.06
525.419	1092.06
525.634	1103.06
525.849	1092.06
526.064	1079.06
526.28	1105.06
526.495	1087.06
526.71	1096.06
526.925	1075.06
527.14	1085.06
527.355	1069.06
527.57	1096.06
527.785	1087.06
527.999	1089.06
528.214	1083.06
528.429	1078.06
528.644	1043.06
528.859	1080.06
529.074	1085.06
529.289	1084.06
529.503	1067.06
529.718	1084.06
529.933	1079.06
530.148	1079.06
530.363	1065.06
530.577	1049.06
530.792	1070.06
531.007	1058.06
531.221	1073.06
531.436	1067.06
531.651	1068.06
531.865	1090.06
532.08	1108.06
532.295	1089.06
532.509	1049.06
532.724	1063.06
532.938	1068.06
533.153	1067.06
533.367	1074.06
533.582	1077.06
533.796	1083.06
534.011	1059.06
534.225	1040.06
534.44	1079.06
534.654	1037.06
534.868	1068.06
535.083	1054.06
535.297	1038.06
535.511	1046.06
535.726	1039.06
535.94	1029.06
536.154	1001.06
536.369	979.06
536.583	993.06
536.797	993.06
537.011	977.06
537.225	975.06
537.44	968.06
537.654	1001.06
537.868	977.06
538.082	939.06
538.296	985.06
538.51	972.06
538.724	998.06
538.938	970.06
539.153	975.06
539.367	956.06
539.581	962.06
539.795	980.06
540.009	950.06
540.222	973.06
540.436	954.06
540.65	939.06
540.864	961.06
541.078	955.06
541.292	988.06
541.506	966.06
541.72	957.06
541.934	959.06
542.147	971.06
542.361	954.06
542.575	946.06
542.789	968.06
543.002	950.06
543.216	946.06
543.43	932.06
543.644	931.06
543.857	923.06
544.071	946.06
544.285	972.06
544.498	973.06
544.712	958.06
544.925	975.06
545.139	955.06
545.352	988.06
545.566	977.06
545.779	980.06
545.993	980.06
546.206	993.06
546.42	966.06
546.633	956.06
546.847	989.06
547.06	989.06
547.274	962.06
547.487	989.06
547.7	983.06
547.914	981.06
548.127	1009.06
548.34	1002.06
548.554	997.06
548.767	1006.06
548.98	981.06
549.193	990.06
549.407	1003.06
549.62	1026.06
549.833	1019.06
550.046	985.06
550.259	995.06
550.473	1001.06
550.686	988.06
550.899	982.06
551.112	962.06
551.325	945.06
551.538	994.06
551.751	933.06
551.964	978.06
552.177	1013.06
552.39	993.06
552.603	1011.06
552.816	1034.06
553.029	1016.06
553.242	1053.06
553.455	1081.06
553.667	1105.06
553.88	1068.06
554.093	1053.06
554.306	1004.06
554.519	1017.06
554.732	999.06
554.944	979.06
555.157	941.06
555.37	910.06
555.583	897.06
555.795	868.06
556.008	893.06
556.221	869.06
556.433	845.06
556.646	857.06
556.859	866.06
557.071	843.06
557.284	846.06
557.496	847.06
557.709	841.06
557.921	833.06
558.134	831.06
558.346	798.06
558.559	837.06
558.771	814.06
558.984	789.06
559.196	825.06
559.409	823.06
559.621	817.06
559.833	805.06
560.046	819.06
560.258	801.06
560.47	809.06
560.683	810.06
560.895	822.06
561.107	805.06
561.32	810.06
561.532	787.06
561.744	794.06
561.956	820.06
562.168	806.06
562.381	805.06
562.593	803.06
562.805	815.06
563.017	804.06
563.229	818.06
563.441	811.06
563.653	855.06
563.865	826.06
564.077	821.06
564.289	845.06
564.501	843.06
564.713	851.06
564.925	881.06
565.137	903.06
565.349	906.06
565.561	956.06
565.773	953.06
565.985	1043.06
566.197	1073.06
566.408	1159.06
566.62	1271.06
566.832	1326.06
567.044	1375.06
567.255	1359.06
567.467	1393.06
567.679	1425.06
567.891	1545.06
568.102	1575.06
568.314	1484.06
568.526	1372.06
568.737	1242.06
568.949	1166.06
569.161	1046.06
569.372	981.06
569.584	950.06
569.795	915.06
570.007	881.06
570.218	847.06
570.43	877.06
570.641	849.06
570.853	821.06
571.064	865.06
571.276	864.06
571.487	792.06
571.698	812.06
571.91	750.06
572.121	756.06
572.333	735.06
572.544	702.06
572.755	713.06
572.966	698.06
573.178	688.06
573.389	685.06
573.6	691.06
573.811	669.06
574.023	697.06
574.234	672.06
574.445	655.06
574.656	681.06
574.867	675.06
575.078	662.06
575.289	654.06
575.501	639.06
575.712	643.06
575.923	635.06
576.134	642.06
576.345	655.06
576.556	615.06
576.767	638.06
576.978	625.06
577.188	608.06
577.399	625.06
577.61	613.06
577.821	599.06
578.032	611.06
578.243	589.06
578.454	598.06
578.665	577.06
578.875	579.06
579.086	600.06
579.297	567.06
579.508	574.06
579.718	571.06
579.929	554.06
580.14	558.06
580.35	557.06
580.561	568.06
580.772	565.06
580.982	551.06
581.193	564.06
581.403	567.06
581.614	571.06
581.825	561.06
582.035	554.06
582.246	567.06
582.456	553.06
582.667	568.06
582.877	548.06
583.087	548.06
583.298	527.06
583.508	533.06
583.719	535.06
583.929	537.06
584.139	517.06
584.35	563.06
584.56	521.06
584.77	537.06
584.981	528.06
585.191	546.06
585.401	540.06
585.611	531.06
585.821	533.06
586.032	563.06
586.242	535.06
586.452	537.06
586.662	515.06
586.872	520.06
587.082	521.06
587.292	551.06
587.502	498.06
587.713	519.06
587.923	516.06
588.133	515.06
588.343	542.06
588.553	519.06
588.762	534.06
588.972	545.06
589.182	540.06
589.392	538.06
589.602	536.06
589.812	540.06
590.022	539.06
590.232	516.06
590.441	533.06
590.651	539.06
590.861	522.06
591.071	524.06
591.281	549.06
591.49	559.06
591.7	569.06
591.91	566.06
592.119	583.06
592.329	591.06
592.539	590.06
592.748	625.06
592.958	643.06
593.167	649.06
593.377	674.06
593.587	671.06
593.796	690.06
594.006	672.06
594.215	691.06
594.424	681.06
594.634	683.06
594.843	656.06
595.053	643.06
595.262	587.06
595.472	549.06
595.681	547.06
595.89	556.06
596.1	530.06
596.309	539.06
596.518	503.06
596.727	513.06
596.937	508.06
597.146	486.06
597.355	475.06
597.564	489.06
597.774	467.06
597.983	466.06
598.192	472.06
598.401	452.06
598.61	441.06
598.819	462.06
599.028	462.06
599.237	442.06
599.446	443.06
599.655	462.06
599.864	450.06
600.073	435.06
600.282	446.06
600.491	426.06
600.7	453.06
600.909	434.06
601.118	427.06
601.327	426.06
601.536	442.06
601.745	427.06
601.953	430.06
602.162	431.06
602.371	418.06
602.58	425.06
602.789	411.06
602.997	424.06
603.206	414.06
603.415	412.06
603.623	414.06
603.832	426.06
604.041	394.06
604.249	410.06
604.458	401.06
604.666	402.06
604.875	393.06
605.084	393.06
605.292	418.06
605.501	417.06
605.709	387.06
605.918	399.06
606.126	397.06
606.334	400.06
606.543	407.06
606.751	390.06
606.96	389.06
607.168	396.06
607.376	383.06
607.585	387.06
607.793	396.06
608.001	382.06
608.21	372.06
608.418	383.06
608.626	374.06
608.834	398.06
609.043	392.06
609.251	386.06
609.459	385.06
609.667	376.06
609.875	375.06
610.083	364.06
610.291	377.06
610.499	378.06
610.707	377.06
610.916	387.06
611.124	362.06
611.332	361.06
611.54	369.06
611.748	364.06
611.955	370.06
612.163	361.06
612.371	371.06
612.579	352.06
612.787	368.06
612.995	373.06
613.203	382.06
613.411	349.06
613.618	363.06
613.826	364.06
614.034	349.06
614.242	381.06
614.449	371.06
614.657	367.06
614.865	354.06
615.072	374.06
615.28	356.06
615.488	365.06
615.695	345.06
615.903	371.06
616.111	365.06
616.318	372.06
616.526	371.06
616.733	379.06
616.941	367.06
617.148	352.06
617.356	349.06
617.563	366.06
617.771	382.06
617.978	356.06
618.185	353.06
618.393	358.06
618.6	348.06
618.807	366.06
619.015	370.06
619.222	366.06
619.429	357.06
619.637	327.06
619.844	344.06
620.051	337.06
620.258	348.06
620.466	348.06
620.673	341.06
620.88	318.06
621.087	337.06
621.294	346.06
621.501	327.06
621.708	349.06
621.915	332.06
622.122	334.06
622.329	330.06
622.536	329.06
622.743	334.06
622.95	344.06
623.157	323.06
623.364	323.06
623.571	343.06
623.778	340.06
623.985	328.06
624.192	342.06
624.399	333.06
624.606	325.06
624.812	323.06
625.019	316.06
625.226	327.06
625.433	315.06
625.639	317.06
625.846	327.06
626.053	302.06
626.259	291.06
626.466	299.06
626.673	305.06
626.879	300.06
627.086	315.06
627.293	315.06
627.499	315.06
627.706	322.06
627.912	306.06
628.119	300.06
628.325	312.06
628.532	291.06
628.738	298.06
628.945	301.06
629.151	304.06
629.357	305.06
629.564	294.06
629.77	277.06
629.976	268.06
630.183	296.06
630.389	294.06
630.595	293.06
630.802	284.06
631.008	272.06
631.214	282.06
631.42	275.06
631.627	274.06
631.833	269.06
632.039	255.06
632.245	259.06
632.451	276.06
632.657	297.06
632.863	283.06
633.069	258.06
633.275	267.06
633.481	283.06
633.688	273.06
633.893	279.06
634.099	267.06
634.305	276.06
634.511	250.06
634.717	278.06
634.923	267.06
635.129	272.06
635.335	280.06
635.541	269.06
635.747	287.06
635.952	261.06
636.158	262.06
636.364	248.06
636.57	259.06
636.775	245.06
636.981	269.06
637.187	262.06
637.392	253.06
637.598	275.06
637.804	249.06
638.009	249.06
638.215	243.06
638.421	245.06
638.626	245.06
638.832	247.06
639.037	247.06
639.243	250.06
639.448	242.06
639.654	236.06
639.859	246.06
640.065	237.06
640.27	239.06
640.475	257.06
640.681	245.06
640.886	246.06
641.091	238.06
641.297	248.06
641.502	243.06
641.707	227.06
641.913	259.06
642.118	233.06
642.323	235.06
642.528	235.06
642.733	222.06
642.939	233.06
643.144	253.06
643.349	227.06
643.554	241.06
643.759	241.06
643.964	222.06
644.169	230.06
644.374	224.06
644.579	233.06
644.784	222.06
644.989	227.06
645.194	230.06
645.399	225.06
645.604	246.06
645.809	210.06
646.014	198.06
646.219	232.06
646.423	221.06
646.628	215.06
646.833	229.06
647.038	223.06
647.243	248.06
647.447	241.06
647.652	229.06
647.857	249.06
648.062	228.06
648.266	243.06
648.471	251.06
648.676	245.06
648.88	258.06
649.085	237.06
649.289	239.06
649.494	242.06
649.698	221.06
649.903	227.06
650.107	215.06
650.312	219.06
650.516	224.06
650.721	227.06
650.925	185.06
651.13	215.06
651.334	217.06
651.539	196.06
651.743	217.06
651.947	184.06
652.152	185.06
652.356	197.06
652.56	196.06
652.764	200.06
652.969	196.06
653.173	195.06
653.377	166.06
653.581	183.06
653.785	169.06
653.99	180.06
654.194	171.06
654.398	181.06
654.602	161.06
654.806	173.06
655.01	165.06
655.214	165.06
655.418	170.06
655.622	156.06
655.826	159.06
656.03	162.06
656.234	169.06
656.438	158.06
656.642	165.06
656.846	144.06
657.049	137.06
657.253	126.06
657.457	140.06
657.661	131.06
657.865	141.06
658.068	134.06
658.272	116.06
658.476	141.06
658.68	126.06
658.883	117.06
659.087	123.06
659.291	132.06
659.494	108.06
659.698	111.06
659.901	100.06
660.105	110.06
660.309	98.06
660.512	103.06
660.716	107.06
660.919	105.06
661.123	90.06
661.326	101.06
661.53	103.06
661.733	93.06
661.936	95.06
662.14	91.06
662.343	95.06
662.546	90.06
662.75	96.06
662.953	95.06
663.156	87.06
663.36	92.06
663.563	79.06
663.766	96.06
663.969	76.06
664.173	83.06
664.376	90.06
664.579	85.06
664.782	101.06
664.985	97.06
665.188	85.06
665.391	82.06
665.594	89.06
665.797	86.06
666	90.06
666.203	86.06
666.406	89.06
666.609	80.06
666.812	74.06
667.015	79.06
667.218	76.06
667.421	86.06
667.624	92.06
667.827	100.06
668.03	83.06
668.232	91.06
668.435	84.06
668.638	94.06
668.841	84.06
669.043	81.06
669.246	84.06
669.449	73.06
669.651	89.06
669.854	79.06
670.057	80.06
670.259	81.06
670.462	72.06
670.665	83.06
670.867	86.06
671.07	90.06
671.272	91.06
671.475	67.06
671.677	81.06
671.88	92.06
672.082	75.06
672.284	87.06
672.487	80.06
672.689	78.06
672.892	80.06
