Data from NiCl2@0.0625M.TitratingCurve.Agarose3%dH2O.NegLispCup.LampEnergy10.LIBS07252019_HRD10591_18-34-07-577.txt Node
Date: Thu Jul 25 18:34:07 EDT 2019
User: cochatt
Spectrometer: HR+D1059
Trigger mode: 1
Integration Time (sec): 1.000000E-1
Scans to average: 1
Electric dark correction enabled: true
Nonlinearity correction enabled: false
Boxcar width: 0
XAxis mode: Wavelengths
Number of Pixels in Spectrum: 2048
>>>>>Begin Spectral Data<<<<<
223.165	-10.44
223.4	-10.44
223.635	-10.44
223.869	-20.44
224.104	-9.44
224.338	-13.44
224.573	-8.44
224.808	-22.44
225.042	-21.44
225.277	-14.44
225.511	-2.44
225.746	-5.44
225.98	0.56
226.215	7.56
226.449	14.56
226.683	32.56
226.918	31.56
227.152	41.56
227.387	27.56
227.621	32.56
227.856	50.56
228.09	47.56
228.324	64.56
228.559	53.56
228.793	66.56
229.027	132.56
229.262	156.56
229.496	140.56
229.73	153.56
229.964	174.56
230.199	182.56
230.433	166.56
230.667	174.56
230.901	166.56
231.136	174.56
231.37	179.56
231.604	190.56
231.838	194.56
232.072	175.56
232.306	202.56
232.541	198.56
232.775	188.56
233.009	199.56
233.243	197.56
233.477	206.56
233.711	202.56
233.945	202.56
234.179	208.56
234.413	199.56
234.647	218.56
234.881	215.56
235.115	219.56
235.349	204.56
235.583	218.56
235.817	207.56
236.051	216.56
236.285	224.56
236.519	210.56
236.753	200.56
236.987	225.56
237.221	218.56
237.455	225.56
237.689	242.56
237.922	233.56
238.156	259.56
238.39	240.56
238.624	234.56
238.858	240.56
239.091	245.56
239.325	222.56
239.559	238.56
239.793	265.56
240.027	254.56
240.26	257.56
240.494	260.56
240.728	262.56
240.961	263.56
241.195	271.56
241.429	267.56
241.662	260.56
241.896	283.56
242.13	275.56
242.363	284.56
242.597	301.56
242.83	292.56
243.064	276.56
243.298	301.56
243.531	299.56
243.765	293.56
243.998	288.56
244.232	310.56
244.465	316.56
244.699	314.56
244.932	310.56
245.166	327.56
245.399	340.56
245.633	340.56
245.866	327.56
246.099	319.56
246.333	339.56
246.566	330.56
246.8	327.56
247.033	346.56
247.266	328.56
247.5	330.56
247.733	338.56
247.966	355.56
248.2	360.56
248.433	375.56
248.666	349.56
248.899	356.56
249.133	363.56
249.366	356.56
249.599	380.56
249.832	366.56
250.066	384.56
250.299	377.56
250.532	381.56
250.765	379.56
250.998	394.56
251.231	404.56
251.465	410.56
251.698	414.56
251.931	393.56
252.164	410.56
252.397	397.56
252.63	404.56
252.863	415.56
253.096	419.56
253.329	425.56
253.562	435.56
253.795	419.56
254.028	437.56
254.261	434.56
254.494	436.56
254.727	428.56
254.96	433.56
255.193	440.56
255.426	448.56
255.659	439.56
255.892	440.56
256.124	484.56
256.357	448.56
256.59	455.56
256.823	472.56
257.056	475.56
257.289	428.56
257.521	441.56
257.754	466.56
257.987	477.56
258.22	494.56
258.452	499.56
258.685	485.56
258.918	489.56
259.151	469.56
259.383	499.56
259.616	500.56
259.849	499.56
260.081	487.56
260.314	508.56
260.547	512.56
260.779	514.56
261.012	517.56
261.244	500.56
261.477	499.56
261.71	512.56
261.942	519.56
262.175	510.56
262.407	540.56
262.64	502.56
262.872	528.56
263.105	534.56
263.337	542.56
263.57	536.56
263.802	531.56
264.035	531.56
264.267	550.56
264.499	560.56
264.732	538.56
264.964	535.56
265.197	555.56
265.429	544.56
265.661	561.56
265.894	558.56
266.126	575.56
266.358	558.56
266.591	571.56
266.823	586.56
267.055	546.56
267.287	590.56
267.52	572.56
267.752	588.56
267.984	584.56
268.216	593.56
268.448	580.56
268.681	600.56
268.913	561.56
269.145	595.56
269.377	591.56
269.609	601.56
269.841	614.56
270.073	585.56
270.306	594.56
270.538	611.56
270.77	614.56
271.002	604.56
271.234	623.56
271.466	610.56
271.698	600.56
271.93	628.56
272.162	621.56
272.394	629.56
272.626	631.56
272.858	642.56
273.09	640.56
273.322	664.56
273.553	656.56
273.785	654.56
274.017	666.56
274.249	647.56
274.481	648.56
274.713	647.56
274.945	691.56
275.176	694.56
275.408	674.56
275.64	674.56
275.872	666.56
276.104	712.56
276.335	691.56
276.567	674.56
276.799	707.56
277.031	681.56
277.262	698.56
277.494	676.56
277.726	676.56
277.957	704.56
278.189	674.56
278.421	676.56
278.652	704.56
278.884	723.56
279.115	730.56
279.347	702.56
279.579	734.56
279.81	719.56
280.042	726.56
280.273	731.56
280.505	746.56
280.736	732.56
280.968	736.56
281.199	743.56
281.431	767.56
281.662	744.56
281.894	753.56
282.125	734.56
282.356	740.56
282.588	777.56
282.819	752.56
283.051	768.56
283.282	758.56
283.513	770.56
283.745	769.56
283.976	764.56
284.207	796.56
284.439	775.56
284.67	805.56
284.901	789.56
285.132	790.56
285.364	796.56
285.595	793.56
285.826	782.56
286.057	806.56
286.288	818.56
286.52	820.56
286.751	799.56
286.982	802.56
287.213	816.56
287.444	818.56
287.675	831.56
287.906	826.56
288.138	818.56
288.369	805.56
288.6	844.56
288.831	832.56
289.062	860.56
289.293	805.56
289.524	851.56
289.755	844.56
289.986	851.56
290.217	856.56
290.448	818.56
290.679	838.56
290.91	868.56
291.141	852.56
291.371	848.56
291.602	841.56
291.833	852.56
292.064	862.56
292.295	843.56
292.526	861.56
292.757	840.56
292.987	834.56
293.218	822.56
293.449	881.56
293.68	859.56
293.91	867.56
294.141	855.56
294.372	836.56
294.603	870.56
294.833	857.56
295.064	865.56
295.295	868.56
295.525	860.56
295.756	880.56
295.987	841.56
296.217	877.56
296.448	896.56
296.679	900.56
296.909	855.56
297.14	886.56
297.37	894.56
297.601	923.56
297.831	920.56
298.062	899.56
298.292	908.56
298.523	947.56
298.753	910.56
298.984	931.56
299.214	922.56
299.445	898.56
299.675	924.56
299.905	961.56
300.136	928.56
300.366	933.56
300.597	950.56
300.827	962.56
301.057	982.56
301.288	975.56
301.518	971.56
301.748	971.56
301.979	1007.56
302.209	977.56
302.439	974.56
302.669	941.56
302.9	980.56
303.13	993.56
303.36	972.56
303.59	976.56
303.82	983.56
304.051	1003.56
304.281	960.56
304.511	969.56
304.741	988.56
304.971	994.56
305.201	982.56
305.431	1000.56
305.661	983.56
305.891	966.56
306.121	978.56
306.352	980.56
306.582	987.56
306.812	942.56
307.042	960.56
307.272	947.56
307.502	960.56
307.731	978.56
307.961	982.56
308.191	947.56
308.421	960.56
308.651	934.56
308.881	953.56
309.111	998.56
309.341	994.56
309.571	997.56
309.8	969.56
310.03	975.56
310.26	963.56
310.49	979.56
310.72	961.56
310.949	972.56
311.179	968.56
311.409	987.56
311.639	973.56
311.868	983.56
312.098	1013.56
312.328	1002.56
312.557	1022.56
312.787	1032.56
313.017	1026.56
313.246	1019.56
313.476	995.56
313.706	1039.56
313.935	1040.56
314.165	1046.56
314.394	1037.56
314.624	1067.56
314.853	1024.56
315.083	1059.56
315.312	1053.56
315.542	1018.56
315.771	1039.56
316.001	1046.56
316.23	1026.56
316.46	1067.56
316.689	1052.56
316.919	998.56
317.148	1028.56
317.377	1040.56
317.607	1011.56
317.836	1036.56
318.065	1055.56
318.295	1031.56
318.524	1028.56
318.753	1034.56
318.983	1037.56
319.212	1005.56
319.441	1036.56
319.67	1031.56
319.9	1018.56
320.129	1046.56
320.358	1039.56
320.587	1033.56
320.816	1051.56
321.046	1045.56
321.275	1057.56
321.504	1045.56
321.733	1047.56
321.962	1051.56
322.191	1042.56
322.42	1044.56
322.649	1054.56
322.878	1040.56
323.108	1058.56
323.337	1072.56
323.566	1070.56
323.795	1076.56
324.024	1078.56
324.253	1086.56
324.482	1074.56
324.71	1054.56
324.939	1087.56
325.168	1078.56
325.397	1060.56
325.626	1105.56
325.855	1097.56
326.084	1121.56
326.313	1130.56
326.542	1094.56
326.77	1147.56
326.999	1154.56
327.228	1130.56
327.457	1112.56
327.686	1099.56
327.914	1126.56
328.143	1129.56
328.372	1135.56
328.6	1140.56
328.829	1148.56
329.058	1138.56
329.287	1134.56
329.515	1121.56
329.744	1162.56
329.972	1152.56
330.201	1141.56
330.43	1160.56
330.658	1163.56
330.887	1176.56
331.115	1192.56
331.344	1210.56
331.572	1193.56
331.801	1184.56
332.03	1234.56
332.258	1270.56
332.486	1280.56
332.715	1267.56
332.943	1340.56
333.172	1358.56
333.4	1385.56
333.629	1402.56
333.857	1438.56
334.085	1449.56
334.314	1438.56
334.542	1414.56
334.771	1420.56
334.999	1397.56
335.227	1399.56
335.455	1392.56
335.684	1420.56
335.912	1373.56
336.14	1354.56
336.369	1355.56
336.597	1352.56
336.825	1332.56
337.053	1354.56
337.281	1331.56
337.51	1307.56
337.738	1269.56
337.966	1270.56
338.194	1253.56
338.422	1243.56
338.65	1221.56
338.878	1228.56
339.106	1237.56
339.334	1218.56
339.562	1214.56
339.79	1204.56
340.018	1196.56
340.246	1210.56
340.474	1176.56
340.702	1167.56
340.93	1164.56
341.158	1185.56
341.386	1191.56
341.614	1184.56
341.842	1177.56
342.07	1143.56
342.298	1165.56
342.526	1170.56
342.754	1182.56
342.981	1205.56
343.209	1198.56
343.437	1257.56
343.665	1292.56
343.893	1355.56
344.12	1431.56
344.348	1386.56
344.576	1340.56
344.804	1266.56
345.031	1221.56
345.259	1228.56
345.487	1209.56
345.714	1235.56
345.942	1177.56
346.17	1185.56
346.397	1169.56
346.625	1155.56
346.853	1161.56
347.08	1121.56
347.308	1112.56
347.535	1116.56
347.763	1141.56
347.99	1128.56
348.218	1141.56
348.445	1129.56
348.673	1123.56
348.9	1145.56
349.128	1129.56
349.355	1118.56
349.583	1138.56
349.81	1116.56
350.037	1108.56
350.265	1133.56
350.492	1113.56
350.72	1125.56
350.947	1079.56
351.174	1134.56
351.402	1094.56
351.629	1098.56
351.856	1085.56
352.083	1113.56
352.311	1098.56
352.538	1092.56
352.765	1085.56
352.992	1088.56
353.22	1109.56
353.447	1096.56
353.674	1108.56
353.901	1094.56
354.128	1102.56
354.355	1100.56
354.583	1094.56
354.81	1084.56
355.037	1108.56
355.264	1105.56
355.491	1093.56
355.718	1106.56
355.945	1118.56
356.172	1106.56
356.399	1112.56
356.626	1106.56
356.853	1145.56
357.08	1106.56
357.307	1118.56
357.534	1098.56
357.761	1098.56
357.988	1102.56
358.215	1095.56
358.441	1105.56
358.668	1090.56
358.895	1090.56
359.122	1094.56
359.349	1122.56
359.576	1113.56
359.802	1076.56
360.029	1086.56
360.256	1081.56
360.483	1111.56
360.709	1096.56
360.936	1099.56
361.163	1076.56
361.39	1099.56
361.616	1095.56
361.843	1124.56
362.07	1116.56
362.296	1100.56
362.523	1110.56
362.749	1095.56
362.976	1091.56
363.203	1098.56
363.429	1107.56
363.656	1122.56
363.882	1100.56
364.109	1093.56
364.335	1110.56
364.562	1110.56
364.788	1091.56
365.015	1103.56
365.241	1097.56
365.468	1106.56
365.694	1129.56
365.92	1083.56
366.147	1111.56
366.373	1086.56
366.599	1095.56
366.826	1096.56
367.052	1077.56
367.278	1138.56
367.505	1104.56
367.731	1100.56
367.957	1122.56
368.184	1102.56
368.41	1126.56
368.636	1143.56
368.862	1136.56
369.089	1142.56
369.315	1139.56
369.541	1144.56
369.767	1178.56
369.993	1140.56
370.219	1144.56
370.445	1142.56
370.672	1169.56
370.898	1176.56
371.124	1162.56
371.35	1199.56
371.576	1233.56
371.802	1189.56
372.028	1174.56
372.254	1192.56
372.48	1233.56
372.706	1220.56
372.932	1230.56
373.158	1226.56
373.384	1189.56
373.61	1202.56
373.835	1191.56
374.061	1173.56
374.287	1214.56
374.513	1223.56
374.739	1278.56
374.965	1282.56
375.191	1291.56
375.416	1317.56
375.642	1291.56
375.868	1266.56
376.094	1221.56
376.319	1224.56
376.545	1216.56
376.771	1216.56
376.997	1201.56
377.222	1194.56
377.448	1158.56
377.674	1199.56
377.899	1178.56
378.125	1190.56
378.35	1171.56
378.576	1182.56
378.802	1168.56
379.027	1162.56
379.253	1183.56
379.478	1154.56
379.704	1169.56
379.929	1180.56
380.155	1180.56
380.38	1175.56
380.606	1184.56
380.831	1171.56
381.057	1166.56
381.282	1190.56
381.507	1195.56
381.733	1154.56
381.958	1200.56
382.184	1243.56
382.409	1227.56
382.634	1282.56
382.86	1228.56
383.085	1225.56
383.31	1281.56
383.535	1271.56
383.761	1268.56
383.986	1331.56
384.211	1327.56
384.436	1343.56
384.662	1359.56
384.887	1382.56
385.112	1377.56
385.337	1393.56
385.562	1373.56
385.787	1418.56
386.013	1424.56
386.238	1407.56
386.463	1438.56
386.688	1417.56
386.913	1363.56
387.138	1378.56
387.363	1394.56
387.588	1381.56
387.813	1406.56
388.038	1396.56
388.263	1408.56
388.488	1431.56
388.713	1444.56
388.938	1419.56
389.163	1395.56
389.387	1409.56
389.612	1401.56
389.837	1398.56
390.062	1407.56
390.287	1388.56
390.512	1398.56
390.736	1426.56
390.961	1461.56
391.186	1460.56
391.411	1484.56
391.636	1508.56
391.86	1526.56
392.085	1595.56
392.31	1549.56
392.534	1513.56
392.759	1530.56
392.984	1500.56
393.208	1478.56
393.433	1483.56
393.658	1495.56
393.882	1474.56
394.107	1458.56
394.331	1518.56
394.556	1487.56
394.78	1519.56
395.005	1539.56
395.229	1542.56
395.454	1545.56
395.678	1545.56
395.903	1575.56
396.127	1554.56
396.352	1496.56
396.576	1503.56
396.801	1489.56
397.025	1531.56
397.249	1556.56
397.474	1552.56
397.698	1587.56
397.922	1600.56
398.147	1625.56
398.371	1618.56
398.595	1653.56
398.82	1739.56
399.044	1846.56
399.268	1996.56
399.492	2159.56
399.717	2418.56
399.941	2418.56
400.165	2232.56
400.389	2102.56
400.613	1920.56
400.837	1864.56
401.062	1811.56
401.286	1770.56
401.51	1771.56
401.734	1758.56
401.958	1789.56
402.182	1766.56
402.406	1800.56
402.63	1757.56
402.854	1819.56
403.078	1865.56
403.302	1844.56
403.526	1822.56
403.75	1871.56
403.974	1884.56
404.198	1863.56
404.422	1864.56
404.645	1896.56
404.869	1888.56
405.093	1909.56
405.317	1869.56
405.541	1901.56
405.765	1892.56
405.988	1892.56
406.212	1929.56
406.436	1937.56
406.66	1942.56
406.883	1974.56
407.107	2078.56
407.331	2136.56
407.555	2246.56
407.778	2194.56
408.002	2167.56
408.226	2103.56
408.449	2090.56
408.673	1990.56
408.896	1989.56
409.12	1958.56
409.344	1996.56
409.567	1955.56
409.791	1973.56
410.014	1927.56
410.238	1906.56
410.461	1886.56
410.685	1879.56
410.908	1871.56
411.132	1844.56
411.355	1812.56
411.578	1838.56
411.802	1796.56
412.025	1811.56
412.249	1847.56
412.472	1840.56
412.695	1834.56
412.919	1786.56
413.142	1765.56
413.365	1760.56
413.589	1764.56
413.812	1734.56
414.035	1740.56
414.258	1768.56
414.482	1751.56
414.705	1759.56
414.928	1751.56
415.151	1782.56
415.374	1767.56
415.597	1747.56
415.821	1704.56
416.044	1703.56
416.267	1675.56
416.49	1653.56
416.713	1692.56
416.936	1710.56
417.159	1700.56
417.382	1667.56
417.605	1657.56
417.828	1659.56
418.051	1688.56
418.274	1699.56
418.497	1707.56
418.72	1766.56
418.943	1703.56
419.166	1842.56
419.389	1951.56
419.611	1914.56
419.834	1845.56
420.057	1768.56
420.28	1753.56
420.503	1635.56
420.726	1664.56
420.948	1656.56
421.171	1644.56
421.394	1659.56
421.617	1650.56
421.839	1683.56
422.062	1701.56
422.285	1664.56
422.507	1698.56
422.73	1683.56
422.953	1706.56
423.175	1706.56
423.398	1724.56
423.621	1674.56
423.843	1731.56
424.066	1744.56
424.288	1685.56
424.511	1730.56
424.733	1717.56
424.956	1730.56
425.178	1641.56
425.401	1673.56
425.623	1704.56
425.846	1657.56
426.068	1674.56
426.291	1650.56
426.513	1592.56
426.735	1582.56
426.958	1585.56
427.18	1565.56
427.402	1576.56
427.625	1572.56
427.847	1567.56
428.069	1568.56
428.292	1594.56
428.514	1527.56
428.736	1507.56
428.958	1545.56
429.181	1507.56
429.403	1514.56
429.625	1521.56
429.847	1497.56
430.069	1497.56
430.292	1518.56
430.514	1495.56
430.736	1548.56
430.958	1558.56
431.18	1504.56
431.402	1536.56
431.624	1534.56
431.846	1535.56
432.068	1555.56
432.29	1603.56
432.512	1522.56
432.734	1532.56
432.956	1526.56
433.178	1539.56
433.4	1568.56
433.622	1583.56
433.844	1583.56
434.066	1618.56
434.287	1598.56
434.509	1663.56
434.731	1714.56
434.953	1681.56
435.175	1740.56
435.397	1677.56
435.618	1634.56
435.84	1620.56
436.062	1573.56
436.284	1553.56
436.505	1516.56
436.727	1524.56
436.949	1572.56
437.17	1521.56
437.392	1495.56
437.614	1511.56
437.835	1482.56
438.057	1484.56
438.278	1442.56
438.5	1491.56
438.721	1472.56
438.943	1470.56
439.165	1452.56
439.386	1501.56
439.608	1474.56
439.829	1515.56
440.05	1514.56
440.272	1506.56
440.493	1555.56
440.715	1557.56
440.936	1554.56
441.158	1558.56
441.379	1635.56
441.6	1648.56
441.822	1641.56
442.043	1676.56
442.264	1677.56
442.486	1619.56
442.707	1643.56
442.928	1608.56
443.149	1666.56
443.371	1595.56
443.592	1628.56
443.813	1658.56
444.034	1685.56
444.255	1735.56
444.476	1763.56
444.698	1830.56
444.919	1878.56
445.14	1985.56
445.361	1804.56
445.582	1725.56
445.803	1590.56
446.024	1583.56
446.245	1577.56
446.466	1531.56
446.687	1521.56
446.908	1529.56
447.129	1488.56
447.35	1435.56
447.571	1455.56
447.792	1455.56
448.013	1485.56
448.234	1412.56
448.455	1409.56
448.675	1371.56
448.896	1378.56
449.117	1360.56
449.338	1392.56
449.559	1352.56
449.779	1368.56
450	1360.56
450.221	1353.56
450.442	1358.56
450.662	1345.56
450.883	1368.56
451.104	1407.56
451.324	1378.56
451.545	1379.56
451.766	1383.56
451.986	1350.56
452.207	1339.56
452.428	1329.56
452.648	1330.56
452.869	1345.56
453.089	1332.56
453.31	1363.56
453.53	1308.56
453.751	1309.56
453.971	1278.56
454.192	1294.56
454.412	1251.56
454.633	1286.56
454.853	1287.56
455.073	1245.56
455.294	1290.56
455.514	1273.56
455.734	1273.56
455.955	1264.56
456.175	1301.56
456.395	1281.56
456.616	1251.56
456.836	1288.56
457.056	1280.56
457.276	1260.56
457.497	1314.56
457.717	1286.56
457.937	1313.56
458.157	1346.56
458.377	1329.56
458.598	1371.56
458.818	1398.56
459.038	1426.56
459.258	1463.56
459.478	1464.56
459.698	1526.56
459.918	1575.56
460.138	1601.56
460.358	1684.56
460.578	1650.56
460.798	1723.56
461.018	1698.56
461.238	1697.56
461.458	1697.56
461.678	1699.56
461.898	1727.56
462.118	1750.56
462.338	1828.56
462.558	1832.56
462.777	1880.56
462.997	2040.56
463.217	2166.56
463.437	2186.56
463.657	2067.56
463.876	2018.56
464.096	1992.56
464.316	1962.56
464.536	1964.56
464.755	1915.56
464.975	1804.56
465.195	1770.56
465.414	1700.56
465.634	1588.56
465.854	1576.56
466.073	1524.56
466.293	1535.56
466.512	1490.56
466.732	1451.56
466.951	1459.56
467.171	1425.56
467.391	1464.56
467.61	1440.56
467.829	1406.56
468.049	1397.56
468.268	1404.56
468.488	1404.56
468.707	1383.56
468.927	1376.56
469.146	1402.56
469.365	1400.56
469.585	1410.56
469.804	1441.56
470.023	1465.56
470.243	1450.56
470.462	1466.56
470.681	1484.56
470.901	1484.56
471.12	1472.56
471.339	1472.56
471.558	1435.56
471.777	1420.56
471.997	1418.56
472.216	1398.56
472.435	1421.56
472.654	1401.56
472.873	1379.56
473.092	1366.56
473.311	1400.56
473.53	1404.56
473.749	1374.56
473.968	1375.56
474.187	1365.56
474.406	1385.56
474.625	1402.56
474.844	1396.56
475.063	1395.56
475.282	1378.56
475.501	1389.56
475.72	1405.56
475.939	1436.56
476.158	1428.56
476.377	1461.56
476.596	1435.56
476.814	1431.56
477.033	1469.56
477.252	1500.56
477.471	1520.56
477.69	1552.56
477.908	1590.56
478.127	1601.56
478.346	1618.56
478.564	1698.56
478.783	1642.56
479.002	1726.56
479.22	1738.56
479.439	1737.56
479.658	1740.56
479.876	1750.56
480.095	1726.56
480.313	1787.56
480.532	1801.56
480.751	1829.56
480.969	1759.56
481.188	1762.56
481.406	1698.56
481.624	1681.56
481.843	1691.56
482.061	1674.56
482.28	1660.56
482.498	1676.56
482.717	1672.56
482.935	1699.56
483.153	1670.56
483.372	1675.56
483.59	1710.56
483.808	1720.56
484.027	1703.56
484.245	1754.56
484.463	1749.56
484.681	1810.56
484.9	1818.56
485.118	1805.56
485.336	1835.56
485.554	1850.56
485.772	1817.56
485.99	1822.56
486.209	1838.56
486.427	1840.56
486.645	1822.56
486.863	1803.56
487.081	1839.56
487.299	1813.56
487.517	1822.56
487.735	1788.56
487.953	1779.56
488.171	1803.56
488.389	1763.56
488.607	1791.56
488.825	1750.56
489.043	1724.56
489.261	1725.56
489.479	1715.56
489.696	1761.56
489.914	1724.56
490.132	1697.56
490.35	1702.56
490.568	1730.56
490.786	1741.56
491.003	1721.56
491.221	1726.56
491.439	1761.56
491.657	1757.56
491.874	1723.56
492.092	1711.56
492.31	1739.56
492.527	1702.56
492.745	1764.56
492.963	1732.56
493.18	1718.56
493.398	1753.56
493.615	1727.56
493.833	1758.56
494.05	1769.56
494.268	1763.56
494.485	1780.56
494.703	1783.56
494.92	1746.56
495.138	1768.56
495.355	1759.56
495.573	1786.56
495.79	1770.56
496.008	1810.56
496.225	1815.56
496.442	1810.56
496.66	1851.56
496.877	1858.56
497.094	1908.56
497.312	1880.56
497.529	1945.56
497.746	1988.56
497.963	2070.56
498.181	2149.56
498.398	2209.56
498.615	2324.56
498.832	2447.56
499.049	2591.56
499.267	2746.56
499.484	2998.56
499.701	3304.56
499.918	3526.56
500.135	3822.56
500.352	4205.56
500.569	4349.56
500.786	4318.56
501.003	4139.56
501.22	3829.56
501.437	3440.56
501.654	3114.56
501.871	2888.56
502.088	2712.56
502.305	2564.56
502.522	2456.56
502.739	2344.56
502.956	2248.56
503.172	2166.56
503.389	2067.56
503.606	2050.56
503.823	1968.56
504.04	2002.56
504.256	1981.56
504.473	1952.56
504.69	1993.56
504.907	1938.56
505.123	1888.56
505.34	1821.56
505.557	1720.56
505.773	1702.56
505.99	1665.56
506.207	1638.56
506.423	1585.56
506.64	1561.56
506.856	1534.56
507.073	1532.56
507.289	1530.56
507.506	1502.56
507.722	1510.56
507.939	1495.56
508.155	1461.56
508.372	1467.56
508.588	1444.56
508.805	1447.56
509.021	1454.56
509.238	1451.56
509.454	1418.56
509.67	1426.56
509.887	1402.56
510.103	1426.56
510.319	1379.56
510.536	1377.56
510.752	1360.56
510.968	1405.56
511.184	1386.56
511.401	1363.56
511.617	1368.56
511.833	1366.56
512.049	1372.56
512.265	1363.56
512.481	1361.56
512.698	1343.56
512.914	1369.56
513.13	1363.56
513.346	1317.56
513.562	1362.56
513.778	1370.56
513.994	1363.56
514.21	1405.56
514.426	1390.56
514.642	1365.56
514.858	1377.56
515.074	1400.56
515.29	1413.56
515.506	1437.56
515.721	1489.56
515.937	1476.56
516.153	1491.56
516.369	1554.56
516.585	1555.56
516.801	1603.56
517.016	1652.56
517.232	1723.56
517.448	1717.56
517.664	1781.56
517.879	1780.56
518.095	1771.56
518.311	1763.56
518.527	1698.56
518.742	1712.56
518.958	1627.56
519.173	1567.56
519.389	1504.56
519.605	1461.56
519.82	1450.56
520.036	1439.56
520.251	1405.56
520.467	1401.56
520.682	1355.56
520.898	1368.56
521.113	1355.56
521.329	1370.56
521.544	1310.56
521.76	1292.56
521.975	1304.56
522.19	1320.56
522.406	1283.56
522.621	1301.56
522.836	1291.56
523.052	1319.56
523.267	1289.56
523.482	1255.56
523.698	1221.56
523.913	1237.56
524.128	1256.56
524.343	1273.56
524.559	1244.56
524.774	1233.56
524.989	1214.56
525.204	1256.56
525.419	1248.56
525.634	1220.56
525.849	1250.56
526.064	1226.56
526.28	1201.56
526.495	1179.56
526.71	1218.56
526.925	1191.56
527.14	1200.56
527.355	1190.56
527.57	1185.56
527.785	1210.56
527.999	1211.56
528.214	1223.56
528.429	1203.56
528.644	1232.56
528.859	1177.56
529.074	1190.56
529.289	1247.56
529.503	1219.56
529.718	1202.56
529.933	1176.56
530.148	1174.56
530.363	1242.56
530.577	1194.56
530.792	1199.56
531.007	1182.56
531.221	1176.56
531.436	1187.56
531.651	1208.56
531.865	1195.56
532.08	1206.56
532.295	1175.56
532.509	1172.56
532.724	1174.56
532.938	1185.56
533.153	1208.56
533.367	1172.56
533.582	1196.56
533.796	1164.56
534.011	1175.56
534.225	1163.56
534.44	1178.56
534.654	1187.56
534.868	1143.56
535.083	1178.56
535.297	1154.56
535.511	1139.56
535.726	1162.56
535.94	1126.56
536.154	1136.56
536.369	1139.56
536.583	1121.56
536.797	1127.56
537.011	1100.56
537.225	1108.56
537.44	1087.56
537.654	1126.56
537.868	1089.56
538.082	1087.56
538.296	1093.56
538.51	1078.56
538.724	1098.56
538.938	1097.56
539.153	1100.56
539.367	1093.56
539.581	1078.56
539.795	1054.56
540.009	1096.56
540.222	1082.56
540.436	1059.56
540.65	1060.56
540.864	1051.56
541.078	1076.56
541.292	1085.56
541.506	1052.56
541.72	1062.56
541.934	1041.56
542.147	1066.56
542.361	1067.56
542.575	1040.56
542.789	1036.56
543.002	1048.56
543.216	1050.56
543.43	1054.56
543.644	1008.56
543.857	1028.56
544.071	1044.56
544.285	1054.56
544.498	1066.56
544.712	1050.56
544.925	1058.56
545.139	1090.56
545.352	1076.56
545.566	1044.56
545.779	1071.56
545.993	1067.56
546.206	1074.56
546.42	1066.56
546.633	1049.56
546.847	1089.56
547.06	1073.56
547.274	1092.56
547.487	1042.56
547.7	1067.56
547.914	1060.56
548.127	1086.56
548.34	1078.56
548.554	1046.56
548.767	1065.56
548.98	1092.56
549.193	1068.56
549.407	1080.56
549.62	1079.56
549.833	1104.56
550.046	1097.56
550.259	1083.56
550.473	1080.56
550.686	1073.56
550.899	1087.56
551.112	1064.56
551.325	1040.56
551.538	1050.56
551.751	1067.56
551.964	1064.56
552.177	1076.56
552.39	1060.56
552.603	1110.56
552.816	1148.56
553.029	1147.56
553.242	1143.56
553.455	1130.56
553.667	1138.56
553.88	1130.56
554.093	1082.56
554.306	1085.56
554.519	1063.56
554.732	1078.56
554.944	998.56
555.157	1030.56
555.37	1015.56
555.583	1002.56
555.795	988.56
556.008	967.56
556.221	976.56
556.433	931.56
556.646	946.56
556.859	942.56
557.071	912.56
557.284	909.56
557.496	912.56
557.709	934.56
557.921	912.56
558.134	884.56
558.346	892.56
558.559	886.56
558.771	919.56
558.984	918.56
559.196	914.56
559.409	885.56
559.621	883.56
559.833	891.56
560.046	867.56
560.258	894.56
560.47	896.56
560.683	868.56
560.895	886.56
561.107	865.56
561.32	861.56
561.532	867.56
561.744	905.56
561.956	888.56
562.168	900.56
562.381	870.56
562.593	887.56
562.805	904.56
563.017	873.56
563.229	878.56
563.441	908.56
563.653	904.56
563.865	915.56
564.077	888.56
564.289	919.56
564.501	905.56
564.713	947.56
564.925	961.56
565.137	984.56
565.349	962.56
565.561	1014.56
565.773	1031.56
565.985	1098.56
566.197	1146.56
566.408	1186.56
566.62	1269.56
566.832	1330.56
567.044	1361.56
567.255	1380.56
567.467	1406.56
567.679	1456.56
567.891	1513.56
568.102	1522.56
568.314	1442.56
568.526	1343.56
568.737	1236.56
568.949	1180.56
569.161	1127.56
569.372	1052.56
569.584	995.56
569.795	975.56
570.007	947.56
570.218	927.56
570.43	928.56
570.641	906.56
570.853	891.56
571.064	932.56
571.276	872.56
571.487	867.56
571.698	847.56
571.91	835.56
572.121	792.56
572.333	780.56
572.544	768.56
572.755	750.56
572.966	776.56
573.178	758.56
573.389	729.56
573.6	746.56
573.811	735.56
574.023	715.56
574.234	715.56
574.445	726.56
574.656	736.56
574.867	719.56
575.078	712.56
575.289	692.56
575.501	706.56
575.712	715.56
575.923	692.56
576.134	700.56
576.345	686.56
576.556	696.56
576.767	672.56
576.978	682.56
577.188	678.56
577.399	639.56
577.61	656.56
577.821	644.56
578.032	632.56
578.243	681.56
578.454	652.56
578.665	662.56
578.875	653.56
579.086	640.56
579.297	624.56
579.508	619.56
579.718	613.56
579.929	617.56
580.14	616.56
580.35	632.56
580.561	636.56
580.772	643.56
580.982	599.56
581.193	600.56
581.403	629.56
581.614	626.56
581.825	593.56
582.035	608.56
582.246	608.56
582.456	592.56
582.667	595.56
582.877	591.56
583.087	572.56
583.298	580.56
583.508	579.56
583.719	590.56
583.929	595.56
584.139	614.56
584.35	576.56
584.56	580.56
584.77	576.56
584.981	575.56
585.191	601.56
585.401	586.56
585.611	597.56
585.821	587.56
586.032	590.56
586.242	579.56
586.452	599.56
586.662	582.56
586.872	574.56
587.082	563.56
587.292	566.56
587.502	577.56
587.713	576.56
587.923	554.56
588.133	568.56
588.343	566.56
588.553	584.56
588.762	561.56
588.972	587.56
589.182	556.56
589.392	590.56
589.602	566.56
589.812	585.56
590.022	598.56
590.232	589.56
590.441	569.56
590.651	562.56
590.861	598.56
591.071	579.56
591.281	599.56
591.49	612.56
591.7	603.56
591.91	602.56
592.119	603.56
592.329	611.56
592.539	611.56
592.748	625.56
592.958	668.56
593.167	690.56
593.377	668.56
593.587	699.56
593.796	695.56
594.006	698.56
594.215	722.56
594.424	686.56
594.634	675.56
594.843	663.56
595.053	672.56
595.262	612.56
595.472	607.56
595.681	590.56
595.89	578.56
596.1	583.56
596.309	558.56
596.518	560.56
596.727	534.56
596.937	535.56
597.146	534.56
597.355	515.56
597.564	520.56
597.774	509.56
597.983	521.56
598.192	488.56
598.401	508.56
598.61	512.56
598.819	494.56
599.028	496.56
599.237	480.56
599.446	491.56
599.655	465.56
599.864	479.56
600.073	484.56
600.282	474.56
600.491	472.56
600.7	473.56
600.909	452.56
601.118	488.56
601.327	460.56
601.536	461.56
601.745	474.56
601.953	458.56
602.162	449.56
602.371	471.56
602.58	455.56
602.789	453.56
602.997	446.56
603.206	462.56
603.415	447.56
603.623	437.56
603.832	449.56
604.041	436.56
604.249	452.56
604.458	440.56
604.666	441.56
604.875	422.56
605.084	434.56
605.292	443.56
605.501	441.56
605.709	425.56
605.918	421.56
606.126	423.56
606.334	420.56
606.543	417.56
606.751	419.56
606.96	430.56
607.168	428.56
607.376	425.56
607.585	409.56
607.793	417.56
608.001	430.56
608.21	416.56
608.418	410.56
608.626	421.56
608.834	419.56
609.043	393.56
609.251	403.56
609.459	406.56
609.667	412.56
609.875	420.56
610.083	393.56
610.291	409.56
610.499	418.56
610.707	403.56
610.916	428.56
611.124	392.56
611.332	405.56
611.54	408.56
611.748	394.56
611.955	395.56
612.163	390.56
612.371	387.56
612.579	415.56
612.787	417.56
612.995	418.56
613.203	385.56
613.411	402.56
613.618	393.56
613.826	406.56
614.034	396.56
614.242	386.56
614.449	394.56
614.657	403.56
614.865	400.56
615.072	404.56
615.28	427.56
615.488	406.56
615.695	410.56
615.903	394.56
616.111	408.56
616.318	403.56
616.526	390.56
616.733	416.56
616.941	406.56
617.148	401.56
617.356	392.56
617.563	386.56
617.771	391.56
617.978	384.56
618.185	388.56
618.393	386.56
618.6	401.56
618.807	396.56
619.015	398.56
619.222	400.56
619.429	376.56
619.637	369.56
619.844	398.56
620.051	374.56
620.258	376.56
620.466	363.56
620.673	353.56
620.88	360.56
621.087	355.56
621.294	383.56
621.501	377.56
621.708	368.56
621.915	354.56
622.122	354.56
622.329	363.56
622.536	375.56
622.743	389.56
622.95	365.56
623.157	359.56
623.364	348.56
623.571	328.56
623.778	330.56
623.985	348.56
624.192	340.56
624.399	362.56
624.606	344.56
624.812	337.56
625.019	340.56
625.226	349.56
625.433	342.56
625.639	346.56
625.846	334.56
626.053	317.56
626.259	324.56
626.466	337.56
626.673	334.56
626.879	310.56
627.086	331.56
627.293	335.56
627.499	340.56
627.706	338.56
627.912	330.56
628.119	324.56
628.325	352.56
628.532	318.56
628.738	341.56
628.945	328.56
629.151	311.56
629.357	327.56
629.564	321.56
629.77	315.56
629.976	300.56
630.183	312.56
630.389	314.56
630.595	307.56
630.802	317.56
631.008	318.56
631.214	302.56
631.42	303.56
631.627	315.56
631.833	308.56
632.039	317.56
632.245	311.56
632.451	310.56
632.657	299.56
632.863	296.56
633.069	290.56
633.275	288.56
633.481	282.56
633.688	283.56
633.893	299.56
634.099	299.56
634.305	293.56
634.511	292.56
634.717	305.56
634.923	290.56
635.129	298.56
635.335	273.56
635.541	298.56
635.747	305.56
635.952	270.56
636.158	262.56
636.364	282.56
636.57	278.56
636.775	292.56
636.981	281.56
637.187	295.56
637.392	298.56
637.598	290.56
637.804	287.56
638.009	280.56
638.215	279.56
638.421	274.56
638.626	292.56
638.832	296.56
639.037	279.56
639.243	271.56
639.448	274.56
639.654	276.56
639.859	270.56
640.065	261.56
640.27	288.56
640.475	264.56
640.681	258.56
640.886	277.56
641.091	283.56
641.297	279.56
641.502	280.56
641.707	278.56
641.913	274.56
642.118	267.56
642.323	262.56
642.528	257.56
642.733	268.56
642.939	267.56
643.144	267.56
643.349	285.56
643.554	273.56
643.759	275.56
643.964	245.56
644.169	271.56
644.374	269.56
644.579	276.56
644.784	274.56
644.989	268.56
645.194	268.56
645.399	286.56
645.604	274.56
645.809	281.56
646.014	252.56
646.219	283.56
646.423	294.56
646.628	276.56
646.833	270.56
647.038	275.56
647.243	266.56
647.447	280.56
647.652	270.56
647.857	271.56
648.062	282.56
648.266	284.56
648.471	324.56
648.676	300.56
648.88	311.56
649.085	288.56
649.289	296.56
649.494	274.56
649.698	291.56
649.903	269.56
650.107	282.56
650.312	266.56
650.516	268.56
650.721	278.56
650.925	267.56
651.13	276.56
651.334	267.56
651.539	262.56
651.743	241.56
651.947	265.56
652.152	257.56
652.356	282.56
652.56	251.56
652.764	264.56
652.969	268.56
653.173	265.56
653.377	252.56
653.581	271.56
653.785	271.56
653.99	280.56
654.194	257.56
654.398	272.56
654.602	280.56
654.806	267.56
655.01	270.56
655.214	292.56
655.418	302.56
655.622	304.56
655.826	316.56
656.03	336.56
656.234	355.56
656.438	374.56
656.642	368.56
656.846	362.56
657.049	325.56
657.253	279.56
657.457	285.56
657.661	230.56
657.865	227.56
658.068	205.56
658.272	208.56
658.476	199.56
658.68	176.56
658.883	157.56
659.087	152.56
659.291	166.56
659.494	138.56
659.698	134.56
659.901	123.56
660.105	124.56
660.309	125.56
660.512	119.56
660.716	131.56
660.919	119.56
661.123	117.56
661.326	110.56
661.53	112.56
661.733	89.56
661.936	95.56
662.14	94.56
662.343	105.56
662.546	89.56
662.75	89.56
662.953	87.56
663.156	89.56
663.36	81.56
663.563	80.56
663.766	80.56
663.969	86.56
664.173	83.56
664.376	74.56
664.579	83.56
664.782	89.56
664.985	73.56
665.188	72.56
665.391	68.56
665.594	85.56
665.797	86.56
666	89.56
666.203	68.56
666.406	77.56
666.609	84.56
666.812	103.56
667.015	85.56
667.218	75.56
667.421	86.56
667.624	84.56
667.827	87.56
668.03	82.56
668.232	79.56
668.435	94.56
668.638	78.56
668.841	91.56
669.043	86.56
669.246	92.56
669.449	70.56
669.651	69.56
669.854	78.56
670.057	87.56
670.259	71.56
670.462	84.56
670.665	61.56
670.867	69.56
671.07	68.56
671.272	85.56
671.475	85.56
671.677	77.56
671.88	94.56
672.082	76.56
672.284	78.56
672.487	82.56
672.689	76.56
672.892	74.56
