Data from NiCl2@0.25M.TitratingCurve.Agarose3%dH2O.NegLispCup.LampEnergy10.LIBS07252019_HRD10591_18-23-51-572.txt Node
Date: Thu Jul 25 18:23:51 EDT 2019
User: cochatt
Spectrometer: HR+D1059
Trigger mode: 1
Integration Time (sec): 1.000000E-1
Scans to average: 1
Electric dark correction enabled: true
Nonlinearity correction enabled: false
Boxcar width: 0
XAxis mode: Wavelengths
Number of Pixels in Spectrum: 2048
>>>>>Begin Spectral Data<<<<<
223.165	-8.12
223.4	-8.12
223.635	-8.12
223.869	-22.12
224.104	-16.12
224.338	-16.12
224.573	-14.12
224.808	-16.12
225.042	-3.12
225.277	-7.12
225.511	-6.12
225.746	-7.12
225.98	3.88
226.215	10.88
226.449	19.88
226.683	16.88
226.918	35.88
227.152	28.88
227.387	40.88
227.621	38.88
227.856	40.88
228.09	44.88
228.324	54.88
228.559	61.88
228.793	44.88
229.027	92.88
229.262	102.88
229.496	111.88
229.73	99.88
229.964	111.88
230.199	115.88
230.433	105.88
230.667	118.88
230.901	120.88
231.136	126.88
231.37	134.88
231.604	124.88
231.838	118.88
232.072	141.88
232.306	129.88
232.541	134.88
232.775	141.88
233.009	125.88
233.243	137.88
233.477	140.88
233.711	129.88
233.945	133.88
234.179	123.88
234.413	123.88
234.647	134.88
234.881	136.88
235.115	133.88
235.349	137.88
235.583	157.88
235.817	149.88
236.051	135.88
236.285	140.88
236.519	151.88
236.753	148.88
236.987	135.88
237.221	139.88
237.455	139.88
237.689	148.88
237.922	161.88
238.156	142.88
238.39	148.88
238.624	151.88
238.858	156.88
239.091	171.88
239.325	168.88
239.559	146.88
239.793	175.88
240.027	149.88
240.26	157.88
240.494	155.88
240.728	161.88
240.961	157.88
241.195	165.88
241.429	171.88
241.662	177.88
241.896	179.88
242.13	165.88
242.363	154.88
242.597	166.88
242.83	163.88
243.064	172.88
243.298	170.88
243.531	171.88
243.765	183.88
243.998	192.88
244.232	181.88
244.465	196.88
244.699	182.88
244.932	182.88
245.166	188.88
245.399	188.88
245.633	192.88
245.866	195.88
246.099	201.88
246.333	191.88
246.566	192.88
246.8	192.88
247.033	211.88
247.266	199.88
247.5	197.88
247.733	207.88
247.966	195.88
248.2	221.88
248.433	198.88
248.666	209.88
248.899	219.88
249.133	228.88
249.366	218.88
249.599	231.88
249.832	220.88
250.066	204.88
250.299	211.88
250.532	216.88
250.765	231.88
250.998	229.88
251.231	227.88
251.465	243.88
251.698	235.88
251.931	242.88
252.164	222.88
252.397	232.88
252.63	236.88
252.863	219.88
253.096	250.88
253.329	243.88
253.562	228.88
253.795	239.88
254.028	243.88
254.261	238.88
254.494	226.88
254.727	236.88
254.96	244.88
255.193	238.88
255.426	252.88
255.659	248.88
255.892	259.88
256.124	255.88
256.357	248.88
256.59	249.88
256.823	247.88
257.056	276.88
257.289	248.88
257.521	260.88
257.754	275.88
257.987	267.88
258.22	261.88
258.452	262.88
258.685	266.88
258.918	263.88
259.151	268.88
259.383	262.88
259.616	281.88
259.849	266.88
260.081	266.88
260.314	274.88
260.547	278.88
260.779	296.88
261.012	287.88
261.244	292.88
261.477	287.88
261.71	279.88
261.942	288.88
262.175	273.88
262.407	279.88
262.64	289.88
262.872	283.88
263.105	277.88
263.337	272.88
263.57	280.88
263.802	297.88
264.035	284.88
264.267	285.88
264.499	296.88
264.732	290.88
264.964	303.88
265.197	298.88
265.429	285.88
265.661	302.88
265.894	298.88
266.126	303.88
266.358	317.88
266.591	314.88
266.823	313.88
267.055	307.88
267.287	329.88
267.52	278.88
267.752	327.88
267.984	315.88
268.216	316.88
268.448	311.88
268.681	346.88
268.913	337.88
269.145	309.88
269.377	306.88
269.609	333.88
269.841	334.88
270.073	330.88
270.306	328.88
270.538	319.88
270.77	310.88
271.002	305.88
271.234	333.88
271.466	338.88
271.698	355.88
271.93	325.88
272.162	339.88
272.394	339.88
272.626	335.88
272.858	343.88
273.09	345.88
273.322	354.88
273.553	344.88
273.785	354.88
274.017	360.88
274.249	342.88
274.481	353.88
274.713	344.88
274.945	371.88
275.176	332.88
275.408	355.88
275.64	368.88
275.872	353.88
276.104	374.88
276.335	370.88
276.567	347.88
276.799	371.88
277.031	369.88
277.262	364.88
277.494	369.88
277.726	356.88
277.957	377.88
278.189	368.88
278.421	364.88
278.652	372.88
278.884	363.88
279.115	375.88
279.347	386.88
279.579	379.88
279.81	377.88
280.042	377.88
280.273	387.88
280.505	412.88
280.736	380.88
280.968	396.88
281.199	377.88
281.431	389.88
281.662	395.88
281.894	404.88
282.125	385.88
282.356	408.88
282.588	422.88
282.819	400.88
283.051	394.88
283.282	420.88
283.513	410.88
283.745	411.88
283.976	390.88
284.207	396.88
284.439	424.88
284.67	410.88
284.901	415.88
285.132	433.88
285.364	426.88
285.595	412.88
285.826	414.88
286.057	433.88
286.288	425.88
286.52	434.88
286.751	427.88
286.982	435.88
287.213	428.88
287.444	446.88
287.675	430.88
287.906	436.88
288.138	445.88
288.369	469.88
288.6	451.88
288.831	436.88
289.062	464.88
289.293	441.88
289.524	453.88
289.755	454.88
289.986	443.88
290.217	443.88
290.448	439.88
290.679	459.88
290.91	438.88
291.141	445.88
291.371	453.88
291.602	451.88
291.833	440.88
292.064	443.88
292.295	444.88
292.526	438.88
292.757	464.88
292.987	440.88
293.218	449.88
293.449	468.88
293.68	464.88
293.91	434.88
294.141	463.88
294.372	458.88
294.603	454.88
294.833	454.88
295.064	472.88
295.295	433.88
295.525	456.88
295.756	448.88
295.987	464.88
296.217	492.88
296.448	454.88
296.679	467.88
296.909	451.88
297.14	461.88
297.37	478.88
297.601	460.88
297.831	458.88
298.062	491.88
298.292	483.88
298.523	503.88
298.753	502.88
298.984	504.88
299.214	499.88
299.445	487.88
299.675	492.88
299.905	489.88
300.136	490.88
300.366	492.88
300.597	500.88
300.827	521.88
301.057	517.88
301.288	536.88
301.518	532.88
301.748	540.88
301.979	533.88
302.209	529.88
302.439	533.88
302.669	529.88
302.9	531.88
303.13	504.88
303.36	511.88
303.59	510.88
303.82	498.88
304.051	492.88
304.281	490.88
304.511	523.88
304.741	519.88
304.971	536.88
305.201	532.88
305.431	506.88
305.661	517.88
305.891	514.88
306.121	489.88
306.352	505.88
306.582	516.88
306.812	500.88
307.042	525.88
307.272	532.88
307.502	507.88
307.731	528.88
307.961	525.88
308.191	504.88
308.421	499.88
308.651	526.88
308.881	513.88
309.111	528.88
309.341	495.88
309.571	481.88
309.8	513.88
310.03	491.88
310.26	515.88
310.49	517.88
310.72	519.88
310.949	499.88
311.179	507.88
311.409	492.88
311.639	516.88
311.868	554.88
312.098	544.88
312.328	520.88
312.557	552.88
312.787	543.88
313.017	532.88
313.246	546.88
313.476	539.88
313.706	550.88
313.935	561.88
314.165	536.88
314.394	544.88
314.624	532.88
314.853	571.88
315.083	521.88
315.312	563.88
315.542	555.88
315.771	555.88
316.001	538.88
316.23	536.88
316.46	519.88
316.689	535.88
316.919	551.88
317.148	523.88
317.377	538.88
317.607	538.88
317.836	525.88
318.065	543.88
318.295	519.88
318.524	517.88
318.753	528.88
318.983	538.88
319.212	532.88
319.441	539.88
319.67	533.88
319.9	547.88
320.129	511.88
320.358	510.88
320.587	525.88
320.816	543.88
321.046	545.88
321.275	536.88
321.504	557.88
321.733	535.88
321.962	520.88
322.191	553.88
322.42	549.88
322.649	535.88
322.878	546.88
323.108	537.88
323.337	546.88
323.566	543.88
323.795	549.88
324.024	547.88
324.253	566.88
324.482	553.88
324.71	554.88
324.939	566.88
325.168	571.88
325.397	555.88
325.626	563.88
325.855	598.88
326.084	569.88
326.313	573.88
326.542	603.88
326.77	607.88
326.999	589.88
327.228	570.88
327.457	595.88
327.686	595.88
327.914	567.88
328.143	591.88
328.372	594.88
328.6	596.88
328.829	592.88
329.058	592.88
329.287	595.88
329.515	600.88
329.744	608.88
329.972	601.88
330.201	604.88
330.43	585.88
330.658	604.88
330.887	637.88
331.115	618.88
331.344	632.88
331.572	645.88
331.801	649.88
332.03	646.88
332.258	659.88
332.486	677.88
332.715	742.88
332.943	759.88
333.172	776.88
333.4	792.88
333.629	821.88
333.857	797.88
334.085	812.88
334.314	811.88
334.542	777.88
334.771	743.88
334.999	769.88
335.227	749.88
335.455	740.88
335.684	741.88
335.912	735.88
336.14	711.88
336.369	747.88
336.597	706.88
336.825	715.88
337.053	705.88
337.281	693.88
337.51	672.88
337.738	681.88
337.966	673.88
338.194	688.88
338.422	678.88
338.65	651.88
338.878	645.88
339.106	652.88
339.334	652.88
339.562	652.88
339.79	632.88
340.018	641.88
340.246	635.88
340.474	611.88
340.702	613.88
340.93	609.88
341.158	649.88
341.386	632.88
341.614	635.88
341.842	613.88
342.07	641.88
342.298	615.88
342.526	608.88
342.754	615.88
342.981	611.88
343.209	634.88
343.437	687.88
343.665	715.88
343.893	764.88
344.12	761.88
344.348	735.88
344.576	693.88
344.804	662.88
345.031	648.88
345.259	616.88
345.487	635.88
345.714	615.88
345.942	620.88
346.17	603.88
346.397	592.88
346.625	588.88
346.853	609.88
347.08	619.88
347.308	637.88
347.535	625.88
347.763	598.88
347.99	617.88
348.218	625.88
348.445	597.88
348.673	597.88
348.9	596.88
349.128	573.88
349.355	586.88
349.583	590.88
349.81	579.88
350.037	563.88
350.265	592.88
350.492	577.88
350.72	577.88
350.947	580.88
351.174	575.88
351.402	574.88
351.629	588.88
351.856	576.88
352.083	580.88
352.311	572.88
352.538	564.88
352.765	575.88
352.992	567.88
353.22	593.88
353.447	571.88
353.674	545.88
353.901	577.88
354.128	584.88
354.355	568.88
354.583	569.88
354.81	578.88
355.037	567.88
355.264	565.88
355.491	569.88
355.718	583.88
355.945	564.88
356.172	570.88
356.399	584.88
356.626	575.88
356.853	580.88
357.08	573.88
357.307	570.88
357.534	589.88
357.761	584.88
357.988	598.88
358.215	579.88
358.441	586.88
358.668	584.88
358.895	588.88
359.122	580.88
359.349	567.88
359.576	600.88
359.802	601.88
360.029	566.88
360.256	580.88
360.483	581.88
360.709	571.88
360.936	580.88
361.163	585.88
361.39	611.88
361.616	567.88
361.843	602.88
362.07	590.88
362.296	606.88
362.523	581.88
362.749	567.88
362.976	587.88
363.203	584.88
363.429	581.88
363.656	561.88
363.882	595.88
364.109	584.88
364.335	596.88
364.562	575.88
364.788	541.88
365.015	583.88
365.241	557.88
365.468	577.88
365.694	571.88
365.92	561.88
366.147	563.88
366.373	579.88
366.599	593.88
366.826	589.88
367.052	567.88
367.278	577.88
367.505	578.88
367.731	592.88
367.957	610.88
368.184	601.88
368.41	596.88
368.636	618.88
368.862	604.88
369.089	576.88
369.315	609.88
369.541	623.88
369.767	610.88
369.993	619.88
370.219	614.88
370.445	615.88
370.672	627.88
370.898	615.88
371.124	627.88
371.35	635.88
371.576	643.88
371.802	641.88
372.028	628.88
372.254	641.88
372.48	660.88
372.706	658.88
372.932	644.88
373.158	632.88
373.384	641.88
373.61	619.88
373.835	645.88
374.061	612.88
374.287	642.88
374.513	648.88
374.739	663.88
374.965	687.88
375.191	696.88
375.416	693.88
375.642	660.88
375.868	665.88
376.094	661.88
376.319	635.88
376.545	636.88
376.771	655.88
376.997	642.88
377.222	659.88
377.448	624.88
377.674	629.88
377.899	656.88
378.125	611.88
378.35	633.88
378.576	631.88
378.802	606.88
379.027	631.88
379.253	618.88
379.478	633.88
379.704	633.88
379.929	625.88
380.155	615.88
380.38	624.88
380.606	636.88
380.831	621.88
381.057	625.88
381.282	627.88
381.507	616.88
381.733	631.88
381.958	657.88
382.184	665.88
382.409	633.88
382.634	663.88
382.86	649.88
383.085	659.88
383.31	707.88
383.535	712.88
383.761	696.88
383.986	716.88
384.211	740.88
384.436	737.88
384.662	737.88
384.887	786.88
385.112	742.88
385.337	787.88
385.562	746.88
385.787	779.88
386.013	790.88
386.238	788.88
386.463	757.88
386.688	769.88
386.913	738.88
387.138	757.88
387.363	735.88
387.588	765.88
387.813	754.88
388.038	745.88
388.263	744.88
388.488	741.88
388.713	771.88
388.938	788.88
389.163	787.88
389.387	755.88
389.612	758.88
389.837	733.88
390.062	741.88
390.287	754.88
390.512	717.88
390.736	742.88
390.961	764.88
391.186	761.88
391.411	807.88
391.636	833.88
391.86	867.88
392.085	877.88
392.31	863.88
392.534	837.88
392.759	845.88
392.984	819.88
393.208	803.88
393.433	810.88
393.658	816.88
393.882	824.88
394.107	812.88
394.331	815.88
394.556	808.88
394.78	834.88
395.005	817.88
395.229	807.88
395.454	857.88
395.678	854.88
395.903	849.88
396.127	843.88
396.352	839.88
396.576	805.88
396.801	811.88
397.025	805.88
397.249	829.88
397.474	865.88
397.698	852.88
397.922	867.88
398.147	888.88
398.371	913.88
398.595	915.88
398.82	956.88
399.044	1027.88
399.268	1119.88
399.492	1311.88
399.717	1507.88
399.941	1474.88
400.165	1317.88
400.389	1169.88
400.613	1060.88
400.837	1009.88
401.062	980.88
401.286	959.88
401.51	948.88
401.734	981.88
401.958	964.88
402.182	991.88
402.406	988.88
402.63	993.88
402.854	1057.88
403.078	1067.88
403.302	1089.88
403.526	1101.88
403.75	1109.88
403.974	1132.88
404.198	1142.88
404.422	1145.88
404.645	1111.88
404.869	1116.88
405.093	1101.88
405.317	1062.88
405.541	1023.88
405.765	1049.88
405.988	1057.88
406.212	1043.88
406.436	1061.88
406.66	1089.88
406.883	1079.88
407.107	1171.88
407.331	1187.88
407.555	1234.88
407.778	1250.88
408.002	1201.88
408.226	1188.88
408.449	1159.88
408.673	1114.88
408.896	1091.88
409.12	1079.88
409.344	1123.88
409.567	1055.88
409.791	1097.88
410.014	1100.88
410.238	1064.88
410.461	1061.88
410.685	1034.88
410.908	1016.88
411.132	1024.88
411.355	991.88
411.578	1011.88
411.802	1001.88
412.025	1033.88
412.249	985.88
412.472	1012.88
412.695	1007.88
412.919	957.88
413.142	991.88
413.365	993.88
413.589	1000.88
413.812	956.88
414.035	946.88
414.258	952.88
414.482	951.88
414.705	988.88
414.928	986.88
415.151	993.88
415.374	967.88
415.597	957.88
415.821	936.88
416.044	967.88
416.267	913.88
416.49	943.88
416.713	929.88
416.936	930.88
417.159	945.88
417.382	968.88
417.605	935.88
417.828	925.88
418.051	938.88
418.274	968.88
418.497	965.88
418.72	994.88
418.943	992.88
419.166	1019.88
419.389	1089.88
419.611	1094.88
419.834	1026.88
420.057	997.88
420.28	969.88
420.503	959.88
420.726	929.88
420.948	904.88
421.171	959.88
421.394	945.88
421.617	925.88
421.839	937.88
422.062	959.88
422.285	924.88
422.507	966.88
422.73	990.88
422.953	1002.88
423.175	972.88
423.398	1010.88
423.621	1016.88
423.843	1029.88
424.066	1021.88
424.288	1018.88
424.511	1017.88
424.733	1010.88
424.956	974.88
425.178	961.88
425.401	953.88
425.623	952.88
425.846	902.88
426.068	928.88
426.291	902.88
426.513	905.88
426.735	884.88
426.958	863.88
427.18	863.88
427.402	848.88
427.625	850.88
427.847	842.88
428.069	821.88
428.292	834.88
428.514	833.88
428.736	834.88
428.958	852.88
429.181	812.88
429.403	793.88
429.625	829.88
429.847	828.88
430.069	799.88
430.292	810.88
430.514	824.88
430.736	824.88
430.958	831.88
431.18	802.88
431.402	824.88
431.624	847.88
431.846	861.88
432.068	858.88
432.29	879.88
432.512	823.88
432.734	851.88
432.956	832.88
433.178	847.88
433.4	839.88
433.622	843.88
433.844	849.88
434.066	879.88
434.287	856.88
434.509	876.88
434.731	937.88
434.953	930.88
435.175	952.88
435.397	947.88
435.618	872.88
435.84	881.88
436.062	833.88
436.284	823.88
436.505	833.88
436.727	832.88
436.949	834.88
437.17	831.88
437.392	838.88
437.614	812.88
437.835	812.88
438.057	820.88
438.278	787.88
438.5	807.88
438.721	810.88
438.943	833.88
439.165	806.88
439.386	842.88
439.608	822.88
439.829	823.88
440.05	815.88
440.272	841.88
440.493	837.88
440.715	861.88
440.936	864.88
441.158	885.88
441.379	911.88
441.6	950.88
441.822	943.88
442.043	956.88
442.264	920.88
442.486	918.88
442.707	896.88
442.928	927.88
443.149	923.88
443.371	915.88
443.592	946.88
443.813	939.88
444.034	923.88
444.255	950.88
444.476	1015.88
444.698	1091.88
444.919	1144.88
445.14	1201.88
445.361	1041.88
445.582	977.88
445.803	947.88
446.024	879.88
446.245	898.88
446.466	873.88
446.687	837.88
446.908	854.88
447.129	796.88
447.35	805.88
447.571	813.88
447.792	787.88
448.013	805.88
448.234	790.88
448.455	765.88
448.675	779.88
448.896	794.88
449.117	777.88
449.338	755.88
449.559	746.88
449.779	739.88
450	756.88
450.221	755.88
450.442	783.88
450.662	764.88
450.883	780.88
451.104	778.88
451.324	784.88
451.545	745.88
451.766	783.88
451.986	771.88
452.207	772.88
452.428	755.88
452.648	789.88
452.869	767.88
453.089	727.88
453.31	757.88
453.53	745.88
453.751	719.88
453.971	741.88
454.192	730.88
454.412	735.88
454.633	729.88
454.853	711.88
455.073	709.88
455.294	721.88
455.514	706.88
455.734	712.88
455.955	712.88
456.175	707.88
456.395	693.88
456.616	709.88
456.836	720.88
457.056	707.88
457.276	706.88
457.497	703.88
457.717	716.88
457.937	745.88
458.157	740.88
458.377	753.88
458.598	735.88
458.818	778.88
459.038	781.88
459.258	807.88
459.478	852.88
459.698	872.88
459.918	892.88
460.138	937.88
460.358	989.88
460.578	1000.88
460.798	1013.88
461.018	988.88
461.238	995.88
461.458	981.88
461.678	963.88
461.898	993.88
462.118	1005.88
462.338	1079.88
462.558	1090.88
462.777	1144.88
462.997	1226.88
463.217	1329.88
463.437	1343.88
463.657	1227.88
463.876	1144.88
464.096	1153.88
464.316	1173.88
464.536	1216.88
464.755	1135.88
464.975	1062.88
465.195	1022.88
465.414	976.88
465.634	902.88
465.854	860.88
466.073	865.88
466.293	840.88
466.512	804.88
466.732	796.88
466.951	807.88
467.171	814.88
467.391	812.88
467.61	829.88
467.829	794.88
468.049	804.88
468.268	783.88
468.488	787.88
468.707	760.88
468.927	763.88
469.146	754.88
469.365	771.88
469.585	774.88
469.804	788.88
470.023	825.88
470.243	814.88
470.462	837.88
470.681	841.88
470.901	851.88
471.12	831.88
471.339	796.88
471.558	764.88
471.777	774.88
471.997	777.88
472.216	765.88
472.435	786.88
472.654	767.88
472.873	760.88
473.092	751.88
473.311	738.88
473.53	752.88
473.749	752.88
473.968	730.88
474.187	740.88
474.406	754.88
474.625	773.88
474.844	724.88
475.063	753.88
475.282	751.88
475.501	769.88
475.72	764.88
475.939	774.88
476.158	795.88
476.377	787.88
476.596	806.88
476.814	757.88
477.033	813.88
477.252	809.88
477.471	836.88
477.69	841.88
477.908	882.88
478.127	870.88
478.346	899.88
478.564	892.88
478.783	931.88
479.002	946.88
479.22	941.88
479.439	930.88
479.658	939.88
479.876	906.88
480.095	930.88
480.313	965.88
480.532	1037.88
480.751	993.88
480.969	973.88
481.188	903.88
481.406	913.88
481.624	865.88
481.843	868.88
482.061	826.88
482.28	866.88
482.498	858.88
482.717	822.88
482.935	844.88
483.153	864.88
483.372	872.88
483.59	890.88
483.808	850.88
484.027	858.88
484.245	881.88
484.463	855.88
484.681	884.88
484.9	923.88
485.118	902.88
485.336	888.88
485.554	868.88
485.772	905.88
485.99	893.88
486.209	904.88
486.427	919.88
486.645	879.88
486.863	908.88
487.081	882.88
487.299	875.88
487.517	899.88
487.735	890.88
487.953	911.88
488.171	889.88
488.389	879.88
488.607	875.88
488.825	865.88
489.043	859.88
489.261	883.88
489.479	885.88
489.696	900.88
489.914	899.88
490.132	873.88
490.35	895.88
490.568	913.88
490.786	923.88
491.003	908.88
491.221	904.88
491.439	926.88
491.657	881.88
491.874	900.88
492.092	919.88
492.31	907.88
492.527	931.88
492.745	919.88
492.963	916.88
493.18	940.88
493.398	941.88
493.615	943.88
493.833	951.88
494.05	972.88
494.268	968.88
494.485	934.88
494.703	989.88
494.92	982.88
495.138	954.88
495.355	959.88
495.573	952.88
495.79	981.88
496.008	961.88
496.225	970.88
496.442	1001.88
496.66	989.88
496.877	1005.88
497.094	1016.88
497.312	1055.88
497.529	1089.88
497.746	1083.88
497.963	1110.88
498.181	1155.88
498.398	1226.88
498.615	1283.88
498.832	1392.88
499.049	1504.88
499.267	1631.88
499.484	1783.88
499.701	2002.88
499.918	2189.88
500.135	2504.88
500.352	2927.88
500.569	2995.88
500.786	2956.88
501.003	2719.88
501.22	2465.88
501.437	2152.88
501.654	1879.88
501.871	1711.88
502.088	1564.88
502.305	1472.88
502.522	1386.88
502.739	1317.88
502.956	1277.88
503.172	1194.88
503.389	1148.88
503.606	1116.88
503.823	1085.88
504.04	1097.88
504.256	1095.88
504.473	1119.88
504.69	1148.88
504.907	1159.88
505.123	1059.88
505.34	996.88
505.557	976.88
505.773	952.88
505.99	921.88
506.207	883.88
506.423	877.88
506.64	869.88
506.856	860.88
507.073	835.88
507.289	863.88
507.506	857.88
507.722	837.88
507.939	836.88
508.155	844.88
508.372	809.88
508.588	824.88
508.805	826.88
509.021	790.88
509.238	789.88
509.454	797.88
509.67	774.88
509.887	787.88
510.103	789.88
510.319	766.88
510.536	777.88
510.752	760.88
510.968	770.88
511.184	773.88
511.401	745.88
511.617	785.88
511.833	785.88
512.049	758.88
512.265	781.88
512.481	763.88
512.698	779.88
512.914	781.88
513.13	781.88
513.346	760.88
513.562	744.88
513.778	775.88
513.994	764.88
514.21	781.88
514.426	781.88
514.642	757.88
514.858	768.88
515.074	803.88
515.29	798.88
515.506	810.88
515.721	823.88
515.937	843.88
516.153	838.88
516.369	881.88
516.585	897.88
516.801	939.88
517.016	1001.88
517.232	1025.88
517.448	1077.88
517.664	1093.88
517.879	1097.88
518.095	1051.88
518.311	1090.88
518.527	982.88
518.742	969.88
518.958	930.88
519.173	919.88
519.389	872.88
519.605	860.88
519.82	832.88
520.036	833.88
520.251	803.88
520.467	801.88
520.682	791.88
520.898	776.88
521.113	760.88
521.329	758.88
521.544	740.88
521.76	731.88
521.975	761.88
522.19	737.88
522.406	728.88
522.621	717.88
522.836	730.88
523.052	731.88
523.267	728.88
523.482	711.88
523.698	720.88
523.913	707.88
524.128	715.88
524.343	716.88
524.559	689.88
524.774	717.88
524.989	724.88
525.204	722.88
525.419	700.88
525.634	710.88
525.849	709.88
526.064	704.88
526.28	703.88
526.495	681.88
526.71	703.88
526.925	683.88
527.14	693.88
527.355	681.88
527.57	691.88
527.785	687.88
527.999	717.88
528.214	708.88
528.429	704.88
528.644	699.88
528.859	681.88
529.074	689.88
529.289	691.88
529.503	718.88
529.718	697.88
529.933	689.88
530.148	682.88
530.363	681.88
530.577	656.88
530.792	689.88
531.007	657.88
531.221	706.88
531.436	671.88
531.651	692.88
531.865	695.88
532.08	669.88
532.295	672.88
532.509	684.88
532.724	699.88
532.938	696.88
533.153	681.88
533.367	694.88
533.582	683.88
533.796	671.88
534.011	678.88
534.225	688.88
534.44	705.88
534.654	654.88
534.868	685.88
535.083	679.88
535.297	671.88
535.511	675.88
535.726	628.88
535.94	665.88
536.154	672.88
536.369	678.88
536.583	664.88
536.797	660.88
537.011	666.88
537.225	638.88
537.44	645.88
537.654	658.88
537.868	641.88
538.082	608.88
538.296	613.88
538.51	616.88
538.724	645.88
538.938	633.88
539.153	640.88
539.367	615.88
539.581	628.88
539.795	638.88
540.009	623.88
540.222	633.88
540.436	625.88
540.65	628.88
540.864	624.88
541.078	629.88
541.292	619.88
541.506	618.88
541.72	617.88
541.934	653.88
542.147	619.88
542.361	623.88
542.575	612.88
542.789	598.88
543.002	606.88
543.216	604.88
543.43	615.88
543.644	608.88
543.857	626.88
544.071	623.88
544.285	642.88
544.498	628.88
544.712	627.88
544.925	643.88
545.139	658.88
545.352	634.88
545.566	639.88
545.779	645.88
545.993	669.88
546.206	641.88
546.42	641.88
546.633	645.88
546.847	637.88
547.06	642.88
547.274	650.88
547.487	633.88
547.7	617.88
547.914	667.88
548.127	618.88
548.34	644.88
548.554	618.88
548.767	620.88
548.98	641.88
549.193	630.88
549.407	671.88
549.62	653.88
549.833	673.88
550.046	648.88
550.259	661.88
550.473	647.88
550.686	633.88
550.899	623.88
551.112	616.88
551.325	598.88
551.538	625.88
551.751	615.88
551.964	607.88
552.177	649.88
552.39	644.88
552.603	671.88
552.816	652.88
553.029	693.88
553.242	723.88
553.455	719.88
553.667	720.88
553.88	701.88
554.093	697.88
554.306	663.88
554.519	626.88
554.732	641.88
554.944	628.88
555.157	635.88
555.37	626.88
555.583	593.88
555.795	590.88
556.008	581.88
556.221	570.88
556.433	562.88
556.646	565.88
556.859	584.88
557.071	571.88
557.284	553.88
557.496	547.88
557.709	532.88
557.921	550.88
558.134	552.88
558.346	542.88
558.559	521.88
558.771	517.88
558.984	542.88
559.196	524.88
559.409	548.88
559.621	517.88
559.833	525.88
560.046	524.88
560.258	523.88
560.47	517.88
560.683	516.88
560.895	539.88
561.107	521.88
561.32	536.88
561.532	530.88
561.744	533.88
561.956	539.88
562.168	530.88
562.381	507.88
562.593	524.88
562.805	545.88
563.017	537.88
563.229	525.88
563.441	545.88
563.653	540.88
563.865	550.88
564.077	543.88
564.289	537.88
564.501	557.88
564.713	557.88
564.925	576.88
565.137	578.88
565.349	586.88
565.561	618.88
565.773	643.88
565.985	670.88
566.197	674.88
566.408	735.88
566.62	789.88
566.832	869.88
567.044	876.88
567.255	866.88
567.467	905.88
567.679	957.88
567.891	1036.88
568.102	1063.88
568.314	1000.88
568.526	871.88
568.737	798.88
568.949	751.88
569.161	693.88
569.372	632.88
569.584	588.88
569.795	579.88
570.007	553.88
570.218	538.88
570.43	551.88
570.641	540.88
570.853	538.88
571.064	557.88
571.276	549.88
571.487	523.88
571.698	503.88
571.91	497.88
572.121	501.88
572.333	469.88
572.544	460.88
572.755	447.88
572.966	451.88
573.178	437.88
573.389	450.88
573.6	435.88
573.811	439.88
574.023	435.88
574.234	441.88
574.445	419.88
574.656	431.88
574.867	452.88
575.078	429.88
575.289	417.88
575.501	432.88
575.712	388.88
575.923	432.88
576.134	418.88
576.345	405.88
576.556	414.88
576.767	419.88
576.978	428.88
577.188	411.88
577.399	409.88
577.61	398.88
577.821	401.88
578.032	395.88
578.243	418.88
578.454	382.88
578.665	378.88
578.875	383.88
579.086	391.88
579.297	375.88
579.508	383.88
579.718	381.88
579.929	351.88
580.14	367.88
580.35	377.88
580.561	398.88
580.772	380.88
580.982	360.88
581.193	367.88
581.403	372.88
581.614	372.88
581.825	361.88
582.035	383.88
582.246	379.88
582.456	376.88
582.667	368.88
582.877	364.88
583.087	359.88
583.298	360.88
583.508	357.88
583.719	358.88
583.929	370.88
584.139	351.88
584.35	350.88
584.56	361.88
584.77	368.88
584.981	364.88
585.191	355.88
585.401	353.88
585.611	350.88
585.821	347.88
586.032	351.88
586.242	338.88
586.452	349.88
586.662	334.88
586.872	362.88
587.082	333.88
587.292	340.88
587.502	342.88
587.713	335.88
587.923	319.88
588.133	349.88
588.343	346.88
588.553	339.88
588.762	355.88
588.972	345.88
589.182	341.88
589.392	352.88
589.602	344.88
589.812	341.88
590.022	368.88
590.232	351.88
590.441	338.88
590.651	356.88
590.861	359.88
591.071	348.88
591.281	354.88
591.49	367.88
591.7	369.88
591.91	381.88
592.119	369.88
592.329	394.88
592.539	418.88
592.748	412.88
592.958	424.88
593.167	437.88
593.377	429.88
593.587	448.88
593.796	455.88
594.006	447.88
594.215	448.88
594.424	461.88
594.634	447.88
594.843	420.88
595.053	406.88
595.262	389.88
595.472	379.88
595.681	381.88
595.89	342.88
596.1	352.88
596.309	349.88
596.518	346.88
596.727	348.88
596.937	337.88
597.146	342.88
597.355	323.88
597.564	320.88
597.774	315.88
597.983	325.88
598.192	306.88
598.401	314.88
598.61	296.88
598.819	311.88
599.028	296.88
599.237	300.88
599.446	301.88
599.655	298.88
599.864	304.88
600.073	299.88
600.282	298.88
600.491	305.88
600.7	296.88
600.909	289.88
601.118	292.88
601.327	281.88
601.536	295.88
601.745	284.88
601.953	283.88
602.162	301.88
602.371	296.88
602.58	290.88
602.789	292.88
602.997	306.88
603.206	288.88
603.415	277.88
603.623	274.88
603.832	292.88
604.041	280.88
604.249	265.88
604.458	268.88
604.666	279.88
604.875	265.88
605.084	277.88
605.292	272.88
605.501	265.88
605.709	258.88
605.918	276.88
606.126	267.88
606.334	277.88
606.543	298.88
606.751	264.88
606.96	291.88
607.168	276.88
607.376	279.88
607.585	259.88
607.793	267.88
608.001	238.88
608.21	271.88
608.418	248.88
608.626	257.88
608.834	242.88
609.043	265.88
609.251	272.88
609.459	259.88
609.667	267.88
609.875	262.88
610.083	253.88
610.291	251.88
610.499	255.88
610.707	261.88
610.916	267.88
611.124	257.88
611.332	264.88
611.54	279.88
611.748	231.88
611.955	277.88
612.163	249.88
612.371	258.88
612.579	255.88
612.787	269.88
612.995	251.88
613.203	260.88
613.411	264.88
613.618	248.88
613.826	259.88
614.034	259.88
614.242	250.88
614.449	269.88
614.657	265.88
614.865	249.88
615.072	245.88
615.28	241.88
615.488	240.88
615.695	249.88
615.903	261.88
616.111	255.88
616.318	264.88
616.526	259.88
616.733	267.88
616.941	278.88
617.148	259.88
617.356	263.88
617.563	270.88
617.771	257.88
617.978	256.88
618.185	251.88
618.393	258.88
618.6	264.88
618.807	263.88
619.015	265.88
619.222	248.88
619.429	255.88
619.637	260.88
619.844	239.88
620.051	240.88
620.258	229.88
620.466	234.88
620.673	230.88
620.88	231.88
621.087	227.88
621.294	222.88
621.501	241.88
621.708	225.88
621.915	249.88
622.122	234.88
622.329	259.88
622.536	250.88
622.743	228.88
622.95	227.88
623.157	203.88
623.364	219.88
623.571	243.88
623.778	235.88
623.985	233.88
624.192	218.88
624.399	229.88
624.606	221.88
624.812	224.88
625.019	227.88
625.226	220.88
625.433	219.88
625.639	209.88
625.846	225.88
626.053	235.88
626.259	224.88
626.466	224.88
626.673	211.88
626.879	206.88
627.086	231.88
627.293	213.88
627.499	225.88
627.706	210.88
627.912	203.88
628.119	209.88
628.325	206.88
628.532	202.88
628.738	215.88
628.945	224.88
629.151	213.88
629.357	214.88
629.564	203.88
629.77	230.88
629.976	203.88
630.183	200.88
630.389	203.88
630.595	203.88
630.802	191.88
631.008	199.88
631.214	206.88
631.42	211.88
631.627	208.88
631.833	194.88
632.039	195.88
632.245	206.88
632.451	205.88
632.657	189.88
632.863	195.88
633.069	205.88
633.275	207.88
633.481	191.88
633.688	203.88
633.893	184.88
634.099	205.88
634.305	202.88
634.511	192.88
634.717	195.88
634.923	185.88
635.129	186.88
635.335	201.88
635.541	192.88
635.747	191.88
635.952	180.88
636.158	174.88
636.364	195.88
636.57	189.88
636.775	188.88
636.981	193.88
637.187	202.88
637.392	191.88
637.598	182.88
637.804	194.88
638.009	179.88
638.215	201.88
638.421	187.88
638.626	189.88
638.832	182.88
639.037	181.88
639.243	185.88
639.448	185.88
639.654	177.88
639.859	160.88
640.065	175.88
640.27	179.88
640.475	191.88
640.681	169.88
640.886	196.88
641.091	171.88
641.297	186.88
641.502	171.88
641.707	199.88
641.913	197.88
642.118	182.88
642.323	183.88
642.528	180.88
642.733	191.88
642.939	183.88
643.144	169.88
643.349	175.88
643.554	186.88
643.759	181.88
643.964	154.88
644.169	178.88
644.374	164.88
644.579	179.88
644.784	159.88
644.989	165.88
645.194	179.88
645.399	181.88
645.604	176.88
645.809	176.88
646.014	163.88
646.219	178.88
646.423	176.88
646.628	156.88
646.833	169.88
647.038	172.88
647.243	181.88
647.447	173.88
647.652	177.88
647.857	172.88
648.062	174.88
648.266	183.88
648.471	194.88
648.676	184.88
648.88	186.88
649.085	166.88
649.289	185.88
649.494	187.88
649.698	168.88
649.903	161.88
650.107	182.88
650.312	164.88
650.516	152.88
650.721	168.88
650.925	161.88
651.13	179.88
651.334	157.88
651.539	152.88
651.743	147.88
651.947	143.88
652.152	168.88
652.356	148.88
652.56	140.88
652.764	153.88
652.969	139.88
653.173	145.88
653.377	151.88
653.581	131.88
653.785	138.88
653.99	134.88
654.194	131.88
654.398	148.88
654.602	139.88
654.806	141.88
655.01	137.88
655.214	116.88
655.418	123.88
655.622	127.88
655.826	122.88
656.03	125.88
656.234	129.88
656.438	141.88
656.642	127.88
656.846	133.88
657.049	127.88
657.253	121.88
657.457	114.88
657.661	119.88
657.865	125.88
658.068	108.88
658.272	112.88
658.476	120.88
658.68	102.88
658.883	105.88
659.087	100.88
659.291	98.88
659.494	107.88
659.698	84.88
659.901	94.88
660.105	105.88
660.309	104.88
660.512	92.88
660.716	98.88
660.919	85.88
661.123	85.88
661.326	94.88
661.53	86.88
661.733	87.88
661.936	88.88
662.14	84.88
662.343	87.88
662.546	89.88
662.75	75.88
662.953	82.88
663.156	80.88
663.36	97.88
663.563	104.88
663.766	89.88
663.969	70.88
664.173	92.88
664.376	88.88
664.579	67.88
664.782	72.88
664.985	80.88
665.188	88.88
665.391	81.88
665.594	100.88
665.797	89.88
666	96.88
666.203	87.88
666.406	77.88
666.609	81.88
666.812	81.88
667.015	89.88
667.218	79.88
667.421	90.88
667.624	86.88
667.827	87.88
668.03	76.88
668.232	79.88
668.435	84.88
668.638	74.88
668.841	83.88
669.043	85.88
669.246	88.88
669.449	78.88
669.651	80.88
669.854	85.88
670.057	77.88
670.259	94.88
670.462	81.88
670.665	81.88
670.867	60.88
671.07	80.88
671.272	70.88
671.475	91.88
671.677	79.88
671.88	71.88
672.082	83.88
672.284	88.88
672.487	83.88
672.689	79.88
672.892	82.88
