Data from NiCl2@0.0625M.TitratingCurve.Agarose3%dH2O.NegLispCup.LampEnergy10.LIBS07252019_HRD10591_18-35-10-578.txt Node
Date: Thu Jul 25 18:35:10 EDT 2019
User: cochatt
Spectrometer: HR+D1059
Trigger mode: 1
Integration Time (sec): 1.000000E-1
Scans to average: 1
Electric dark correction enabled: true
Nonlinearity correction enabled: false
Boxcar width: 0
XAxis mode: Wavelengths
Number of Pixels in Spectrum: 2048
>>>>>Begin Spectral Data<<<<<
223.165	-10.19
223.4	-10.19
223.635	-10.19
223.869	-5.19
224.104	-16.19
224.338	-20.19
224.573	-24.19
224.808	-6.19
225.042	-19.19
225.277	-0.19
225.511	-5.19
225.746	-5.19
225.98	7.81
226.215	12.81
226.449	7.81
226.683	22.81
226.918	32.81
227.152	27.81
227.387	30.81
227.621	42.81
227.856	51.81
228.09	42.81
228.324	62.81
228.559	62.81
228.793	73.81
229.027	135.81
229.262	154.81
229.496	157.81
229.73	153.81
229.964	156.81
230.199	199.81
230.433	172.81
230.667	172.81
230.901	177.81
231.136	164.81
231.37	194.81
231.604	189.81
231.838	187.81
232.072	194.81
232.306	181.81
232.541	189.81
232.775	191.81
233.009	178.81
233.243	188.81
233.477	186.81
233.711	201.81
233.945	188.81
234.179	198.81
234.413	187.81
234.647	188.81
234.881	185.81
235.115	195.81
235.349	206.81
235.583	213.81
235.817	204.81
236.051	209.81
236.285	211.81
236.519	225.81
236.753	208.81
236.987	214.81
237.221	198.81
237.455	234.81
237.689	218.81
237.922	219.81
238.156	235.81
238.39	217.81
238.624	230.81
238.858	231.81
239.091	223.81
239.325	229.81
239.559	245.81
239.793	239.81
240.027	260.81
240.26	252.81
240.494	264.81
240.728	249.81
240.961	270.81
241.195	263.81
241.429	267.81
241.662	237.81
241.896	266.81
242.13	264.81
242.363	276.81
242.597	271.81
242.83	300.81
243.064	286.81
243.298	296.81
243.531	278.81
243.765	302.81
243.998	311.81
244.232	330.81
244.465	277.81
244.699	316.81
244.932	325.81
245.166	321.81
245.399	311.81
245.633	293.81
245.866	312.81
246.099	306.81
246.333	324.81
246.566	301.81
246.8	325.81
247.033	310.81
247.266	323.81
247.5	338.81
247.733	336.81
247.966	344.81
248.2	354.81
248.433	340.81
248.666	353.81
248.899	343.81
249.133	365.81
249.366	357.81
249.599	353.81
249.832	364.81
250.066	351.81
250.299	359.81
250.532	363.81
250.765	376.81
250.998	370.81
251.231	362.81
251.465	375.81
251.698	399.81
251.931	395.81
252.164	391.81
252.397	398.81
252.63	405.81
252.863	389.81
253.096	389.81
253.329	397.81
253.562	418.81
253.795	401.81
254.028	403.81
254.261	395.81
254.494	412.81
254.727	417.81
254.96	393.81
255.193	414.81
255.426	419.81
255.659	428.81
255.892	430.81
256.124	427.81
256.357	420.81
256.59	427.81
256.823	473.81
257.056	444.81
257.289	457.81
257.521	452.81
257.754	447.81
257.987	459.81
258.22	438.81
258.452	460.81
258.685	463.81
258.918	478.81
259.151	456.81
259.383	462.81
259.616	471.81
259.849	459.81
260.081	478.81
260.314	458.81
260.547	475.81
260.779	479.81
261.012	484.81
261.244	479.81
261.477	506.81
261.71	505.81
261.942	496.81
262.175	504.81
262.407	501.81
262.64	512.81
262.872	513.81
263.105	503.81
263.337	527.81
263.57	496.81
263.802	525.81
264.035	521.81
264.267	528.81
264.499	526.81
264.732	540.81
264.964	530.81
265.197	527.81
265.429	543.81
265.661	533.81
265.894	529.81
266.126	553.81
266.358	537.81
266.591	545.81
266.823	532.81
267.055	568.81
267.287	541.81
267.52	558.81
267.752	576.81
267.984	546.81
268.216	566.81
268.448	558.81
268.681	542.81
268.913	559.81
269.145	560.81
269.377	579.81
269.609	615.81
269.841	568.81
270.073	580.81
270.306	582.81
270.538	592.81
270.77	588.81
271.002	593.81
271.234	592.81
271.466	613.81
271.698	585.81
271.93	594.81
272.162	621.81
272.394	613.81
272.626	605.81
272.858	600.81
273.09	607.81
273.322	616.81
273.553	622.81
273.785	646.81
274.017	627.81
274.249	628.81
274.481	613.81
274.713	634.81
274.945	633.81
275.176	625.81
275.408	644.81
275.64	652.81
275.872	639.81
276.104	630.81
276.335	634.81
276.567	659.81
276.799	654.81
277.031	663.81
277.262	662.81
277.494	643.81
277.726	663.81
277.957	688.81
278.189	684.81
278.421	683.81
278.652	674.81
278.884	707.81
279.115	677.81
279.347	685.81
279.579	698.81
279.81	701.81
280.042	692.81
280.273	696.81
280.505	695.81
280.736	691.81
280.968	720.81
281.199	725.81
281.431	712.81
281.662	717.81
281.894	722.81
282.125	728.81
282.356	734.81
282.588	726.81
282.819	726.81
283.051	736.81
283.282	727.81
283.513	728.81
283.745	730.81
283.976	745.81
284.207	764.81
284.439	748.81
284.67	753.81
284.901	739.81
285.132	759.81
285.364	772.81
285.595	765.81
285.826	759.81
286.057	763.81
286.288	754.81
286.52	786.81
286.751	765.81
286.982	777.81
287.213	772.81
287.444	774.81
287.675	797.81
287.906	790.81
288.138	809.81
288.369	796.81
288.6	779.81
288.831	769.81
289.062	798.81
289.293	815.81
289.524	802.81
289.755	789.81
289.986	798.81
290.217	787.81
290.448	778.81
290.679	834.81
290.91	824.81
291.141	791.81
291.371	795.81
291.602	805.81
291.833	800.81
292.064	821.81
292.295	818.81
292.526	842.81
292.757	828.81
292.987	784.81
293.218	818.81
293.449	813.81
293.68	824.81
293.91	815.81
294.141	824.81
294.372	824.81
294.603	795.81
294.833	799.81
295.064	841.81
295.295	852.81
295.525	815.81
295.756	828.81
295.987	809.81
296.217	822.81
296.448	860.81
296.679	831.81
296.909	848.81
297.14	855.81
297.37	864.81
297.601	845.81
297.831	859.81
298.062	859.81
298.292	869.81
298.523	878.81
298.753	894.81
298.984	874.81
299.214	877.81
299.445	890.81
299.675	858.81
299.905	870.81
300.136	866.81
300.366	875.81
300.597	915.81
300.827	902.81
301.057	901.81
301.288	941.81
301.518	923.81
301.748	916.81
301.979	922.81
302.209	909.81
302.439	940.81
302.669	922.81
302.9	907.81
303.13	930.81
303.36	928.81
303.59	912.81
303.82	910.81
304.051	921.81
304.281	928.81
304.511	922.81
304.741	912.81
304.971	907.81
305.201	897.81
305.431	941.81
305.661	934.81
305.891	924.81
306.121	903.81
306.352	927.81
306.582	902.81
306.812	931.81
307.042	927.81
307.272	930.81
307.502	912.81
307.731	920.81
307.961	894.81
308.191	900.81
308.421	880.81
308.651	925.81
308.881	903.81
309.111	911.81
309.341	916.81
309.571	917.81
309.8	928.81
310.03	923.81
310.26	914.81
310.49	931.81
310.72	908.81
310.949	927.81
311.179	938.81
311.409	925.81
311.639	912.81
311.868	941.81
312.098	957.81
312.328	962.81
312.557	962.81
312.787	965.81
313.017	947.81
313.246	964.81
313.476	959.81
313.706	975.81
313.935	972.81
314.165	966.81
314.394	975.81
314.624	1004.81
314.853	981.81
315.083	978.81
315.312	981.81
315.542	1010.81
315.771	992.81
316.001	997.81
316.23	976.81
316.46	992.81
316.689	1000.81
316.919	977.81
317.148	959.81
317.377	975.81
317.607	939.81
317.836	968.81
318.065	976.81
318.295	974.81
318.524	972.81
318.753	956.81
318.983	979.81
319.212	970.81
319.441	988.81
319.67	980.81
319.9	955.81
320.129	972.81
320.358	974.81
320.587	970.81
320.816	958.81
321.046	987.81
321.275	988.81
321.504	973.81
321.733	1004.81
321.962	975.81
322.191	977.81
322.42	999.81
322.649	1011.81
322.878	992.81
323.108	982.81
323.337	1003.81
323.566	991.81
323.795	995.81
324.024	1036.81
324.253	1015.81
324.482	1013.81
324.71	1022.81
324.939	1050.81
325.168	1048.81
325.397	1051.81
325.626	1039.81
325.855	1047.81
326.084	1066.81
326.313	1062.81
326.542	1075.81
326.77	1095.81
326.999	1059.81
327.228	1058.81
327.457	1068.81
327.686	1074.81
327.914	1086.81
328.143	1076.81
328.372	1075.81
328.6	1079.81
328.829	1045.81
329.058	1065.81
329.287	1065.81
329.515	1106.81
329.744	1060.81
329.972	1090.81
330.201	1080.81
330.43	1098.81
330.658	1112.81
330.887	1091.81
331.115	1085.81
331.344	1122.81
331.572	1144.81
331.801	1148.81
332.03	1172.81
332.258	1146.81
332.486	1206.81
332.715	1225.81
332.943	1237.81
333.172	1281.81
333.4	1302.81
333.629	1316.81
333.857	1359.81
334.085	1366.81
334.314	1350.81
334.542	1352.81
334.771	1360.81
334.999	1300.81
335.227	1306.81
335.455	1355.81
335.684	1314.81
335.912	1328.81
336.14	1286.81
336.369	1305.81
336.597	1275.81
336.825	1263.81
337.053	1259.81
337.281	1244.81
337.51	1250.81
337.738	1236.81
337.966	1194.81
338.194	1207.81
338.422	1157.81
338.65	1155.81
338.878	1123.81
339.106	1174.81
339.334	1172.81
339.562	1156.81
339.79	1172.81
340.018	1133.81
340.246	1106.81
340.474	1143.81
340.702	1135.81
340.93	1119.81
341.158	1127.81
341.386	1091.81
341.614	1169.81
341.842	1131.81
342.07	1114.81
342.298	1113.81
342.526	1101.81
342.754	1108.81
342.981	1103.81
343.209	1165.81
343.437	1151.81
343.665	1183.81
343.893	1269.81
344.12	1289.81
344.348	1302.81
344.576	1255.81
344.804	1240.81
345.031	1180.81
345.259	1160.81
345.487	1134.81
345.714	1125.81
345.942	1104.81
346.17	1115.81
346.397	1112.81
346.625	1098.81
346.853	1065.81
347.08	1081.81
347.308	1104.81
347.535	1063.81
347.763	1088.81
347.99	1096.81
348.218	1092.81
348.445	1075.81
348.673	1075.81
348.9	1077.81
349.128	1059.81
349.355	1051.81
349.583	1076.81
349.81	1055.81
350.037	1083.81
350.265	1034.81
350.492	1047.81
350.72	1030.81
350.947	1026.81
351.174	1063.81
351.402	1056.81
351.629	1062.81
351.856	1030.81
352.083	1044.81
352.311	1019.81
352.538	1040.81
352.765	1048.81
352.992	1059.81
353.22	1020.81
353.447	1028.81
353.674	1000.81
353.901	1022.81
354.128	1032.81
354.355	1050.81
354.583	1046.81
354.81	1081.81
355.037	1035.81
355.264	1021.81
355.491	1028.81
355.718	1047.81
355.945	1043.81
356.172	1040.81
356.399	1053.81
356.626	1050.81
356.853	1031.81
357.08	1044.81
357.307	1018.81
357.534	1052.81
357.761	1051.81
357.988	1016.81
358.215	1046.81
358.441	1035.81
358.668	1034.81
358.895	1064.81
359.122	1028.81
359.349	1029.81
359.576	1040.81
359.802	1020.81
360.029	1038.81
360.256	1039.81
360.483	1064.81
360.709	1013.81
360.936	1018.81
361.163	1054.81
361.39	1032.81
361.616	1034.81
361.843	1035.81
362.07	1069.81
362.296	1039.81
362.523	1023.81
362.749	1053.81
362.976	1053.81
363.203	1019.81
363.429	1032.81
363.656	1038.81
363.882	1042.81
364.109	1034.81
364.335	1050.81
364.562	1039.81
364.788	1061.81
365.015	1090.81
365.241	1004.81
365.468	1034.81
365.694	1040.81
365.92	1054.81
366.147	1042.81
366.373	1050.81
366.599	1047.81
366.826	1037.81
367.052	1046.81
367.278	1053.81
367.505	1038.81
367.731	1053.81
367.957	1078.81
368.184	1048.81
368.41	1073.81
368.636	1050.81
368.862	1076.81
369.089	1066.81
369.315	1090.81
369.541	1089.81
369.767	1064.81
369.993	1094.81
370.219	1086.81
370.445	1070.81
370.672	1105.81
370.898	1097.81
371.124	1107.81
371.35	1122.81
371.576	1118.81
371.802	1142.81
372.028	1110.81
372.254	1127.81
372.48	1128.81
372.706	1164.81
372.932	1141.81
373.158	1168.81
373.384	1150.81
373.61	1135.81
373.835	1160.81
374.061	1114.81
374.287	1146.81
374.513	1145.81
374.739	1182.81
374.965	1221.81
375.191	1253.81
375.416	1217.81
375.642	1190.81
375.868	1197.81
376.094	1189.81
376.319	1138.81
376.545	1128.81
376.771	1119.81
376.997	1143.81
377.222	1128.81
377.448	1122.81
377.674	1095.81
377.899	1114.81
378.125	1108.81
378.35	1131.81
378.576	1091.81
378.802	1090.81
379.027	1118.81
379.253	1122.81
379.478	1106.81
379.704	1132.81
379.929	1103.81
380.155	1093.81
380.38	1106.81
380.606	1084.81
380.831	1094.81
381.057	1108.81
381.282	1120.81
381.507	1118.81
381.733	1119.81
381.958	1147.81
382.184	1131.81
382.409	1154.81
382.634	1186.81
382.86	1156.81
383.085	1168.81
383.31	1196.81
383.535	1199.81
383.761	1202.81
383.986	1181.81
384.211	1235.81
384.436	1234.81
384.662	1302.81
384.887	1274.81
385.112	1278.81
385.337	1294.81
385.562	1318.81
385.787	1306.81
386.013	1327.81
386.238	1298.81
386.463	1331.81
386.688	1334.81
386.913	1305.81
387.138	1337.81
387.363	1349.81
387.588	1306.81
387.813	1317.81
388.038	1325.81
388.263	1293.81
388.488	1337.81
388.713	1343.81
388.938	1340.81
389.163	1340.81
389.387	1294.81
389.612	1288.81
389.837	1319.81
390.062	1310.81
390.287	1313.81
390.512	1314.81
390.736	1334.81
390.961	1309.81
391.186	1372.81
391.411	1412.81
391.636	1418.81
391.86	1438.81
392.085	1442.81
392.31	1475.81
392.534	1448.81
392.759	1451.81
392.984	1409.81
393.208	1384.81
393.433	1389.81
393.658	1420.81
393.882	1354.81
394.107	1388.81
394.331	1407.81
394.556	1425.81
394.78	1387.81
395.005	1408.81
395.229	1433.81
395.454	1431.81
395.678	1496.81
395.903	1481.81
396.127	1470.81
396.352	1427.81
396.576	1410.81
396.801	1415.81
397.025	1459.81
397.249	1469.81
397.474	1476.81
397.698	1486.81
397.922	1525.81
398.147	1495.81
398.371	1490.81
398.595	1537.81
398.82	1645.81
399.044	1686.81
399.268	1854.81
399.492	2059.81
399.717	2198.81
399.941	2209.81
400.165	2127.81
400.389	1965.81
400.613	1823.81
400.837	1708.81
401.062	1684.81
401.286	1648.81
401.51	1662.81
401.734	1657.81
401.958	1654.81
402.182	1683.81
402.406	1655.81
402.63	1671.81
402.854	1670.81
403.078	1698.81
403.302	1723.81
403.526	1737.81
403.75	1768.81
403.974	1794.81
404.198	1765.81
404.422	1794.81
404.645	1778.81
404.869	1752.81
405.093	1756.81
405.317	1766.81
405.541	1784.81
405.765	1785.81
405.988	1754.81
406.212	1790.81
406.436	1758.81
406.66	1824.81
406.883	1825.81
407.107	1951.81
407.331	1958.81
407.555	2048.81
407.778	2056.81
408.002	2013.81
408.226	1972.81
408.449	1940.81
408.673	1892.81
408.896	1890.81
409.12	1828.81
409.344	1855.81
409.567	1836.81
409.791	1812.81
410.014	1791.81
410.238	1771.81
410.461	1784.81
410.685	1753.81
410.908	1724.81
411.132	1750.81
411.355	1701.81
411.578	1725.81
411.802	1728.81
412.025	1735.81
412.249	1728.81
412.472	1725.81
412.695	1704.81
412.919	1678.81
413.142	1687.81
413.365	1682.81
413.589	1669.81
413.812	1661.81
414.035	1627.81
414.258	1624.81
414.482	1628.81
414.705	1632.81
414.928	1701.81
415.151	1631.81
415.374	1611.81
415.597	1620.81
415.821	1588.81
416.044	1570.81
416.267	1582.81
416.49	1598.81
416.713	1635.81
416.936	1599.81
417.159	1599.81
417.382	1566.81
417.605	1557.81
417.828	1572.81
418.051	1637.81
418.274	1621.81
418.497	1560.81
418.72	1612.81
418.943	1598.81
419.166	1742.81
419.389	1815.81
419.611	1810.81
419.834	1702.81
420.057	1631.81
420.28	1619.81
420.503	1572.81
420.726	1545.81
420.948	1570.81
421.171	1600.81
421.394	1577.81
421.617	1580.81
421.839	1553.81
422.062	1554.81
422.285	1550.81
422.507	1599.81
422.73	1583.81
422.953	1601.81
423.175	1621.81
423.398	1599.81
423.621	1588.81
423.843	1664.81
424.066	1615.81
424.288	1632.81
424.511	1572.81
424.733	1630.81
424.956	1570.81
425.178	1593.81
425.401	1590.81
425.623	1591.81
425.846	1501.81
426.068	1553.81
426.291	1528.81
426.513	1522.81
426.735	1503.81
426.958	1547.81
427.18	1472.81
427.402	1495.81
427.625	1491.81
427.847	1475.81
428.069	1460.81
428.292	1460.81
428.514	1437.81
428.736	1426.81
428.958	1413.81
429.181	1415.81
429.403	1415.81
429.625	1444.81
429.847	1399.81
430.069	1400.81
430.292	1464.81
430.514	1429.81
430.736	1459.81
430.958	1442.81
431.18	1414.81
431.402	1458.81
431.624	1434.81
431.846	1444.81
432.068	1494.81
432.29	1504.81
432.512	1449.81
432.734	1447.81
432.956	1471.81
433.178	1471.81
433.4	1452.81
433.622	1490.81
433.844	1487.81
434.066	1491.81
434.287	1494.81
434.509	1526.81
434.731	1564.81
434.953	1567.81
435.175	1619.81
435.397	1627.81
435.618	1553.81
435.84	1515.81
436.062	1481.81
436.284	1473.81
436.505	1451.81
436.727	1440.81
436.949	1486.81
437.17	1435.81
437.392	1444.81
437.614	1387.81
437.835	1379.81
438.057	1379.81
438.278	1383.81
438.5	1374.81
438.721	1388.81
438.943	1405.81
439.165	1404.81
439.386	1413.81
439.608	1391.81
439.829	1440.81
440.05	1369.81
440.272	1438.81
440.493	1414.81
440.715	1443.81
440.936	1463.81
441.158	1486.81
441.379	1534.81
441.6	1560.81
441.822	1552.81
442.043	1575.81
442.264	1558.81
442.486	1521.81
442.707	1528.81
442.928	1551.81
443.149	1546.81
443.371	1500.81
443.592	1542.81
443.813	1566.81
444.034	1574.81
444.255	1632.81
444.476	1666.81
444.698	1705.81
444.919	1765.81
445.14	1819.81
445.361	1717.81
445.582	1588.81
445.803	1527.81
446.024	1481.81
446.245	1499.81
446.466	1466.81
446.687	1402.81
446.908	1446.81
447.129	1405.81
447.35	1389.81
447.571	1381.81
447.792	1354.81
448.013	1362.81
448.234	1310.81
448.455	1302.81
448.675	1309.81
448.896	1321.81
449.117	1296.81
449.338	1296.81
449.559	1284.81
449.779	1289.81
450	1270.81
450.221	1290.81
450.442	1282.81
450.662	1288.81
450.883	1312.81
451.104	1281.81
451.324	1311.81
451.545	1302.81
451.766	1298.81
451.986	1246.81
452.207	1260.81
452.428	1298.81
452.648	1263.81
452.869	1259.81
453.089	1246.81
453.31	1243.81
453.53	1231.81
453.751	1270.81
453.971	1222.81
454.192	1242.81
454.412	1208.81
454.633	1183.81
454.853	1226.81
455.073	1242.81
455.294	1194.81
455.514	1219.81
455.734	1213.81
455.955	1212.81
456.175	1216.81
456.395	1172.81
456.616	1229.81
456.836	1229.81
457.056	1195.81
457.276	1191.81
457.497	1226.81
457.717	1246.81
457.937	1222.81
458.157	1280.81
458.377	1282.81
458.598	1293.81
458.818	1315.81
459.038	1349.81
459.258	1354.81
459.478	1393.81
459.698	1430.81
459.918	1455.81
460.138	1477.81
460.358	1597.81
460.578	1596.81
460.798	1604.81
461.018	1618.81
461.238	1608.81
461.458	1634.81
461.678	1597.81
461.898	1646.81
462.118	1648.81
462.338	1678.81
462.558	1694.81
462.777	1786.81
462.997	1901.81
463.217	2013.81
463.437	2011.81
463.657	1935.81
463.876	1850.81
464.096	1873.81
464.316	1815.81
464.536	1826.81
464.755	1817.81
464.975	1753.81
465.195	1686.81
465.414	1582.81
465.634	1528.81
465.854	1503.81
466.073	1434.81
466.293	1416.81
466.512	1364.81
466.732	1360.81
466.951	1390.81
467.171	1353.81
467.391	1349.81
467.61	1343.81
467.829	1325.81
468.049	1343.81
468.268	1337.81
468.488	1351.81
468.707	1296.81
468.927	1314.81
469.146	1280.81
469.365	1366.81
469.585	1344.81
469.804	1358.81
470.023	1360.81
470.243	1394.81
470.462	1412.81
470.681	1391.81
470.901	1384.81
471.12	1403.81
471.339	1320.81
471.558	1340.81
471.777	1353.81
471.997	1363.81
472.216	1334.81
472.435	1295.81
472.654	1282.81
472.873	1286.81
473.092	1301.81
473.311	1281.81
473.53	1289.81
473.749	1323.81
473.968	1307.81
474.187	1294.81
474.406	1288.81
474.625	1311.81
474.844	1284.81
475.063	1304.81
475.282	1320.81
475.501	1328.81
475.72	1310.81
475.939	1333.81
476.158	1360.81
476.377	1364.81
476.596	1372.81
476.814	1376.81
477.033	1397.81
477.252	1389.81
477.471	1430.81
477.69	1452.81
477.908	1507.81
478.127	1507.81
478.346	1537.81
478.564	1555.81
478.783	1569.81
479.002	1626.81
479.22	1622.81
479.439	1587.81
479.658	1615.81
479.876	1605.81
480.095	1660.81
480.313	1664.81
480.532	1707.81
480.751	1713.81
480.969	1634.81
481.188	1606.81
481.406	1618.81
481.624	1570.81
481.843	1552.81
482.061	1582.81
482.28	1552.81
482.498	1553.81
482.717	1585.81
482.935	1576.81
483.153	1574.81
483.372	1581.81
483.59	1574.81
483.808	1583.81
484.027	1635.81
484.245	1632.81
484.463	1620.81
484.681	1636.81
484.9	1686.81
485.118	1690.81
485.336	1665.81
485.554	1658.81
485.772	1702.81
485.99	1698.81
486.209	1695.81
486.427	1709.81
486.645	1684.81
486.863	1700.81
487.081	1671.81
487.299	1650.81
487.517	1665.81
487.735	1657.81
487.953	1663.81
488.171	1671.81
488.389	1651.81
488.607	1651.81
488.825	1605.81
489.043	1625.81
489.261	1594.81
489.479	1628.81
489.696	1626.81
489.914	1674.81
490.132	1606.81
490.35	1631.81
490.568	1619.81
490.786	1673.81
491.003	1630.81
491.221	1614.81
491.439	1608.81
491.657	1655.81
491.874	1631.81
492.092	1627.81
492.31	1659.81
492.527	1613.81
492.745	1674.81
492.963	1627.81
493.18	1655.81
493.398	1614.81
493.615	1614.81
493.833	1651.81
494.05	1686.81
494.268	1632.81
494.485	1635.81
494.703	1691.81
494.92	1672.81
495.138	1643.81
495.355	1638.81
495.573	1638.81
495.79	1661.81
496.008	1714.81
496.225	1702.81
496.442	1686.81
496.66	1743.81
496.877	1798.81
497.094	1774.81
497.312	1825.81
497.529	1847.81
497.746	1880.81
497.963	1962.81
498.181	2023.81
498.398	2122.81
498.615	2174.81
498.832	2306.81
499.049	2423.81
499.267	2653.81
499.484	2774.81
499.701	3045.81
499.918	3289.81
500.135	3608.81
500.352	3867.81
500.569	4031.81
500.786	4012.81
501.003	3879.81
501.22	3586.81
501.437	3276.81
501.654	2957.81
501.871	2728.81
502.088	2562.81
502.305	2434.81
502.522	2263.81
502.739	2206.81
502.956	2099.81
503.172	2022.81
503.389	1980.81
503.606	1889.81
503.823	1850.81
504.04	1840.81
504.256	1826.81
504.473	1843.81
504.69	1882.81
504.907	1823.81
505.123	1789.81
505.34	1724.81
505.557	1609.81
505.773	1567.81
505.99	1551.81
506.207	1573.81
506.423	1494.81
506.64	1515.81
506.856	1481.81
507.073	1460.81
507.289	1415.81
507.506	1396.81
507.722	1412.81
507.939	1414.81
508.155	1387.81
508.372	1374.81
508.588	1383.81
508.805	1357.81
509.021	1358.81
509.238	1355.81
509.454	1338.81
509.67	1353.81
509.887	1347.81
510.103	1288.81
510.319	1331.81
510.536	1301.81
510.752	1308.81
510.968	1337.81
511.184	1289.81
511.401	1291.81
511.617	1302.81
511.833	1304.81
512.049	1318.81
512.265	1313.81
512.481	1294.81
512.698	1302.81
512.914	1306.81
513.13	1283.81
513.346	1290.81
513.562	1316.81
513.778	1276.81
513.994	1307.81
514.21	1319.81
514.426	1302.81
514.642	1317.81
514.858	1334.81
515.074	1333.81
515.29	1355.81
515.506	1360.81
515.721	1352.81
515.937	1382.81
516.153	1401.81
516.369	1436.81
516.585	1463.81
516.801	1506.81
517.016	1541.81
517.232	1552.81
517.448	1613.81
517.664	1679.81
517.879	1621.81
518.095	1650.81
518.311	1647.81
518.527	1598.81
518.742	1524.81
518.958	1511.81
519.173	1424.81
519.389	1414.81
519.605	1379.81
519.82	1384.81
520.036	1344.81
520.251	1339.81
520.467	1321.81
520.682	1302.81
520.898	1290.81
521.113	1306.81
521.329	1257.81
521.544	1218.81
521.76	1216.81
521.975	1239.81
522.19	1215.81
522.406	1248.81
522.621	1237.81
522.836	1176.81
523.052	1194.81
523.267	1210.81
523.482	1196.81
523.698	1182.81
523.913	1186.81
524.128	1156.81
524.343	1173.81
524.559	1140.81
524.774	1156.81
524.989	1180.81
525.204	1165.81
525.419	1160.81
525.634	1142.81
525.849	1165.81
526.064	1155.81
526.28	1144.81
526.495	1160.81
526.71	1139.81
526.925	1135.81
527.14	1123.81
527.355	1130.81
527.57	1144.81
527.785	1131.81
527.999	1114.81
528.214	1133.81
528.429	1145.81
528.644	1140.81
528.859	1141.81
529.074	1118.81
529.289	1138.81
529.503	1130.81
529.718	1148.81
529.933	1119.81
530.148	1125.81
530.363	1141.81
530.577	1108.81
530.792	1111.81
531.007	1102.81
531.221	1131.81
531.436	1145.81
531.651	1121.81
531.865	1115.81
532.08	1149.81
532.295	1106.81
532.509	1135.81
532.724	1100.81
532.938	1124.81
533.153	1119.81
533.367	1144.81
533.582	1155.81
533.796	1143.81
534.011	1106.81
534.225	1102.81
534.44	1101.81
534.654	1067.81
534.868	1092.81
535.083	1083.81
535.297	1088.81
535.511	1083.81
535.726	1125.81
535.94	1068.81
536.154	1037.81
536.369	1058.81
536.583	1004.81
536.797	1052.81
537.011	1046.81
537.225	1046.81
537.44	1012.81
537.654	1050.81
537.868	1033.81
538.082	1034.81
538.296	1039.81
538.51	1014.81
538.724	1039.81
538.938	1021.81
539.153	1023.81
539.367	1027.81
539.581	990.81
539.795	1013.81
540.009	1030.81
540.222	986.81
540.436	1018.81
540.65	980.81
540.864	994.81
541.078	1010.81
541.292	999.81
541.506	998.81
541.72	974.81
541.934	1002.81
542.147	987.81
542.361	973.81
542.575	970.81
542.789	979.81
543.002	971.81
543.216	985.81
543.43	986.81
543.644	1001.81
543.857	961.81
544.071	951.81
544.285	997.81
544.498	973.81
544.712	959.81
544.925	978.81
545.139	994.81
545.352	1004.81
545.566	1007.81
545.779	1030.81
545.993	1016.81
546.206	1011.81
546.42	1012.81
546.633	1062.81
546.847	1019.81
547.06	1022.81
547.274	986.81
547.487	982.81
547.7	982.81
547.914	1026.81
548.127	1014.81
548.34	1009.81
548.554	1007.81
548.767	1050.81
548.98	1014.81
549.193	1034.81
549.407	995.81
549.62	1007.81
549.833	1044.81
550.046	1026.81
550.259	1027.81
550.473	986.81
550.686	970.81
550.899	997.81
551.112	988.81
551.325	989.81
551.538	975.81
551.751	988.81
551.964	998.81
552.177	1016.81
552.39	1039.81
552.603	1051.81
552.816	1060.81
553.029	1081.81
553.242	1066.81
553.455	1086.81
553.667	1072.81
553.88	1083.81
554.093	1044.81
554.306	1014.81
554.519	996.81
554.732	989.81
554.944	980.81
555.157	978.81
555.37	950.81
555.583	943.81
555.795	926.81
556.008	890.81
556.221	884.81
556.433	876.81
556.646	883.81
556.859	869.81
557.071	894.81
557.284	851.81
557.496	875.81
557.709	890.81
557.921	843.81
558.134	832.81
558.346	873.81
558.559	863.81
558.771	863.81
558.984	856.81
559.196	820.81
559.409	846.81
559.621	859.81
559.833	855.81
560.046	812.81
560.258	831.81
560.47	826.81
560.683	812.81
560.895	833.81
561.107	830.81
561.32	818.81
561.532	854.81
561.744	834.81
561.956	818.81
562.168	823.81
562.381	843.81
562.593	838.81
562.805	846.81
563.017	812.81
563.229	833.81
563.441	840.81
563.653	878.81
563.865	812.81
564.077	877.81
564.289	836.81
564.501	877.81
564.713	894.81
564.925	894.81
565.137	948.81
565.349	970.81
565.561	932.81
565.773	969.81
565.985	1023.81
566.197	1078.81
566.408	1100.81
566.62	1206.81
566.832	1251.81
567.044	1255.81
567.255	1258.81
567.467	1311.81
567.679	1358.81
567.891	1410.81
568.102	1405.81
568.314	1346.81
568.526	1262.81
568.737	1166.81
568.949	1129.81
569.161	1060.81
569.372	974.81
569.584	962.81
569.795	898.81
570.007	871.81
570.218	876.81
570.43	857.81
570.641	866.81
570.853	820.81
571.064	840.81
571.276	855.81
571.487	816.81
571.698	782.81
571.91	776.81
572.121	772.81
572.333	756.81
572.544	728.81
572.755	724.81
572.966	713.81
573.178	703.81
573.389	727.81
573.6	696.81
573.811	696.81
574.023	686.81
574.234	708.81
574.445	690.81
574.656	685.81
574.867	692.81
575.078	675.81
575.289	674.81
575.501	657.81
575.712	664.81
575.923	653.81
576.134	635.81
576.345	639.81
576.556	644.81
576.767	655.81
576.978	611.81
577.188	666.81
577.399	646.81
577.61	636.81
577.821	635.81
578.032	627.81
578.243	639.81
578.454	619.81
578.665	648.81
578.875	621.81
579.086	602.81
579.297	593.81
579.508	592.81
579.718	619.81
579.929	620.81
580.14	601.81
580.35	593.81
580.561	615.81
580.772	597.81
580.982	601.81
581.193	569.81
581.403	585.81
581.614	575.81
581.825	564.81
582.035	572.81
582.246	590.81
582.456	551.81
582.667	585.81
582.877	582.81
583.087	576.81
583.298	574.81
583.508	557.81
583.719	567.81
583.929	560.81
584.139	598.81
584.35	554.81
584.56	574.81
584.77	565.81
584.981	551.81
585.191	531.81
585.401	568.81
585.611	534.81
585.821	556.81
586.032	572.81
586.242	521.81
586.452	534.81
586.662	562.81
586.872	541.81
587.082	533.81
587.292	556.81
587.502	544.81
587.713	537.81
587.923	526.81
588.133	565.81
588.343	524.81
588.553	531.81
588.762	531.81
588.972	540.81
589.182	547.81
589.392	546.81
589.602	548.81
589.812	558.81
590.022	563.81
590.232	552.81
590.441	552.81
590.651	564.81
590.861	558.81
591.071	562.81
591.281	548.81
591.49	558.81
591.7	556.81
591.91	591.81
592.119	588.81
592.329	594.81
592.539	599.81
592.748	596.81
592.958	609.81
593.167	641.81
593.377	636.81
593.587	640.81
593.796	645.81
594.006	652.81
594.215	647.81
594.424	637.81
594.634	651.81
594.843	636.81
595.053	596.81
595.262	604.81
595.472	604.81
595.681	567.81
595.89	550.81
596.1	575.81
596.309	526.81
596.518	529.81
596.727	514.81
596.937	501.81
597.146	496.81
597.355	507.81
597.564	493.81
597.774	488.81
597.983	480.81
598.192	503.81
598.401	476.81
598.61	479.81
598.819	481.81
599.028	471.81
599.237	458.81
599.446	458.81
599.655	464.81
599.864	475.81
600.073	449.81
600.282	451.81
600.491	459.81
600.7	465.81
600.909	459.81
601.118	459.81
601.327	439.81
601.536	429.81
601.745	438.81
601.953	438.81
602.162	419.81
602.371	416.81
602.58	450.81
602.789	441.81
602.997	447.81
603.206	423.81
603.415	421.81
603.623	422.81
603.832	423.81
604.041	419.81
604.249	426.81
604.458	403.81
604.666	422.81
604.875	402.81
605.084	434.81
605.292	392.81
605.501	406.81
605.709	408.81
605.918	422.81
606.126	402.81
606.334	416.81
606.543	395.81
606.751	416.81
606.96	395.81
607.168	420.81
607.376	410.81
607.585	416.81
607.793	411.81
608.001	400.81
608.21	416.81
608.418	401.81
608.626	383.81
608.834	379.81
609.043	387.81
609.251	401.81
609.459	390.81
609.667	405.81
609.875	393.81
610.083	402.81
610.291	395.81
610.499	404.81
610.707	392.81
610.916	382.81
611.124	364.81
611.332	380.81
611.54	397.81
611.748	399.81
611.955	391.81
612.163	367.81
612.371	376.81
612.579	398.81
612.787	382.81
612.995	380.81
613.203	374.81
613.411	377.81
613.618	388.81
613.826	390.81
614.034	371.81
614.242	388.81
614.449	381.81
614.657	366.81
614.865	386.81
615.072	372.81
615.28	379.81
615.488	387.81
615.695	386.81
615.903	371.81
616.111	370.81
616.318	381.81
616.526	392.81
616.733	359.81
616.941	375.81
617.148	373.81
617.356	374.81
617.563	379.81
617.771	387.81
617.978	381.81
618.185	380.81
618.393	370.81
618.6	364.81
618.807	358.81
619.015	385.81
619.222	373.81
619.429	353.81
619.637	378.81
619.844	367.81
620.051	366.81
620.258	360.81
620.466	349.81
620.673	349.81
620.88	335.81
621.087	370.81
621.294	342.81
621.501	357.81
621.708	360.81
621.915	370.81
622.122	370.81
622.329	360.81
622.536	362.81
622.743	353.81
622.95	343.81
623.157	354.81
623.364	329.81
623.571	342.81
623.778	343.81
623.985	325.81
624.192	342.81
624.399	350.81
624.606	334.81
624.812	339.81
625.019	325.81
625.226	329.81
625.433	330.81
625.639	314.81
625.846	322.81
626.053	323.81
626.259	331.81
626.466	325.81
626.673	307.81
626.879	325.81
627.086	325.81
627.293	305.81
627.499	309.81
627.706	318.81
627.912	314.81
628.119	326.81
628.325	346.81
628.532	300.81
628.738	322.81
628.945	304.81
629.151	308.81
629.357	309.81
629.564	324.81
629.77	322.81
629.976	314.81
630.183	310.81
630.389	312.81
630.595	283.81
630.802	314.81
631.008	290.81
631.214	292.81
631.42	296.81
631.627	307.81
631.833	284.81
632.039	297.81
632.245	291.81
632.451	280.81
632.657	290.81
632.863	286.81
633.069	299.81
633.275	292.81
633.481	290.81
633.688	294.81
633.893	278.81
634.099	288.81
634.305	292.81
634.511	286.81
634.717	282.81
634.923	268.81
635.129	279.81
635.335	270.81
635.541	270.81
635.747	288.81
635.952	280.81
636.158	259.81
636.364	274.81
636.57	262.81
636.775	280.81
636.981	272.81
637.187	275.81
637.392	279.81
637.598	292.81
637.804	286.81
638.009	282.81
638.215	267.81
638.421	269.81
638.626	253.81
638.832	259.81
639.037	248.81
639.243	264.81
639.448	278.81
639.654	288.81
639.859	272.81
640.065	276.81
640.27	263.81
640.475	268.81
640.681	263.81
640.886	287.81
641.091	280.81
641.297	276.81
641.502	261.81
641.707	266.81
641.913	254.81
642.118	258.81
642.323	260.81
642.528	262.81
642.733	258.81
642.939	275.81
643.144	272.81
643.349	256.81
643.554	254.81
643.759	253.81
643.964	263.81
644.169	260.81
644.374	259.81
644.579	278.81
644.784	240.81
644.989	270.81
645.194	242.81
645.399	240.81
645.604	256.81
645.809	250.81
646.014	271.81
646.219	262.81
646.423	268.81
646.628	268.81
646.833	267.81
647.038	275.81
647.243	275.81
647.447	253.81
647.652	265.81
647.857	274.81
648.062	294.81
648.266	279.81
648.471	272.81
648.676	276.81
648.88	271.81
649.085	274.81
649.289	264.81
649.494	258.81
649.698	278.81
649.903	250.81
650.107	278.81
650.312	277.81
650.516	275.81
650.721	265.81
650.925	259.81
651.13	254.81
651.334	254.81
651.539	253.81
651.743	251.81
651.947	259.81
652.152	251.81
652.356	262.81
652.56	242.81
652.764	245.81
652.969	266.81
653.173	259.81
653.377	252.81
653.581	231.81
653.785	267.81
653.99	257.81
654.194	255.81
654.398	260.81
654.602	274.81
654.806	257.81
655.01	260.81
655.214	267.81
655.418	275.81
655.622	287.81
655.826	288.81
656.03	302.81
656.234	331.81
656.438	333.81
656.642	352.81
656.846	318.81
657.049	295.81
657.253	251.81
657.457	230.81
657.661	206.81
657.865	214.81
658.068	202.81
658.272	182.81
658.476	178.81
658.68	167.81
658.883	167.81
659.087	138.81
659.291	152.81
659.494	158.81
659.698	131.81
659.901	127.81
660.105	124.81
660.309	129.81
660.512	114.81
660.716	116.81
660.919	119.81
661.123	123.81
661.326	119.81
661.53	108.81
661.733	106.81
661.936	88.81
662.14	112.81
662.343	88.81
662.546	91.81
662.75	91.81
662.953	97.81
663.156	90.81
663.36	99.81
663.563	94.81
663.766	99.81
663.969	86.81
664.173	85.81
664.376	99.81
664.579	82.81
664.782	81.81
664.985	86.81
665.188	78.81
665.391	83.81
665.594	96.81
665.797	82.81
666	72.81
666.203	86.81
666.406	90.81
666.609	83.81
666.812	92.81
667.015	74.81
667.218	84.81
667.421	82.81
667.624	78.81
667.827	87.81
668.03	73.81
668.232	91.81
668.435	98.81
668.638	82.81
668.841	81.81
669.043	92.81
669.246	97.81
669.449	88.81
669.651	87.81
669.854	92.81
670.057	89.81
670.259	86.81
670.462	82.81
670.665	89.81
670.867	94.81
671.07	84.81
671.272	91.81
671.475	87.81
671.677	80.81
671.88	98.81
672.082	85.81
672.284	93.81
672.487	78.81
672.689	91.81
672.892	82.81
