Data from NiCl2@0.25M.TitratingCurve.Agarose3%dH2O.NegLispCup.LampEnergy10.LIBS07252019_HRD10591_18-23-50-573.txt Node
Date: Thu Jul 25 18:23:50 EDT 2019
User: cochatt
Spectrometer: HR+D1059
Trigger mode: 1
Integration Time (sec): 1.000000E-1
Scans to average: 1
Electric dark correction enabled: true
Nonlinearity correction enabled: false
Boxcar width: 0
XAxis mode: Wavelengths
Number of Pixels in Spectrum: 2048
>>>>>Begin Spectral Data<<<<<
223.165	-17.25
223.4	-17.25
223.635	-17.25
223.869	-20.25
224.104	-21.25
224.338	-16.25
224.573	-14.25
224.808	-7.25
225.042	0.75
225.277	-8.25
225.511	2.75
225.746	2.75
225.98	-0.25
226.215	11.75
226.449	26.75
226.683	12.75
226.918	23.75
227.152	23.75
227.387	32.75
227.621	53.75
227.856	46.75
228.09	34.75
228.324	51.75
228.559	50.75
228.793	54.75
229.027	107.75
229.262	117.75
229.496	117.75
229.73	124.75
229.964	117.75
230.199	132.75
230.433	141.75
230.667	136.75
230.901	114.75
231.136	150.75
231.37	136.75
231.604	156.75
231.838	143.75
232.072	146.75
232.306	151.75
232.541	162.75
232.775	151.75
233.009	160.75
233.243	155.75
233.477	145.75
233.711	156.75
233.945	156.75
234.179	162.75
234.413	175.75
234.647	163.75
234.881	153.75
235.115	160.75
235.349	172.75
235.583	167.75
235.817	163.75
236.051	167.75
236.285	154.75
236.519	162.75
236.753	163.75
236.987	169.75
237.221	167.75
237.455	160.75
237.689	180.75
237.922	180.75
238.156	165.75
238.39	176.75
238.624	178.75
238.858	184.75
239.091	181.75
239.325	191.75
239.559	198.75
239.793	188.75
240.027	202.75
240.26	179.75
240.494	172.75
240.728	206.75
240.961	191.75
241.195	180.75
241.429	214.75
241.662	189.75
241.896	211.75
242.13	222.75
242.363	214.75
242.597	217.75
242.83	224.75
243.064	220.75
243.298	232.75
243.531	228.75
243.765	210.75
243.998	227.75
244.232	223.75
244.465	219.75
244.699	215.75
244.932	225.75
245.166	241.75
245.399	236.75
245.633	223.75
245.866	229.75
246.099	239.75
246.333	239.75
246.566	256.75
246.8	242.75
247.033	256.75
247.266	236.75
247.5	239.75
247.733	255.75
247.966	250.75
248.2	243.75
248.433	233.75
248.666	252.75
248.899	274.75
249.133	269.75
249.366	276.75
249.599	280.75
249.832	263.75
250.066	294.75
250.299	266.75
250.532	278.75
250.765	284.75
250.998	271.75
251.231	262.75
251.465	299.75
251.698	294.75
251.931	292.75
252.164	290.75
252.397	292.75
252.63	304.75
252.863	291.75
253.096	297.75
253.329	298.75
253.562	283.75
253.795	319.75
254.028	308.75
254.261	304.75
254.494	308.75
254.727	287.75
254.96	313.75
255.193	311.75
255.426	294.75
255.659	309.75
255.892	324.75
256.124	326.75
256.357	332.75
256.59	320.75
256.823	340.75
257.056	319.75
257.289	333.75
257.521	327.75
257.754	319.75
257.987	327.75
258.22	323.75
258.452	321.75
258.685	330.75
258.918	324.75
259.151	338.75
259.383	338.75
259.616	349.75
259.849	327.75
260.081	355.75
260.314	339.75
260.547	359.75
260.779	349.75
261.012	349.75
261.244	363.75
261.477	347.75
261.71	350.75
261.942	342.75
262.175	366.75
262.407	344.75
262.64	345.75
262.872	356.75
263.105	356.75
263.337	367.75
263.57	364.75
263.802	362.75
264.035	366.75
264.267	362.75
264.499	382.75
264.732	366.75
264.964	374.75
265.197	382.75
265.429	382.75
265.661	386.75
265.894	370.75
266.126	378.75
266.358	412.75
266.591	399.75
266.823	379.75
267.055	395.75
267.287	403.75
267.52	393.75
267.752	389.75
267.984	378.75
268.216	397.75
268.448	416.75
268.681	397.75
268.913	409.75
269.145	423.75
269.377	401.75
269.609	414.75
269.841	405.75
270.073	411.75
270.306	401.75
270.538	421.75
270.77	419.75
271.002	406.75
271.234	408.75
271.466	427.75
271.698	413.75
271.93	422.75
272.162	446.75
272.394	424.75
272.626	420.75
272.858	437.75
273.09	431.75
273.322	453.75
273.553	444.75
273.785	450.75
274.017	439.75
274.249	435.75
274.481	456.75
274.713	448.75
274.945	467.75
275.176	445.75
275.408	465.75
275.64	468.75
275.872	452.75
276.104	451.75
276.335	456.75
276.567	473.75
276.799	456.75
277.031	475.75
277.262	467.75
277.494	476.75
277.726	485.75
277.957	479.75
278.189	470.75
278.421	479.75
278.652	471.75
278.884	483.75
279.115	477.75
279.347	479.75
279.579	472.75
279.81	505.75
280.042	485.75
280.273	514.75
280.505	518.75
280.736	507.75
280.968	486.75
281.199	514.75
281.431	516.75
281.662	511.75
281.894	486.75
282.125	528.75
282.356	527.75
282.588	526.75
282.819	523.75
283.051	519.75
283.282	503.75
283.513	519.75
283.745	528.75
283.976	503.75
284.207	528.75
284.439	519.75
284.67	558.75
284.901	537.75
285.132	549.75
285.364	543.75
285.595	544.75
285.826	540.75
286.057	562.75
286.288	551.75
286.52	543.75
286.751	546.75
286.982	556.75
287.213	560.75
287.444	566.75
287.675	551.75
287.906	570.75
288.138	574.75
288.369	556.75
288.6	578.75
288.831	582.75
289.062	574.75
289.293	569.75
289.524	562.75
289.755	558.75
289.986	582.75
290.217	595.75
290.448	560.75
290.679	592.75
290.91	571.75
291.141	575.75
291.371	575.75
291.602	606.75
291.833	566.75
292.064	587.75
292.295	580.75
292.526	583.75
292.757	570.75
292.987	581.75
293.218	575.75
293.449	576.75
293.68	584.75
293.91	587.75
294.141	598.75
294.372	577.75
294.603	607.75
294.833	577.75
295.064	598.75
295.295	599.75
295.525	610.75
295.756	622.75
295.987	589.75
296.217	602.75
296.448	600.75
296.679	595.75
296.909	579.75
297.14	617.75
297.37	626.75
297.601	630.75
297.831	616.75
298.062	604.75
298.292	622.75
298.523	618.75
298.753	649.75
298.984	623.75
299.214	638.75
299.445	630.75
299.675	630.75
299.905	640.75
300.136	609.75
300.366	615.75
300.597	648.75
300.827	663.75
301.057	674.75
301.288	662.75
301.518	690.75
301.748	677.75
301.979	680.75
302.209	678.75
302.439	677.75
302.669	677.75
302.9	672.75
303.13	644.75
303.36	636.75
303.59	651.75
303.82	635.75
304.051	657.75
304.281	642.75
304.511	668.75
304.741	666.75
304.971	675.75
305.201	686.75
305.431	646.75
305.661	646.75
305.891	656.75
306.121	631.75
306.352	638.75
306.582	637.75
306.812	633.75
307.042	628.75
307.272	651.75
307.502	637.75
307.731	662.75
307.961	656.75
308.191	664.75
308.421	632.75
308.651	630.75
308.881	636.75
309.111	613.75
309.341	644.75
309.571	664.75
309.8	658.75
310.03	654.75
310.26	657.75
310.49	652.75
310.72	660.75
310.949	646.75
311.179	674.75
311.409	643.75
311.639	666.75
311.868	682.75
312.098	640.75
312.328	683.75
312.557	672.75
312.787	707.75
313.017	695.75
313.246	698.75
313.476	694.75
313.706	672.75
313.935	725.75
314.165	708.75
314.394	722.75
314.624	710.75
314.853	684.75
315.083	700.75
315.312	716.75
315.542	698.75
315.771	693.75
316.001	669.75
316.23	699.75
316.46	670.75
316.689	701.75
316.919	684.75
317.148	696.75
317.377	706.75
317.607	713.75
317.836	686.75
318.065	708.75
318.295	703.75
318.524	690.75
318.753	695.75
318.983	686.75
319.212	675.75
319.441	697.75
319.67	677.75
319.9	680.75
320.129	697.75
320.358	704.75
320.587	692.75
320.816	680.75
321.046	692.75
321.275	696.75
321.504	698.75
321.733	712.75
321.962	710.75
322.191	676.75
322.42	708.75
322.649	693.75
322.878	714.75
323.108	723.75
323.337	717.75
323.566	726.75
323.795	736.75
324.024	718.75
324.253	716.75
324.482	711.75
324.71	729.75
324.939	707.75
325.168	729.75
325.397	724.75
325.626	726.75
325.855	749.75
326.084	772.75
326.313	775.75
326.542	769.75
326.77	816.75
326.999	749.75
327.228	763.75
327.457	749.75
327.686	760.75
327.914	750.75
328.143	763.75
328.372	778.75
328.6	780.75
328.829	746.75
329.058	742.75
329.287	755.75
329.515	749.75
329.744	772.75
329.972	770.75
330.201	778.75
330.43	775.75
330.658	790.75
330.887	788.75
331.115	807.75
331.344	805.75
331.572	831.75
331.801	812.75
332.03	852.75
332.258	904.75
332.486	899.75
332.715	924.75
332.943	932.75
333.172	1019.75
333.4	1026.75
333.629	1074.75
333.857	1069.75
334.085	1064.75
334.314	1042.75
334.542	1004.75
334.771	983.75
334.999	971.75
335.227	944.75
335.455	970.75
335.684	962.75
335.912	906.75
336.14	912.75
336.369	911.75
336.597	923.75
336.825	916.75
337.053	910.75
337.281	874.75
337.51	891.75
337.738	886.75
337.966	898.75
338.194	870.75
338.422	836.75
338.65	852.75
338.878	853.75
339.106	831.75
339.334	807.75
339.562	836.75
339.79	803.75
340.018	786.75
340.246	787.75
340.474	785.75
340.702	796.75
340.93	789.75
341.158	825.75
341.386	815.75
341.614	803.75
341.842	805.75
342.07	805.75
342.298	787.75
342.526	774.75
342.754	794.75
342.981	801.75
343.209	819.75
343.437	850.75
343.665	938.75
343.893	962.75
344.12	995.75
344.348	958.75
344.576	886.75
344.804	871.75
345.031	855.75
345.259	805.75
345.487	810.75
345.714	792.75
345.942	766.75
346.17	762.75
346.397	773.75
346.625	774.75
346.853	753.75
347.08	767.75
347.308	757.75
347.535	751.75
347.763	807.75
347.99	795.75
348.218	772.75
348.445	790.75
348.673	781.75
348.9	756.75
349.128	742.75
349.355	754.75
349.583	743.75
349.81	762.75
350.037	735.75
350.265	747.75
350.492	751.75
350.72	716.75
350.947	733.75
351.174	768.75
351.402	738.75
351.629	728.75
351.856	699.75
352.083	726.75
352.311	738.75
352.538	720.75
352.765	731.75
352.992	740.75
353.22	742.75
353.447	727.75
353.674	714.75
353.901	725.75
354.128	726.75
354.355	735.75
354.583	748.75
354.81	755.75
355.037	736.75
355.264	766.75
355.491	735.75
355.718	743.75
355.945	739.75
356.172	761.75
356.399	756.75
356.626	751.75
356.853	747.75
357.08	743.75
357.307	745.75
357.534	730.75
357.761	726.75
357.988	744.75
358.215	757.75
358.441	729.75
358.668	748.75
358.895	757.75
359.122	747.75
359.349	719.75
359.576	751.75
359.802	763.75
360.029	745.75
360.256	734.75
360.483	759.75
360.709	718.75
360.936	759.75
361.163	726.75
361.39	756.75
361.616	762.75
361.843	747.75
362.07	756.75
362.296	747.75
362.523	763.75
362.749	740.75
362.976	751.75
363.203	743.75
363.429	720.75
363.656	753.75
363.882	727.75
364.109	755.75
364.335	759.75
364.562	729.75
364.788	749.75
365.015	720.75
365.241	720.75
365.468	743.75
365.694	728.75
365.92	742.75
366.147	723.75
366.373	752.75
366.599	735.75
366.826	724.75
367.052	747.75
367.278	727.75
367.505	739.75
367.731	749.75
367.957	742.75
368.184	758.75
368.41	747.75
368.636	776.75
368.862	754.75
369.089	739.75
369.315	768.75
369.541	761.75
369.767	773.75
369.993	757.75
370.219	796.75
370.445	782.75
370.672	783.75
370.898	773.75
371.124	809.75
371.35	808.75
371.576	794.75
371.802	809.75
372.028	792.75
372.254	801.75
372.48	819.75
372.706	849.75
372.932	861.75
373.158	850.75
373.384	821.75
373.61	796.75
373.835	820.75
374.061	802.75
374.287	826.75
374.513	839.75
374.739	867.75
374.965	922.75
375.191	915.75
375.416	894.75
375.642	860.75
375.868	857.75
376.094	822.75
376.319	839.75
376.545	820.75
376.771	793.75
376.997	809.75
377.222	786.75
377.448	783.75
377.674	813.75
377.899	825.75
378.125	794.75
378.35	785.75
378.576	800.75
378.802	776.75
379.027	795.75
379.253	807.75
379.478	789.75
379.704	788.75
379.929	782.75
380.155	800.75
380.38	825.75
380.606	799.75
380.831	779.75
381.057	807.75
381.282	813.75
381.507	784.75
381.733	792.75
381.958	827.75
382.184	832.75
382.409	836.75
382.634	847.75
382.86	831.75
383.085	883.75
383.31	891.75
383.535	884.75
383.761	910.75
383.986	906.75
384.211	925.75
384.436	982.75
384.662	987.75
384.887	1017.75
385.112	966.75
385.337	988.75
385.562	992.75
385.787	979.75
386.013	1015.75
386.238	991.75
386.463	986.75
386.688	995.75
386.913	957.75
387.138	955.75
387.363	960.75
387.588	956.75
387.813	938.75
388.038	962.75
388.263	956.75
388.488	989.75
388.713	976.75
388.938	940.75
389.163	935.75
389.387	950.75
389.612	930.75
389.837	924.75
390.062	942.75
390.287	948.75
390.512	935.75
390.736	935.75
390.961	1011.75
391.186	1002.75
391.411	1032.75
391.636	1085.75
391.86	1122.75
392.085	1121.75
392.31	1077.75
392.534	1101.75
392.759	1058.75
392.984	1046.75
393.208	1030.75
393.433	1021.75
393.658	1023.75
393.882	1048.75
394.107	1049.75
394.331	1064.75
394.556	1074.75
394.78	1076.75
395.005	1066.75
395.229	1062.75
395.454	1092.75
395.678	1127.75
395.903	1124.75
396.127	1076.75
396.352	1057.75
396.576	1042.75
396.801	1010.75
397.025	1031.75
397.249	1087.75
397.474	1121.75
397.698	1086.75
397.922	1108.75
398.147	1058.75
398.371	1103.75
398.595	1162.75
398.82	1193.75
399.044	1287.75
399.268	1483.75
399.492	1746.75
399.717	1983.75
399.941	1901.75
400.165	1648.75
400.389	1527.75
400.613	1371.75
400.837	1295.75
401.062	1264.75
401.286	1256.75
401.51	1252.75
401.734	1242.75
401.958	1277.75
402.182	1253.75
402.406	1247.75
402.63	1270.75
402.854	1332.75
403.078	1366.75
403.302	1362.75
403.526	1383.75
403.75	1425.75
403.974	1450.75
404.198	1444.75
404.422	1487.75
404.645	1444.75
404.869	1420.75
405.093	1411.75
405.317	1373.75
405.541	1353.75
405.765	1339.75
405.988	1305.75
406.212	1342.75
406.436	1336.75
406.66	1379.75
406.883	1405.75
407.107	1494.75
407.331	1575.75
407.555	1586.75
407.778	1559.75
408.002	1553.75
408.226	1533.75
408.449	1486.75
408.673	1390.75
408.896	1365.75
409.12	1380.75
409.344	1383.75
409.567	1407.75
409.791	1400.75
410.014	1365.75
410.238	1330.75
410.461	1355.75
410.685	1327.75
410.908	1319.75
411.132	1326.75
411.355	1257.75
411.578	1260.75
411.802	1267.75
412.025	1266.75
412.249	1293.75
412.472	1339.75
412.695	1248.75
412.919	1231.75
413.142	1224.75
413.365	1195.75
413.589	1202.75
413.812	1180.75
414.035	1208.75
414.258	1235.75
414.482	1248.75
414.705	1267.75
414.928	1251.75
415.151	1242.75
415.374	1208.75
415.597	1229.75
415.821	1196.75
416.044	1173.75
416.267	1194.75
416.49	1182.75
416.713	1157.75
416.936	1188.75
417.159	1180.75
417.382	1223.75
417.605	1183.75
417.828	1220.75
418.051	1198.75
418.274	1191.75
418.497	1215.75
418.72	1262.75
418.943	1248.75
419.166	1304.75
419.389	1383.75
419.611	1346.75
419.834	1309.75
420.057	1259.75
420.28	1229.75
420.503	1182.75
420.726	1157.75
420.948	1204.75
421.171	1168.75
421.394	1192.75
421.617	1180.75
421.839	1198.75
422.062	1225.75
422.285	1197.75
422.507	1235.75
422.73	1252.75
422.953	1269.75
423.175	1284.75
423.398	1285.75
423.621	1303.75
423.843	1309.75
424.066	1333.75
424.288	1295.75
424.511	1294.75
424.733	1278.75
424.956	1243.75
425.178	1208.75
425.401	1215.75
425.623	1216.75
425.846	1163.75
426.068	1149.75
426.291	1158.75
426.513	1178.75
426.735	1104.75
426.958	1129.75
427.18	1091.75
427.402	1117.75
427.625	1041.75
427.847	1082.75
428.069	1064.75
428.292	1071.75
428.514	1044.75
428.736	1005.75
428.958	1048.75
429.181	1014.75
429.403	1037.75
429.625	1034.75
429.847	1027.75
430.069	1036.75
430.292	1036.75
430.514	1002.75
430.736	1052.75
430.958	1019.75
431.18	1022.75
431.402	1036.75
431.624	1036.75
431.846	1073.75
432.068	1081.75
432.29	1095.75
432.512	1061.75
432.734	1063.75
432.956	1061.75
433.178	1046.75
433.4	1044.75
433.622	1059.75
433.844	1072.75
434.066	1084.75
434.287	1090.75
434.509	1115.75
434.731	1175.75
434.953	1198.75
435.175	1203.75
435.397	1175.75
435.618	1109.75
435.84	1128.75
436.062	1077.75
436.284	1064.75
436.505	1065.75
436.727	1040.75
436.949	1066.75
437.17	1034.75
437.392	1043.75
437.614	1018.75
437.835	992.75
438.057	1010.75
438.278	1008.75
438.5	989.75
438.721	1010.75
438.943	1023.75
439.165	998.75
439.386	1025.75
439.608	1058.75
439.829	1027.75
440.05	1082.75
440.272	1063.75
440.493	1041.75
440.715	1082.75
440.936	1062.75
441.158	1104.75
441.379	1133.75
441.6	1201.75
441.822	1221.75
442.043	1179.75
442.264	1190.75
442.486	1178.75
442.707	1192.75
442.928	1164.75
443.149	1138.75
443.371	1165.75
443.592	1165.75
443.813	1215.75
444.034	1182.75
444.255	1254.75
444.476	1314.75
444.698	1408.75
444.919	1448.75
445.14	1525.75
445.361	1343.75
445.582	1220.75
445.803	1174.75
446.024	1143.75
446.245	1106.75
446.466	1050.75
446.687	1061.75
446.908	1059.75
447.129	1033.75
447.35	1007.75
447.571	1002.75
447.792	972.75
448.013	980.75
448.234	980.75
448.455	959.75
448.675	946.75
448.896	957.75
449.117	944.75
449.338	965.75
449.559	912.75
449.779	942.75
450	925.75
450.221	939.75
450.442	971.75
450.662	948.75
450.883	988.75
451.104	972.75
451.324	947.75
451.545	989.75
451.766	990.75
451.986	955.75
452.207	940.75
452.428	924.75
452.648	926.75
452.869	916.75
453.089	911.75
453.31	925.75
453.53	954.75
453.751	921.75
453.971	906.75
454.192	912.75
454.412	894.75
454.633	921.75
454.853	918.75
455.073	921.75
455.294	895.75
455.514	872.75
455.734	894.75
455.955	866.75
456.175	902.75
456.395	896.75
456.616	892.75
456.836	925.75
457.056	890.75
457.276	872.75
457.497	919.75
457.717	894.75
457.937	889.75
458.157	927.75
458.377	915.75
458.598	960.75
458.818	971.75
459.038	965.75
459.258	1030.75
459.478	1031.75
459.698	1086.75
459.918	1123.75
460.138	1234.75
460.358	1241.75
460.578	1237.75
460.798	1268.75
461.018	1254.75
461.238	1245.75
461.458	1242.75
461.678	1248.75
461.898	1222.75
462.118	1253.75
462.338	1332.75
462.558	1391.75
462.777	1394.75
462.997	1586.75
463.217	1723.75
463.437	1720.75
463.657	1518.75
463.876	1472.75
464.096	1476.75
464.316	1481.75
464.536	1497.75
464.755	1391.75
464.975	1330.75
465.195	1284.75
465.414	1210.75
465.634	1131.75
465.854	1106.75
466.073	1082.75
466.293	1082.75
466.512	1061.75
466.732	1030.75
466.951	1035.75
467.171	1037.75
467.391	1031.75
467.61	996.75
467.829	1015.75
468.049	977.75
468.268	957.75
468.488	957.75
468.707	951.75
468.927	995.75
469.146	967.75
469.365	973.75
469.585	959.75
469.804	1008.75
470.023	1030.75
470.243	1010.75
470.462	1055.75
470.681	1067.75
470.901	1034.75
471.12	1038.75
471.339	1013.75
471.558	975.75
471.777	971.75
471.997	966.75
472.216	972.75
472.435	965.75
472.654	923.75
472.873	926.75
473.092	910.75
473.311	938.75
473.53	947.75
473.749	945.75
473.968	915.75
474.187	927.75
474.406	919.75
474.625	947.75
474.844	950.75
475.063	950.75
475.282	971.75
475.501	962.75
475.72	953.75
475.939	946.75
476.158	907.75
476.377	967.75
476.596	970.75
476.814	986.75
477.033	987.75
477.252	1032.75
477.471	1035.75
477.69	1072.75
477.908	1102.75
478.127	1124.75
478.346	1117.75
478.564	1141.75
478.783	1161.75
479.002	1192.75
479.22	1205.75
479.439	1181.75
479.658	1175.75
479.876	1192.75
480.095	1175.75
480.313	1234.75
480.532	1320.75
480.751	1256.75
480.969	1177.75
481.188	1152.75
481.406	1135.75
481.624	1087.75
481.843	1101.75
482.061	1084.75
482.28	1074.75
482.498	1053.75
482.717	1060.75
482.935	1054.75
483.153	1047.75
483.372	1101.75
483.59	1056.75
483.808	1062.75
484.027	1069.75
484.245	1063.75
484.463	1090.75
484.681	1078.75
484.9	1097.75
485.118	1122.75
485.336	1090.75
485.554	1100.75
485.772	1118.75
485.99	1124.75
486.209	1109.75
486.427	1103.75
486.645	1103.75
486.863	1123.75
487.081	1149.75
487.299	1080.75
487.517	1104.75
487.735	1092.75
487.953	1130.75
488.171	1112.75
488.389	1127.75
488.607	1101.75
488.825	1092.75
489.043	1092.75
489.261	1070.75
489.479	1107.75
489.696	1109.75
489.914	1102.75
490.132	1154.75
490.35	1119.75
490.568	1114.75
490.786	1146.75
491.003	1124.75
491.221	1155.75
491.439	1154.75
491.657	1113.75
491.874	1137.75
492.092	1122.75
492.31	1142.75
492.527	1152.75
492.745	1185.75
492.963	1156.75
493.18	1167.75
493.398	1158.75
493.615	1156.75
493.833	1187.75
494.05	1176.75
494.268	1191.75
494.485	1242.75
494.703	1218.75
494.92	1191.75
495.138	1195.75
495.355	1191.75
495.573	1199.75
495.79	1183.75
496.008	1167.75
496.225	1219.75
496.442	1214.75
496.66	1245.75
496.877	1267.75
497.094	1282.75
497.312	1316.75
497.529	1339.75
497.746	1402.75
497.963	1434.75
498.181	1480.75
498.398	1545.75
498.615	1628.75
498.832	1755.75
499.049	1933.75
499.267	2077.75
499.484	2276.75
499.701	2517.75
499.918	2834.75
500.135	3251.75
500.352	3801.75
500.569	3960.75
500.786	3817.75
501.003	3506.75
501.22	3136.75
501.437	2758.75
501.654	2384.75
501.871	2167.75
502.088	2004.75
502.305	1818.75
502.522	1741.75
502.739	1682.75
502.956	1602.75
503.172	1527.75
503.389	1439.75
503.606	1411.75
503.823	1378.75
504.04	1380.75
504.256	1384.75
504.473	1464.75
504.69	1496.75
504.907	1447.75
505.123	1324.75
505.34	1239.75
505.557	1215.75
505.773	1151.75
505.99	1120.75
506.207	1127.75
506.423	1121.75
506.64	1131.75
506.856	1054.75
507.073	1064.75
507.289	1035.75
507.506	1079.75
507.722	1071.75
507.939	1011.75
508.155	1011.75
508.372	1028.75
508.588	1006.75
508.805	982.75
509.021	1015.75
509.238	993.75
509.454	987.75
509.67	995.75
509.887	977.75
510.103	959.75
510.319	956.75
510.536	964.75
510.752	948.75
510.968	969.75
511.184	948.75
511.401	984.75
511.617	986.75
511.833	965.75
512.049	961.75
512.265	942.75
512.481	983.75
512.698	944.75
512.914	947.75
513.13	956.75
513.346	952.75
513.562	953.75
513.778	977.75
513.994	972.75
514.21	963.75
514.426	989.75
514.642	988.75
514.858	979.75
515.074	1003.75
515.29	1000.75
515.506	1017.75
515.721	1017.75
515.937	1038.75
516.153	1045.75
516.369	1076.75
516.585	1112.75
516.801	1162.75
517.016	1216.75
517.232	1245.75
517.448	1350.75
517.664	1389.75
517.879	1350.75
518.095	1402.75
518.311	1347.75
518.527	1264.75
518.742	1186.75
518.958	1166.75
519.173	1139.75
519.389	1110.75
519.605	1062.75
519.82	1043.75
520.036	1033.75
520.251	998.75
520.467	964.75
520.682	964.75
520.898	953.75
521.113	956.75
521.329	957.75
521.544	930.75
521.76	958.75
521.975	912.75
522.19	911.75
522.406	923.75
522.621	938.75
522.836	894.75
523.052	906.75
523.267	897.75
523.482	890.75
523.698	872.75
523.913	860.75
524.128	878.75
524.343	868.75
524.559	872.75
524.774	898.75
524.989	901.75
525.204	879.75
525.419	860.75
525.634	856.75
525.849	867.75
526.064	879.75
526.28	849.75
526.495	875.75
526.71	876.75
526.925	841.75
527.14	885.75
527.355	852.75
527.57	864.75
527.785	835.75
527.999	832.75
528.214	842.75
528.429	871.75
528.644	876.75
528.859	845.75
529.074	857.75
529.289	879.75
529.503	845.75
529.718	864.75
529.933	871.75
530.148	852.75
530.363	850.75
530.577	842.75
530.792	853.75
531.007	870.75
531.221	869.75
531.436	859.75
531.651	855.75
531.865	855.75
532.08	849.75
532.295	868.75
532.509	863.75
532.724	861.75
532.938	872.75
533.153	862.75
533.367	848.75
533.582	824.75
533.796	873.75
534.011	874.75
534.225	860.75
534.44	867.75
534.654	838.75
534.868	848.75
535.083	850.75
535.297	838.75
535.511	821.75
535.726	810.75
535.94	811.75
536.154	789.75
536.369	794.75
536.583	794.75
536.797	812.75
537.011	825.75
537.225	793.75
537.44	797.75
537.654	793.75
537.868	809.75
538.082	744.75
538.296	782.75
538.51	785.75
538.724	800.75
538.938	783.75
539.153	782.75
539.367	779.75
539.581	768.75
539.795	763.75
540.009	791.75
540.222	770.75
540.436	785.75
540.65	774.75
540.864	759.75
541.078	746.75
541.292	770.75
541.506	749.75
541.72	768.75
541.934	760.75
542.147	786.75
542.361	781.75
542.575	750.75
542.789	750.75
543.002	741.75
543.216	740.75
543.43	743.75
543.644	763.75
543.857	757.75
544.071	783.75
544.285	766.75
544.498	799.75
544.712	765.75
544.925	775.75
545.139	809.75
545.352	799.75
545.566	795.75
545.779	802.75
545.993	798.75
546.206	806.75
546.42	772.75
546.633	766.75
546.847	795.75
547.06	764.75
547.274	758.75
547.487	803.75
547.7	789.75
547.914	792.75
548.127	806.75
548.34	813.75
548.554	811.75
548.767	774.75
548.98	796.75
549.193	811.75
549.407	801.75
549.62	835.75
549.833	851.75
550.046	827.75
550.259	813.75
550.473	814.75
550.686	799.75
550.899	820.75
551.112	791.75
551.325	759.75
551.538	774.75
551.751	773.75
551.964	761.75
552.177	795.75
552.39	805.75
552.603	791.75
552.816	835.75
553.029	868.75
553.242	888.75
553.455	906.75
553.667	893.75
553.88	877.75
554.093	862.75
554.306	812.75
554.519	790.75
554.732	759.75
554.944	793.75
555.157	747.75
555.37	727.75
555.583	732.75
555.795	723.75
556.008	692.75
556.221	694.75
556.433	684.75
556.646	695.75
556.859	698.75
557.071	675.75
557.284	675.75
557.496	691.75
557.709	680.75
557.921	691.75
558.134	655.75
558.346	668.75
558.559	649.75
558.771	668.75
558.984	664.75
559.196	685.75
559.409	653.75
559.621	643.75
559.833	635.75
560.046	662.75
560.258	640.75
560.47	649.75
560.683	644.75
560.895	655.75
561.107	648.75
561.32	662.75
561.532	652.75
561.744	655.75
561.956	615.75
562.168	636.75
562.381	631.75
562.593	667.75
562.805	651.75
563.017	669.75
563.229	632.75
563.441	652.75
563.653	669.75
563.865	656.75
564.077	676.75
564.289	670.75
564.501	707.75
564.713	696.75
564.925	696.75
565.137	704.75
565.349	719.75
565.561	770.75
565.773	795.75
565.985	799.75
566.197	875.75
566.408	925.75
566.62	1030.75
566.832	1106.75
567.044	1113.75
567.255	1087.75
567.467	1144.75
567.679	1202.75
567.891	1331.75
568.102	1386.75
568.314	1295.75
568.526	1133.75
568.737	1024.75
568.949	930.75
569.161	852.75
569.372	794.75
569.584	754.75
569.795	682.75
570.007	696.75
570.218	674.75
570.43	665.75
570.641	647.75
570.853	669.75
571.064	684.75
571.276	686.75
571.487	665.75
571.698	646.75
571.91	610.75
572.121	604.75
572.333	604.75
572.544	577.75
572.755	554.75
572.966	568.75
573.178	568.75
573.389	541.75
573.6	551.75
573.811	572.75
574.023	527.75
574.234	536.75
574.445	540.75
574.656	544.75
574.867	537.75
575.078	539.75
575.289	507.75
575.501	542.75
575.712	516.75
575.923	518.75
576.134	513.75
576.345	522.75
576.556	501.75
576.767	496.75
576.978	518.75
577.188	490.75
577.399	502.75
577.61	478.75
577.821	480.75
578.032	472.75
578.243	477.75
578.454	481.75
578.665	484.75
578.875	483.75
579.086	450.75
579.297	464.75
579.508	466.75
579.718	462.75
579.929	469.75
580.14	477.75
580.35	463.75
580.561	443.75
580.772	447.75
580.982	455.75
581.193	442.75
581.403	458.75
581.614	442.75
581.825	463.75
582.035	432.75
582.246	431.75
582.456	436.75
582.667	424.75
582.877	418.75
583.087	439.75
583.298	427.75
583.508	436.75
583.719	450.75
583.929	423.75
584.139	418.75
584.35	432.75
584.56	420.75
584.77	439.75
584.981	416.75
585.191	419.75
585.401	430.75
585.611	444.75
585.821	414.75
586.032	451.75
586.242	441.75
586.452	439.75
586.662	416.75
586.872	424.75
587.082	419.75
587.292	419.75
587.502	411.75
587.713	423.75
587.923	408.75
588.133	421.75
588.343	404.75
588.553	418.75
588.762	420.75
588.972	430.75
589.182	453.75
589.392	418.75
589.602	419.75
589.812	427.75
590.022	454.75
590.232	422.75
590.441	419.75
590.651	425.75
590.861	419.75
591.071	423.75
591.281	459.75
591.49	435.75
591.7	471.75
591.91	446.75
592.119	465.75
592.329	490.75
592.539	486.75
592.748	517.75
592.958	521.75
593.167	547.75
593.377	547.75
593.587	571.75
593.796	528.75
594.006	566.75
594.215	548.75
594.424	584.75
594.634	556.75
594.843	531.75
595.053	496.75
595.262	472.75
595.472	465.75
595.681	463.75
595.89	451.75
596.1	429.75
596.309	418.75
596.518	414.75
596.727	410.75
596.937	399.75
597.146	383.75
597.355	391.75
597.564	386.75
597.774	396.75
597.983	375.75
598.192	365.75
598.401	378.75
598.61	380.75
598.819	374.75
599.028	369.75
599.237	348.75
599.446	371.75
599.655	365.75
599.864	363.75
600.073	357.75
600.282	378.75
600.491	359.75
600.7	347.75
600.909	348.75
601.118	350.75
601.327	349.75
601.536	354.75
601.745	349.75
601.953	344.75
602.162	360.75
602.371	340.75
602.58	348.75
602.789	360.75
602.997	357.75
603.206	354.75
603.415	336.75
603.623	364.75
603.832	330.75
604.041	357.75
604.249	333.75
604.458	327.75
604.666	346.75
604.875	320.75
605.084	341.75
605.292	327.75
605.501	346.75
605.709	320.75
605.918	329.75
606.126	304.75
606.334	331.75
606.543	332.75
606.751	330.75
606.96	334.75
607.168	310.75
607.376	314.75
607.585	334.75
607.793	325.75
608.001	312.75
608.21	325.75
608.418	327.75
608.626	327.75
608.834	321.75
609.043	321.75
609.251	306.75
609.459	316.75
609.667	310.75
609.875	325.75
610.083	316.75
610.291	314.75
610.499	318.75
610.707	314.75
610.916	307.75
611.124	322.75
611.332	312.75
611.54	308.75
611.748	311.75
611.955	308.75
612.163	292.75
612.371	304.75
612.579	302.75
612.787	282.75
612.995	313.75
613.203	308.75
613.411	314.75
613.618	286.75
613.826	309.75
614.034	317.75
614.242	311.75
614.449	304.75
614.657	312.75
614.865	298.75
615.072	299.75
615.28	301.75
615.488	308.75
615.695	300.75
615.903	301.75
616.111	302.75
616.318	302.75
616.526	295.75
616.733	337.75
616.941	300.75
617.148	315.75
617.356	302.75
617.563	306.75
617.771	301.75
617.978	301.75
618.185	289.75
618.393	312.75
618.6	298.75
618.807	293.75
619.015	301.75
619.222	306.75
619.429	310.75
619.637	309.75
619.844	291.75
620.051	301.75
620.258	310.75
620.466	284.75
620.673	286.75
620.88	287.75
621.087	282.75
621.294	278.75
621.501	287.75
621.708	287.75
621.915	279.75
622.122	296.75
622.329	294.75
622.536	293.75
622.743	277.75
622.95	259.75
623.157	278.75
623.364	286.75
623.571	263.75
623.778	269.75
623.985	285.75
624.192	282.75
624.399	264.75
624.606	264.75
624.812	261.75
625.019	268.75
625.226	281.75
625.433	266.75
625.639	251.75
625.846	262.75
626.053	259.75
626.259	266.75
626.466	275.75
626.673	260.75
626.879	257.75
627.086	260.75
627.293	268.75
627.499	248.75
627.706	270.75
627.912	264.75
628.119	270.75
628.325	263.75
628.532	250.75
628.738	260.75
628.945	246.75
629.151	234.75
629.357	270.75
629.564	239.75
629.77	239.75
629.976	251.75
630.183	236.75
630.389	252.75
630.595	240.75
630.802	238.75
631.008	231.75
631.214	237.75
631.42	243.75
631.627	243.75
631.833	236.75
632.039	215.75
632.245	236.75
632.451	222.75
632.657	235.75
632.863	232.75
633.069	231.75
633.275	218.75
633.481	218.75
633.688	223.75
633.893	237.75
634.099	240.75
634.305	225.75
634.511	208.75
634.717	204.75
634.923	231.75
635.129	234.75
635.335	220.75
635.541	229.75
635.747	214.75
635.952	217.75
636.158	219.75
636.364	217.75
636.57	248.75
636.775	235.75
636.981	213.75
637.187	196.75
637.392	239.75
637.598	226.75
637.804	223.75
638.009	208.75
638.215	212.75
638.421	208.75
638.626	202.75
638.832	231.75
639.037	209.75
639.243	214.75
639.448	216.75
639.654	211.75
639.859	210.75
640.065	203.75
640.27	209.75
640.475	201.75
640.681	210.75
640.886	217.75
641.091	201.75
641.297	218.75
641.502	210.75
641.707	199.75
641.913	194.75
642.118	198.75
642.323	203.75
642.528	201.75
642.733	191.75
642.939	182.75
643.144	195.75
643.349	203.75
643.554	215.75
643.759	207.75
643.964	191.75
644.169	202.75
644.374	204.75
644.579	204.75
644.784	203.75
644.989	199.75
645.194	197.75
645.399	207.75
645.604	171.75
645.809	189.75
646.014	202.75
646.219	203.75
646.423	194.75
646.628	209.75
646.833	185.75
647.038	211.75
647.243	214.75
647.447	208.75
647.652	203.75
647.857	211.75
648.062	223.75
648.266	222.75
648.471	219.75
648.676	230.75
648.88	201.75
649.085	224.75
649.289	206.75
649.494	203.75
649.698	208.75
649.903	191.75
650.107	190.75
650.312	197.75
650.516	190.75
650.721	205.75
650.925	186.75
651.13	184.75
651.334	172.75
651.539	196.75
651.743	171.75
651.947	186.75
652.152	186.75
652.356	179.75
652.56	162.75
652.764	181.75
652.969	163.75
653.173	167.75
653.377	166.75
653.581	162.75
653.785	164.75
653.99	167.75
654.194	152.75
654.398	158.75
654.602	165.75
654.806	152.75
655.01	173.75
655.214	148.75
655.418	160.75
655.622	144.75
655.826	150.75
656.03	126.75
656.234	151.75
656.438	158.75
656.642	154.75
656.846	139.75
657.049	144.75
657.253	130.75
657.457	128.75
657.661	125.75
657.865	116.75
658.068	128.75
658.272	124.75
658.476	115.75
658.68	138.75
658.883	122.75
659.087	118.75
659.291	106.75
659.494	105.75
659.698	100.75
659.901	107.75
660.105	111.75
660.309	108.75
660.512	100.75
660.716	99.75
660.919	109.75
661.123	110.75
661.326	108.75
661.53	104.75
661.733	104.75
661.936	98.75
662.14	85.75
662.343	91.75
662.546	86.75
662.75	95.75
662.953	88.75
663.156	86.75
663.36	85.75
663.563	101.75
663.766	85.75
663.969	87.75
664.173	75.75
664.376	90.75
664.579	98.75
664.782	77.75
664.985	83.75
665.188	76.75
665.391	72.75
665.594	96.75
665.797	85.75
666	78.75
666.203	88.75
666.406	98.75
666.609	83.75
666.812	94.75
667.015	91.75
667.218	96.75
667.421	87.75
667.624	92.75
667.827	83.75
668.03	82.75
668.232	82.75
668.435	80.75
668.638	77.75
668.841	94.75
669.043	84.75
669.246	81.75
669.449	89.75
669.651	87.75
669.854	65.75
670.057	103.75
670.259	91.75
670.462	95.75
670.665	82.75
670.867	91.75
671.07	84.75
671.272	78.75
671.475	84.75
671.677	87.75
671.88	89.75
672.082	71.75
672.284	86.75
672.487	87.75
672.689	74.75
672.892	83.75
