Data from NiCl2@0.25M.TitratingCurve.Agarose3%dH2O.NegLispCup.LampEnergy10.LIBS07252019_HRD10591_18-23-31-572.txt Node
Date: Thu Jul 25 18:23:31 EDT 2019
User: cochatt
Spectrometer: HR+D1059
Trigger mode: 1
Integration Time (sec): 1.000000E-1
Scans to average: 1
Electric dark correction enabled: true
Nonlinearity correction enabled: false
Boxcar width: 0
XAxis mode: Wavelengths
Number of Pixels in Spectrum: 2048
>>>>>Begin Spectral Data<<<<<
223.165	-20.19
223.4	-20.19
223.635	-20.19
223.869	-5.19
224.104	-28.19
224.338	-10.19
224.573	-10.19
224.808	-1.19
225.042	-0.19
225.277	-12.19
225.511	-7.19
225.746	2.81
225.98	-3.19
226.215	3.81
226.449	20.81
226.683	27.81
226.918	28.81
227.152	13.81
227.387	43.81
227.621	33.81
227.856	33.81
228.09	52.81
228.324	41.81
228.559	55.81
228.793	71.81
229.027	101.81
229.262	103.81
229.496	114.81
229.73	122.81
229.964	112.81
230.199	125.81
230.433	118.81
230.667	123.81
230.901	136.81
231.136	124.81
231.37	132.81
231.604	133.81
231.838	134.81
232.072	138.81
232.306	154.81
232.541	148.81
232.775	143.81
233.009	125.81
233.243	127.81
233.477	140.81
233.711	142.81
233.945	140.81
234.179	136.81
234.413	154.81
234.647	140.81
234.881	151.81
235.115	124.81
235.349	137.81
235.583	160.81
235.817	154.81
236.051	147.81
236.285	124.81
236.519	134.81
236.753	137.81
236.987	135.81
237.221	138.81
237.455	149.81
237.689	141.81
237.922	149.81
238.156	156.81
238.39	150.81
238.624	158.81
238.858	162.81
239.091	157.81
239.325	163.81
239.559	168.81
239.793	153.81
240.027	170.81
240.26	164.81
240.494	158.81
240.728	161.81
240.961	172.81
241.195	165.81
241.429	160.81
241.662	165.81
241.896	169.81
242.13	170.81
242.363	170.81
242.597	188.81
242.83	168.81
243.064	167.81
243.298	185.81
243.531	200.81
243.765	185.81
243.998	195.81
244.232	172.81
244.465	185.81
244.699	194.81
244.932	192.81
245.166	203.81
245.399	204.81
245.633	199.81
245.866	194.81
246.099	191.81
246.333	199.81
246.566	192.81
246.8	193.81
247.033	207.81
247.266	201.81
247.5	196.81
247.733	188.81
247.966	217.81
248.2	203.81
248.433	205.81
248.666	212.81
248.899	215.81
249.133	235.81
249.366	206.81
249.599	223.81
249.832	213.81
250.066	221.81
250.299	213.81
250.532	217.81
250.765	219.81
250.998	232.81
251.231	243.81
251.465	217.81
251.698	215.81
251.931	232.81
252.164	232.81
252.397	221.81
252.63	244.81
252.863	230.81
253.096	251.81
253.329	247.81
253.562	239.81
253.795	242.81
254.028	246.81
254.261	244.81
254.494	230.81
254.727	252.81
254.96	252.81
255.193	245.81
255.426	256.81
255.659	248.81
255.892	254.81
256.124	252.81
256.357	265.81
256.59	262.81
256.823	268.81
257.056	251.81
257.289	251.81
257.521	240.81
257.754	260.81
257.987	276.81
258.22	275.81
258.452	270.81
258.685	280.81
258.918	263.81
259.151	261.81
259.383	263.81
259.616	262.81
259.849	278.81
260.081	263.81
260.314	274.81
260.547	272.81
260.779	280.81
261.012	291.81
261.244	292.81
261.477	282.81
261.71	290.81
261.942	296.81
262.175	284.81
262.407	275.81
262.64	288.81
262.872	299.81
263.105	299.81
263.337	297.81
263.57	300.81
263.802	287.81
264.035	315.81
264.267	304.81
264.499	308.81
264.732	312.81
264.964	318.81
265.197	280.81
265.429	309.81
265.661	316.81
265.894	313.81
266.126	313.81
266.358	303.81
266.591	329.81
266.823	319.81
267.055	328.81
267.287	304.81
267.52	319.81
267.752	302.81
267.984	313.81
268.216	331.81
268.448	326.81
268.681	324.81
268.913	325.81
269.145	333.81
269.377	331.81
269.609	336.81
269.841	353.81
270.073	340.81
270.306	338.81
270.538	340.81
270.77	331.81
271.002	337.81
271.234	337.81
271.466	328.81
271.698	341.81
271.93	343.81
272.162	362.81
272.394	357.81
272.626	355.81
272.858	334.81
273.09	345.81
273.322	354.81
273.553	355.81
273.785	352.81
274.017	350.81
274.249	346.81
274.481	371.81
274.713	367.81
274.945	344.81
275.176	358.81
275.408	352.81
275.64	363.81
275.872	375.81
276.104	372.81
276.335	369.81
276.567	369.81
276.799	360.81
277.031	366.81
277.262	375.81
277.494	394.81
277.726	381.81
277.957	383.81
278.189	382.81
278.421	380.81
278.652	379.81
278.884	377.81
279.115	376.81
279.347	378.81
279.579	388.81
279.81	399.81
280.042	378.81
280.273	407.81
280.505	399.81
280.736	390.81
280.968	402.81
281.199	393.81
281.431	404.81
281.662	401.81
281.894	396.81
282.125	414.81
282.356	407.81
282.588	406.81
282.819	409.81
283.051	419.81
283.282	428.81
283.513	432.81
283.745	427.81
283.976	420.81
284.207	422.81
284.439	412.81
284.67	432.81
284.901	444.81
285.132	420.81
285.364	425.81
285.595	432.81
285.826	435.81
286.057	435.81
286.288	415.81
286.52	432.81
286.751	453.81
286.982	457.81
287.213	454.81
287.444	459.81
287.675	451.81
287.906	460.81
288.138	458.81
288.369	460.81
288.6	459.81
288.831	447.81
289.062	457.81
289.293	448.81
289.524	443.81
289.755	459.81
289.986	448.81
290.217	452.81
290.448	447.81
290.679	447.81
290.91	467.81
291.141	465.81
291.371	481.81
291.602	462.81
291.833	447.81
292.064	461.81
292.295	460.81
292.526	488.81
292.757	466.81
292.987	468.81
293.218	467.81
293.449	478.81
293.68	442.81
293.91	470.81
294.141	478.81
294.372	451.81
294.603	469.81
294.833	483.81
295.064	477.81
295.295	465.81
295.525	485.81
295.756	476.81
295.987	466.81
296.217	472.81
296.448	490.81
296.679	471.81
296.909	481.81
297.14	490.81
297.37	479.81
297.601	488.81
297.831	492.81
298.062	490.81
298.292	513.81
298.523	519.81
298.753	527.81
298.984	507.81
299.214	513.81
299.445	503.81
299.675	507.81
299.905	501.81
300.136	502.81
300.366	493.81
300.597	525.81
300.827	519.81
301.057	516.81
301.288	528.81
301.518	526.81
301.748	555.81
301.979	534.81
302.209	529.81
302.439	544.81
302.669	538.81
302.9	517.81
303.13	511.81
303.36	536.81
303.59	521.81
303.82	534.81
304.051	540.81
304.281	531.81
304.511	528.81
304.741	532.81
304.971	529.81
305.201	534.81
305.431	532.81
305.661	544.81
305.891	495.81
306.121	527.81
306.352	505.81
306.582	521.81
306.812	507.81
307.042	516.81
307.272	537.81
307.502	500.81
307.731	520.81
307.961	515.81
308.191	501.81
308.421	520.81
308.651	537.81
308.881	531.81
309.111	517.81
309.341	519.81
309.571	527.81
309.8	525.81
310.03	551.81
310.26	510.81
310.49	513.81
310.72	520.81
310.949	506.81
311.179	542.81
311.409	504.81
311.639	532.81
311.868	530.81
312.098	537.81
312.328	542.81
312.557	540.81
312.787	550.81
313.017	562.81
313.246	581.81
313.476	581.81
313.706	571.81
313.935	547.81
314.165	592.81
314.394	587.81
314.624	541.81
314.853	541.81
315.083	546.81
315.312	561.81
315.542	552.81
315.771	540.81
316.001	533.81
316.23	546.81
316.46	567.81
316.689	560.81
316.919	560.81
317.148	550.81
317.377	539.81
317.607	562.81
317.836	523.81
318.065	561.81
318.295	547.81
318.524	545.81
318.753	548.81
318.983	522.81
319.212	543.81
319.441	541.81
319.67	549.81
319.9	571.81
320.129	557.81
320.358	550.81
320.587	538.81
320.816	545.81
321.046	536.81
321.275	562.81
321.504	553.81
321.733	548.81
321.962	549.81
322.191	578.81
322.42	575.81
322.649	564.81
322.878	554.81
323.108	556.81
323.337	560.81
323.566	559.81
323.795	579.81
324.024	584.81
324.253	555.81
324.482	563.81
324.71	552.81
324.939	542.81
325.168	587.81
325.397	577.81
325.626	561.81
325.855	598.81
326.084	606.81
326.313	620.81
326.542	586.81
326.77	601.81
326.999	594.81
327.228	626.81
327.457	591.81
327.686	577.81
327.914	631.81
328.143	627.81
328.372	607.81
328.6	635.81
328.829	609.81
329.058	621.81
329.287	611.81
329.515	609.81
329.744	610.81
329.972	609.81
330.201	634.81
330.43	629.81
330.658	612.81
330.887	633.81
331.115	619.81
331.344	651.81
331.572	646.81
331.801	647.81
332.03	651.81
332.258	680.81
332.486	696.81
332.715	736.81
332.943	744.81
333.172	789.81
333.4	823.81
333.629	812.81
333.857	822.81
334.085	799.81
334.314	808.81
334.542	809.81
334.771	773.81
334.999	767.81
335.227	791.81
335.455	768.81
335.684	720.81
335.912	746.81
336.14	739.81
336.369	737.81
336.597	696.81
336.825	728.81
337.053	735.81
337.281	722.81
337.51	701.81
337.738	709.81
337.966	654.81
338.194	665.81
338.422	658.81
338.65	658.81
338.878	663.81
339.106	668.81
339.334	671.81
339.562	640.81
339.79	628.81
340.018	652.81
340.246	621.81
340.474	634.81
340.702	633.81
340.93	640.81
341.158	644.81
341.386	619.81
341.614	636.81
341.842	656.81
342.07	638.81
342.298	619.81
342.526	608.81
342.754	636.81
342.981	646.81
343.209	653.81
343.437	675.81
343.665	682.81
343.893	779.81
344.12	796.81
344.348	760.81
344.576	727.81
344.804	703.81
345.031	673.81
345.259	657.81
345.487	650.81
345.714	632.81
345.942	645.81
346.17	620.81
346.397	642.81
346.625	639.81
346.853	587.81
347.08	597.81
347.308	617.81
347.535	636.81
347.763	634.81
347.99	622.81
348.218	598.81
348.445	627.81
348.673	607.81
348.9	602.81
349.128	607.81
349.355	596.81
349.583	628.81
349.81	619.81
350.037	608.81
350.265	604.81
350.492	581.81
350.72	607.81
350.947	605.81
351.174	591.81
351.402	604.81
351.629	580.81
351.856	588.81
352.083	599.81
352.311	608.81
352.538	573.81
352.765	600.81
352.992	594.81
353.22	577.81
353.447	578.81
353.674	586.81
353.901	585.81
354.128	580.81
354.355	591.81
354.583	575.81
354.81	583.81
355.037	597.81
355.264	593.81
355.491	602.81
355.718	607.81
355.945	587.81
356.172	578.81
356.399	593.81
356.626	599.81
356.853	593.81
357.08	581.81
357.307	575.81
357.534	602.81
357.761	605.81
357.988	604.81
358.215	573.81
358.441	602.81
358.668	573.81
358.895	586.81
359.122	583.81
359.349	583.81
359.576	599.81
359.802	596.81
360.029	596.81
360.256	589.81
360.483	600.81
360.709	584.81
360.936	604.81
361.163	608.81
361.39	605.81
361.616	609.81
361.843	588.81
362.07	617.81
362.296	587.81
362.523	575.81
362.749	612.81
362.976	591.81
363.203	605.81
363.429	572.81
363.656	591.81
363.882	605.81
364.109	596.81
364.335	593.81
364.562	617.81
364.788	596.81
365.015	573.81
365.241	609.81
365.468	610.81
365.694	594.81
365.92	591.81
366.147	603.81
366.373	581.81
366.599	598.81
366.826	595.81
367.052	580.81
367.278	586.81
367.505	590.81
367.731	593.81
367.957	593.81
368.184	610.81
368.41	617.81
368.636	603.81
368.862	588.81
369.089	594.81
369.315	612.81
369.541	635.81
369.767	614.81
369.993	609.81
370.219	624.81
370.445	608.81
370.672	629.81
370.898	620.81
371.124	631.81
371.35	641.81
371.576	640.81
371.802	663.81
372.028	633.81
372.254	641.81
372.48	643.81
372.706	659.81
372.932	653.81
373.158	661.81
373.384	675.81
373.61	643.81
373.835	647.81
374.061	651.81
374.287	651.81
374.513	672.81
374.739	677.81
374.965	715.81
375.191	722.81
375.416	703.81
375.642	683.81
375.868	697.81
376.094	658.81
376.319	665.81
376.545	641.81
376.771	653.81
376.997	639.81
377.222	673.81
377.448	643.81
377.674	635.81
377.899	644.81
378.125	647.81
378.35	653.81
378.576	650.81
378.802	645.81
379.027	608.81
379.253	623.81
379.478	639.81
379.704	637.81
379.929	629.81
380.155	615.81
380.38	627.81
380.606	623.81
380.831	627.81
381.057	650.81
381.282	639.81
381.507	651.81
381.733	647.81
381.958	650.81
382.184	651.81
382.409	676.81
382.634	673.81
382.86	692.81
383.085	662.81
383.31	671.81
383.535	681.81
383.761	714.81
383.986	704.81
384.211	732.81
384.436	765.81
384.662	771.81
384.887	738.81
385.112	779.81
385.337	785.81
385.562	788.81
385.787	769.81
386.013	787.81
386.238	778.81
386.463	762.81
386.688	803.81
386.913	765.81
387.138	748.81
387.363	766.81
387.588	771.81
387.813	762.81
388.038	757.81
388.263	755.81
388.488	791.81
388.713	771.81
388.938	746.81
389.163	742.81
389.387	733.81
389.612	757.81
389.837	737.81
390.062	736.81
390.287	754.81
390.512	764.81
390.736	755.81
390.961	799.81
391.186	791.81
391.411	799.81
391.636	858.81
391.86	861.81
392.085	852.81
392.31	884.81
392.534	842.81
392.759	819.81
392.984	806.81
393.208	807.81
393.433	812.81
393.658	839.81
393.882	824.81
394.107	804.81
394.331	801.81
394.556	823.81
394.78	831.81
395.005	810.81
395.229	859.81
395.454	870.81
395.678	873.81
395.903	900.81
396.127	851.81
396.352	845.81
396.576	821.81
396.801	808.81
397.025	822.81
397.249	853.81
397.474	870.81
397.698	872.81
397.922	898.81
398.147	890.81
398.371	906.81
398.595	916.81
398.82	936.81
399.044	1026.81
399.268	1151.81
399.492	1301.81
399.717	1472.81
399.941	1468.81
400.165	1295.81
400.389	1171.81
400.613	1082.81
400.837	1041.81
401.062	1009.81
401.286	984.81
401.51	952.81
401.734	972.81
401.958	975.81
402.182	971.81
402.406	949.81
402.63	1017.81
402.854	1021.81
403.078	1028.81
403.302	1041.81
403.526	1063.81
403.75	1123.81
403.974	1102.81
404.198	1085.81
404.422	1135.81
404.645	1157.81
404.869	1084.81
405.093	1084.81
405.317	1064.81
405.541	1077.81
405.765	1060.81
405.988	1065.81
406.212	1081.81
406.436	1051.81
406.66	1084.81
406.883	1114.81
407.107	1179.81
407.331	1258.81
407.555	1279.81
407.778	1280.81
408.002	1232.81
408.226	1178.81
408.449	1172.81
408.673	1155.81
408.896	1107.81
409.12	1083.81
409.344	1109.81
409.567	1117.81
409.791	1092.81
410.014	1052.81
410.238	1071.81
410.461	1064.81
410.685	1054.81
410.908	1017.81
411.132	1010.81
411.355	1007.81
411.578	1012.81
411.802	996.81
412.025	1034.81
412.249	1037.81
412.472	1012.81
412.695	998.81
412.919	972.81
413.142	955.81
413.365	968.81
413.589	1001.81
413.812	965.81
414.035	959.81
414.258	963.81
414.482	946.81
414.705	995.81
414.928	1020.81
415.151	993.81
415.374	958.81
415.597	962.81
415.821	965.81
416.044	945.81
416.267	927.81
416.49	978.81
416.713	961.81
416.936	983.81
417.159	945.81
417.382	952.81
417.605	928.81
417.828	948.81
418.051	972.81
418.274	968.81
418.497	959.81
418.72	983.81
418.943	988.81
419.166	1053.81
419.389	1100.81
419.611	1075.81
419.834	1013.81
420.057	990.81
420.28	956.81
420.503	927.81
420.726	939.81
420.948	947.81
421.171	959.81
421.394	930.81
421.617	945.81
421.839	945.81
422.062	947.81
422.285	968.81
422.507	986.81
422.73	971.81
422.953	966.81
423.175	998.81
423.398	1031.81
423.621	1006.81
423.843	1010.81
424.066	1035.81
424.288	997.81
424.511	1010.81
424.733	996.81
424.956	979.81
425.178	942.81
425.401	944.81
425.623	933.81
425.846	925.81
426.068	929.81
426.291	960.81
426.513	909.81
426.735	904.81
426.958	896.81
427.18	871.81
427.402	905.81
427.625	900.81
427.847	861.81
428.069	850.81
428.292	880.81
428.514	860.81
428.736	858.81
428.958	859.81
429.181	834.81
429.403	831.81
429.625	806.81
429.847	811.81
430.069	819.81
430.292	849.81
430.514	823.81
430.736	835.81
430.958	839.81
431.18	845.81
431.402	841.81
431.624	846.81
431.846	825.81
432.068	853.81
432.29	877.81
432.512	847.81
432.734	851.81
432.956	832.81
433.178	860.81
433.4	853.81
433.622	888.81
433.844	871.81
434.066	879.81
434.287	863.81
434.509	917.81
434.731	921.81
434.953	967.81
435.175	949.81
435.397	956.81
435.618	887.81
435.84	888.81
436.062	845.81
436.284	859.81
436.505	854.81
436.727	857.81
436.949	852.81
437.17	859.81
437.392	849.81
437.614	825.81
437.835	818.81
438.057	827.81
438.278	810.81
438.5	817.81
438.721	797.81
438.943	807.81
439.165	810.81
439.386	820.81
439.608	815.81
439.829	840.81
440.05	858.81
440.272	865.81
440.493	858.81
440.715	860.81
440.936	861.81
441.158	877.81
441.379	905.81
441.6	955.81
441.822	949.81
442.043	935.81
442.264	951.81
442.486	928.81
442.707	917.81
442.928	905.81
443.149	920.81
443.371	937.81
443.592	938.81
443.813	966.81
444.034	959.81
444.255	988.81
444.476	1017.81
444.698	1099.81
444.919	1143.81
445.14	1236.81
445.361	1062.81
445.582	993.81
445.803	914.81
446.024	925.81
446.245	900.81
446.466	855.81
446.687	828.81
446.908	830.81
447.129	812.81
447.35	819.81
447.571	815.81
447.792	804.81
448.013	805.81
448.234	792.81
448.455	778.81
448.675	789.81
448.896	776.81
449.117	771.81
449.338	744.81
449.559	767.81
449.779	776.81
450	771.81
450.221	743.81
450.442	784.81
450.662	776.81
450.883	813.81
451.104	805.81
451.324	787.81
451.545	815.81
451.766	799.81
451.986	763.81
452.207	761.81
452.428	745.81
452.648	780.81
452.869	774.81
453.089	745.81
453.31	761.81
453.53	737.81
453.751	752.81
453.971	729.81
454.192	751.81
454.412	729.81
454.633	715.81
454.853	739.81
455.073	710.81
455.294	748.81
455.514	741.81
455.734	732.81
455.955	715.81
456.175	690.81
456.395	723.81
456.616	720.81
456.836	708.81
457.056	746.81
457.276	703.81
457.497	720.81
457.717	723.81
457.937	739.81
458.157	765.81
458.377	737.81
458.598	751.81
458.818	791.81
459.038	775.81
459.258	811.81
459.478	850.81
459.698	876.81
459.918	901.81
460.138	960.81
460.358	996.81
460.578	997.81
460.798	1009.81
461.018	1029.81
461.238	984.81
461.458	993.81
461.678	995.81
461.898	1024.81
462.118	1029.81
462.338	1071.81
462.558	1105.81
462.777	1121.81
462.997	1236.81
463.217	1336.81
463.437	1375.81
463.657	1227.81
463.876	1201.81
464.096	1184.81
464.316	1170.81
464.536	1161.81
464.755	1141.81
464.975	1100.81
465.195	1032.81
465.414	944.81
465.634	932.81
465.854	909.81
466.073	860.81
466.293	886.81
466.512	799.81
466.732	820.81
466.951	800.81
467.171	821.81
467.391	824.81
467.61	804.81
467.829	807.81
468.049	809.81
468.268	812.81
468.488	733.81
468.707	785.81
468.927	756.81
469.146	767.81
469.365	797.81
469.585	798.81
469.804	821.81
470.023	812.81
470.243	825.81
470.462	850.81
470.681	863.81
470.901	829.81
471.12	851.81
471.339	829.81
471.558	828.81
471.777	795.81
471.997	794.81
472.216	769.81
472.435	797.81
472.654	777.81
472.873	763.81
473.092	757.81
473.311	745.81
473.53	757.81
473.749	761.81
473.968	768.81
474.187	749.81
474.406	751.81
474.625	755.81
474.844	780.81
475.063	770.81
475.282	752.81
475.501	772.81
475.72	760.81
475.939	793.81
476.158	786.81
476.377	787.81
476.596	799.81
476.814	813.81
477.033	800.81
477.252	844.81
477.471	838.81
477.69	831.81
477.908	874.81
478.127	903.81
478.346	918.81
478.564	918.81
478.783	944.81
479.002	970.81
479.22	947.81
479.439	947.81
479.658	954.81
479.876	930.81
480.095	980.81
480.313	1022.81
480.532	1023.81
480.751	1017.81
480.969	976.81
481.188	956.81
481.406	906.81
481.624	910.81
481.843	871.81
482.061	887.81
482.28	863.81
482.498	856.81
482.717	880.81
482.935	905.81
483.153	859.81
483.372	877.81
483.59	904.81
483.808	861.81
484.027	886.81
484.245	844.81
484.463	880.81
484.681	888.81
484.9	910.81
485.118	883.81
485.336	909.81
485.554	905.81
485.772	892.81
485.99	923.81
486.209	929.81
486.427	944.81
486.645	922.81
486.863	922.81
487.081	896.81
487.299	921.81
487.517	931.81
487.735	917.81
487.953	951.81
488.171	887.81
488.389	921.81
488.607	904.81
488.825	939.81
489.043	898.81
489.261	907.81
489.479	920.81
489.696	905.81
489.914	927.81
490.132	902.81
490.35	903.81
490.568	898.81
490.786	931.81
491.003	947.81
491.221	937.81
491.439	955.81
491.657	925.81
491.874	905.81
492.092	934.81
492.31	947.81
492.527	960.81
492.745	930.81
492.963	904.81
493.18	971.81
493.398	977.81
493.615	962.81
493.833	951.81
494.05	962.81
494.268	984.81
494.485	952.81
494.703	979.81
494.92	1008.81
495.138	958.81
495.355	984.81
495.573	985.81
495.79	961.81
496.008	978.81
496.225	993.81
496.442	1031.81
496.66	1020.81
496.877	1061.81
497.094	1063.81
497.312	1067.81
497.529	1112.81
497.746	1119.81
497.963	1137.81
498.181	1203.81
498.398	1242.81
498.615	1310.81
498.832	1443.81
499.049	1515.81
499.267	1631.81
499.484	1808.81
499.701	2010.81
499.918	2177.81
500.135	2525.81
500.352	2824.81
500.569	2982.81
500.786	2948.81
501.003	2703.81
501.22	2424.81
501.437	2102.81
501.654	1904.81
501.871	1759.81
502.088	1595.81
502.305	1479.81
502.522	1386.81
502.739	1352.81
502.956	1290.81
503.172	1231.81
503.389	1167.81
503.606	1152.81
503.823	1132.81
504.04	1107.81
504.256	1147.81
504.473	1155.81
504.69	1181.81
504.907	1136.81
505.123	1051.81
505.34	1004.81
505.557	965.81
505.773	959.81
505.99	921.81
506.207	917.81
506.423	892.81
506.64	924.81
506.856	875.81
507.073	864.81
507.289	857.81
507.506	868.81
507.722	849.81
507.939	868.81
508.155	832.81
508.372	822.81
508.588	851.81
508.805	829.81
509.021	823.81
509.238	827.81
509.454	815.81
509.67	786.81
509.887	826.81
510.103	789.81
510.319	783.81
510.536	802.81
510.752	791.81
510.968	769.81
511.184	791.81
511.401	811.81
511.617	793.81
511.833	787.81
512.049	777.81
512.265	808.81
512.481	788.81
512.698	766.81
512.914	777.81
513.13	782.81
513.346	778.81
513.562	783.81
513.778	781.81
513.994	780.81
514.21	817.81
514.426	789.81
514.642	777.81
514.858	817.81
515.074	810.81
515.29	810.81
515.506	831.81
515.721	830.81
515.937	834.81
516.153	858.81
516.369	857.81
516.585	872.81
516.801	954.81
517.016	971.81
517.232	1017.81
517.448	1058.81
517.664	1075.81
517.879	1081.81
518.095	1116.81
518.311	1086.81
518.527	1032.81
518.742	1013.81
518.958	956.81
519.173	938.81
519.389	900.81
519.605	872.81
519.82	844.81
520.036	800.81
520.251	811.81
520.467	812.81
520.682	809.81
520.898	779.81
521.113	786.81
521.329	744.81
521.544	757.81
521.76	737.81
521.975	758.81
522.19	760.81
522.406	756.81
522.621	755.81
522.836	721.81
523.052	720.81
523.267	716.81
523.482	731.81
523.698	714.81
523.913	717.81
524.128	727.81
524.343	721.81
524.559	721.81
524.774	719.81
524.989	715.81
525.204	714.81
525.419	713.81
525.634	677.81
525.849	715.81
526.064	704.81
526.28	695.81
526.495	711.81
526.71	684.81
526.925	682.81
527.14	667.81
527.355	718.81
527.57	708.81
527.785	711.81
527.999	692.81
528.214	698.81
528.429	710.81
528.644	726.81
528.859	699.81
529.074	710.81
529.289	687.81
529.503	712.81
529.718	718.81
529.933	716.81
530.148	677.81
530.363	708.81
530.577	699.81
530.792	695.81
531.007	672.81
531.221	697.81
531.436	691.81
531.651	699.81
531.865	715.81
532.08	695.81
532.295	711.81
532.509	698.81
532.724	710.81
532.938	704.81
533.153	704.81
533.367	675.81
533.582	683.81
533.796	677.81
534.011	691.81
534.225	672.81
534.44	684.81
534.654	680.81
534.868	690.81
535.083	692.81
535.297	678.81
535.511	665.81
535.726	684.81
535.94	684.81
536.154	672.81
536.369	644.81
536.583	651.81
536.797	661.81
537.011	646.81
537.225	643.81
537.44	645.81
537.654	652.81
537.868	646.81
538.082	657.81
538.296	649.81
538.51	628.81
538.724	641.81
538.938	643.81
539.153	645.81
539.367	644.81
539.581	642.81
539.795	615.81
540.009	633.81
540.222	625.81
540.436	617.81
540.65	618.81
540.864	619.81
541.078	650.81
541.292	639.81
541.506	643.81
541.72	629.81
541.934	639.81
542.147	611.81
542.361	627.81
542.575	617.81
542.789	643.81
543.002	624.81
543.216	639.81
543.43	627.81
543.644	600.81
543.857	616.81
544.071	631.81
544.285	633.81
544.498	630.81
544.712	608.81
544.925	635.81
545.139	629.81
545.352	637.81
545.566	657.81
545.779	655.81
545.993	650.81
546.206	661.81
546.42	636.81
546.633	664.81
546.847	635.81
547.06	643.81
547.274	683.81
547.487	658.81
547.7	648.81
547.914	627.81
548.127	662.81
548.34	673.81
548.554	629.81
548.767	657.81
548.98	657.81
549.193	648.81
549.407	655.81
549.62	670.81
549.833	658.81
550.046	646.81
550.259	668.81
550.473	646.81
550.686	651.81
550.899	635.81
551.112	645.81
551.325	621.81
551.538	655.81
551.751	620.81
551.964	593.81
552.177	649.81
552.39	667.81
552.603	653.81
552.816	665.81
553.029	697.81
553.242	711.81
553.455	711.81
553.667	699.81
553.88	709.81
554.093	675.81
554.306	675.81
554.519	651.81
554.732	645.81
554.944	635.81
555.157	619.81
555.37	615.81
555.583	596.81
555.795	585.81
556.008	580.81
556.221	543.81
556.433	570.81
556.646	579.81
556.859	567.81
557.071	551.81
557.284	567.81
557.496	548.81
557.709	576.81
557.921	530.81
558.134	553.81
558.346	536.81
558.559	555.81
558.771	536.81
558.984	549.81
559.196	528.81
559.409	524.81
559.621	535.81
559.833	533.81
560.046	538.81
560.258	518.81
560.47	497.81
560.683	534.81
560.895	530.81
561.107	527.81
561.32	561.81
561.532	520.81
561.744	539.81
561.956	533.81
562.168	523.81
562.381	527.81
562.593	517.81
562.805	535.81
563.017	548.81
563.229	513.81
563.441	536.81
563.653	535.81
563.865	525.81
564.077	543.81
564.289	541.81
564.501	534.81
564.713	572.81
564.925	556.81
565.137	593.81
565.349	598.81
565.561	626.81
565.773	638.81
565.985	678.81
566.197	681.81
566.408	739.81
566.62	831.81
566.832	881.81
567.044	856.81
567.255	887.81
567.467	895.81
567.679	927.81
567.891	1002.81
568.102	1010.81
568.314	948.81
568.526	874.81
568.737	825.81
568.949	750.81
569.161	669.81
569.372	637.81
569.584	625.81
569.795	572.81
570.007	555.81
570.218	548.81
570.43	544.81
570.641	565.81
570.853	536.81
571.064	543.81
571.276	552.81
571.487	526.81
571.698	513.81
571.91	476.81
572.121	486.81
572.333	499.81
572.544	481.81
572.755	464.81
572.966	457.81
573.178	451.81
573.389	447.81
573.6	435.81
573.811	459.81
574.023	453.81
574.234	435.81
574.445	441.81
574.656	435.81
574.867	435.81
575.078	428.81
575.289	436.81
575.501	442.81
575.712	434.81
575.923	402.81
576.134	416.81
576.345	415.81
576.556	442.81
576.767	389.81
576.978	415.81
577.188	402.81
577.399	427.81
577.61	396.81
577.821	400.81
578.032	390.81
578.243	413.81
578.454	397.81
578.665	407.81
578.875	381.81
579.086	380.81
579.297	384.81
579.508	377.81
579.718	392.81
579.929	384.81
580.14	376.81
580.35	374.81
580.561	371.81
580.772	365.81
580.982	363.81
581.193	387.81
581.403	378.81
581.614	347.81
581.825	387.81
582.035	376.81
582.246	367.81
582.456	356.81
582.667	383.81
582.877	369.81
583.087	367.81
583.298	355.81
583.508	351.81
583.719	358.81
583.929	376.81
584.139	373.81
584.35	346.81
584.56	367.81
584.77	341.81
584.981	343.81
585.191	378.81
585.401	355.81
585.611	364.81
585.821	376.81
586.032	351.81
586.242	362.81
586.452	364.81
586.662	355.81
586.872	358.81
587.082	371.81
587.292	374.81
587.502	356.81
587.713	355.81
587.923	328.81
588.133	352.81
588.343	352.81
588.553	334.81
588.762	352.81
588.972	351.81
589.182	350.81
589.392	344.81
589.602	364.81
589.812	365.81
590.022	368.81
590.232	355.81
590.441	352.81
590.651	364.81
590.861	342.81
591.071	359.81
591.281	345.81
591.49	368.81
591.7	362.81
591.91	378.81
592.119	375.81
592.329	389.81
592.539	394.81
592.748	422.81
592.958	423.81
593.167	452.81
593.377	433.81
593.587	447.81
593.796	452.81
594.006	448.81
594.215	445.81
594.424	447.81
594.634	438.81
594.843	419.81
595.053	414.81
595.262	409.81
595.472	390.81
595.681	370.81
595.89	374.81
596.1	359.81
596.309	334.81
596.518	341.81
596.727	343.81
596.937	317.81
597.146	349.81
597.355	328.81
597.564	331.81
597.774	305.81
597.983	338.81
598.192	303.81
598.401	324.81
598.61	315.81
598.819	300.81
599.028	315.81
599.237	294.81
599.446	309.81
599.655	290.81
599.864	330.81
600.073	303.81
600.282	294.81
600.491	292.81
600.7	304.81
600.909	302.81
601.118	287.81
601.327	291.81
601.536	294.81
601.745	273.81
601.953	310.81
602.162	297.81
602.371	277.81
602.58	283.81
602.789	288.81
602.997	287.81
603.206	272.81
603.415	283.81
603.623	269.81
603.832	287.81
604.041	281.81
604.249	279.81
604.458	273.81
604.666	288.81
604.875	267.81
605.084	250.81
605.292	289.81
605.501	283.81
605.709	255.81
605.918	271.81
606.126	277.81
606.334	275.81
606.543	280.81
606.751	278.81
606.96	274.81
607.168	260.81
607.376	266.81
607.585	284.81
607.793	259.81
608.001	284.81
608.21	277.81
608.418	284.81
608.626	275.81
608.834	272.81
609.043	256.81
609.251	268.81
609.459	262.81
609.667	288.81
609.875	239.81
610.083	257.81
610.291	258.81
610.499	257.81
610.707	248.81
610.916	263.81
611.124	268.81
611.332	258.81
611.54	254.81
611.748	274.81
611.955	275.81
612.163	252.81
612.371	289.81
612.579	252.81
612.787	246.81
612.995	266.81
613.203	285.81
613.411	263.81
613.618	260.81
613.826	251.81
614.034	257.81
614.242	234.81
614.449	249.81
614.657	255.81
614.865	241.81
615.072	241.81
615.28	244.81
615.488	260.81
615.695	269.81
615.903	256.81
616.111	273.81
616.318	258.81
616.526	260.81
616.733	232.81
616.941	263.81
617.148	270.81
617.356	249.81
617.563	246.81
617.771	268.81
617.978	250.81
618.185	256.81
618.393	257.81
618.6	259.81
618.807	260.81
619.015	256.81
619.222	255.81
619.429	239.81
619.637	232.81
619.844	259.81
620.051	235.81
620.258	248.81
620.466	253.81
620.673	236.81
620.88	244.81
621.087	239.81
621.294	248.81
621.501	235.81
621.708	247.81
621.915	218.81
622.122	226.81
622.329	242.81
622.536	231.81
622.743	245.81
622.95	233.81
623.157	222.81
623.364	225.81
623.571	230.81
623.778	224.81
623.985	234.81
624.192	236.81
624.399	228.81
624.606	244.81
624.812	232.81
625.019	232.81
625.226	241.81
625.433	219.81
625.639	207.81
625.846	218.81
626.053	207.81
626.259	241.81
626.466	220.81
626.673	220.81
626.879	208.81
627.086	215.81
627.293	212.81
627.499	220.81
627.706	204.81
627.912	219.81
628.119	227.81
628.325	211.81
628.532	214.81
628.738	220.81
628.945	226.81
629.151	204.81
629.357	203.81
629.564	212.81
629.77	207.81
629.976	225.81
630.183	212.81
630.389	200.81
630.595	205.81
630.802	197.81
631.008	211.81
631.214	205.81
631.42	203.81
631.627	204.81
631.833	206.81
632.039	193.81
632.245	222.81
632.451	195.81
632.657	176.81
632.863	197.81
633.069	189.81
633.275	195.81
633.481	198.81
633.688	193.81
633.893	173.81
634.099	185.81
634.305	197.81
634.511	189.81
634.717	192.81
634.923	183.81
635.129	186.81
635.335	181.81
635.541	194.81
635.747	187.81
635.952	181.81
636.158	181.81
636.364	170.81
636.57	193.81
636.775	187.81
636.981	204.81
637.187	189.81
637.392	179.81
637.598	181.81
637.804	186.81
638.009	197.81
638.215	215.81
638.421	193.81
638.626	191.81
638.832	191.81
639.037	178.81
639.243	170.81
639.448	181.81
639.654	179.81
639.859	168.81
640.065	164.81
640.27	184.81
640.475	179.81
640.681	167.81
640.886	180.81
641.091	170.81
641.297	162.81
641.502	176.81
641.707	170.81
641.913	179.81
642.118	176.81
642.323	185.81
642.528	184.81
642.733	181.81
642.939	165.81
643.144	181.81
643.349	169.81
643.554	173.81
643.759	169.81
643.964	170.81
644.169	168.81
644.374	156.81
644.579	172.81
644.784	172.81
644.989	177.81
645.194	175.81
645.399	180.81
645.604	168.81
645.809	182.81
646.014	173.81
646.219	182.81
646.423	181.81
646.628	167.81
646.833	168.81
647.038	160.81
647.243	178.81
647.447	184.81
647.652	185.81
647.857	177.81
648.062	186.81
648.266	194.81
648.471	204.81
648.676	191.81
648.88	189.81
649.085	183.81
649.289	171.81
649.494	164.81
649.698	185.81
649.903	166.81
650.107	165.81
650.312	185.81
650.516	163.81
650.721	169.81
650.925	165.81
651.13	162.81
651.334	178.81
651.539	166.81
651.743	165.81
651.947	175.81
652.152	146.81
652.356	149.81
652.56	160.81
652.764	148.81
652.969	152.81
653.173	149.81
653.377	151.81
653.581	157.81
653.785	137.81
653.99	129.81
654.194	148.81
654.398	133.81
654.602	136.81
654.806	138.81
655.01	134.81
655.214	127.81
655.418	140.81
655.622	139.81
655.826	134.81
656.03	127.81
656.234	117.81
656.438	148.81
656.642	137.81
656.846	133.81
657.049	129.81
657.253	106.81
657.457	105.81
657.661	120.81
657.865	119.81
658.068	100.81
658.272	119.81
658.476	100.81
658.68	104.81
658.883	113.81
659.087	95.81
659.291	100.81
659.494	107.81
659.698	104.81
659.901	97.81
660.105	104.81
660.309	106.81
660.512	100.81
660.716	99.81
660.919	101.81
661.123	109.81
661.326	96.81
661.53	85.81
661.733	96.81
661.936	96.81
662.14	78.81
662.343	81.81
662.546	85.81
662.75	94.81
662.953	84.81
663.156	76.81
663.36	88.81
663.563	82.81
663.766	95.81
663.969	95.81
664.173	79.81
664.376	91.81
664.579	96.81
664.782	91.81
664.985	88.81
665.188	78.81
665.391	74.81
665.594	71.81
665.797	91.81
666	76.81
666.203	76.81
666.406	67.81
666.609	79.81
666.812	66.81
667.015	76.81
667.218	80.81
667.421	82.81
667.624	71.81
667.827	82.81
668.03	88.81
668.232	71.81
668.435	89.81
668.638	80.81
668.841	74.81
669.043	77.81
669.246	91.81
669.449	88.81
669.651	80.81
669.854	67.81
670.057	78.81
670.259	93.81
670.462	77.81
670.665	75.81
670.867	65.81
671.07	78.81
671.272	87.81
671.475	92.81
671.677	86.81
671.88	90.81
672.082	80.81
672.284	75.81
672.487	79.81
672.689	82.81
672.892	78.81
