Data from NiCl2@0.25M.TitratingCurve.Agarose3%dH2O.NegLispCup.LampEnergy10.LIBS07252019_HRD10591_18-25-15-573.txt Node
Date: Thu Jul 25 18:25:15 EDT 2019
User: cochatt
Spectrometer: HR+D1059
Trigger mode: 1
Integration Time (sec): 1.000000E-1
Scans to average: 1
Electric dark correction enabled: true
Nonlinearity correction enabled: false
Boxcar width: 0
XAxis mode: Wavelengths
Number of Pixels in Spectrum: 2048
>>>>>Begin Spectral Data<<<<<
223.165	-11.19
223.4	-11.19
223.635	-11.19
223.869	-18.19
224.104	-15.19
224.338	-6.19
224.573	-11.19
224.808	-18.19
225.042	-15.19
225.277	-2.19
225.511	0.81
225.746	-0.19
225.98	14.81
226.215	-3.19
226.449	6.81
226.683	28.81
226.918	22.81
227.152	26.81
227.387	40.81
227.621	32.81
227.856	46.81
228.09	44.81
228.324	48.81
228.559	51.81
228.793	54.81
229.027	102.81
229.262	113.81
229.496	119.81
229.73	116.81
229.964	108.81
230.199	113.81
230.433	122.81
230.667	121.81
230.901	131.81
231.136	119.81
231.37	118.81
231.604	127.81
231.838	128.81
232.072	137.81
232.306	137.81
232.541	136.81
232.775	130.81
233.009	120.81
233.243	138.81
233.477	141.81
233.711	142.81
233.945	152.81
234.179	146.81
234.413	148.81
234.647	138.81
234.881	151.81
235.115	170.81
235.349	123.81
235.583	138.81
235.817	142.81
236.051	147.81
236.285	143.81
236.519	148.81
236.753	144.81
236.987	151.81
237.221	155.81
237.455	139.81
237.689	151.81
237.922	157.81
238.156	142.81
238.39	160.81
238.624	165.81
238.858	159.81
239.091	172.81
239.325	157.81
239.559	173.81
239.793	165.81
240.027	172.81
240.26	156.81
240.494	163.81
240.728	171.81
240.961	181.81
241.195	169.81
241.429	172.81
241.662	160.81
241.896	186.81
242.13	179.81
242.363	200.81
242.597	190.81
242.83	188.81
243.064	177.81
243.298	184.81
243.531	202.81
243.765	190.81
243.998	194.81
244.232	180.81
244.465	205.81
244.699	186.81
244.932	204.81
245.166	204.81
245.399	204.81
245.633	197.81
245.866	220.81
246.099	219.81
246.333	205.81
246.566	219.81
246.8	209.81
247.033	217.81
247.266	208.81
247.5	209.81
247.733	221.81
247.966	212.81
248.2	226.81
248.433	198.81
248.666	228.81
248.899	211.81
249.133	239.81
249.366	204.81
249.599	209.81
249.832	253.81
250.066	245.81
250.299	211.81
250.532	246.81
250.765	230.81
250.998	248.81
251.231	244.81
251.465	253.81
251.698	229.81
251.931	243.81
252.164	233.81
252.397	232.81
252.63	258.81
252.863	258.81
253.096	244.81
253.329	254.81
253.562	256.81
253.795	258.81
254.028	257.81
254.261	248.81
254.494	259.81
254.727	255.81
254.96	262.81
255.193	279.81
255.426	262.81
255.659	272.81
255.892	260.81
256.124	250.81
256.357	273.81
256.59	276.81
256.823	276.81
257.056	248.81
257.289	263.81
257.521	270.81
257.754	266.81
257.987	262.81
258.22	266.81
258.452	276.81
258.685	281.81
258.918	286.81
259.151	272.81
259.383	296.81
259.616	286.81
259.849	277.81
260.081	290.81
260.314	282.81
260.547	305.81
260.779	291.81
261.012	305.81
261.244	300.81
261.477	317.81
261.71	296.81
261.942	297.81
262.175	306.81
262.407	317.81
262.64	304.81
262.872	325.81
263.105	314.81
263.337	297.81
263.57	316.81
263.802	314.81
264.035	318.81
264.267	322.81
264.499	310.81
264.732	297.81
264.964	325.81
265.197	317.81
265.429	335.81
265.661	326.81
265.894	331.81
266.126	332.81
266.358	346.81
266.591	341.81
266.823	355.81
267.055	325.81
267.287	330.81
267.52	328.81
267.752	321.81
267.984	345.81
268.216	341.81
268.448	329.81
268.681	352.81
268.913	351.81
269.145	353.81
269.377	336.81
269.609	346.81
269.841	334.81
270.073	336.81
270.306	328.81
270.538	335.81
270.77	330.81
271.002	349.81
271.234	357.81
271.466	344.81
271.698	352.81
271.93	371.81
272.162	372.81
272.394	374.81
272.626	360.81
272.858	361.81
273.09	369.81
273.322	384.81
273.553	353.81
273.785	369.81
274.017	369.81
274.249	371.81
274.481	401.81
274.713	366.81
274.945	374.81
275.176	382.81
275.408	374.81
275.64	387.81
275.872	388.81
276.104	379.81
276.335	392.81
276.567	389.81
276.799	378.81
277.031	382.81
277.262	386.81
277.494	387.81
277.726	397.81
277.957	400.81
278.189	392.81
278.421	379.81
278.652	414.81
278.884	408.81
279.115	393.81
279.347	411.81
279.579	394.81
279.81	414.81
280.042	393.81
280.273	420.81
280.505	420.81
280.736	390.81
280.968	423.81
281.199	404.81
281.431	426.81
281.662	425.81
281.894	425.81
282.125	409.81
282.356	439.81
282.588	418.81
282.819	428.81
283.051	424.81
283.282	412.81
283.513	453.81
283.745	438.81
283.976	458.81
284.207	433.81
284.439	438.81
284.67	457.81
284.901	460.81
285.132	456.81
285.364	453.81
285.595	440.81
285.826	455.81
286.057	438.81
286.288	447.81
286.52	467.81
286.751	463.81
286.982	471.81
287.213	459.81
287.444	473.81
287.675	465.81
287.906	483.81
288.138	462.81
288.369	462.81
288.6	485.81
288.831	483.81
289.062	465.81
289.293	465.81
289.524	473.81
289.755	485.81
289.986	492.81
290.217	479.81
290.448	479.81
290.679	475.81
290.91	481.81
291.141	457.81
291.371	478.81
291.602	500.81
291.833	479.81
292.064	483.81
292.295	483.81
292.526	502.81
292.757	479.81
292.987	464.81
293.218	487.81
293.449	494.81
293.68	485.81
293.91	504.81
294.141	495.81
294.372	487.81
294.603	504.81
294.833	484.81
295.064	494.81
295.295	504.81
295.525	477.81
295.756	517.81
295.987	494.81
296.217	508.81
296.448	513.81
296.679	506.81
296.909	480.81
297.14	503.81
297.37	515.81
297.601	498.81
297.831	509.81
298.062	530.81
298.292	519.81
298.523	539.81
298.753	543.81
298.984	530.81
299.214	538.81
299.445	511.81
299.675	528.81
299.905	532.81
300.136	517.81
300.366	549.81
300.597	536.81
300.827	551.81
301.057	560.81
301.288	543.81
301.518	572.81
301.748	560.81
301.979	579.81
302.209	591.81
302.439	564.81
302.669	548.81
302.9	561.81
303.13	540.81
303.36	567.81
303.59	542.81
303.82	559.81
304.051	554.81
304.281	562.81
304.511	552.81
304.741	541.81
304.971	548.81
305.201	562.81
305.431	551.81
305.661	554.81
305.891	543.81
306.121	572.81
306.352	560.81
306.582	528.81
306.812	519.81
307.042	550.81
307.272	540.81
307.502	532.81
307.731	546.81
307.961	547.81
308.191	539.81
308.421	537.81
308.651	537.81
308.881	550.81
309.111	543.81
309.341	535.81
309.571	512.81
309.8	545.81
310.03	561.81
310.26	565.81
310.49	517.81
310.72	534.81
310.949	542.81
311.179	553.81
311.409	570.81
311.639	554.81
311.868	545.81
312.098	552.81
312.328	576.81
312.557	592.81
312.787	575.81
313.017	605.81
313.246	605.81
313.476	573.81
313.706	571.81
313.935	593.81
314.165	617.81
314.394	590.81
314.624	593.81
314.853	590.81
315.083	595.81
315.312	592.81
315.542	597.81
315.771	573.81
316.001	586.81
316.23	579.81
316.46	574.81
316.689	552.81
316.919	574.81
317.148	573.81
317.377	583.81
317.607	556.81
317.836	532.81
318.065	554.81
318.295	577.81
318.524	592.81
318.753	578.81
318.983	596.81
319.212	577.81
319.441	574.81
319.67	597.81
319.9	605.81
320.129	581.81
320.358	579.81
320.587	583.81
320.816	602.81
321.046	587.81
321.275	580.81
321.504	574.81
321.733	589.81
321.962	589.81
322.191	570.81
322.42	601.81
322.649	563.81
322.878	574.81
323.108	570.81
323.337	583.81
323.566	621.81
323.795	584.81
324.024	607.81
324.253	598.81
324.482	605.81
324.71	585.81
324.939	605.81
325.168	604.81
325.397	591.81
325.626	591.81
325.855	617.81
326.084	618.81
326.313	625.81
326.542	638.81
326.77	633.81
326.999	634.81
327.228	614.81
327.457	634.81
327.686	628.81
327.914	627.81
328.143	637.81
328.372	629.81
328.6	670.81
328.829	636.81
329.058	626.81
329.287	629.81
329.515	649.81
329.744	643.81
329.972	651.81
330.201	636.81
330.43	645.81
330.658	672.81
330.887	665.81
331.115	665.81
331.344	662.81
331.572	666.81
331.801	682.81
332.03	713.81
332.258	698.81
332.486	744.81
332.715	764.81
332.943	777.81
333.172	818.81
333.4	845.81
333.629	854.81
333.857	844.81
334.085	839.81
334.314	836.81
334.542	800.81
334.771	828.81
334.999	785.81
335.227	800.81
335.455	802.81
335.684	798.81
335.912	785.81
336.14	768.81
336.369	765.81
336.597	789.81
336.825	792.81
337.053	777.81
337.281	753.81
337.51	728.81
337.738	742.81
337.966	715.81
338.194	722.81
338.422	696.81
338.65	686.81
338.878	701.81
339.106	699.81
339.334	711.81
339.562	676.81
339.79	668.81
340.018	677.81
340.246	675.81
340.474	677.81
340.702	680.81
340.93	688.81
341.158	665.81
341.386	658.81
341.614	668.81
341.842	659.81
342.07	648.81
342.298	627.81
342.526	664.81
342.754	640.81
342.981	664.81
343.209	679.81
343.437	705.81
343.665	757.81
343.893	809.81
344.12	801.81
344.348	756.81
344.576	766.81
344.804	734.81
345.031	706.81
345.259	690.81
345.487	676.81
345.714	674.81
345.942	678.81
346.17	660.81
346.397	676.81
346.625	646.81
346.853	661.81
347.08	638.81
347.308	650.81
347.535	658.81
347.763	648.81
347.99	644.81
348.218	678.81
348.445	649.81
348.673	646.81
348.9	632.81
349.128	626.81
349.355	636.81
349.583	639.81
349.81	630.81
350.037	630.81
350.265	628.81
350.492	653.81
350.72	648.81
350.947	604.81
351.174	596.81
351.402	617.81
351.629	613.81
351.856	611.81
352.083	617.81
352.311	621.81
352.538	608.81
352.765	626.81
352.992	616.81
353.22	639.81
353.447	590.81
353.674	617.81
353.901	613.81
354.128	624.81
354.355	602.81
354.583	613.81
354.81	623.81
355.037	614.81
355.264	623.81
355.491	648.81
355.718	600.81
355.945	658.81
356.172	640.81
356.399	627.81
356.626	630.81
356.853	638.81
357.08	640.81
357.307	615.81
357.534	628.81
357.761	628.81
357.988	625.81
358.215	629.81
358.441	610.81
358.668	609.81
358.895	643.81
359.122	614.81
359.349	616.81
359.576	604.81
359.802	635.81
360.029	648.81
360.256	628.81
360.483	629.81
360.709	637.81
360.936	656.81
361.163	629.81
361.39	637.81
361.616	638.81
361.843	621.81
362.07	631.81
362.296	612.81
362.523	638.81
362.749	627.81
362.976	607.81
363.203	625.81
363.429	613.81
363.656	627.81
363.882	628.81
364.109	624.81
364.335	628.81
364.562	620.81
364.788	613.81
365.015	622.81
365.241	608.81
365.468	610.81
365.694	615.81
365.92	626.81
366.147	640.81
366.373	628.81
366.599	630.81
366.826	611.81
367.052	622.81
367.278	628.81
367.505	620.81
367.731	636.81
367.957	636.81
368.184	627.81
368.41	631.81
368.636	658.81
368.862	669.81
369.089	647.81
369.315	651.81
369.541	651.81
369.767	636.81
369.993	640.81
370.219	645.81
370.445	670.81
370.672	651.81
370.898	678.81
371.124	654.81
371.35	688.81
371.576	659.81
371.802	667.81
372.028	665.81
372.254	654.81
372.48	695.81
372.706	686.81
372.932	713.81
373.158	709.81
373.384	687.81
373.61	677.81
373.835	685.81
374.061	684.81
374.287	702.81
374.513	697.81
374.739	725.81
374.965	738.81
375.191	760.81
375.416	766.81
375.642	713.81
375.868	727.81
376.094	701.81
376.319	687.81
376.545	694.81
376.771	691.81
376.997	673.81
377.222	670.81
377.448	694.81
377.674	670.81
377.899	679.81
378.125	671.81
378.35	682.81
378.576	686.81
378.802	712.81
379.027	690.81
379.253	685.81
379.478	668.81
379.704	673.81
379.929	664.81
380.155	668.81
380.38	654.81
380.606	693.81
380.831	674.81
381.057	660.81
381.282	668.81
381.507	681.81
381.733	710.81
381.958	692.81
382.184	698.81
382.409	721.81
382.634	684.81
382.86	685.81
383.085	734.81
383.31	718.81
383.535	729.81
383.761	778.81
383.986	749.81
384.211	788.81
384.436	820.81
384.662	809.81
384.887	824.81
385.112	825.81
385.337	783.81
385.562	807.81
385.787	804.81
386.013	843.81
386.238	828.81
386.463	839.81
386.688	829.81
386.913	800.81
387.138	816.81
387.363	806.81
387.588	806.81
387.813	807.81
388.038	779.81
388.263	833.81
388.488	825.81
388.713	835.81
388.938	821.81
389.163	819.81
389.387	809.81
389.612	786.81
389.837	805.81
390.062	803.81
390.287	805.81
390.512	807.81
390.736	806.81
390.961	818.81
391.186	857.81
391.411	889.81
391.636	901.81
391.86	932.81
392.085	942.81
392.31	930.81
392.534	904.81
392.759	872.81
392.984	895.81
393.208	877.81
393.433	866.81
393.658	877.81
393.882	876.81
394.107	842.81
394.331	883.81
394.556	884.81
394.78	876.81
395.005	872.81
395.229	866.81
395.454	928.81
395.678	949.81
395.903	917.81
396.127	929.81
396.352	861.81
396.576	907.81
396.801	850.81
397.025	912.81
397.249	918.81
397.474	918.81
397.698	934.81
397.922	929.81
398.147	915.81
398.371	956.81
398.595	940.81
398.82	993.81
399.044	1081.81
399.268	1248.81
399.492	1380.81
399.717	1609.81
399.941	1582.81
400.165	1380.81
400.389	1222.81
400.613	1145.81
400.837	1060.81
401.062	1097.81
401.286	1028.81
401.51	1034.81
401.734	1034.81
401.958	1050.81
402.182	1041.81
402.406	1069.81
402.63	1064.81
402.854	1139.81
403.078	1128.81
403.302	1134.81
403.526	1174.81
403.75	1187.81
403.974	1192.81
404.198	1213.81
404.422	1199.81
404.645	1201.81
404.869	1183.81
405.093	1209.81
405.317	1159.81
405.541	1116.81
405.765	1116.81
405.988	1138.81
406.212	1124.81
406.436	1134.81
406.66	1144.81
406.883	1150.81
407.107	1233.81
407.331	1301.81
407.555	1326.81
407.778	1310.81
408.002	1297.81
408.226	1236.81
408.449	1229.81
408.673	1194.81
408.896	1193.81
409.12	1143.81
409.344	1183.81
409.567	1156.81
409.791	1171.81
410.014	1163.81
410.238	1144.81
410.461	1154.81
410.685	1135.81
410.908	1097.81
411.132	1113.81
411.355	1069.81
411.578	1086.81
411.802	1058.81
412.025	1071.81
412.249	1080.81
412.472	1059.81
412.695	1059.81
412.919	1034.81
413.142	1035.81
413.365	1038.81
413.589	1013.81
413.812	1002.81
414.035	1015.81
414.258	1046.81
414.482	1034.81
414.705	1046.81
414.928	1044.81
415.151	1048.81
415.374	1024.81
415.597	989.81
415.821	984.81
416.044	1020.81
416.267	1014.81
416.49	1001.81
416.713	1020.81
416.936	1030.81
417.159	1012.81
417.382	1016.81
417.605	1027.81
417.828	1032.81
418.051	1030.81
418.274	995.81
418.497	1035.81
418.72	1047.81
418.943	1088.81
419.166	1120.81
419.389	1173.81
419.611	1160.81
419.834	1087.81
420.057	1073.81
420.28	1048.81
420.503	1008.81
420.726	1001.81
420.948	1002.81
421.171	996.81
421.394	997.81
421.617	998.81
421.839	1028.81
422.062	999.81
422.285	1004.81
422.507	1040.81
422.73	1043.81
422.953	1054.81
423.175	1054.81
423.398	1049.81
423.621	1093.81
423.843	1084.81
424.066	1084.81
424.288	1110.81
424.511	1050.81
424.733	1045.81
424.956	1062.81
425.178	995.81
425.401	1029.81
425.623	1013.81
425.846	968.81
426.068	1005.81
426.291	948.81
426.513	945.81
426.735	953.81
426.958	930.81
427.18	926.81
427.402	928.81
427.625	924.81
427.847	888.81
428.069	916.81
428.292	921.81
428.514	888.81
428.736	896.81
428.958	904.81
429.181	855.81
429.403	870.81
429.625	870.81
429.847	877.81
430.069	880.81
430.292	882.81
430.514	869.81
430.736	878.81
430.958	870.81
431.18	848.81
431.402	878.81
431.624	878.81
431.846	890.81
432.068	916.81
432.29	925.81
432.512	891.81
432.734	909.81
432.956	915.81
433.178	918.81
433.4	880.81
433.622	922.81
433.844	912.81
434.066	925.81
434.287	926.81
434.509	966.81
434.731	987.81
434.953	1020.81
435.175	1011.81
435.397	1005.81
435.618	958.81
435.84	935.81
436.062	912.81
436.284	897.81
436.505	895.81
436.727	904.81
436.949	900.81
437.17	893.81
437.392	865.81
437.614	884.81
437.835	852.81
438.057	868.81
438.278	845.81
438.5	866.81
438.721	833.81
438.943	861.81
439.165	861.81
439.386	874.81
439.608	879.81
439.829	892.81
440.05	857.81
440.272	903.81
440.493	898.81
440.715	892.81
440.936	916.81
441.158	928.81
441.379	955.81
441.6	994.81
441.822	1017.81
442.043	1011.81
442.264	988.81
442.486	993.81
442.707	997.81
442.928	983.81
443.149	965.81
443.371	996.81
443.592	1005.81
443.813	1022.81
444.034	1007.81
444.255	1017.81
444.476	1099.81
444.698	1141.81
444.919	1218.81
445.14	1242.81
445.361	1106.81
445.582	1010.81
445.803	957.81
446.024	971.81
446.245	960.81
446.466	898.81
446.687	887.81
446.908	912.81
447.129	885.81
447.35	876.81
447.571	873.81
447.792	824.81
448.013	828.81
448.234	837.81
448.455	838.81
448.675	792.81
448.896	838.81
449.117	775.81
449.338	826.81
449.559	775.81
449.779	783.81
450	838.81
450.221	791.81
450.442	821.81
450.662	818.81
450.883	830.81
451.104	834.81
451.324	855.81
451.545	867.81
451.766	822.81
451.986	837.81
452.207	854.81
452.428	810.81
452.648	818.81
452.869	814.81
453.089	803.81
453.31	824.81
453.53	799.81
453.751	776.81
453.971	769.81
454.192	792.81
454.412	787.81
454.633	764.81
454.853	770.81
455.073	784.81
455.294	781.81
455.514	778.81
455.734	739.81
455.955	728.81
456.175	752.81
456.395	744.81
456.616	729.81
456.836	773.81
457.056	777.81
457.276	725.81
457.497	755.81
457.717	760.81
457.937	780.81
458.157	783.81
458.377	797.81
458.598	814.81
458.818	845.81
459.038	854.81
459.258	881.81
459.478	894.81
459.698	933.81
459.918	950.81
460.138	1020.81
460.358	1069.81
460.578	1065.81
460.798	1064.81
461.018	1076.81
461.238	1056.81
461.458	1038.81
461.678	1068.81
461.898	1065.81
462.118	1036.81
462.338	1116.81
462.558	1168.81
462.777	1229.81
462.997	1266.81
463.217	1439.81
463.437	1424.81
463.657	1311.81
463.876	1213.81
464.096	1240.81
464.316	1227.81
464.536	1230.81
464.755	1221.81
464.975	1116.81
465.195	1090.81
465.414	1034.81
465.634	979.81
465.854	955.81
466.073	922.81
466.293	904.81
466.512	873.81
466.732	853.81
466.951	855.81
467.171	852.81
467.391	846.81
467.61	865.81
467.829	866.81
468.049	843.81
468.268	829.81
468.488	807.81
468.707	818.81
468.927	825.81
469.146	818.81
469.365	784.81
469.585	820.81
469.804	867.81
470.023	879.81
470.243	878.81
470.462	895.81
470.681	904.81
470.901	903.81
471.12	889.81
471.339	877.81
471.558	850.81
471.777	836.81
471.997	836.81
472.216	801.81
472.435	812.81
472.654	790.81
472.873	797.81
473.092	799.81
473.311	773.81
473.53	798.81
473.749	797.81
473.968	797.81
474.187	775.81
474.406	786.81
474.625	772.81
474.844	817.81
475.063	789.81
475.282	791.81
475.501	826.81
475.72	816.81
475.939	821.81
476.158	806.81
476.377	833.81
476.596	809.81
476.814	853.81
477.033	865.81
477.252	851.81
477.471	862.81
477.69	915.81
477.908	900.81
478.127	970.81
478.346	957.81
478.564	985.81
478.783	990.81
479.002	1008.81
479.22	997.81
479.439	1004.81
479.658	1007.81
479.876	987.81
480.095	1005.81
480.313	1062.81
480.532	1087.81
480.751	1103.81
480.969	1021.81
481.188	988.81
481.406	948.81
481.624	945.81
481.843	926.81
482.061	921.81
482.28	913.81
482.498	912.81
482.717	907.81
482.935	912.81
483.153	937.81
483.372	902.81
483.59	926.81
483.808	918.81
484.027	924.81
484.245	955.81
484.463	907.81
484.681	926.81
484.9	966.81
485.118	936.81
485.336	962.81
485.554	975.81
485.772	960.81
485.99	953.81
486.209	978.81
486.427	978.81
486.645	981.81
486.863	970.81
487.081	966.81
487.299	951.81
487.517	932.81
487.735	948.81
487.953	962.81
488.171	986.81
488.389	992.81
488.607	958.81
488.825	964.81
489.043	897.81
489.261	930.81
489.479	949.81
489.696	956.81
489.914	934.81
490.132	942.81
490.35	930.81
490.568	964.81
490.786	982.81
491.003	996.81
491.221	982.81
491.439	962.81
491.657	964.81
491.874	968.81
492.092	979.81
492.31	960.81
492.527	992.81
492.745	980.81
492.963	982.81
493.18	1016.81
493.398	1030.81
493.615	1013.81
493.833	1006.81
494.05	1007.81
494.268	1025.81
494.485	1022.81
494.703	1042.81
494.92	1015.81
495.138	1004.81
495.355	1006.81
495.573	1057.81
495.79	1010.81
496.008	1037.81
496.225	1063.81
496.442	1066.81
496.66	1090.81
496.877	1093.81
497.094	1079.81
497.312	1109.81
497.529	1125.81
497.746	1149.81
497.963	1205.81
498.181	1263.81
498.398	1275.81
498.615	1363.81
498.832	1480.81
499.049	1594.81
499.267	1708.81
499.484	1912.81
499.701	2070.81
499.918	2337.81
500.135	2657.81
500.352	3050.81
500.569	3190.81
500.786	3125.81
501.003	2855.81
501.22	2535.81
501.437	2286.81
501.654	2022.81
501.871	1847.81
502.088	1643.81
502.305	1575.81
502.522	1476.81
502.739	1438.81
502.956	1363.81
503.172	1314.81
503.389	1212.81
503.606	1191.81
503.823	1175.81
504.04	1180.81
504.256	1168.81
504.473	1237.81
504.69	1262.81
504.907	1223.81
505.123	1138.81
505.34	1076.81
505.557	1022.81
505.773	974.81
505.99	984.81
506.207	931.81
506.423	944.81
506.64	933.81
506.856	901.81
507.073	914.81
507.289	933.81
507.506	908.81
507.722	931.81
507.939	901.81
508.155	905.81
508.372	862.81
508.588	831.81
508.805	876.81
509.021	839.81
509.238	870.81
509.454	855.81
509.67	833.81
509.887	820.81
510.103	838.81
510.319	834.81
510.536	842.81
510.752	830.81
510.968	847.81
511.184	842.81
511.401	836.81
511.617	811.81
511.833	810.81
512.049	821.81
512.265	831.81
512.481	803.81
512.698	820.81
512.914	826.81
513.13	836.81
513.346	813.81
513.562	812.81
513.778	845.81
513.994	838.81
514.21	838.81
514.426	822.81
514.642	848.81
514.858	839.81
515.074	850.81
515.29	846.81
515.506	870.81
515.721	855.81
515.937	886.81
516.153	900.81
516.369	941.81
516.585	937.81
516.801	994.81
517.016	1020.81
517.232	1073.81
517.448	1113.81
517.664	1138.81
517.879	1169.81
518.095	1165.81
518.311	1123.81
518.527	1111.81
518.742	1050.81
518.958	1039.81
519.173	987.81
519.389	935.81
519.605	896.81
519.82	900.81
520.036	876.81
520.251	853.81
520.467	851.81
520.682	855.81
520.898	827.81
521.113	818.81
521.329	798.81
521.544	804.81
521.76	810.81
521.975	790.81
522.19	812.81
522.406	794.81
522.621	785.81
522.836	752.81
523.052	787.81
523.267	776.81
523.482	803.81
523.698	758.81
523.913	778.81
524.128	760.81
524.343	771.81
524.559	734.81
524.774	753.81
524.989	750.81
525.204	770.81
525.419	754.81
525.634	775.81
525.849	720.81
526.064	726.81
526.28	743.81
526.495	739.81
526.71	755.81
526.925	726.81
527.14	723.81
527.355	736.81
527.57	737.81
527.785	729.81
527.999	743.81
528.214	749.81
528.429	745.81
528.644	745.81
528.859	732.81
529.074	730.81
529.289	766.81
529.503	737.81
529.718	767.81
529.933	724.81
530.148	739.81
530.363	742.81
530.577	739.81
530.792	744.81
531.007	723.81
531.221	741.81
531.436	719.81
531.651	724.81
531.865	738.81
532.08	738.81
532.295	773.81
532.509	727.81
532.724	725.81
532.938	734.81
533.153	743.81
533.367	720.81
533.582	744.81
533.796	725.81
534.011	748.81
534.225	742.81
534.44	720.81
534.654	726.81
534.868	728.81
535.083	715.81
535.297	743.81
535.511	720.81
535.726	704.81
535.94	716.81
536.154	690.81
536.369	694.81
536.583	702.81
536.797	677.81
537.011	688.81
537.225	675.81
537.44	674.81
537.654	687.81
537.868	678.81
538.082	656.81
538.296	663.81
538.51	673.81
538.724	668.81
538.938	681.81
539.153	666.81
539.367	672.81
539.581	677.81
539.795	645.81
540.009	669.81
540.222	661.81
540.436	646.81
540.65	662.81
540.864	656.81
541.078	633.81
541.292	669.81
541.506	684.81
541.72	692.81
541.934	663.81
542.147	664.81
542.361	674.81
542.575	675.81
542.789	654.81
543.002	636.81
543.216	662.81
543.43	641.81
543.644	638.81
543.857	645.81
544.071	651.81
544.285	666.81
544.498	680.81
544.712	650.81
544.925	665.81
545.139	654.81
545.352	680.81
545.566	703.81
545.779	672.81
545.993	672.81
546.206	680.81
546.42	671.81
546.633	682.81
546.847	658.81
547.06	673.81
547.274	678.81
547.487	679.81
547.7	699.81
547.914	672.81
548.127	666.81
548.34	697.81
548.554	700.81
548.767	685.81
548.98	706.81
549.193	675.81
549.407	697.81
549.62	666.81
549.833	700.81
550.046	701.81
550.259	681.81
550.473	658.81
550.686	685.81
550.899	673.81
551.112	685.81
551.325	676.81
551.538	648.81
551.751	669.81
551.964	665.81
552.177	694.81
552.39	668.81
552.603	700.81
552.816	725.81
553.029	740.81
553.242	750.81
553.455	737.81
553.667	755.81
553.88	748.81
554.093	730.81
554.306	717.81
554.519	699.81
554.732	674.81
554.944	651.81
555.157	654.81
555.37	657.81
555.583	622.81
555.795	609.81
556.008	606.81
556.221	601.81
556.433	602.81
556.646	604.81
556.859	600.81
557.071	587.81
557.284	567.81
557.496	581.81
557.709	581.81
557.921	585.81
558.134	581.81
558.346	574.81
558.559	583.81
558.771	559.81
558.984	549.81
559.196	578.81
559.409	564.81
559.621	569.81
559.833	558.81
560.046	552.81
560.258	579.81
560.47	555.81
560.683	561.81
560.895	551.81
561.107	564.81
561.32	535.81
561.532	544.81
561.744	551.81
561.956	545.81
562.168	557.81
562.381	522.81
562.593	537.81
562.805	553.81
563.017	563.81
563.229	557.81
563.441	573.81
563.653	555.81
563.865	569.81
564.077	566.81
564.289	590.81
564.501	591.81
564.713	587.81
564.925	611.81
565.137	613.81
565.349	614.81
565.561	659.81
565.773	679.81
565.985	698.81
566.197	741.81
566.408	778.81
566.62	842.81
566.832	893.81
567.044	908.81
567.255	917.81
567.467	951.81
567.679	1041.81
567.891	1074.81
568.102	1126.81
568.314	1070.81
568.526	918.81
568.737	810.81
568.949	766.81
569.161	693.81
569.372	669.81
569.584	656.81
569.795	613.81
570.007	609.81
570.218	596.81
570.43	583.81
570.641	578.81
570.853	569.81
571.064	608.81
571.276	590.81
571.487	584.81
571.698	528.81
571.91	526.81
572.121	530.81
572.333	515.81
572.544	498.81
572.755	488.81
572.966	495.81
573.178	487.81
573.389	473.81
573.6	455.81
573.811	492.81
574.023	461.81
574.234	465.81
574.445	484.81
574.656	455.81
574.867	458.81
575.078	452.81
575.289	444.81
575.501	456.81
575.712	454.81
575.923	445.81
576.134	413.81
576.345	427.81
576.556	437.81
576.767	426.81
576.978	426.81
577.188	415.81
577.399	422.81
577.61	415.81
577.821	404.81
578.032	407.81
578.243	406.81
578.454	417.81
578.665	384.81
578.875	409.81
579.086	417.81
579.297	413.81
579.508	415.81
579.718	404.81
579.929	421.81
580.14	383.81
580.35	396.81
580.561	399.81
580.772	408.81
580.982	401.81
581.193	380.81
581.403	381.81
581.614	413.81
581.825	386.81
582.035	381.81
582.246	383.81
582.456	372.81
582.667	383.81
582.877	374.81
583.087	391.81
583.298	380.81
583.508	390.81
583.719	385.81
583.929	394.81
584.139	380.81
584.35	390.81
584.56	396.81
584.77	376.81
584.981	362.81
585.191	374.81
585.401	366.81
585.611	380.81
585.821	377.81
586.032	377.81
586.242	359.81
586.452	368.81
586.662	380.81
586.872	388.81
587.082	360.81
587.292	384.81
587.502	375.81
587.713	375.81
587.923	373.81
588.133	356.81
588.343	374.81
588.553	382.81
588.762	370.81
588.972	380.81
589.182	382.81
589.392	387.81
589.602	366.81
589.812	356.81
590.022	369.81
590.232	376.81
590.441	383.81
590.651	364.81
590.861	381.81
591.071	374.81
591.281	369.81
591.49	386.81
591.7	387.81
591.91	379.81
592.119	393.81
592.329	400.81
592.539	409.81
592.748	419.81
592.958	415.81
593.167	465.81
593.377	472.81
593.587	482.81
593.796	481.81
594.006	471.81
594.215	492.81
594.424	489.81
594.634	473.81
594.843	449.81
595.053	433.81
595.262	397.81
595.472	393.81
595.681	378.81
595.89	393.81
596.1	377.81
596.309	369.81
596.518	368.81
596.727	351.81
596.937	340.81
597.146	364.81
597.355	338.81
597.564	336.81
597.774	334.81
597.983	333.81
598.192	336.81
598.401	331.81
598.61	329.81
598.819	325.81
599.028	310.81
599.237	324.81
599.446	325.81
599.655	327.81
599.864	328.81
600.073	288.81
600.282	308.81
600.491	313.81
600.7	302.81
600.909	280.81
601.118	303.81
601.327	321.81
601.536	308.81
601.745	309.81
601.953	310.81
602.162	284.81
602.371	310.81
602.58	292.81
602.789	328.81
602.997	303.81
603.206	289.81
603.415	294.81
603.623	302.81
603.832	304.81
604.041	292.81
604.249	292.81
604.458	291.81
604.666	293.81
604.875	292.81
605.084	300.81
605.292	288.81
605.501	297.81
605.709	290.81
605.918	295.81
606.126	265.81
606.334	284.81
606.543	281.81
606.751	287.81
606.96	282.81
607.168	284.81
607.376	275.81
607.585	280.81
607.793	281.81
608.001	276.81
608.21	283.81
608.418	282.81
608.626	272.81
608.834	281.81
609.043	284.81
609.251	276.81
609.459	272.81
609.667	287.81
609.875	288.81
610.083	255.81
610.291	274.81
610.499	268.81
610.707	279.81
610.916	265.81
611.124	272.81
611.332	271.81
611.54	269.81
611.748	273.81
611.955	253.81
612.163	264.81
612.371	273.81
612.579	274.81
612.787	270.81
612.995	277.81
613.203	259.81
613.411	263.81
613.618	258.81
613.826	272.81
614.034	266.81
614.242	308.81
614.449	264.81
614.657	265.81
614.865	280.81
615.072	256.81
615.28	257.81
615.488	268.81
615.695	269.81
615.903	257.81
616.111	268.81
616.318	288.81
616.526	258.81
616.733	270.81
616.941	253.81
617.148	270.81
617.356	263.81
617.563	274.81
617.771	273.81
617.978	285.81
618.185	272.81
618.393	274.81
618.6	268.81
618.807	257.81
619.015	274.81
619.222	259.81
619.429	266.81
619.637	272.81
619.844	263.81
620.051	238.81
620.258	262.81
620.466	249.81
620.673	251.81
620.88	252.81
621.087	238.81
621.294	252.81
621.501	238.81
621.708	253.81
621.915	257.81
622.122	252.81
622.329	241.81
622.536	245.81
622.743	256.81
622.95	245.81
623.157	241.81
623.364	250.81
623.571	254.81
623.778	252.81
623.985	227.81
624.192	239.81
624.399	229.81
624.606	244.81
624.812	236.81
625.019	242.81
625.226	239.81
625.433	244.81
625.639	233.81
625.846	228.81
626.053	230.81
626.259	226.81
626.466	217.81
626.673	239.81
626.879	226.81
627.086	234.81
627.293	230.81
627.499	228.81
627.706	209.81
627.912	232.81
628.119	218.81
628.325	217.81
628.532	215.81
628.738	219.81
628.945	218.81
629.151	208.81
629.357	202.81
629.564	208.81
629.77	216.81
629.976	231.81
630.183	206.81
630.389	213.81
630.595	206.81
630.802	217.81
631.008	208.81
631.214	217.81
631.42	206.81
631.627	223.81
631.833	204.81
632.039	203.81
632.245	215.81
632.451	206.81
632.657	207.81
632.863	215.81
633.069	218.81
633.275	216.81
633.481	198.81
633.688	202.81
633.893	188.81
634.099	205.81
634.305	185.81
634.511	208.81
634.717	218.81
634.923	209.81
635.129	188.81
635.335	191.81
635.541	185.81
635.747	200.81
635.952	184.81
636.158	197.81
636.364	203.81
636.57	190.81
636.775	201.81
636.981	196.81
637.187	185.81
637.392	201.81
637.598	188.81
637.804	194.81
638.009	206.81
638.215	194.81
638.421	210.81
638.626	194.81
638.832	195.81
639.037	198.81
639.243	191.81
639.448	176.81
639.654	192.81
639.859	181.81
640.065	184.81
640.27	191.81
640.475	173.81
640.681	172.81
640.886	185.81
641.091	176.81
641.297	185.81
641.502	197.81
641.707	183.81
641.913	181.81
642.118	195.81
642.323	185.81
642.528	182.81
642.733	182.81
642.939	182.81
643.144	172.81
643.349	168.81
643.554	199.81
643.759	187.81
643.964	174.81
644.169	167.81
644.374	185.81
644.579	184.81
644.784	182.81
644.989	172.81
645.194	191.81
645.399	184.81
645.604	177.81
645.809	181.81
646.014	190.81
646.219	172.81
646.423	172.81
646.628	186.81
646.833	190.81
647.038	186.81
647.243	197.81
647.447	182.81
647.652	190.81
647.857	178.81
648.062	184.81
648.266	184.81
648.471	174.81
648.676	197.81
648.88	181.81
649.085	174.81
649.289	184.81
649.494	185.81
649.698	162.81
649.903	172.81
650.107	158.81
650.312	180.81
650.516	172.81
650.721	169.81
650.925	162.81
651.13	154.81
651.334	173.81
651.539	162.81
651.743	164.81
651.947	159.81
652.152	161.81
652.356	152.81
652.56	154.81
652.764	152.81
652.969	160.81
653.173	149.81
653.377	126.81
653.581	145.81
653.785	130.81
653.99	156.81
654.194	132.81
654.398	156.81
654.602	144.81
654.806	135.81
655.01	147.81
655.214	128.81
655.418	138.81
655.622	131.81
655.826	129.81
656.03	146.81
656.234	132.81
656.438	135.81
656.642	132.81
656.846	127.81
657.049	116.81
657.253	126.81
657.457	122.81
657.661	108.81
657.865	122.81
658.068	112.81
658.272	120.81
658.476	112.81
658.68	105.81
658.883	104.81
659.087	104.81
659.291	86.81
659.494	91.81
659.698	104.81
659.901	98.81
660.105	89.81
660.309	95.81
660.512	101.81
660.716	105.81
660.919	84.81
661.123	84.81
661.326	90.81
661.53	82.81
661.733	71.81
661.936	74.81
662.14	82.81
662.343	77.81
662.546	94.81
662.75	81.81
662.953	88.81
663.156	82.81
663.36	80.81
663.563	65.81
663.766	83.81
663.969	88.81
664.173	79.81
664.376	90.81
664.579	79.81
664.782	77.81
664.985	87.81
665.188	74.81
665.391	77.81
665.594	72.81
665.797	78.81
666	94.81
666.203	90.81
666.406	74.81
666.609	82.81
666.812	74.81
667.015	77.81
667.218	80.81
667.421	82.81
667.624	85.81
667.827	74.81
668.03	61.81
668.232	67.81
668.435	64.81
668.638	72.81
668.841	76.81
669.043	86.81
669.246	71.81
669.449	77.81
669.651	67.81
669.854	84.81
670.057	74.81
670.259	80.81
670.462	75.81
670.665	84.81
670.867	74.81
671.07	57.81
671.272	89.81
671.475	73.81
671.677	83.81
671.88	89.81
672.082	85.81
672.284	94.81
672.487	74.81
672.689	82.81
672.892	85.81
