Data from NiCl2@0.25M.TitratingCurve.Agarose3%dH2O.NegLispCup.LampEnergy10.LIBS07252019_HRD10591_18-22-42-572.txt Node
Date: Thu Jul 25 18:22:42 EDT 2019
User: cochatt
Spectrometer: HR+D1059
Trigger mode: 1
Integration Time (sec): 1.000000E-1
Scans to average: 1
Electric dark correction enabled: true
Nonlinearity correction enabled: false
Boxcar width: 0
XAxis mode: Wavelengths
Number of Pixels in Spectrum: 2048
>>>>>Begin Spectral Data<<<<<
223.165	-7.19
223.4	-7.19
223.635	-7.19
223.869	-22.19
224.104	-19.19
224.338	-2.19
224.573	-9.19
224.808	-7.19
225.042	-7.19
225.277	-15.19
225.511	-11.19
225.746	10.81
225.98	0.81
226.215	8.81
226.449	15.81
226.683	19.81
226.918	18.81
227.152	25.81
227.387	38.81
227.621	39.81
227.856	44.81
228.09	37.81
228.324	49.81
228.559	64.81
228.793	88.81
229.027	144.81
229.262	152.81
229.496	121.81
229.73	149.81
229.964	158.81
230.199	186.81
230.433	185.81
230.667	177.81
230.901	198.81
231.136	170.81
231.37	173.81
231.604	177.81
231.838	189.81
232.072	208.81
232.306	197.81
232.541	174.81
232.775	176.81
233.009	181.81
233.243	178.81
233.477	197.81
233.711	176.81
233.945	188.81
234.179	192.81
234.413	209.81
234.647	207.81
234.881	192.81
235.115	201.81
235.349	177.81
235.583	185.81
235.817	194.81
236.051	192.81
236.285	196.81
236.519	197.81
236.753	196.81
236.987	209.81
237.221	216.81
237.455	204.81
237.689	208.81
237.922	202.81
238.156	215.81
238.39	205.81
238.624	194.81
238.858	218.81
239.091	223.81
239.325	210.81
239.559	213.81
239.793	228.81
240.027	234.81
240.26	240.81
240.494	246.81
240.728	235.81
240.961	228.81
241.195	229.81
241.429	250.81
241.662	236.81
241.896	241.81
242.13	254.81
242.363	249.81
242.597	253.81
242.83	253.81
243.064	267.81
243.298	267.81
243.531	248.81
243.765	264.81
243.998	292.81
244.232	269.81
244.465	282.81
244.699	271.81
244.932	285.81
245.166	281.81
245.399	288.81
245.633	269.81
245.866	293.81
246.099	276.81
246.333	290.81
246.566	280.81
246.8	291.81
247.033	300.81
247.266	298.81
247.5	286.81
247.733	297.81
247.966	323.81
248.2	310.81
248.433	310.81
248.666	322.81
248.899	305.81
249.133	324.81
249.366	294.81
249.599	321.81
249.832	332.81
250.066	321.81
250.299	343.81
250.532	333.81
250.765	351.81
250.998	358.81
251.231	346.81
251.465	355.81
251.698	354.81
251.931	349.81
252.164	349.81
252.397	349.81
252.63	350.81
252.863	378.81
253.096	368.81
253.329	362.81
253.562	357.81
253.795	362.81
254.028	369.81
254.261	384.81
254.494	378.81
254.727	376.81
254.96	366.81
255.193	386.81
255.426	380.81
255.659	372.81
255.892	374.81
256.124	393.81
256.357	372.81
256.59	390.81
256.823	397.81
257.056	395.81
257.289	398.81
257.521	399.81
257.754	415.81
257.987	400.81
258.22	414.81
258.452	402.81
258.685	399.81
258.918	405.81
259.151	414.81
259.383	415.81
259.616	431.81
259.849	410.81
260.081	432.81
260.314	440.81
260.547	428.81
260.779	433.81
261.012	427.81
261.244	418.81
261.477	436.81
261.71	440.81
261.942	454.81
262.175	433.81
262.407	440.81
262.64	428.81
262.872	438.81
263.105	450.81
263.337	456.81
263.57	452.81
263.802	460.81
264.035	441.81
264.267	462.81
264.499	457.81
264.732	453.81
264.964	449.81
265.197	453.81
265.429	464.81
265.661	481.81
265.894	455.81
266.126	478.81
266.358	477.81
266.591	488.81
266.823	485.81
267.055	490.81
267.287	490.81
267.52	491.81
267.752	487.81
267.984	489.81
268.216	497.81
268.448	505.81
268.681	495.81
268.913	504.81
269.145	509.81
269.377	502.81
269.609	496.81
269.841	504.81
270.073	522.81
270.306	515.81
270.538	501.81
270.77	501.81
271.002	499.81
271.234	522.81
271.466	520.81
271.698	510.81
271.93	540.81
272.162	522.81
272.394	543.81
272.626	546.81
272.858	537.81
273.09	538.81
273.322	534.81
273.553	544.81
273.785	559.81
274.017	554.81
274.249	556.81
274.481	549.81
274.713	556.81
274.945	545.81
275.176	561.81
275.408	566.81
275.64	550.81
275.872	546.81
276.104	576.81
276.335	582.81
276.567	572.81
276.799	566.81
277.031	604.81
277.262	593.81
277.494	561.81
277.726	580.81
277.957	581.81
278.189	589.81
278.421	592.81
278.652	582.81
278.884	607.81
279.115	614.81
279.347	603.81
279.579	593.81
279.81	603.81
280.042	628.81
280.273	629.81
280.505	614.81
280.736	622.81
280.968	613.81
281.199	620.81
281.431	629.81
281.662	621.81
281.894	621.81
282.125	646.81
282.356	657.81
282.588	653.81
282.819	661.81
283.051	657.81
283.282	646.81
283.513	650.81
283.745	648.81
283.976	662.81
284.207	653.81
284.439	673.81
284.67	664.81
284.901	652.81
285.132	685.81
285.364	671.81
285.595	681.81
285.826	669.81
286.057	678.81
286.288	682.81
286.52	689.81
286.751	688.81
286.982	698.81
287.213	687.81
287.444	703.81
287.675	709.81
287.906	709.81
288.138	704.81
288.369	708.81
288.6	725.81
288.831	735.81
289.062	713.81
289.293	703.81
289.524	716.81
289.755	710.81
289.986	701.81
290.217	741.81
290.448	712.81
290.679	697.81
290.91	718.81
291.141	730.81
291.371	721.81
291.602	736.81
291.833	722.81
292.064	731.81
292.295	742.81
292.526	708.81
292.757	713.81
292.987	742.81
293.218	724.81
293.449	734.81
293.68	732.81
293.91	717.81
294.141	750.81
294.372	732.81
294.603	752.81
294.833	741.81
295.064	704.81
295.295	734.81
295.525	708.81
295.756	730.81
295.987	736.81
296.217	764.81
296.448	749.81
296.679	750.81
296.909	737.81
297.14	748.81
297.37	791.81
297.601	765.81
297.831	756.81
298.062	798.81
298.292	754.81
298.523	792.81
298.753	786.81
298.984	797.81
299.214	807.81
299.445	786.81
299.675	760.81
299.905	809.81
300.136	805.81
300.366	813.81
300.597	798.81
300.827	829.81
301.057	844.81
301.288	838.81
301.518	862.81
301.748	854.81
301.979	824.81
302.209	836.81
302.439	838.81
302.669	832.81
302.9	828.81
303.13	818.81
303.36	812.81
303.59	826.81
303.82	828.81
304.051	834.81
304.281	829.81
304.511	857.81
304.741	821.81
304.971	840.81
305.201	840.81
305.431	856.81
305.661	835.81
305.891	829.81
306.121	828.81
306.352	829.81
306.582	781.81
306.812	806.81
307.042	828.81
307.272	780.81
307.502	817.81
307.731	812.81
307.961	836.81
308.191	823.81
308.421	802.81
308.651	812.81
308.881	814.81
309.111	823.81
309.341	827.81
309.571	814.81
309.8	812.81
310.03	827.81
310.26	852.81
310.49	854.81
310.72	834.81
310.949	836.81
311.179	833.81
311.409	824.81
311.639	845.81
311.868	836.81
312.098	838.81
312.328	845.81
312.557	845.81
312.787	843.81
313.017	870.81
313.246	874.81
313.476	856.81
313.706	899.81
313.935	898.81
314.165	872.81
314.394	897.81
314.624	902.81
314.853	890.81
315.083	888.81
315.312	863.81
315.542	892.81
315.771	892.81
316.001	862.81
316.23	874.81
316.46	868.81
316.689	886.81
316.919	861.81
317.148	858.81
317.377	857.81
317.607	860.81
317.836	848.81
318.065	872.81
318.295	845.81
318.524	867.81
318.753	845.81
318.983	861.81
319.212	862.81
319.441	905.81
319.67	863.81
319.9	846.81
320.129	852.81
320.358	859.81
320.587	870.81
320.816	896.81
321.046	874.81
321.275	860.81
321.504	885.81
321.733	888.81
321.962	881.81
322.191	876.81
322.42	888.81
322.649	863.81
322.878	896.81
323.108	902.81
323.337	900.81
323.566	898.81
323.795	881.81
324.024	896.81
324.253	914.81
324.482	876.81
324.71	895.81
324.939	902.81
325.168	918.81
325.397	927.81
325.626	932.81
325.855	934.81
326.084	933.81
326.313	945.81
326.542	951.81
326.77	966.81
326.999	935.81
327.228	921.81
327.457	921.81
327.686	938.81
327.914	937.81
328.143	964.81
328.372	919.81
328.6	963.81
328.829	981.81
329.058	950.81
329.287	944.81
329.515	971.81
329.744	938.81
329.972	975.81
330.201	958.81
330.43	978.81
330.658	980.81
330.887	985.81
331.115	1006.81
331.344	1018.81
331.572	1014.81
331.801	1029.81
332.03	1048.81
332.258	1069.81
332.486	1106.81
332.715	1106.81
332.943	1157.81
333.172	1208.81
333.4	1242.81
333.629	1248.81
333.857	1304.81
334.085	1252.81
334.314	1262.81
334.542	1238.81
334.771	1220.81
334.999	1209.81
335.227	1197.81
335.455	1208.81
335.684	1186.81
335.912	1178.81
336.14	1184.81
336.369	1176.81
336.597	1142.81
336.825	1147.81
337.053	1180.81
337.281	1153.81
337.51	1152.81
337.738	1121.81
337.966	1121.81
338.194	1108.81
338.422	1072.81
338.65	1050.81
338.878	1067.81
339.106	1067.81
339.334	1058.81
339.562	1052.81
339.79	1008.81
340.018	999.81
340.246	994.81
340.474	1008.81
340.702	1002.81
340.93	1012.81
341.158	1033.81
341.386	1060.81
341.614	1060.81
341.842	1027.81
342.07	992.81
342.298	988.81
342.526	1010.81
342.754	1029.81
342.981	1002.81
343.209	1017.81
343.437	1086.81
343.665	1135.81
343.893	1207.81
344.12	1229.81
344.348	1176.81
344.576	1140.81
344.804	1126.81
345.031	1056.81
345.259	1048.81
345.487	1036.81
345.714	1048.81
345.942	1029.81
346.17	1037.81
346.397	1026.81
346.625	989.81
346.853	922.81
347.08	946.81
347.308	963.81
347.535	998.81
347.763	980.81
347.99	956.81
348.218	950.81
348.445	964.81
348.673	958.81
348.9	965.81
349.128	965.81
349.355	953.81
349.583	974.81
349.81	940.81
350.037	938.81
350.265	904.81
350.492	951.81
350.72	931.81
350.947	912.81
351.174	967.81
351.402	984.81
351.629	965.81
351.856	990.81
352.083	927.81
352.311	928.81
352.538	976.81
352.765	1000.81
352.992	936.81
353.22	887.81
353.447	930.81
353.674	874.81
353.901	914.81
354.128	937.81
354.355	870.81
354.583	908.81
354.81	913.81
355.037	918.81
355.264	934.81
355.491	929.81
355.718	924.81
355.945	915.81
356.172	933.81
356.399	948.81
356.626	932.81
356.853	944.81
357.08	954.81
357.307	927.81
357.534	928.81
357.761	912.81
357.988	948.81
358.215	921.81
358.441	921.81
358.668	910.81
358.895	923.81
359.122	904.81
359.349	917.81
359.576	939.81
359.802	907.81
360.029	951.81
360.256	933.81
360.483	942.81
360.709	922.81
360.936	945.81
361.163	925.81
361.39	950.81
361.616	964.81
361.843	966.81
362.07	978.81
362.296	960.81
362.523	919.81
362.749	942.81
362.976	914.81
363.203	925.81
363.429	912.81
363.656	891.81
363.882	920.81
364.109	936.81
364.335	892.81
364.562	903.81
364.788	925.81
365.015	905.81
365.241	919.81
365.468	928.81
365.694	928.81
365.92	922.81
366.147	924.81
366.373	931.81
366.599	918.81
366.826	915.81
367.052	890.81
367.278	921.81
367.505	925.81
367.731	931.81
367.957	953.81
368.184	926.81
368.41	907.81
368.636	939.81
368.862	921.81
369.089	950.81
369.315	963.81
369.541	960.81
369.767	960.81
369.993	945.81
370.219	985.81
370.445	968.81
370.672	968.81
370.898	989.81
371.124	995.81
371.35	999.81
371.576	1016.81
371.802	1009.81
372.028	972.81
372.254	1004.81
372.48	1042.81
372.706	1034.81
372.932	1039.81
373.158	1041.81
373.384	1003.81
373.61	1001.81
373.835	1046.81
374.061	1001.81
374.287	1010.81
374.513	1019.81
374.739	1044.81
374.965	1089.81
375.191	1119.81
375.416	1135.81
375.642	1077.81
375.868	1056.81
376.094	1020.81
376.319	1051.81
376.545	1007.81
376.771	978.81
376.997	1006.81
377.222	998.81
377.448	994.81
377.674	998.81
377.899	1006.81
378.125	999.81
378.35	988.81
378.576	981.81
378.802	987.81
379.027	984.81
379.253	1007.81
379.478	978.81
379.704	978.81
379.929	978.81
380.155	994.81
380.38	987.81
380.606	1004.81
380.831	983.81
381.057	1018.81
381.282	980.81
381.507	1003.81
381.733	1001.81
381.958	1014.81
382.184	1005.81
382.409	1040.81
382.634	1008.81
382.86	1048.81
383.085	1083.81
383.31	1050.81
383.535	1116.81
383.761	1116.81
383.986	1146.81
384.211	1134.81
384.436	1180.81
384.662	1156.81
384.887	1182.81
385.112	1200.81
385.337	1253.81
385.562	1226.81
385.787	1252.81
386.013	1253.81
386.238	1227.81
386.463	1221.81
386.688	1223.81
386.913	1176.81
387.138	1201.81
387.363	1214.81
387.588	1184.81
387.813	1203.81
388.038	1185.81
388.263	1222.81
388.488	1239.81
388.713	1226.81
388.938	1212.81
389.163	1182.81
389.387	1152.81
389.612	1157.81
389.837	1231.81
390.062	1200.81
390.287	1155.81
390.512	1168.81
390.736	1198.81
390.961	1220.81
391.186	1261.81
391.411	1272.81
391.636	1289.81
391.86	1362.81
392.085	1346.81
392.31	1359.81
392.534	1329.81
392.759	1316.81
392.984	1315.81
393.208	1301.81
393.433	1289.81
393.658	1308.81
393.882	1306.81
394.107	1264.81
394.331	1279.81
394.556	1277.81
394.78	1303.81
395.005	1293.81
395.229	1325.81
395.454	1362.81
395.678	1364.81
395.903	1354.81
396.127	1353.81
396.352	1305.81
396.576	1270.81
396.801	1306.81
397.025	1320.81
397.249	1351.81
397.474	1392.81
397.698	1390.81
397.922	1376.81
398.147	1332.81
398.371	1409.81
398.595	1467.81
398.82	1529.81
399.044	1647.81
399.268	1785.81
399.492	2051.81
399.717	2239.81
399.941	2252.81
400.165	2102.81
400.389	1885.81
400.613	1717.81
400.837	1624.81
401.062	1578.81
401.286	1571.81
401.51	1538.81
401.734	1512.81
401.958	1547.81
402.182	1578.81
402.406	1552.81
402.63	1576.81
402.854	1598.81
403.078	1634.81
403.302	1670.81
403.526	1693.81
403.75	1700.81
403.974	1750.81
404.198	1736.81
404.422	1733.81
404.645	1726.81
404.869	1736.81
405.093	1728.81
405.317	1647.81
405.541	1692.81
405.765	1664.81
405.988	1685.81
406.212	1683.81
406.436	1668.81
406.66	1732.81
406.883	1730.81
407.107	1830.81
407.331	1927.81
407.555	1964.81
407.778	1961.81
408.002	1887.81
408.226	1838.81
408.449	1833.81
408.673	1752.81
408.896	1712.81
409.12	1697.81
409.344	1716.81
409.567	1678.81
409.791	1697.81
410.014	1690.81
410.238	1660.81
410.461	1669.81
410.685	1633.81
410.908	1626.81
411.132	1621.81
411.355	1548.81
411.578	1550.81
411.802	1582.81
412.025	1544.81
412.249	1601.81
412.472	1604.81
412.695	1530.81
412.919	1497.81
413.142	1527.81
413.365	1525.81
413.589	1538.81
413.812	1505.81
414.035	1501.81
414.258	1487.81
414.482	1558.81
414.705	1558.81
414.928	1534.81
415.151	1509.81
415.374	1457.81
415.597	1536.81
415.821	1454.81
416.044	1457.81
416.267	1481.81
416.49	1456.81
416.713	1474.81
416.936	1452.81
417.159	1457.81
417.382	1481.81
417.605	1470.81
417.828	1500.81
418.051	1493.81
418.274	1513.81
418.497	1466.81
418.72	1548.81
418.943	1530.81
419.166	1634.81
419.389	1726.81
419.611	1670.81
419.834	1616.81
420.057	1564.81
420.28	1511.81
420.503	1485.81
420.726	1465.81
420.948	1474.81
421.171	1471.81
421.394	1505.81
421.617	1482.81
421.839	1513.81
422.062	1487.81
422.285	1491.81
422.507	1504.81
422.73	1501.81
422.953	1502.81
423.175	1517.81
423.398	1573.81
423.621	1546.81
423.843	1572.81
424.066	1537.81
424.288	1538.81
424.511	1594.81
424.733	1488.81
424.956	1486.81
425.178	1511.81
425.401	1506.81
425.623	1449.81
425.846	1457.81
426.068	1446.81
426.291	1441.81
426.513	1413.81
426.735	1423.81
426.958	1390.81
427.18	1382.81
427.402	1349.81
427.625	1361.81
427.847	1337.81
428.069	1315.81
428.292	1368.81
428.514	1337.81
428.736	1289.81
428.958	1307.81
429.181	1303.81
429.403	1298.81
429.625	1271.81
429.847	1275.81
430.069	1284.81
430.292	1276.81
430.514	1289.81
430.736	1306.81
430.958	1324.81
431.18	1297.81
431.402	1328.81
431.624	1281.81
431.846	1326.81
432.068	1338.81
432.29	1357.81
432.512	1311.81
432.734	1318.81
432.956	1286.81
433.178	1342.81
433.4	1316.81
433.622	1352.81
433.844	1336.81
434.066	1352.81
434.287	1358.81
434.509	1410.81
434.731	1434.81
434.953	1471.81
435.175	1466.81
435.397	1480.81
435.618	1389.81
435.84	1372.81
436.062	1320.81
436.284	1312.81
436.505	1300.81
436.727	1339.81
436.949	1313.81
437.17	1311.81
437.392	1278.81
437.614	1300.81
437.835	1248.81
438.057	1268.81
438.278	1239.81
438.5	1248.81
438.721	1230.81
438.943	1250.81
439.165	1261.81
439.386	1268.81
439.608	1286.81
439.829	1305.81
440.05	1320.81
440.272	1323.81
440.493	1337.81
440.715	1357.81
440.936	1342.81
441.158	1350.81
441.379	1380.81
441.6	1460.81
441.822	1460.81
442.043	1473.81
442.264	1454.81
442.486	1431.81
442.707	1430.81
442.928	1426.81
443.149	1447.81
443.371	1470.81
443.592	1490.81
443.813	1478.81
444.034	1492.81
444.255	1511.81
444.476	1574.81
444.698	1665.81
444.919	1732.81
445.14	1883.81
445.361	1676.81
445.582	1570.81
445.803	1456.81
446.024	1382.81
446.245	1378.81
446.466	1381.81
446.687	1296.81
446.908	1312.81
447.129	1302.81
447.35	1268.81
447.571	1270.81
447.792	1248.81
448.013	1247.81
448.234	1222.81
448.455	1189.81
448.675	1182.81
448.896	1196.81
449.117	1166.81
449.338	1179.81
449.559	1178.81
449.779	1146.81
450	1191.81
450.221	1222.81
450.442	1180.81
450.662	1196.81
450.883	1168.81
451.104	1235.81
451.324	1196.81
451.545	1206.81
451.766	1204.81
451.986	1187.81
452.207	1142.81
452.428	1193.81
452.648	1205.81
452.869	1160.81
453.089	1146.81
453.31	1191.81
453.53	1154.81
453.751	1168.81
453.971	1176.81
454.192	1146.81
454.412	1136.81
454.633	1150.81
454.853	1142.81
455.073	1140.81
455.294	1146.81
455.514	1109.81
455.734	1129.81
455.955	1100.81
456.175	1115.81
456.395	1106.81
456.616	1105.81
456.836	1119.81
457.056	1114.81
457.276	1108.81
457.497	1153.81
457.717	1132.81
457.937	1156.81
458.157	1128.81
458.377	1162.81
458.598	1170.81
458.818	1218.81
459.038	1265.81
459.258	1259.81
459.478	1328.81
459.698	1378.81
459.918	1437.81
460.138	1503.81
460.358	1522.81
460.578	1533.81
460.798	1592.81
461.018	1599.81
461.238	1528.81
461.458	1550.81
461.678	1507.81
461.898	1552.81
462.118	1570.81
462.338	1634.81
462.558	1682.81
462.777	1760.81
462.997	1942.81
463.217	2026.81
463.437	2092.81
463.657	1915.81
463.876	1830.81
464.096	1847.81
464.316	1832.81
464.536	1809.81
464.755	1716.81
464.975	1718.81
465.195	1607.81
465.414	1493.81
465.634	1425.81
465.854	1362.81
466.073	1340.81
466.293	1322.81
466.512	1263.81
466.732	1261.81
466.951	1222.81
467.171	1238.81
467.391	1247.81
467.61	1212.81
467.829	1220.81
468.049	1212.81
468.268	1210.81
468.488	1210.81
468.707	1215.81
468.927	1193.81
469.146	1202.81
469.365	1216.81
469.585	1226.81
469.804	1246.81
470.023	1261.81
470.243	1278.81
470.462	1282.81
470.681	1294.81
470.901	1303.81
471.12	1286.81
471.339	1276.81
471.558	1237.81
471.777	1221.81
471.997	1200.81
472.216	1190.81
472.435	1195.81
472.654	1193.81
472.873	1147.81
473.092	1169.81
473.311	1170.81
473.53	1167.81
473.749	1170.81
473.968	1186.81
474.187	1173.81
474.406	1178.81
474.625	1162.81
474.844	1167.81
475.063	1176.81
475.282	1202.81
475.501	1156.81
475.72	1222.81
475.939	1205.81
476.158	1253.81
476.377	1219.81
476.596	1220.81
476.814	1263.81
477.033	1248.81
477.252	1297.81
477.471	1289.81
477.69	1335.81
477.908	1337.81
478.127	1435.81
478.346	1448.81
478.564	1451.81
478.783	1461.81
479.002	1490.81
479.22	1474.81
479.439	1468.81
479.658	1456.81
479.876	1510.81
480.095	1504.81
480.313	1560.81
480.532	1590.81
480.751	1568.81
480.969	1549.81
481.188	1509.81
481.406	1482.81
481.624	1404.81
481.843	1382.81
482.061	1371.81
482.28	1366.81
482.498	1379.81
482.717	1353.81
482.935	1366.81
483.153	1359.81
483.372	1371.81
483.59	1392.81
483.808	1403.81
484.027	1368.81
484.245	1371.81
484.463	1392.81
484.681	1377.81
484.9	1370.81
485.118	1400.81
485.336	1434.81
485.554	1425.81
485.772	1432.81
485.99	1414.81
486.209	1448.81
486.427	1460.81
486.645	1437.81
486.863	1464.81
487.081	1425.81
487.299	1437.81
487.517	1464.81
487.735	1427.81
487.953	1416.81
488.171	1436.81
488.389	1405.81
488.607	1408.81
488.825	1437.81
489.043	1392.81
489.261	1367.81
489.479	1414.81
489.696	1430.81
489.914	1400.81
490.132	1409.81
490.35	1410.81
490.568	1414.81
490.786	1442.81
491.003	1423.81
491.221	1424.81
491.439	1439.81
491.657	1454.81
491.874	1460.81
492.092	1440.81
492.31	1412.81
492.527	1426.81
492.745	1476.81
492.963	1480.81
493.18	1455.81
493.398	1479.81
493.615	1472.81
493.833	1511.81
494.05	1485.81
494.268	1507.81
494.485	1510.81
494.703	1475.81
494.92	1519.81
495.138	1504.81
495.355	1528.81
495.573	1508.81
495.79	1541.81
496.008	1555.81
496.225	1542.81
496.442	1563.81
496.66	1625.81
496.877	1629.81
497.094	1617.81
497.312	1636.81
497.529	1667.81
497.746	1760.81
497.963	1779.81
498.181	1906.81
498.398	1998.81
498.615	2111.81
498.832	2241.81
499.049	2358.81
499.267	2585.81
499.484	2816.81
499.701	3141.81
499.918	3396.81
500.135	3866.81
500.352	4272.81
500.569	4408.81
500.786	4376.81
501.003	4063.81
501.22	3764.81
501.437	3420.81
501.654	2978.81
501.871	2702.81
502.088	2496.81
502.305	2366.81
502.522	2182.81
502.739	2120.81
502.956	2037.81
503.172	1949.81
503.389	1878.81
503.606	1794.81
503.823	1776.81
504.04	1798.81
504.256	1778.81
504.473	1784.81
504.69	1805.81
504.907	1768.81
505.123	1657.81
505.34	1592.81
505.557	1502.81
505.773	1500.81
505.99	1459.81
506.207	1426.81
506.423	1405.81
506.64	1373.81
506.856	1350.81
507.073	1361.81
507.289	1353.81
507.506	1374.81
507.722	1342.81
507.939	1277.81
508.155	1329.81
508.372	1305.81
508.588	1271.81
508.805	1307.81
509.021	1242.81
509.238	1282.81
509.454	1240.81
509.67	1231.81
509.887	1206.81
510.103	1216.81
510.319	1221.81
510.536	1228.81
510.752	1188.81
510.968	1201.81
511.184	1239.81
511.401	1207.81
511.617	1193.81
511.833	1213.81
512.049	1193.81
512.265	1217.81
512.481	1215.81
512.698	1189.81
512.914	1210.81
513.13	1193.81
513.346	1210.81
513.562	1214.81
513.778	1219.81
513.994	1218.81
514.21	1232.81
514.426	1231.81
514.642	1210.81
514.858	1220.81
515.074	1236.81
515.29	1239.81
515.506	1262.81
515.721	1291.81
515.937	1327.81
516.153	1332.81
516.369	1350.81
516.585	1386.81
516.801	1462.81
517.016	1537.81
517.232	1540.81
517.448	1609.81
517.664	1656.81
517.879	1704.81
518.095	1683.81
518.311	1630.81
518.527	1553.81
518.742	1484.81
518.958	1449.81
519.173	1446.81
519.389	1387.81
519.605	1320.81
519.82	1279.81
520.036	1296.81
520.251	1258.81
520.467	1209.81
520.682	1211.81
520.898	1230.81
521.113	1181.81
521.329	1174.81
521.544	1163.81
521.76	1192.81
521.975	1180.81
522.19	1135.81
522.406	1156.81
522.621	1136.81
522.836	1164.81
523.052	1122.81
523.267	1141.81
523.482	1123.81
523.698	1113.81
523.913	1105.81
524.128	1121.81
524.343	1058.81
524.559	1095.81
524.774	1088.81
524.989	1095.81
525.204	1095.81
525.419	1099.81
525.634	1076.81
525.849	1097.81
526.064	1088.81
526.28	1108.81
526.495	1077.81
526.71	1052.81
526.925	1058.81
527.14	1056.81
527.355	1045.81
527.57	1072.81
527.785	1083.81
527.999	1091.81
528.214	1097.81
528.429	1065.81
528.644	1103.81
528.859	1070.81
529.074	1072.81
529.289	1068.81
529.503	1077.81
529.718	1061.81
529.933	1056.81
530.148	1074.81
530.363	1059.81
530.577	1051.81
530.792	1051.81
531.007	1051.81
531.221	1073.81
531.436	1059.81
531.651	1048.81
531.865	1077.81
532.08	1089.81
532.295	1069.81
532.509	1045.81
532.724	1043.81
532.938	1082.81
533.153	1050.81
533.367	1065.81
533.582	1078.81
533.796	1071.81
534.011	1043.81
534.225	1040.81
534.44	1029.81
534.654	1060.81
534.868	1051.81
535.083	1036.81
535.297	1057.81
535.511	1032.81
535.726	1013.81
535.94	1001.81
536.154	984.81
536.369	996.81
536.583	997.81
536.797	1005.81
537.011	999.81
537.225	1016.81
537.44	982.81
537.654	1021.81
537.868	980.81
538.082	983.81
538.296	982.81
538.51	978.81
538.724	963.81
538.938	972.81
539.153	972.81
539.367	959.81
539.581	934.81
539.795	924.81
540.009	960.81
540.222	951.81
540.436	965.81
540.65	949.81
540.864	943.81
541.078	940.81
541.292	952.81
541.506	906.81
541.72	940.81
541.934	963.81
542.147	967.81
542.361	928.81
542.575	945.81
542.789	966.81
543.002	934.81
543.216	951.81
543.43	910.81
543.644	939.81
543.857	913.81
544.071	940.81
544.285	943.81
544.498	949.81
544.712	949.81
544.925	969.81
545.139	976.81
545.352	974.81
545.566	957.81
545.779	969.81
545.993	982.81
546.206	960.81
546.42	980.81
546.633	960.81
546.847	988.81
547.06	953.81
547.274	953.81
547.487	978.81
547.7	976.81
547.914	980.81
548.127	1007.81
548.34	1003.81
548.554	997.81
548.767	1019.81
548.98	957.81
549.193	990.81
549.407	968.81
549.62	1008.81
549.833	1053.81
550.046	989.81
550.259	992.81
550.473	952.81
550.686	1011.81
550.899	968.81
551.112	984.81
551.325	944.81
551.538	956.81
551.751	952.81
551.964	974.81
552.177	976.81
552.39	988.81
552.603	1007.81
552.816	1012.81
553.029	1066.81
553.242	1078.81
553.455	1072.81
553.667	1096.81
553.88	1044.81
554.093	1035.81
554.306	964.81
554.519	960.81
554.732	948.81
554.944	934.81
555.157	928.81
555.37	942.81
555.583	921.81
555.795	901.81
556.008	881.81
556.221	873.81
556.433	864.81
556.646	860.81
556.859	866.81
557.071	848.81
557.284	829.81
557.496	832.81
557.709	826.81
557.921	830.81
558.134	810.81
558.346	800.81
558.559	800.81
558.771	792.81
558.984	824.81
559.196	801.81
559.409	783.81
559.621	759.81
559.833	786.81
560.046	802.81
560.258	805.81
560.47	794.81
560.683	791.81
560.895	781.81
561.107	807.81
561.32	792.81
561.532	800.81
561.744	832.81
561.956	786.81
562.168	801.81
562.381	815.81
562.593	806.81
562.805	794.81
563.017	791.81
563.229	791.81
563.441	800.81
563.653	812.81
563.865	786.81
564.077	812.81
564.289	824.81
564.501	838.81
564.713	884.81
564.925	868.81
565.137	879.81
565.349	903.81
565.561	941.81
565.773	962.81
565.985	1023.81
566.197	1078.81
566.408	1165.81
566.62	1206.81
566.832	1278.81
567.044	1332.81
567.255	1334.81
567.467	1355.81
567.679	1398.81
567.891	1482.81
568.102	1511.81
568.314	1449.81
568.526	1309.81
568.737	1186.81
568.949	1132.81
569.161	1015.81
569.372	981.81
569.584	922.81
569.795	895.81
570.007	893.81
570.218	831.81
570.43	801.81
570.641	815.81
570.853	820.81
571.064	863.81
571.276	818.81
571.487	786.81
571.698	759.81
571.91	770.81
572.121	726.81
572.333	727.81
572.544	724.81
572.755	717.81
572.966	696.81
573.178	690.81
573.389	662.81
573.6	689.81
573.811	658.81
574.023	671.81
574.234	675.81
574.445	656.81
574.656	651.81
574.867	666.81
575.078	665.81
575.289	648.81
575.501	670.81
575.712	632.81
575.923	614.81
576.134	615.81
576.345	616.81
576.556	622.81
576.767	624.81
576.978	605.81
577.188	630.81
577.399	583.81
577.61	597.81
577.821	596.81
578.032	586.81
578.243	597.81
578.454	585.81
578.665	560.81
578.875	586.81
579.086	577.81
579.297	574.81
579.508	581.81
579.718	578.81
579.929	590.81
580.14	585.81
580.35	551.81
580.561	536.81
580.772	564.81
580.982	562.81
581.193	552.81
581.403	559.81
581.614	567.81
581.825	548.81
582.035	540.81
582.246	542.81
582.456	553.81
582.667	546.81
582.877	564.81
583.087	552.81
583.298	540.81
583.508	531.81
583.719	538.81
583.929	510.81
584.139	528.81
584.35	538.81
584.56	540.81
584.77	528.81
584.981	536.81
585.191	518.81
585.401	518.81
585.611	543.81
585.821	539.81
586.032	524.81
586.242	514.81
586.452	539.81
586.662	536.81
586.872	521.81
587.082	487.81
587.292	519.81
587.502	523.81
587.713	520.81
587.923	514.81
588.133	512.81
588.343	527.81
588.553	513.81
588.762	536.81
588.972	533.81
589.182	612.81
589.392	597.81
589.602	535.81
589.812	577.81
590.022	559.81
590.232	522.81
590.441	520.81
590.651	544.81
590.861	526.81
591.071	542.81
591.281	556.81
591.49	540.81
591.7	559.81
591.91	551.81
592.119	571.81
592.329	558.81
592.539	591.81
592.748	598.81
592.958	618.81
593.167	615.81
593.377	637.81
593.587	674.81
593.796	674.81
594.006	660.81
594.215	660.81
594.424	670.81
594.634	641.81
594.843	624.81
595.053	644.81
595.262	591.81
595.472	571.81
595.681	557.81
595.89	556.81
596.1	534.81
596.309	504.81
596.518	525.81
596.727	510.81
596.937	491.81
597.146	491.81
597.355	495.81
597.564	486.81
597.774	462.81
597.983	448.81
598.192	474.81
598.401	473.81
598.61	457.81
598.819	468.81
599.028	446.81
599.237	437.81
599.446	446.81
599.655	430.81
599.864	451.81
600.073	440.81
600.282	440.81
600.491	432.81
600.7	452.81
600.909	418.81
601.118	430.81
601.327	439.81
601.536	416.81
601.745	423.81
601.953	422.81
602.162	409.81
602.371	437.81
602.58	412.81
602.789	431.81
602.997	413.81
603.206	416.81
603.415	407.81
603.623	418.81
603.832	416.81
604.041	387.81
604.249	388.81
604.458	395.81
604.666	382.81
604.875	387.81
605.084	402.81
605.292	402.81
605.501	400.81
605.709	399.81
605.918	390.81
606.126	416.81
606.334	389.81
606.543	381.81
606.751	375.81
606.96	388.81
607.168	373.81
607.376	381.81
607.585	383.81
607.793	388.81
608.001	376.81
608.21	392.81
608.418	388.81
608.626	377.81
608.834	386.81
609.043	384.81
609.251	381.81
609.459	375.81
609.667	377.81
609.875	383.81
610.083	385.81
610.291	378.81
610.499	384.81
610.707	350.81
610.916	367.81
611.124	394.81
611.332	376.81
611.54	380.81
611.748	368.81
611.955	348.81
612.163	364.81
612.371	363.81
612.579	345.81
612.787	372.81
612.995	362.81
613.203	355.81
613.411	376.81
613.618	365.81
613.826	362.81
614.034	379.81
614.242	374.81
614.449	360.81
614.657	358.81
614.865	356.81
615.072	344.81
615.28	364.81
615.488	346.81
615.695	358.81
615.903	369.81
616.111	365.81
616.318	369.81
616.526	357.81
616.733	359.81
616.941	347.81
617.148	355.81
617.356	353.81
617.563	363.81
617.771	354.81
617.978	364.81
618.185	377.81
618.393	352.81
618.6	356.81
618.807	382.81
619.015	352.81
619.222	342.81
619.429	357.81
619.637	360.81
619.844	355.81
620.051	347.81
620.258	333.81
620.466	326.81
620.673	344.81
620.88	335.81
621.087	322.81
621.294	324.81
621.501	332.81
621.708	327.81
621.915	327.81
622.122	341.81
622.329	337.81
622.536	339.81
622.743	335.81
622.95	315.81
623.157	330.81
623.364	323.81
623.571	329.81
623.778	335.81
623.985	338.81
624.192	309.81
624.399	309.81
624.606	321.81
624.812	302.81
625.019	328.81
625.226	301.81
625.433	308.81
625.639	297.81
625.846	308.81
626.053	316.81
626.259	296.81
626.466	317.81
626.673	320.81
626.879	308.81
627.086	292.81
627.293	298.81
627.499	305.81
627.706	297.81
627.912	325.81
628.119	300.81
628.325	317.81
628.532	287.81
628.738	301.81
628.945	310.81
629.151	301.81
629.357	277.81
629.564	296.81
629.77	309.81
629.976	288.81
630.183	284.81
630.389	285.81
630.595	277.81
630.802	296.81
631.008	277.81
631.214	300.81
631.42	304.81
631.627	278.81
631.833	272.81
632.039	266.81
632.245	289.81
632.451	273.81
632.657	281.81
632.863	266.81
633.069	264.81
633.275	277.81
633.481	279.81
633.688	276.81
633.893	261.81
634.099	274.81
634.305	274.81
634.511	264.81
634.717	273.81
634.923	274.81
635.129	275.81
635.335	268.81
635.541	274.81
635.747	266.81
635.952	265.81
636.158	257.81
636.364	266.81
636.57	280.81
636.775	271.81
636.981	264.81
637.187	271.81
637.392	280.81
637.598	258.81
637.804	247.81
638.009	264.81
638.215	256.81
638.421	248.81
638.626	262.81
638.832	250.81
639.037	245.81
639.243	256.81
639.448	232.81
639.654	248.81
639.859	245.81
640.065	241.81
640.27	246.81
640.475	260.81
640.681	256.81
640.886	255.81
641.091	245.81
641.297	235.81
641.502	233.81
641.707	256.81
641.913	241.81
642.118	241.81
642.323	235.81
642.528	248.81
642.733	258.81
642.939	244.81
643.144	236.81
643.349	236.81
643.554	247.81
643.759	250.81
643.964	229.81
644.169	233.81
644.374	237.81
644.579	232.81
644.784	238.81
644.989	240.81
645.194	226.81
645.399	238.81
645.604	231.81
645.809	228.81
646.014	232.81
646.219	239.81
646.423	242.81
646.628	236.81
646.833	244.81
647.038	216.81
647.243	252.81
647.447	239.81
647.652	235.81
647.857	236.81
648.062	258.81
648.266	257.81
648.471	246.81
648.676	249.81
648.88	253.81
649.085	246.81
649.289	238.81
649.494	244.81
649.698	232.81
649.903	231.81
650.107	208.81
650.312	220.81
650.516	214.81
650.721	208.81
650.925	208.81
651.13	229.81
651.334	220.81
651.539	212.81
651.743	204.81
651.947	212.81
652.152	206.81
652.356	208.81
652.56	193.81
652.764	177.81
652.969	201.81
653.173	216.81
653.377	197.81
653.581	194.81
653.785	186.81
653.99	187.81
654.194	186.81
654.398	188.81
654.602	192.81
654.806	159.81
655.01	186.81
655.214	172.81
655.418	186.81
655.622	192.81
655.826	184.81
656.03	189.81
656.234	188.81
656.438	179.81
656.642	182.81
656.846	177.81
657.049	170.81
657.253	158.81
657.457	158.81
657.661	143.81
657.865	142.81
658.068	142.81
658.272	136.81
658.476	142.81
658.68	137.81
658.883	132.81
659.087	119.81
659.291	131.81
659.494	116.81
659.698	120.81
659.901	111.81
660.105	118.81
660.309	105.81
660.512	117.81
660.716	106.81
660.919	112.81
661.123	104.81
661.326	101.81
661.53	99.81
661.733	123.81
661.936	106.81
662.14	112.81
662.343	120.81
662.546	98.81
662.75	88.81
662.953	98.81
663.156	94.81
663.36	97.81
663.563	91.81
663.766	83.81
663.969	86.81
664.173	89.81
664.376	83.81
664.579	89.81
664.782	79.81
664.985	82.81
665.188	86.81
665.391	83.81
665.594	79.81
665.797	90.81
666	88.81
666.203	88.81
666.406	77.81
666.609	86.81
666.812	89.81
667.015	87.81
667.218	91.81
667.421	86.81
667.624	86.81
667.827	78.81
668.03	85.81
668.232	86.81
668.435	104.81
668.638	84.81
668.841	76.81
669.043	94.81
669.246	94.81
669.449	98.81
669.651	89.81
669.854	80.81
670.057	97.81
670.259	101.81
670.462	89.81
670.665	79.81
670.867	91.81
671.07	91.81
671.272	79.81
671.475	101.81
671.677	97.81
671.88	89.81
672.082	88.81
672.284	83.81
672.487	83.81
672.689	100.81
672.892	76.81
