Data from NiCl2@0.25M.TitratingCurve.Agarose3%dH2O.NegLispCup.LampEnergy10.LIBS07252019_HRD10591_18-24-22-572.txt Node
Date: Thu Jul 25 18:24:22 EDT 2019
User: cochatt
Spectrometer: HR+D1059
Trigger mode: 1
Integration Time (sec): 1.000000E-1
Scans to average: 1
Electric dark correction enabled: true
Nonlinearity correction enabled: false
Boxcar width: 0
XAxis mode: Wavelengths
Number of Pixels in Spectrum: 2048
>>>>>Begin Spectral Data<<<<<
223.165	-22.19
223.4	-22.19
223.635	-22.19
223.869	-15.19
224.104	-11.19
224.338	-20.19
224.573	2.81
224.808	-24.19
225.042	-10.19
225.277	-3.19
225.511	-0.19
225.746	-6.19
225.98	8.81
226.215	14.81
226.449	8.81
226.683	13.81
226.918	22.81
227.152	40.81
227.387	34.81
227.621	32.81
227.856	55.81
228.09	45.81
228.324	47.81
228.559	45.81
228.793	75.81
229.027	114.81
229.262	111.81
229.496	113.81
229.73	128.81
229.964	126.81
230.199	122.81
230.433	133.81
230.667	124.81
230.901	143.81
231.136	145.81
231.37	145.81
231.604	163.81
231.838	165.81
232.072	146.81
232.306	160.81
232.541	152.81
232.775	160.81
233.009	162.81
233.243	168.81
233.477	156.81
233.711	169.81
233.945	160.81
234.179	157.81
234.413	156.81
234.647	150.81
234.881	157.81
235.115	164.81
235.349	166.81
235.583	174.81
235.817	168.81
236.051	176.81
236.285	160.81
236.519	168.81
236.753	180.81
236.987	173.81
237.221	181.81
237.455	199.81
237.689	182.81
237.922	178.81
238.156	200.81
238.39	178.81
238.624	177.81
238.858	189.81
239.091	191.81
239.325	204.81
239.559	201.81
239.793	199.81
240.027	183.81
240.26	210.81
240.494	173.81
240.728	210.81
240.961	196.81
241.195	197.81
241.429	198.81
241.662	204.81
241.896	206.81
242.13	219.81
242.363	217.81
242.597	214.81
242.83	222.81
243.064	207.81
243.298	238.81
243.531	242.81
243.765	226.81
243.998	238.81
244.232	254.81
244.465	233.81
244.699	245.81
244.932	248.81
245.166	249.81
245.399	250.81
245.633	244.81
245.866	256.81
246.099	252.81
246.333	260.81
246.566	245.81
246.8	258.81
247.033	255.81
247.266	258.81
247.5	277.81
247.733	266.81
247.966	258.81
248.2	276.81
248.433	270.81
248.666	267.81
248.899	246.81
249.133	278.81
249.366	304.81
249.599	282.81
249.832	265.81
250.066	276.81
250.299	285.81
250.532	277.81
250.765	302.81
250.998	295.81
251.231	286.81
251.465	297.81
251.698	313.81
251.931	307.81
252.164	306.81
252.397	309.81
252.63	316.81
252.863	304.81
253.096	323.81
253.329	314.81
253.562	316.81
253.795	302.81
254.028	330.81
254.261	329.81
254.494	320.81
254.727	334.81
254.96	304.81
255.193	345.81
255.426	333.81
255.659	349.81
255.892	343.81
256.124	334.81
256.357	329.81
256.59	344.81
256.823	326.81
257.056	333.81
257.289	348.81
257.521	350.81
257.754	345.81
257.987	344.81
258.22	352.81
258.452	352.81
258.685	356.81
258.918	350.81
259.151	375.81
259.383	352.81
259.616	370.81
259.849	380.81
260.081	386.81
260.314	361.81
260.547	364.81
260.779	364.81
261.012	381.81
261.244	373.81
261.477	370.81
261.71	387.81
261.942	374.81
262.175	383.81
262.407	392.81
262.64	374.81
262.872	377.81
263.105	374.81
263.337	387.81
263.57	399.81
263.802	394.81
264.035	389.81
264.267	387.81
264.499	406.81
264.732	387.81
264.964	405.81
265.197	394.81
265.429	415.81
265.661	413.81
265.894	405.81
266.126	419.81
266.358	406.81
266.591	418.81
266.823	426.81
267.055	417.81
267.287	398.81
267.52	415.81
267.752	428.81
267.984	412.81
268.216	436.81
268.448	456.81
268.681	435.81
268.913	423.81
269.145	435.81
269.377	449.81
269.609	456.81
269.841	438.81
270.073	436.81
270.306	437.81
270.538	447.81
270.77	436.81
271.002	428.81
271.234	438.81
271.466	436.81
271.698	462.81
271.93	461.81
272.162	466.81
272.394	453.81
272.626	474.81
272.858	481.81
273.09	470.81
273.322	481.81
273.553	469.81
273.785	477.81
274.017	473.81
274.249	471.81
274.481	480.81
274.713	497.81
274.945	475.81
275.176	472.81
275.408	478.81
275.64	498.81
275.872	492.81
276.104	501.81
276.335	496.81
276.567	499.81
276.799	512.81
277.031	514.81
277.262	506.81
277.494	504.81
277.726	496.81
277.957	522.81
278.189	506.81
278.421	500.81
278.652	525.81
278.884	522.81
279.115	517.81
279.347	512.81
279.579	518.81
279.81	531.81
280.042	533.81
280.273	522.81
280.505	532.81
280.736	525.81
280.968	532.81
281.199	542.81
281.431	548.81
281.662	547.81
281.894	550.81
282.125	540.81
282.356	583.81
282.588	569.81
282.819	559.81
283.051	552.81
283.282	580.81
283.513	583.81
283.745	607.81
283.976	560.81
284.207	568.81
284.439	563.81
284.67	573.81
284.901	585.81
285.132	585.81
285.364	563.81
285.595	594.81
285.826	565.81
286.057	602.81
286.288	593.81
286.52	610.81
286.751	586.81
286.982	598.81
287.213	602.81
287.444	584.81
287.675	590.81
287.906	592.81
288.138	614.81
288.369	628.81
288.6	611.81
288.831	614.81
289.062	626.81
289.293	606.81
289.524	617.81
289.755	633.81
289.986	624.81
290.217	635.81
290.448	624.81
290.679	610.81
290.91	613.81
291.141	634.81
291.371	625.81
291.602	632.81
291.833	617.81
292.064	628.81
292.295	646.81
292.526	638.81
292.757	641.81
292.987	609.81
293.218	618.81
293.449	657.81
293.68	646.81
293.91	623.81
294.141	663.81
294.372	637.81
294.603	641.81
294.833	636.81
295.064	640.81
295.295	627.81
295.525	620.81
295.756	631.81
295.987	627.81
296.217	632.81
296.448	662.81
296.679	677.81
296.909	657.81
297.14	671.81
297.37	663.81
297.601	671.81
297.831	687.81
298.062	665.81
298.292	711.81
298.523	670.81
298.753	678.81
298.984	676.81
299.214	679.81
299.445	691.81
299.675	673.81
299.905	670.81
300.136	654.81
300.366	681.81
300.597	696.81
300.827	704.81
301.057	706.81
301.288	729.81
301.518	743.81
301.748	731.81
301.979	717.81
302.209	728.81
302.439	725.81
302.669	711.81
302.9	732.81
303.13	704.81
303.36	708.81
303.59	681.81
303.82	713.81
304.051	708.81
304.281	710.81
304.511	709.81
304.741	723.81
304.971	699.81
305.201	699.81
305.431	719.81
305.661	699.81
305.891	698.81
306.121	692.81
306.352	702.81
306.582	712.81
306.812	684.81
307.042	688.81
307.272	684.81
307.502	696.81
307.731	701.81
307.961	706.81
308.191	702.81
308.421	701.81
308.651	712.81
308.881	708.81
309.111	676.81
309.341	675.81
309.571	709.81
309.8	691.81
310.03	693.81
310.26	716.81
310.49	713.81
310.72	702.81
310.949	734.81
311.179	707.81
311.409	699.81
311.639	723.81
311.868	706.81
312.098	723.81
312.328	743.81
312.557	743.81
312.787	732.81
313.017	708.81
313.246	733.81
313.476	769.81
313.706	747.81
313.935	751.81
314.165	737.81
314.394	777.81
314.624	758.81
314.853	749.81
315.083	741.81
315.312	775.81
315.542	745.81
315.771	754.81
316.001	746.81
316.23	741.81
316.46	725.81
316.689	740.81
316.919	720.81
317.148	758.81
317.377	735.81
317.607	726.81
317.836	719.81
318.065	720.81
318.295	739.81
318.524	757.81
318.753	709.81
318.983	737.81
319.212	748.81
319.441	716.81
319.67	725.81
319.9	734.81
320.129	753.81
320.358	738.81
320.587	742.81
320.816	739.81
321.046	721.81
321.275	765.81
321.504	749.81
321.733	745.81
321.962	750.81
322.191	748.81
322.42	733.81
322.649	786.81
322.878	760.81
323.108	759.81
323.337	779.81
323.566	777.81
323.795	761.81
324.024	771.81
324.253	772.81
324.482	789.81
324.71	779.81
324.939	777.81
325.168	786.81
325.397	754.81
325.626	785.81
325.855	816.81
326.084	800.81
326.313	813.81
326.542	798.81
326.77	833.81
326.999	783.81
327.228	808.81
327.457	818.81
327.686	814.81
327.914	821.81
328.143	803.81
328.372	800.81
328.6	801.81
328.829	814.81
329.058	837.81
329.287	816.81
329.515	832.81
329.744	816.81
329.972	828.81
330.201	845.81
330.43	828.81
330.658	844.81
330.887	849.81
331.115	836.81
331.344	856.81
331.572	860.81
331.801	882.81
332.03	906.81
332.258	923.81
332.486	952.81
332.715	986.81
332.943	990.81
333.172	1053.81
333.4	1076.81
333.629	1099.81
333.857	1149.81
334.085	1138.81
334.314	1090.81
334.542	1080.81
334.771	1058.81
334.999	1022.81
335.227	1029.81
335.455	1045.81
335.684	1021.81
335.912	1032.81
336.14	983.81
336.369	998.81
336.597	959.81
336.825	980.81
337.053	987.81
337.281	961.81
337.51	944.81
337.738	945.81
337.966	932.81
338.194	915.81
338.422	899.81
338.65	887.81
338.878	905.81
339.106	882.81
339.334	903.81
339.562	896.81
339.79	873.81
340.018	852.81
340.246	836.81
340.474	834.81
340.702	860.81
340.93	854.81
341.158	859.81
341.386	863.81
341.614	870.81
341.842	866.81
342.07	836.81
342.298	827.81
342.526	861.81
342.754	843.81
342.981	851.81
343.209	863.81
343.437	914.81
343.665	975.81
343.893	1033.81
344.12	1083.81
344.348	1032.81
344.576	970.81
344.804	926.81
345.031	896.81
345.259	896.81
345.487	869.81
345.714	848.81
345.942	855.81
346.17	833.81
346.397	839.81
346.625	837.81
346.853	850.81
347.08	822.81
347.308	851.81
347.535	838.81
347.763	836.81
347.99	813.81
348.218	797.81
348.445	838.81
348.673	797.81
348.9	806.81
349.128	792.81
349.355	799.81
349.583	812.81
349.81	802.81
350.037	778.81
350.265	820.81
350.492	790.81
350.72	785.81
350.947	778.81
351.174	781.81
351.402	800.81
351.629	778.81
351.856	784.81
352.083	779.81
352.311	777.81
352.538	793.81
352.765	781.81
352.992	768.81
353.22	774.81
353.447	757.81
353.674	764.81
353.901	797.81
354.128	792.81
354.355	776.81
354.583	770.81
354.81	760.81
355.037	793.81
355.264	774.81
355.491	766.81
355.718	784.81
355.945	773.81
356.172	814.81
356.399	793.81
356.626	778.81
356.853	795.81
357.08	786.81
357.307	804.81
357.534	805.81
357.761	812.81
357.988	799.81
358.215	744.81
358.441	782.81
358.668	758.81
358.895	806.81
359.122	766.81
359.349	804.81
359.576	817.81
359.802	797.81
360.029	812.81
360.256	789.81
360.483	812.81
360.709	795.81
360.936	812.81
361.163	800.81
361.39	821.81
361.616	781.81
361.843	777.81
362.07	784.81
362.296	799.81
362.523	784.81
362.749	802.81
362.976	793.81
363.203	782.81
363.429	778.81
363.656	808.81
363.882	791.81
364.109	796.81
364.335	825.81
364.562	762.81
364.788	787.81
365.015	798.81
365.241	798.81
365.468	802.81
365.694	778.81
365.92	784.81
366.147	817.81
366.373	832.81
366.599	776.81
366.826	772.81
367.052	778.81
367.278	801.81
367.505	805.81
367.731	790.81
367.957	805.81
368.184	815.81
368.41	812.81
368.636	813.81
368.862	821.81
369.089	808.81
369.315	812.81
369.541	813.81
369.767	823.81
369.993	814.81
370.219	820.81
370.445	831.81
370.672	854.81
370.898	842.81
371.124	825.81
371.35	860.81
371.576	857.81
371.802	869.81
372.028	868.81
372.254	855.81
372.48	872.81
372.706	883.81
372.932	920.81
373.158	899.81
373.384	891.81
373.61	867.81
373.835	871.81
374.061	865.81
374.287	857.81
374.513	914.81
374.739	916.81
374.965	927.81
375.191	969.81
375.416	954.81
375.642	934.81
375.868	924.81
376.094	919.81
376.319	863.81
376.545	892.81
376.771	888.81
376.997	890.81
377.222	872.81
377.448	874.81
377.674	863.81
377.899	850.81
378.125	879.81
378.35	854.81
378.576	837.81
378.802	845.81
379.027	866.81
379.253	861.81
379.478	828.81
379.704	818.81
379.929	851.81
380.155	855.81
380.38	825.81
380.606	826.81
380.831	823.81
381.057	861.81
381.282	844.81
381.507	869.81
381.733	884.81
381.958	848.81
382.184	860.81
382.409	898.81
382.634	892.81
382.86	894.81
383.085	904.81
383.31	908.81
383.535	916.81
383.761	944.81
383.986	944.81
384.211	988.81
384.436	993.81
384.662	1018.81
384.887	1030.81
385.112	1038.81
385.337	1048.81
385.562	1047.81
385.787	1058.81
386.013	1068.81
386.238	1086.81
386.463	1052.81
386.688	1060.81
386.913	1053.81
387.138	1018.81
387.363	1043.81
387.588	1018.81
387.813	1012.81
388.038	1001.81
388.263	1042.81
388.488	1062.81
388.713	1049.81
388.938	1049.81
389.163	1018.81
389.387	1016.81
389.612	1002.81
389.837	1033.81
390.062	1029.81
390.287	1030.81
390.512	1019.81
390.736	1019.81
390.961	1076.81
391.186	1086.81
391.411	1129.81
391.636	1118.81
391.86	1169.81
392.085	1179.81
392.31	1182.81
392.534	1153.81
392.759	1167.81
392.984	1133.81
393.208	1106.81
393.433	1113.81
393.658	1088.81
393.882	1112.81
394.107	1110.81
394.331	1091.81
394.556	1105.81
394.78	1124.81
395.005	1140.81
395.229	1136.81
395.454	1137.81
395.678	1189.81
395.903	1203.81
396.127	1178.81
396.352	1177.81
396.576	1144.81
396.801	1123.81
397.025	1140.81
397.249	1132.81
397.474	1178.81
397.698	1187.81
397.922	1172.81
398.147	1200.81
398.371	1214.81
398.595	1280.81
398.82	1312.81
399.044	1421.81
399.268	1546.81
399.492	1795.81
399.717	1993.81
399.941	2032.81
400.165	1829.81
400.389	1637.81
400.613	1493.81
400.837	1386.81
401.062	1391.81
401.286	1372.81
401.51	1342.81
401.734	1335.81
401.958	1362.81
402.182	1367.81
402.406	1389.81
402.63	1437.81
402.854	1456.81
403.078	1442.81
403.302	1464.81
403.526	1477.81
403.75	1510.81
403.974	1511.81
404.198	1540.81
404.422	1521.81
404.645	1528.81
404.869	1492.81
405.093	1500.81
405.317	1446.81
405.541	1492.81
405.765	1446.81
405.988	1446.81
406.212	1480.81
406.436	1436.81
406.66	1485.81
406.883	1537.81
407.107	1623.81
407.331	1684.81
407.555	1711.81
407.778	1701.81
408.002	1688.81
408.226	1634.81
408.449	1628.81
408.673	1563.81
408.896	1496.81
409.12	1507.81
409.344	1529.81
409.567	1495.81
409.791	1475.81
410.014	1499.81
410.238	1444.81
410.461	1443.81
410.685	1443.81
410.908	1437.81
411.132	1413.81
411.355	1376.81
411.578	1375.81
411.802	1386.81
412.025	1379.81
412.249	1398.81
412.472	1421.81
412.695	1342.81
412.919	1328.81
413.142	1340.81
413.365	1334.81
413.589	1358.81
413.812	1324.81
414.035	1297.81
414.258	1318.81
414.482	1305.81
414.705	1329.81
414.928	1310.81
415.151	1333.81
415.374	1300.81
415.597	1318.81
415.821	1290.81
416.044	1288.81
416.267	1262.81
416.49	1268.81
416.713	1282.81
416.936	1321.81
417.159	1310.81
417.382	1281.81
417.605	1302.81
417.828	1321.81
418.051	1294.81
418.274	1278.81
418.497	1321.81
418.72	1323.81
418.943	1322.81
419.166	1431.81
419.389	1521.81
419.611	1478.81
419.834	1414.81
420.057	1359.81
420.28	1307.81
420.503	1289.81
420.726	1272.81
420.948	1313.81
421.171	1319.81
421.394	1306.81
421.617	1315.81
421.839	1287.81
422.062	1320.81
422.285	1265.81
422.507	1358.81
422.73	1327.81
422.953	1296.81
423.175	1366.81
423.398	1353.81
423.621	1363.81
423.843	1383.81
424.066	1416.81
424.288	1359.81
424.511	1330.81
424.733	1364.81
424.956	1318.81
425.178	1334.81
425.401	1308.81
425.623	1314.81
425.846	1261.81
426.068	1264.81
426.291	1233.81
426.513	1249.81
426.735	1210.81
426.958	1216.81
427.18	1182.81
427.402	1231.81
427.625	1198.81
427.847	1154.81
428.069	1161.81
428.292	1169.81
428.514	1156.81
428.736	1145.81
428.958	1158.81
429.181	1100.81
429.403	1121.81
429.625	1113.81
429.847	1094.81
430.069	1113.81
430.292	1129.81
430.514	1099.81
430.736	1133.81
430.958	1107.81
431.18	1134.81
431.402	1122.81
431.624	1129.81
431.846	1145.81
432.068	1185.81
432.29	1151.81
432.512	1104.81
432.734	1111.81
432.956	1139.81
433.178	1152.81
433.4	1144.81
433.622	1187.81
433.844	1175.81
434.066	1155.81
434.287	1159.81
434.509	1222.81
434.731	1230.81
434.953	1252.81
435.175	1290.81
435.397	1270.81
435.618	1211.81
435.84	1208.81
436.062	1149.81
436.284	1138.81
436.505	1100.81
436.727	1164.81
436.949	1170.81
437.17	1146.81
437.392	1117.81
437.614	1128.81
437.835	1099.81
438.057	1105.81
438.278	1086.81
438.5	1091.81
438.721	1095.81
438.943	1093.81
439.165	1081.81
439.386	1121.81
439.608	1106.81
439.829	1117.81
440.05	1109.81
440.272	1104.81
440.493	1132.81
440.715	1160.81
440.936	1169.81
441.158	1193.81
441.379	1229.81
441.6	1268.81
441.822	1272.81
442.043	1301.81
442.264	1281.81
442.486	1266.81
442.707	1254.81
442.928	1235.81
443.149	1272.81
443.371	1255.81
443.592	1272.81
443.813	1302.81
444.034	1304.81
444.255	1365.81
444.476	1419.81
444.698	1502.81
444.919	1547.81
445.14	1584.81
445.361	1479.81
445.582	1333.81
445.803	1292.81
446.024	1220.81
446.245	1178.81
446.466	1197.81
446.687	1132.81
446.908	1177.81
447.129	1109.81
447.35	1094.81
447.571	1098.81
447.792	1041.81
448.013	1095.81
448.234	1063.81
448.455	1083.81
448.675	1059.81
448.896	1049.81
449.117	1022.81
449.338	1019.81
449.559	1038.81
449.779	1040.81
450	1028.81
450.221	1014.81
450.442	1032.81
450.662	1024.81
450.883	1063.81
451.104	1087.81
451.324	1038.81
451.545	1078.81
451.766	1057.81
451.986	1009.81
452.207	1021.81
452.428	1048.81
452.648	1040.81
452.869	1012.81
453.089	1013.81
453.31	1045.81
453.53	1043.81
453.751	1007.81
453.971	993.81
454.192	986.81
454.412	977.81
454.633	985.81
454.853	968.81
455.073	981.81
455.294	981.81
455.514	946.81
455.734	953.81
455.955	952.81
456.175	960.81
456.395	953.81
456.616	961.81
456.836	970.81
457.056	975.81
457.276	978.81
457.497	973.81
457.717	976.81
457.937	994.81
458.157	1006.81
458.377	1044.81
458.598	1008.81
458.818	1072.81
459.038	1081.81
459.258	1147.81
459.478	1160.81
459.698	1175.81
459.918	1232.81
460.138	1262.81
460.358	1364.81
460.578	1344.81
460.798	1347.81
461.018	1384.81
461.238	1349.81
461.458	1320.81
461.678	1326.81
461.898	1382.81
462.118	1416.81
462.338	1414.81
462.558	1529.81
462.777	1550.81
462.997	1692.81
463.217	1805.81
463.437	1844.81
463.657	1682.81
463.876	1622.81
464.096	1597.81
464.316	1579.81
464.536	1618.81
464.755	1550.81
464.975	1473.81
465.195	1414.81
465.414	1339.81
465.634	1252.81
465.854	1217.81
466.073	1151.81
466.293	1170.81
466.512	1130.81
466.732	1112.81
466.951	1057.81
467.171	1102.81
467.391	1108.81
467.61	1088.81
467.829	1104.81
468.049	1104.81
468.268	1060.81
468.488	1052.81
468.707	1041.81
468.927	1045.81
469.146	1053.81
469.365	1062.81
469.585	1065.81
469.804	1102.81
470.023	1123.81
470.243	1112.81
470.462	1142.81
470.681	1158.81
470.901	1137.81
471.12	1122.81
471.339	1076.81
471.558	1080.81
471.777	1103.81
471.997	1102.81
472.216	1061.81
472.435	1053.81
472.654	1027.81
472.873	993.81
473.092	1020.81
473.311	1032.81
473.53	1048.81
473.749	1006.81
473.968	1009.81
474.187	996.81
474.406	1002.81
474.625	1008.81
474.844	999.81
475.063	1039.81
475.282	1048.81
475.501	1032.81
475.72	1045.81
475.939	1046.81
476.158	1063.81
476.377	1056.81
476.596	1061.81
476.814	1087.81
477.033	1095.81
477.252	1086.81
477.471	1125.81
477.69	1136.81
477.908	1172.81
478.127	1233.81
478.346	1218.81
478.564	1247.81
478.783	1279.81
479.002	1269.81
479.22	1291.81
479.439	1316.81
479.658	1308.81
479.876	1291.81
480.095	1321.81
480.313	1342.81
480.532	1353.81
480.751	1423.81
480.969	1328.81
481.188	1290.81
481.406	1249.81
481.624	1200.81
481.843	1191.81
482.061	1185.81
482.28	1141.81
482.498	1165.81
482.717	1178.81
482.935	1128.81
483.153	1188.81
483.372	1162.81
483.59	1174.81
483.808	1155.81
484.027	1167.81
484.245	1169.81
484.463	1142.81
484.681	1202.81
484.9	1213.81
485.118	1231.81
485.336	1228.81
485.554	1234.81
485.772	1227.81
485.99	1252.81
486.209	1233.81
486.427	1215.81
486.645	1214.81
486.863	1227.81
487.081	1238.81
487.299	1219.81
487.517	1213.81
487.735	1231.81
487.953	1231.81
488.171	1211.81
488.389	1190.81
488.607	1204.81
488.825	1212.81
489.043	1207.81
489.261	1211.81
489.479	1212.81
489.696	1221.81
489.914	1205.81
490.132	1226.81
490.35	1263.81
490.568	1182.81
490.786	1231.81
491.003	1256.81
491.221	1247.81
491.439	1237.81
491.657	1237.81
491.874	1246.81
492.092	1234.81
492.31	1240.81
492.527	1269.81
492.745	1255.81
492.963	1257.81
493.18	1273.81
493.398	1281.81
493.615	1245.81
493.833	1296.81
494.05	1282.81
494.268	1330.81
494.485	1320.81
494.703	1303.81
494.92	1320.81
495.138	1304.81
495.355	1377.81
495.573	1328.81
495.79	1314.81
496.008	1360.81
496.225	1359.81
496.442	1362.81
496.66	1388.81
496.877	1414.81
497.094	1422.81
497.312	1461.81
497.529	1484.81
497.746	1499.81
497.963	1569.81
498.181	1633.81
498.398	1702.81
498.615	1846.81
498.832	1911.81
499.049	2108.81
499.267	2270.81
499.484	2506.81
499.701	2772.81
499.918	3077.81
500.135	3500.81
500.352	3952.81
500.569	4129.81
500.786	4026.81
501.003	3806.81
501.22	3459.81
501.437	3043.81
501.654	2709.81
501.871	2448.81
502.088	2252.81
502.305	2080.81
502.522	1959.81
502.739	1879.81
502.956	1778.81
503.172	1692.81
503.389	1620.81
503.606	1556.81
503.823	1557.81
504.04	1523.81
504.256	1517.81
504.473	1589.81
504.69	1641.81
504.907	1564.81
505.123	1459.81
505.34	1408.81
505.557	1317.81
505.773	1308.81
505.99	1264.81
506.207	1235.81
506.423	1227.81
506.64	1193.81
506.856	1187.81
507.073	1196.81
507.289	1204.81
507.506	1148.81
507.722	1179.81
507.939	1145.81
508.155	1168.81
508.372	1134.81
508.588	1112.81
508.805	1132.81
509.021	1142.81
509.238	1129.81
509.454	1080.81
509.67	1071.81
509.887	1082.81
510.103	1065.81
510.319	1067.81
510.536	1065.81
510.752	1053.81
510.968	1051.81
511.184	1034.81
511.401	1082.81
511.617	1046.81
511.833	1065.81
512.049	1025.81
512.265	1094.81
512.481	1091.81
512.698	1062.81
512.914	1055.81
513.13	1050.81
513.346	1073.81
513.562	1042.81
513.778	1059.81
513.994	1075.81
514.21	1071.81
514.426	1085.81
514.642	1066.81
514.858	1072.81
515.074	1092.81
515.29	1107.81
515.506	1116.81
515.721	1113.81
515.937	1140.81
516.153	1160.81
516.369	1202.81
516.585	1210.81
516.801	1269.81
517.016	1303.81
517.232	1412.81
517.448	1428.81
517.664	1462.81
517.879	1492.81
518.095	1501.81
518.311	1479.81
518.527	1430.81
518.742	1360.81
518.958	1288.81
519.173	1237.81
519.389	1236.81
519.605	1171.81
519.82	1155.81
520.036	1145.81
520.251	1088.81
520.467	1116.81
520.682	1063.81
520.898	1068.81
521.113	1020.81
521.329	1048.81
521.544	1044.81
521.76	1038.81
521.975	980.81
522.19	984.81
522.406	1020.81
522.621	1012.81
522.836	991.81
523.052	969.81
523.267	987.81
523.482	1008.81
523.698	962.81
523.913	978.81
524.128	944.81
524.343	972.81
524.559	963.81
524.774	976.81
524.989	959.81
525.204	985.81
525.419	994.81
525.634	955.81
525.849	966.81
526.064	979.81
526.28	963.81
526.495	941.81
526.71	933.81
526.925	950.81
527.14	933.81
527.355	952.81
527.57	920.81
527.785	919.81
527.999	967.81
528.214	963.81
528.429	973.81
528.644	957.81
528.859	953.81
529.074	950.81
529.289	958.81
529.503	940.81
529.718	928.81
529.933	925.81
530.148	932.81
530.363	911.81
530.577	950.81
530.792	917.81
531.007	941.81
531.221	944.81
531.436	923.81
531.651	967.81
531.865	964.81
532.08	933.81
532.295	957.81
532.509	949.81
532.724	939.81
532.938	944.81
533.153	927.81
533.367	951.81
533.582	930.81
533.796	942.81
534.011	929.81
534.225	926.81
534.44	901.81
534.654	932.81
534.868	933.81
535.083	923.81
535.297	890.81
535.511	896.81
535.726	904.81
535.94	915.81
536.154	900.81
536.369	879.81
536.583	892.81
536.797	903.81
537.011	881.81
537.225	879.81
537.44	889.81
537.654	876.81
537.868	875.81
538.082	836.81
538.296	840.81
538.51	870.81
538.724	882.81
538.938	888.81
539.153	876.81
539.367	860.81
539.581	876.81
539.795	840.81
540.009	857.81
540.222	838.81
540.436	818.81
540.65	817.81
540.864	833.81
541.078	833.81
541.292	856.81
541.506	850.81
541.72	858.81
541.934	840.81
542.147	856.81
542.361	830.81
542.575	876.81
542.789	860.81
543.002	823.81
543.216	847.81
543.43	848.81
543.644	818.81
543.857	830.81
544.071	817.81
544.285	862.81
544.498	851.81
544.712	824.81
544.925	853.81
545.139	860.81
545.352	857.81
545.566	825.81
545.779	881.81
545.993	858.81
546.206	874.81
546.42	870.81
546.633	864.81
546.847	869.81
547.06	873.81
547.274	878.81
547.487	869.81
547.7	880.81
547.914	880.81
548.127	869.81
548.34	891.81
548.554	869.81
548.767	871.81
548.98	863.81
549.193	890.81
549.407	881.81
549.62	886.81
549.833	905.81
550.046	911.81
550.259	898.81
550.473	849.81
550.686	887.81
550.899	862.81
551.112	830.81
551.325	826.81
551.538	853.81
551.751	857.81
551.964	852.81
552.177	870.81
552.39	892.81
552.603	882.81
552.816	936.81
553.029	960.81
553.242	958.81
553.455	984.81
553.667	961.81
553.88	953.81
554.093	910.81
554.306	910.81
554.519	880.81
554.732	826.81
554.944	854.81
555.157	825.81
555.37	836.81
555.583	792.81
555.795	817.81
556.008	764.81
556.221	762.81
556.433	775.81
556.646	753.81
556.859	757.81
557.071	724.81
557.284	715.81
557.496	750.81
557.709	727.81
557.921	737.81
558.134	735.81
558.346	725.81
558.559	714.81
558.771	707.81
558.984	734.81
559.196	710.81
559.409	711.81
559.621	709.81
559.833	694.81
560.046	728.81
560.258	720.81
560.47	702.81
560.683	706.81
560.895	696.81
561.107	675.81
561.32	693.81
561.532	702.81
561.744	682.81
561.956	705.81
562.168	712.81
562.381	714.81
562.593	684.81
562.805	707.81
563.017	697.81
563.229	717.81
563.441	709.81
563.653	723.81
563.865	733.81
564.077	750.81
564.289	718.81
564.501	718.81
564.713	737.81
564.925	765.81
565.137	768.81
565.349	785.81
565.561	814.81
565.773	864.81
565.985	936.81
566.197	961.81
566.408	1008.81
566.62	1082.81
566.832	1166.81
567.044	1188.81
567.255	1218.81
567.467	1244.81
567.679	1280.81
567.891	1379.81
568.102	1372.81
568.314	1310.81
568.526	1201.81
568.737	1116.81
568.949	1014.81
569.161	951.81
569.372	868.81
569.584	814.81
569.795	818.81
570.007	754.81
570.218	728.81
570.43	755.81
570.641	732.81
570.853	746.81
571.064	740.81
571.276	718.81
571.487	728.81
571.698	691.81
571.91	678.81
572.121	644.81
572.333	632.81
572.544	624.81
572.755	616.81
572.966	632.81
573.178	610.81
573.389	588.81
573.6	598.81
573.811	575.81
574.023	591.81
574.234	608.81
574.445	580.81
574.656	579.81
574.867	574.81
575.078	582.81
575.289	582.81
575.501	580.81
575.712	564.81
575.923	567.81
576.134	566.81
576.345	558.81
576.556	568.81
576.767	541.81
576.978	546.81
577.188	548.81
577.399	548.81
577.61	522.81
577.821	527.81
578.032	531.81
578.243	530.81
578.454	505.81
578.665	536.81
578.875	528.81
579.086	481.81
579.297	513.81
579.508	497.81
579.718	538.81
579.929	516.81
580.14	521.81
580.35	484.81
580.561	510.81
580.772	493.81
580.982	501.81
581.193	459.81
581.403	485.81
581.614	509.81
581.825	488.81
582.035	482.81
582.246	487.81
582.456	498.81
582.667	496.81
582.877	503.81
583.087	496.81
583.298	477.81
583.508	470.81
583.719	483.81
583.929	489.81
584.139	478.81
584.35	482.81
584.56	451.81
584.77	468.81
584.981	458.81
585.191	459.81
585.401	446.81
585.611	467.81
585.821	480.81
586.032	469.81
586.242	460.81
586.452	463.81
586.662	474.81
586.872	464.81
587.082	464.81
587.292	456.81
587.502	465.81
587.713	447.81
587.923	451.81
588.133	457.81
588.343	457.81
588.553	452.81
588.762	469.81
588.972	481.81
589.182	482.81
589.392	478.81
589.602	469.81
589.812	473.81
590.022	483.81
590.232	470.81
590.441	474.81
590.651	468.81
590.861	447.81
591.071	504.81
591.281	484.81
591.49	488.81
591.7	504.81
591.91	493.81
592.119	508.81
592.329	515.81
592.539	538.81
592.748	542.81
592.958	561.81
593.167	576.81
593.377	575.81
593.587	586.81
593.796	595.81
594.006	609.81
594.215	598.81
594.424	600.81
594.634	575.81
594.843	585.81
595.053	549.81
595.262	536.81
595.472	524.81
595.681	489.81
595.89	463.81
596.1	478.81
596.309	462.81
596.518	462.81
596.727	451.81
596.937	429.81
597.146	424.81
597.355	423.81
597.564	440.81
597.774	422.81
597.983	402.81
598.192	415.81
598.401	401.81
598.61	418.81
598.819	388.81
599.028	390.81
599.237	404.81
599.446	395.81
599.655	391.81
599.864	394.81
600.073	378.81
600.282	387.81
600.491	400.81
600.7	390.81
600.909	400.81
601.118	391.81
601.327	386.81
601.536	384.81
601.745	372.81
601.953	386.81
602.162	400.81
602.371	374.81
602.58	370.81
602.789	376.81
602.997	364.81
603.206	387.81
603.415	378.81
603.623	368.81
603.832	375.81
604.041	375.81
604.249	343.81
604.458	353.81
604.666	371.81
604.875	364.81
605.084	355.81
605.292	360.81
605.501	347.81
605.709	334.81
605.918	349.81
606.126	353.81
606.334	349.81
606.543	346.81
606.751	346.81
606.96	344.81
607.168	344.81
607.376	346.81
607.585	338.81
607.793	340.81
608.001	355.81
608.21	354.81
608.418	367.81
608.626	332.81
608.834	347.81
609.043	350.81
609.251	329.81
609.459	334.81
609.667	335.81
609.875	337.81
610.083	348.81
610.291	322.81
610.499	332.81
610.707	356.81
610.916	337.81
611.124	332.81
611.332	342.81
611.54	331.81
611.748	327.81
611.955	340.81
612.163	334.81
612.371	326.81
612.579	309.81
612.787	328.81
612.995	330.81
613.203	315.81
613.411	336.81
613.618	318.81
613.826	331.81
614.034	320.81
614.242	334.81
614.449	328.81
614.657	328.81
614.865	311.81
615.072	327.81
615.28	325.81
615.488	324.81
615.695	329.81
615.903	333.81
616.111	329.81
616.318	334.81
616.526	339.81
616.733	331.81
616.941	323.81
617.148	335.81
617.356	328.81
617.563	339.81
617.771	346.81
617.978	319.81
618.185	325.81
618.393	330.81
618.6	296.81
618.807	316.81
619.015	320.81
619.222	316.81
619.429	304.81
619.637	306.81
619.844	322.81
620.051	303.81
620.258	331.81
620.466	308.81
620.673	292.81
620.88	297.81
621.087	313.81
621.294	307.81
621.501	296.81
621.708	314.81
621.915	305.81
622.122	302.81
622.329	309.81
622.536	304.81
622.743	288.81
622.95	294.81
623.157	295.81
623.364	297.81
623.571	302.81
623.778	302.81
623.985	280.81
624.192	276.81
624.399	291.81
624.606	293.81
624.812	261.81
625.019	276.81
625.226	281.81
625.433	288.81
625.639	266.81
625.846	285.81
626.053	283.81
626.259	278.81
626.466	292.81
626.673	284.81
626.879	268.81
627.086	266.81
627.293	276.81
627.499	281.81
627.706	262.81
627.912	268.81
628.119	277.81
628.325	260.81
628.532	275.81
628.738	259.81
628.945	251.81
629.151	271.81
629.357	256.81
629.564	262.81
629.77	278.81
629.976	245.81
630.183	259.81
630.389	246.81
630.595	258.81
630.802	253.81
631.008	263.81
631.214	253.81
631.42	257.81
631.627	249.81
631.833	240.81
632.039	253.81
632.245	236.81
632.451	241.81
632.657	239.81
632.863	240.81
633.069	225.81
633.275	237.81
633.481	248.81
633.688	237.81
633.893	232.81
634.099	221.81
634.305	237.81
634.511	246.81
634.717	220.81
634.923	224.81
635.129	243.81
635.335	251.81
635.541	229.81
635.747	239.81
635.952	233.81
636.158	252.81
636.364	226.81
636.57	240.81
636.775	217.81
636.981	233.81
637.187	238.81
637.392	236.81
637.598	249.81
637.804	232.81
638.009	238.81
638.215	227.81
638.421	225.81
638.626	225.81
638.832	228.81
639.037	221.81
639.243	223.81
639.448	216.81
639.654	220.81
639.859	204.81
640.065	206.81
640.27	219.81
640.475	216.81
640.681	216.81
640.886	202.81
641.091	218.81
641.297	219.81
641.502	217.81
641.707	207.81
641.913	222.81
642.118	197.81
642.323	228.81
642.528	208.81
642.733	199.81
642.939	213.81
643.144	190.81
643.349	196.81
643.554	202.81
643.759	202.81
643.964	211.81
644.169	212.81
644.374	205.81
644.579	209.81
644.784	201.81
644.989	210.81
645.194	209.81
645.399	201.81
645.604	190.81
645.809	206.81
646.014	193.81
646.219	193.81
646.423	213.81
646.628	206.81
646.833	229.81
647.038	219.81
647.243	211.81
647.447	210.81
647.652	212.81
647.857	215.81
648.062	204.81
648.266	230.81
648.471	230.81
648.676	224.81
648.88	206.81
649.085	216.81
649.289	208.81
649.494	202.81
649.698	188.81
649.903	184.81
650.107	192.81
650.312	184.81
650.516	180.81
650.721	197.81
650.925	173.81
651.13	173.81
651.334	190.81
651.539	169.81
651.743	188.81
651.947	176.81
652.152	164.81
652.356	174.81
652.56	179.81
652.764	160.81
652.969	172.81
653.173	169.81
653.377	155.81
653.581	158.81
653.785	152.81
653.99	147.81
654.194	151.81
654.398	158.81
654.602	141.81
654.806	141.81
655.01	145.81
655.214	151.81
655.418	149.81
655.622	144.81
655.826	132.81
656.03	147.81
656.234	138.81
656.438	132.81
656.642	145.81
656.846	145.81
657.049	134.81
657.253	126.81
657.457	120.81
657.661	130.81
657.865	114.81
658.068	109.81
658.272	125.81
658.476	121.81
658.68	111.81
658.883	113.81
659.087	94.81
659.291	105.81
659.494	108.81
659.698	95.81
659.901	108.81
660.105	83.81
660.309	86.81
660.512	106.81
660.716	106.81
660.919	89.81
661.123	100.81
661.326	94.81
661.53	89.81
661.733	95.81
661.936	85.81
662.14	85.81
662.343	73.81
662.546	84.81
662.75	83.81
662.953	85.81
663.156	80.81
663.36	82.81
663.563	86.81
663.766	80.81
663.969	87.81
664.173	86.81
664.376	74.81
664.579	78.81
664.782	73.81
664.985	84.81
665.188	69.81
665.391	73.81
665.594	75.81
665.797	82.81
666	69.81
666.203	86.81
666.406	72.81
666.609	70.81
666.812	71.81
667.015	82.81
667.218	75.81
667.421	93.81
667.624	77.81
667.827	75.81
668.03	81.81
668.232	77.81
668.435	74.81
668.638	78.81
668.841	97.81
669.043	89.81
669.246	86.81
669.449	81.81
669.651	85.81
669.854	71.81
670.057	97.81
670.259	80.81
670.462	69.81
670.665	80.81
670.867	84.81
671.07	84.81
671.272	81.81
671.475	85.81
671.677	72.81
671.88	84.81
672.082	78.81
672.284	82.81
672.487	68.81
672.689	74.81
672.892	69.81
