Data from NiCl2@0.5M.TitratingCurve.Agarose3%dH2O.NegLispCup.LampEnergy10.LIBS07252019_HRD10591_18-21-12-575.txt Node
Date: Thu Jul 25 18:21:12 EDT 2019
User: cochatt
Spectrometer: HR+D1059
Trigger mode: 1
Integration Time (sec): 1.000000E-1
Scans to average: 1
Electric dark correction enabled: true
Nonlinearity correction enabled: false
Boxcar width: 0
XAxis mode: Wavelengths
Number of Pixels in Spectrum: 2048
>>>>>Begin Spectral Data<<<<<
223.165	-4.38
223.4	-4.38
223.635	-4.38
223.869	-17.38
224.104	-20.38
224.338	-16.38
224.573	-19.38
224.808	-12.38
225.042	-1.38
225.277	-6.38
225.511	0.62
225.746	6.62
225.98	2.62
226.215	11.62
226.449	12.62
226.683	15.62
226.918	26.62
227.152	21.62
227.387	48.62
227.621	57.62
227.856	50.62
228.09	40.62
228.324	60.62
228.559	46.62
228.793	66.62
229.027	108.62
229.262	97.62
229.496	126.62
229.73	120.62
229.964	126.62
230.199	127.62
230.433	140.62
230.667	157.62
230.901	138.62
231.136	142.62
231.37	150.62
231.604	164.62
231.838	156.62
232.072	141.62
232.306	152.62
232.541	148.62
232.775	157.62
233.009	168.62
233.243	148.62
233.477	158.62
233.711	160.62
233.945	172.62
234.179	155.62
234.413	171.62
234.647	162.62
234.881	170.62
235.115	162.62
235.349	174.62
235.583	157.62
235.817	168.62
236.051	163.62
236.285	163.62
236.519	165.62
236.753	149.62
236.987	162.62
237.221	181.62
237.455	166.62
237.689	163.62
237.922	164.62
238.156	180.62
238.39	169.62
238.624	178.62
238.858	172.62
239.091	192.62
239.325	192.62
239.559	178.62
239.793	181.62
240.027	191.62
240.26	202.62
240.494	188.62
240.728	195.62
240.961	203.62
241.195	211.62
241.429	199.62
241.662	195.62
241.896	195.62
242.13	208.62
242.363	213.62
242.597	195.62
242.83	214.62
243.064	213.62
243.298	228.62
243.531	235.62
243.765	207.62
243.998	234.62
244.232	222.62
244.465	222.62
244.699	233.62
244.932	230.62
245.166	238.62
245.399	231.62
245.633	221.62
245.866	246.62
246.099	224.62
246.333	253.62
246.566	246.62
246.8	242.62
247.033	219.62
247.266	247.62
247.5	256.62
247.733	255.62
247.966	258.62
248.2	257.62
248.433	253.62
248.666	266.62
248.899	248.62
249.133	248.62
249.366	288.62
249.599	259.62
249.832	267.62
250.066	266.62
250.299	271.62
250.532	273.62
250.765	255.62
250.998	283.62
251.231	280.62
251.465	278.62
251.698	287.62
251.931	283.62
252.164	298.62
252.397	278.62
252.63	270.62
252.863	289.62
253.096	295.62
253.329	289.62
253.562	303.62
253.795	314.62
254.028	306.62
254.261	301.62
254.494	303.62
254.727	318.62
254.96	291.62
255.193	310.62
255.426	310.62
255.659	312.62
255.892	293.62
256.124	322.62
256.357	315.62
256.59	317.62
256.823	315.62
257.056	317.62
257.289	331.62
257.521	336.62
257.754	319.62
257.987	324.62
258.22	338.62
258.452	337.62
258.685	341.62
258.918	343.62
259.151	344.62
259.383	336.62
259.616	345.62
259.849	327.62
260.081	348.62
260.314	350.62
260.547	356.62
260.779	327.62
261.012	346.62
261.244	340.62
261.477	354.62
261.71	355.62
261.942	349.62
262.175	350.62
262.407	360.62
262.64	351.62
262.872	375.62
263.105	370.62
263.337	360.62
263.57	390.62
263.802	376.62
264.035	372.62
264.267	365.62
264.499	366.62
264.732	382.62
264.964	389.62
265.197	378.62
265.429	378.62
265.661	370.62
265.894	385.62
266.126	370.62
266.358	397.62
266.591	409.62
266.823	411.62
267.055	399.62
267.287	395.62
267.52	397.62
267.752	394.62
267.984	380.62
268.216	400.62
268.448	379.62
268.681	384.62
268.913	415.62
269.145	401.62
269.377	410.62
269.609	401.62
269.841	390.62
270.073	407.62
270.306	421.62
270.538	431.62
270.77	423.62
271.002	430.62
271.234	413.62
271.466	441.62
271.698	428.62
271.93	420.62
272.162	442.62
272.394	430.62
272.626	438.62
272.858	443.62
273.09	431.62
273.322	454.62
273.553	460.62
273.785	472.62
274.017	443.62
274.249	442.62
274.481	432.62
274.713	456.62
274.945	460.62
275.176	462.62
275.408	446.62
275.64	481.62
275.872	453.62
276.104	466.62
276.335	469.62
276.567	464.62
276.799	450.62
277.031	462.62
277.262	486.62
277.494	476.62
277.726	482.62
277.957	480.62
278.189	494.62
278.421	480.62
278.652	497.62
278.884	492.62
279.115	493.62
279.347	486.62
279.579	460.62
279.81	474.62
280.042	495.62
280.273	498.62
280.505	498.62
280.736	496.62
280.968	498.62
281.199	496.62
281.431	527.62
281.662	532.62
281.894	506.62
282.125	522.62
282.356	523.62
282.588	525.62
282.819	513.62
283.051	527.62
283.282	529.62
283.513	524.62
283.745	512.62
283.976	528.62
284.207	524.62
284.439	529.62
284.67	543.62
284.901	537.62
285.132	546.62
285.364	511.62
285.595	556.62
285.826	557.62
286.057	559.62
286.288	551.62
286.52	551.62
286.751	566.62
286.982	544.62
287.213	558.62
287.444	557.62
287.675	559.62
287.906	571.62
288.138	568.62
288.369	566.62
288.6	568.62
288.831	560.62
289.062	572.62
289.293	596.62
289.524	588.62
289.755	600.62
289.986	577.62
290.217	589.62
290.448	588.62
290.679	584.62
290.91	591.62
291.141	579.62
291.371	601.62
291.602	578.62
291.833	585.62
292.064	596.62
292.295	576.62
292.526	578.62
292.757	586.62
292.987	575.62
293.218	614.62
293.449	594.62
293.68	614.62
293.91	586.62
294.141	583.62
294.372	619.62
294.603	613.62
294.833	610.62
295.064	619.62
295.295	589.62
295.525	608.62
295.756	601.62
295.987	619.62
296.217	604.62
296.448	606.62
296.679	606.62
296.909	593.62
297.14	622.62
297.37	640.62
297.601	648.62
297.831	626.62
298.062	632.62
298.292	639.62
298.523	653.62
298.753	654.62
298.984	636.62
299.214	631.62
299.445	620.62
299.675	609.62
299.905	642.62
300.136	656.62
300.366	649.62
300.597	660.62
300.827	694.62
301.057	688.62
301.288	690.62
301.518	682.62
301.748	704.62
301.979	691.62
302.209	680.62
302.439	692.62
302.669	669.62
302.9	682.62
303.13	675.62
303.36	679.62
303.59	669.62
303.82	671.62
304.051	670.62
304.281	685.62
304.511	662.62
304.741	672.62
304.971	678.62
305.201	658.62
305.431	678.62
305.661	680.62
305.891	645.62
306.121	679.62
306.352	681.62
306.582	672.62
306.812	655.62
307.042	682.62
307.272	660.62
307.502	683.62
307.731	668.62
307.961	654.62
308.191	671.62
308.421	678.62
308.651	666.62
308.881	671.62
309.111	674.62
309.341	664.62
309.571	666.62
309.8	678.62
310.03	662.62
310.26	693.62
310.49	682.62
310.72	684.62
310.949	692.62
311.179	692.62
311.409	671.62
311.639	682.62
311.868	684.62
312.098	723.62
312.328	700.62
312.557	710.62
312.787	692.62
313.017	718.62
313.246	729.62
313.476	714.62
313.706	737.62
313.935	716.62
314.165	720.62
314.394	717.62
314.624	732.62
314.853	744.62
315.083	742.62
315.312	732.62
315.542	722.62
315.771	715.62
316.001	701.62
316.23	726.62
316.46	698.62
316.689	698.62
316.919	728.62
317.148	724.62
317.377	717.62
317.607	707.62
317.836	732.62
318.065	700.62
318.295	709.62
318.524	708.62
318.753	710.62
318.983	704.62
319.212	712.62
319.441	686.62
319.67	726.62
319.9	686.62
320.129	726.62
320.358	715.62
320.587	740.62
320.816	712.62
321.046	730.62
321.275	686.62
321.504	715.62
321.733	710.62
321.962	718.62
322.191	720.62
322.42	738.62
322.649	710.62
322.878	719.62
323.108	748.62
323.337	747.62
323.566	763.62
323.795	749.62
324.024	730.62
324.253	729.62
324.482	745.62
324.71	744.62
324.939	738.62
325.168	757.62
325.397	730.62
325.626	750.62
325.855	737.62
326.084	794.62
326.313	754.62
326.542	800.62
326.77	803.62
326.999	759.62
327.228	798.62
327.457	785.62
327.686	755.62
327.914	781.62
328.143	794.62
328.372	794.62
328.6	809.62
328.829	779.62
329.058	781.62
329.287	757.62
329.515	765.62
329.744	772.62
329.972	808.62
330.201	792.62
330.43	787.62
330.658	794.62
330.887	810.62
331.115	835.62
331.344	814.62
331.572	835.62
331.801	875.62
332.03	887.62
332.258	884.62
332.486	924.62
332.715	935.62
332.943	948.62
333.172	997.62
333.4	1047.62
333.629	1071.62
333.857	1061.62
334.085	1048.62
334.314	1034.62
334.542	1012.62
334.771	975.62
334.999	979.62
335.227	1003.62
335.455	980.62
335.684	963.62
335.912	966.62
336.14	944.62
336.369	922.62
336.597	944.62
336.825	935.62
337.053	952.62
337.281	890.62
337.51	908.62
337.738	897.62
337.966	888.62
338.194	900.62
338.422	906.62
338.65	840.62
338.878	863.62
339.106	874.62
339.334	852.62
339.562	871.62
339.79	822.62
340.018	819.62
340.246	828.62
340.474	830.62
340.702	821.62
340.93	839.62
341.158	829.62
341.386	831.62
341.614	831.62
341.842	819.62
342.07	818.62
342.298	837.62
342.526	831.62
342.754	815.62
342.981	805.62
343.209	851.62
343.437	895.62
343.665	931.62
343.893	996.62
344.12	1019.62
344.348	974.62
344.576	906.62
344.804	907.62
345.031	869.62
345.259	858.62
345.487	855.62
345.714	815.62
345.942	826.62
346.17	820.62
346.397	807.62
346.625	793.62
346.853	780.62
347.08	789.62
347.308	792.62
347.535	795.62
347.763	790.62
347.99	776.62
348.218	765.62
348.445	751.62
348.673	783.62
348.9	761.62
349.128	769.62
349.355	780.62
349.583	790.62
349.81	741.62
350.037	778.62
350.265	759.62
350.492	773.62
350.72	759.62
350.947	756.62
351.174	782.62
351.402	789.62
351.629	772.62
351.856	764.62
352.083	760.62
352.311	778.62
352.538	741.62
352.765	806.62
352.992	756.62
353.22	724.62
353.447	759.62
353.674	712.62
353.901	746.62
354.128	774.62
354.355	750.62
354.583	752.62
354.81	776.62
355.037	756.62
355.264	771.62
355.491	760.62
355.718	754.62
355.945	747.62
356.172	770.62
356.399	796.62
356.626	771.62
356.853	770.62
357.08	747.62
357.307	747.62
357.534	773.62
357.761	760.62
357.988	751.62
358.215	745.62
358.441	743.62
358.668	780.62
358.895	735.62
359.122	744.62
359.349	766.62
359.576	778.62
359.802	747.62
360.029	743.62
360.256	765.62
360.483	759.62
360.709	771.62
360.936	783.62
361.163	748.62
361.39	755.62
361.616	767.62
361.843	770.62
362.07	783.62
362.296	772.62
362.523	756.62
362.749	748.62
362.976	745.62
363.203	750.62
363.429	741.62
363.656	779.62
363.882	751.62
364.109	764.62
364.335	773.62
364.562	738.62
364.788	729.62
365.015	749.62
365.241	765.62
365.468	731.62
365.694	748.62
365.92	721.62
366.147	744.62
366.373	730.62
366.599	750.62
366.826	751.62
367.052	742.62
367.278	734.62
367.505	774.62
367.731	782.62
367.957	756.62
368.184	755.62
368.41	754.62
368.636	763.62
368.862	776.62
369.089	766.62
369.315	763.62
369.541	766.62
369.767	780.62
369.993	775.62
370.219	748.62
370.445	780.62
370.672	798.62
370.898	782.62
371.124	792.62
371.35	812.62
371.576	798.62
371.802	804.62
372.028	788.62
372.254	779.62
372.48	810.62
372.706	837.62
372.932	830.62
373.158	829.62
373.384	837.62
373.61	810.62
373.835	796.62
374.061	789.62
374.287	839.62
374.513	829.62
374.739	868.62
374.965	898.62
375.191	880.62
375.416	878.62
375.642	853.62
375.868	842.62
376.094	816.62
376.319	821.62
376.545	806.62
376.771	808.62
376.997	797.62
377.222	844.62
377.448	823.62
377.674	820.62
377.899	808.62
378.125	808.62
378.35	824.62
378.576	782.62
378.802	788.62
379.027	765.62
379.253	803.62
379.478	788.62
379.704	805.62
379.929	799.62
380.155	825.62
380.38	800.62
380.606	804.62
380.831	802.62
381.057	799.62
381.282	789.62
381.507	812.62
381.733	833.62
381.958	816.62
382.184	841.62
382.409	830.62
382.634	812.62
382.86	849.62
383.085	848.62
383.31	851.62
383.535	906.62
383.761	889.62
383.986	903.62
384.211	908.62
384.436	926.62
384.662	935.62
384.887	959.62
385.112	957.62
385.337	967.62
385.562	960.62
385.787	972.62
386.013	984.62
386.238	981.62
386.463	994.62
386.688	978.62
386.913	965.62
387.138	946.62
387.363	938.62
387.588	946.62
387.813	980.62
388.038	949.62
388.263	954.62
388.488	959.62
388.713	972.62
388.938	938.62
389.163	939.62
389.387	936.62
389.612	931.62
389.837	935.62
390.062	928.62
390.287	938.62
390.512	928.62
390.736	959.62
390.961	973.62
391.186	1010.62
391.411	1006.62
391.636	1042.62
391.86	1088.62
392.085	1123.62
392.31	1086.62
392.534	1032.62
392.759	1037.62
392.984	1016.62
393.208	1019.62
393.433	999.62
393.658	1027.62
393.882	1020.62
394.107	1007.62
394.331	1058.62
394.556	1046.62
394.78	1044.62
395.005	1045.62
395.229	1058.62
395.454	1059.62
395.678	1107.62
395.903	1093.62
396.127	1072.62
396.352	1040.62
396.576	1011.62
396.801	1013.62
397.025	1031.62
397.249	1044.62
397.474	1048.62
397.698	1084.62
397.922	1084.62
398.147	1058.62
398.371	1112.62
398.595	1141.62
398.82	1204.62
399.044	1286.62
399.268	1435.62
399.492	1651.62
399.717	1839.62
399.941	1819.62
400.165	1627.62
400.389	1441.62
400.613	1339.62
400.837	1258.62
401.062	1229.62
401.286	1212.62
401.51	1213.62
401.734	1200.62
401.958	1223.62
402.182	1220.62
402.406	1235.62
402.63	1262.62
402.854	1284.62
403.078	1310.62
403.302	1333.62
403.526	1395.62
403.75	1412.62
403.974	1431.62
404.198	1394.62
404.422	1400.62
404.645	1419.62
404.869	1410.62
405.093	1356.62
405.317	1375.62
405.541	1327.62
405.765	1306.62
405.988	1326.62
406.212	1343.62
406.436	1308.62
406.66	1346.62
406.883	1403.62
407.107	1454.62
407.331	1504.62
407.555	1574.62
407.778	1562.62
408.002	1542.62
408.226	1500.62
408.449	1470.62
408.673	1395.62
408.896	1372.62
409.12	1358.62
409.344	1406.62
409.567	1323.62
409.791	1389.62
410.014	1371.62
410.238	1346.62
410.461	1334.62
410.685	1343.62
410.908	1302.62
411.132	1288.62
411.355	1241.62
411.578	1254.62
411.802	1254.62
412.025	1255.62
412.249	1294.62
412.472	1253.62
412.695	1242.62
412.919	1214.62
413.142	1213.62
413.365	1242.62
413.589	1178.62
413.812	1221.62
414.035	1219.62
414.258	1207.62
414.482	1211.62
414.705	1233.62
414.928	1212.62
415.151	1215.62
415.374	1246.62
415.597	1202.62
415.821	1169.62
416.044	1179.62
416.267	1166.62
416.49	1160.62
416.713	1164.62
416.936	1203.62
417.159	1162.62
417.382	1198.62
417.605	1184.62
417.828	1204.62
418.051	1200.62
418.274	1223.62
418.497	1189.62
418.72	1229.62
418.943	1232.62
419.166	1288.62
419.389	1369.62
419.611	1327.62
419.834	1266.62
420.057	1255.62
420.28	1224.62
420.503	1196.62
420.726	1191.62
420.948	1182.62
421.171	1187.62
421.394	1196.62
421.617	1185.62
421.839	1188.62
422.062	1225.62
422.285	1213.62
422.507	1214.62
422.73	1234.62
422.953	1230.62
423.175	1270.62
423.398	1256.62
423.621	1266.62
423.843	1285.62
424.066	1297.62
424.288	1268.62
424.511	1256.62
424.733	1267.62
424.956	1254.62
425.178	1225.62
425.401	1210.62
425.623	1187.62
425.846	1226.62
426.068	1172.62
426.291	1153.62
426.513	1146.62
426.735	1139.62
426.958	1136.62
427.18	1074.62
427.402	1118.62
427.625	1092.62
427.847	1070.62
428.069	1081.62
428.292	1109.62
428.514	1086.62
428.736	1102.62
428.958	1090.62
429.181	1073.62
429.403	1044.62
429.625	1035.62
429.847	1023.62
430.069	1040.62
430.292	1043.62
430.514	1061.62
430.736	1052.62
430.958	1044.62
431.18	1036.62
431.402	1032.62
431.624	1071.62
431.846	1055.62
432.068	1079.62
432.29	1090.62
432.512	1067.62
432.734	1061.62
432.956	1079.62
433.178	1082.62
433.4	1072.62
433.622	1076.62
433.844	1108.62
434.066	1074.62
434.287	1100.62
434.509	1129.62
434.731	1175.62
434.953	1223.62
435.175	1213.62
435.397	1202.62
435.618	1154.62
435.84	1131.62
436.062	1085.62
436.284	1076.62
436.505	1064.62
436.727	1064.62
436.949	1078.62
437.17	1089.62
437.392	1059.62
437.614	1058.62
437.835	1033.62
438.057	1024.62
438.278	1028.62
438.5	1053.62
438.721	1038.62
438.943	1052.62
439.165	1043.62
439.386	1044.62
439.608	1074.62
439.829	1077.62
440.05	1061.62
440.272	1074.62
440.493	1102.62
440.715	1076.62
440.936	1100.62
441.158	1126.62
441.379	1170.62
441.6	1204.62
441.822	1203.62
442.043	1223.62
442.264	1197.62
442.486	1190.62
442.707	1220.62
442.928	1174.62
443.149	1214.62
443.371	1199.62
443.592	1194.62
443.813	1231.62
444.034	1258.62
444.255	1272.62
444.476	1342.62
444.698	1420.62
444.919	1445.62
445.14	1481.62
445.361	1354.62
445.582	1245.62
445.803	1189.62
446.024	1168.62
446.245	1183.62
446.466	1135.62
446.687	1102.62
446.908	1071.62
447.129	1064.62
447.35	1046.62
447.571	1040.62
447.792	1038.62
448.013	1023.62
448.234	1006.62
448.455	1023.62
448.675	1010.62
448.896	984.62
449.117	982.62
449.338	968.62
449.559	970.62
449.779	955.62
450	959.62
450.221	950.62
450.442	1002.62
450.662	966.62
450.883	983.62
451.104	1034.62
451.324	997.62
451.545	1014.62
451.766	1012.62
451.986	999.62
452.207	964.62
452.428	986.62
452.648	984.62
452.869	959.62
453.089	974.62
453.31	975.62
453.53	942.62
453.751	980.62
453.971	980.62
454.192	979.62
454.412	929.62
454.633	929.62
454.853	934.62
455.073	928.62
455.294	918.62
455.514	940.62
455.734	941.62
455.955	926.62
456.175	894.62
456.395	884.62
456.616	933.62
456.836	922.62
457.056	915.62
457.276	906.62
457.497	930.62
457.717	929.62
457.937	927.62
458.157	912.62
458.377	953.62
458.598	977.62
458.818	999.62
459.038	1012.62
459.258	1069.62
459.478	1081.62
459.698	1098.62
459.918	1126.62
460.138	1162.62
460.358	1252.62
460.578	1272.62
460.798	1279.62
461.018	1290.62
461.238	1291.62
461.458	1276.62
461.678	1257.62
461.898	1266.62
462.118	1295.62
462.338	1325.62
462.558	1385.62
462.777	1441.62
462.997	1564.62
463.217	1686.62
463.437	1717.62
463.657	1538.62
463.876	1470.62
464.096	1466.62
464.316	1502.62
464.536	1488.62
464.755	1410.62
464.975	1374.62
465.195	1322.62
465.414	1237.62
465.634	1136.62
465.854	1140.62
466.073	1100.62
466.293	1080.62
466.512	1053.62
466.732	1037.62
466.951	1030.62
467.171	1051.62
467.391	1044.62
467.61	1033.62
467.829	1044.62
468.049	1031.62
468.268	1006.62
468.488	1006.62
468.707	1011.62
468.927	1003.62
469.146	997.62
469.365	1016.62
469.585	1026.62
469.804	1035.62
470.023	1060.62
470.243	1079.62
470.462	1120.62
470.681	1067.62
470.901	1088.62
471.12	1088.62
471.339	1048.62
471.558	1034.62
471.777	1013.62
471.997	1026.62
472.216	1008.62
472.435	1020.62
472.654	952.62
472.873	943.62
473.092	963.62
473.311	979.62
473.53	975.62
473.749	962.62
473.968	958.62
474.187	972.62
474.406	958.62
474.625	971.62
474.844	966.62
475.063	950.62
475.282	978.62
475.501	998.62
475.72	1005.62
475.939	1002.62
476.158	1003.62
476.377	1003.62
476.596	1021.62
476.814	1040.62
477.033	1021.62
477.252	1043.62
477.471	1084.62
477.69	1117.62
477.908	1146.62
478.127	1146.62
478.346	1181.62
478.564	1188.62
478.783	1198.62
479.002	1239.62
479.22	1207.62
479.439	1229.62
479.658	1226.62
479.876	1223.62
480.095	1224.62
480.313	1256.62
480.532	1326.62
480.751	1290.62
480.969	1278.62
481.188	1220.62
481.406	1186.62
481.624	1165.62
481.843	1114.62
482.061	1120.62
482.28	1140.62
482.498	1124.62
482.717	1122.62
482.935	1096.62
483.153	1129.62
483.372	1133.62
483.59	1145.62
483.808	1116.62
484.027	1122.62
484.245	1151.62
484.463	1128.62
484.681	1151.62
484.9	1146.62
485.118	1158.62
485.336	1153.62
485.554	1143.62
485.772	1165.62
485.99	1171.62
486.209	1172.62
486.427	1220.62
486.645	1202.62
486.863	1178.62
487.081	1182.62
487.299	1173.62
487.517	1172.62
487.735	1158.62
487.953	1182.62
488.171	1196.62
488.389	1174.62
488.607	1187.62
488.825	1159.62
489.043	1165.62
489.261	1170.62
489.479	1156.62
489.696	1138.62
489.914	1173.62
490.132	1203.62
490.35	1172.62
490.568	1183.62
490.786	1186.62
491.003	1209.62
491.221	1162.62
491.439	1214.62
491.657	1213.62
491.874	1209.62
492.092	1211.62
492.31	1220.62
492.527	1211.62
492.745	1247.62
492.963	1207.62
493.18	1237.62
493.398	1241.62
493.615	1235.62
493.833	1225.62
494.05	1251.62
494.268	1252.62
494.485	1261.62
494.703	1263.62
494.92	1246.62
495.138	1291.62
495.355	1243.62
495.573	1249.62
495.79	1256.62
496.008	1252.62
496.225	1285.62
496.442	1284.62
496.66	1322.62
496.877	1286.62
497.094	1342.62
497.312	1387.62
497.529	1397.62
497.746	1378.62
497.963	1474.62
498.181	1508.62
498.398	1559.62
498.615	1671.62
498.832	1810.62
499.049	1922.62
499.267	2060.62
499.484	2256.62
499.701	2488.62
499.918	2779.62
500.135	3163.62
500.352	3595.62
500.569	3786.62
500.786	3694.62
501.003	3394.62
501.22	3024.62
501.437	2656.62
501.654	2317.62
501.871	2166.62
502.088	1996.62
502.305	1903.62
502.522	1797.62
502.739	1740.62
502.956	1624.62
503.172	1559.62
503.389	1488.62
503.606	1463.62
503.823	1447.62
504.04	1442.62
504.256	1449.62
504.473	1474.62
504.69	1509.62
504.907	1469.62
505.123	1368.62
505.34	1274.62
505.557	1262.62
505.773	1189.62
505.99	1142.62
506.207	1168.62
506.423	1167.62
506.64	1160.62
506.856	1118.62
507.073	1124.62
507.289	1079.62
507.506	1052.62
507.722	1081.62
507.939	1087.62
508.155	1077.62
508.372	1053.62
508.588	1046.62
508.805	1019.62
509.021	1038.62
509.238	1024.62
509.454	1029.62
509.67	991.62
509.887	971.62
510.103	996.62
510.319	972.62
510.536	1033.62
510.752	1002.62
510.968	983.62
511.184	1004.62
511.401	990.62
511.617	987.62
511.833	975.62
512.049	981.62
512.265	989.62
512.481	998.62
512.698	989.62
512.914	983.62
513.13	986.62
513.346	999.62
513.562	985.62
513.778	966.62
513.994	971.62
514.21	995.62
514.426	1036.62
514.642	1008.62
514.858	1005.62
515.074	1007.62
515.29	1040.62
515.506	1016.62
515.721	1030.62
515.937	1086.62
516.153	1077.62
516.369	1096.62
516.585	1132.62
516.801	1178.62
517.016	1238.62
517.232	1275.62
517.448	1326.62
517.664	1402.62
517.879	1383.62
518.095	1371.62
518.311	1351.62
518.527	1289.62
518.742	1253.62
518.958	1177.62
519.173	1139.62
519.389	1110.62
519.605	1086.62
519.82	1034.62
520.036	1048.62
520.251	1042.62
520.467	1018.62
520.682	1008.62
520.898	966.62
521.113	996.62
521.329	971.62
521.544	962.62
521.76	970.62
521.975	944.62
522.19	948.62
522.406	921.62
522.621	923.62
522.836	933.62
523.052	914.62
523.267	921.62
523.482	905.62
523.698	919.62
523.913	919.62
524.128	912.62
524.343	914.62
524.559	887.62
524.774	887.62
524.989	890.62
525.204	902.62
525.419	874.62
525.634	865.62
525.849	896.62
526.064	903.62
526.28	854.62
526.495	880.62
526.71	891.62
526.925	884.62
527.14	902.62
527.355	866.62
527.57	875.62
527.785	883.62
527.999	908.62
528.214	900.62
528.429	908.62
528.644	892.62
528.859	886.62
529.074	879.62
529.289	874.62
529.503	884.62
529.718	866.62
529.933	897.62
530.148	886.62
530.363	904.62
530.577	864.62
530.792	870.62
531.007	885.62
531.221	875.62
531.436	877.62
531.651	894.62
531.865	893.62
532.08	879.62
532.295	864.62
532.509	878.62
532.724	868.62
532.938	858.62
533.153	868.62
533.367	884.62
533.582	898.62
533.796	871.62
534.011	865.62
534.225	871.62
534.44	853.62
534.654	867.62
534.868	854.62
535.083	863.62
535.297	879.62
535.511	850.62
535.726	842.62
535.94	864.62
536.154	822.62
536.369	826.62
536.583	798.62
536.797	837.62
537.011	807.62
537.225	831.62
537.44	807.62
537.654	822.62
537.868	806.62
538.082	794.62
538.296	798.62
538.51	802.62
538.724	814.62
538.938	807.62
539.153	796.62
539.367	815.62
539.581	796.62
539.795	774.62
540.009	786.62
540.222	782.62
540.436	805.62
540.65	795.62
540.864	781.62
541.078	803.62
541.292	802.62
541.506	819.62
541.72	815.62
541.934	800.62
542.147	798.62
542.361	800.62
542.575	762.62
542.789	780.62
543.002	821.62
543.216	774.62
543.43	755.62
543.644	761.62
543.857	763.62
544.071	799.62
544.285	770.62
544.498	786.62
544.712	794.62
544.925	819.62
545.139	804.62
545.352	815.62
545.566	818.62
545.779	814.62
545.993	815.62
546.206	810.62
546.42	814.62
546.633	793.62
546.847	818.62
547.06	800.62
547.274	779.62
547.487	806.62
547.7	827.62
547.914	813.62
548.127	824.62
548.34	808.62
548.554	822.62
548.767	804.62
548.98	809.62
549.193	822.62
549.407	832.62
549.62	857.62
549.833	859.62
550.046	820.62
550.259	809.62
550.473	800.62
550.686	799.62
550.899	800.62
551.112	805.62
551.325	786.62
551.538	800.62
551.751	788.62
551.964	787.62
552.177	831.62
552.39	829.62
552.603	845.62
552.816	863.62
553.029	857.62
553.242	855.62
553.455	900.62
553.667	912.62
553.88	887.62
554.093	855.62
554.306	831.62
554.519	797.62
554.732	827.62
554.944	792.62
555.157	796.62
555.37	786.62
555.583	740.62
555.795	760.62
556.008	758.62
556.221	728.62
556.433	687.62
556.646	719.62
556.859	700.62
557.071	713.62
557.284	707.62
557.496	683.62
557.709	703.62
557.921	678.62
558.134	664.62
558.346	688.62
558.559	668.62
558.771	693.62
558.984	667.62
559.196	676.62
559.409	675.62
559.621	684.62
559.833	670.62
560.046	674.62
560.258	648.62
560.47	640.62
560.683	650.62
560.895	657.62
561.107	682.62
561.32	654.62
561.532	687.62
561.744	654.62
561.956	667.62
562.168	670.62
562.381	664.62
562.593	668.62
562.805	638.62
563.017	654.62
563.229	658.62
563.441	654.62
563.653	649.62
563.865	664.62
564.077	679.62
564.289	688.62
564.501	676.62
564.713	717.62
564.925	725.62
565.137	727.62
565.349	748.62
565.561	785.62
565.773	794.62
565.985	812.62
566.197	866.62
566.408	912.62
566.62	994.62
566.832	1066.62
567.044	1094.62
567.255	1109.62
567.467	1082.62
567.679	1157.62
567.891	1259.62
568.102	1288.62
568.314	1219.62
568.526	1098.62
568.737	975.62
568.949	920.62
569.161	862.62
569.372	788.62
569.584	762.62
569.795	722.62
570.007	708.62
570.218	697.62
570.43	670.62
570.641	659.62
570.853	686.62
571.064	701.62
571.276	667.62
571.487	664.62
571.698	640.62
571.91	611.62
572.121	600.62
572.333	583.62
572.544	579.62
572.755	572.62
572.966	578.62
573.178	563.62
573.389	566.62
573.6	545.62
573.811	568.62
574.023	543.62
574.234	540.62
574.445	543.62
574.656	549.62
574.867	550.62
575.078	553.62
575.289	535.62
575.501	543.62
575.712	515.62
575.923	540.62
576.134	511.62
576.345	542.62
576.556	511.62
576.767	511.62
576.978	512.62
577.188	492.62
577.399	502.62
577.61	491.62
577.821	487.62
578.032	476.62
578.243	487.62
578.454	462.62
578.665	482.62
578.875	474.62
579.086	467.62
579.297	480.62
579.508	467.62
579.718	464.62
579.929	479.62
580.14	448.62
580.35	448.62
580.561	467.62
580.772	445.62
580.982	462.62
581.193	471.62
581.403	460.62
581.614	458.62
581.825	459.62
582.035	432.62
582.246	465.62
582.456	450.62
582.667	471.62
582.877	458.62
583.087	458.62
583.298	441.62
583.508	436.62
583.719	427.62
583.929	454.62
584.139	439.62
584.35	450.62
584.56	449.62
584.77	455.62
584.981	444.62
585.191	440.62
585.401	430.62
585.611	425.62
585.821	412.62
586.032	427.62
586.242	444.62
586.452	437.62
586.662	416.62
586.872	446.62
587.082	455.62
587.292	454.62
587.502	447.62
587.713	424.62
587.923	409.62
588.133	434.62
588.343	456.62
588.553	422.62
588.762	448.62
588.972	442.62
589.182	478.62
589.392	469.62
589.602	443.62
589.812	502.62
590.022	473.62
590.232	442.62
590.441	424.62
590.651	415.62
590.861	456.62
591.071	427.62
591.281	456.62
591.49	431.62
591.7	461.62
591.91	476.62
592.119	470.62
592.329	496.62
592.539	499.62
592.748	508.62
592.958	541.62
593.167	526.62
593.377	564.62
593.587	580.62
593.796	575.62
594.006	569.62
594.215	567.62
594.424	575.62
594.634	542.62
594.843	508.62
595.053	491.62
595.262	482.62
595.472	471.62
595.681	454.62
595.89	444.62
596.1	433.62
596.309	415.62
596.518	413.62
596.727	413.62
596.937	412.62
597.146	405.62
597.355	390.62
597.564	408.62
597.774	389.62
597.983	379.62
598.192	391.62
598.401	392.62
598.61	380.62
598.819	378.62
599.028	368.62
599.237	348.62
599.446	382.62
599.655	363.62
599.864	364.62
600.073	381.62
600.282	366.62
600.491	349.62
600.7	365.62
600.909	351.62
601.118	394.62
601.327	366.62
601.536	356.62
601.745	359.62
601.953	357.62
602.162	358.62
602.371	354.62
602.58	349.62
602.789	361.62
602.997	366.62
603.206	339.62
603.415	350.62
603.623	351.62
603.832	349.62
604.041	335.62
604.249	360.62
604.458	346.62
604.666	329.62
604.875	322.62
605.084	334.62
605.292	349.62
605.501	351.62
605.709	351.62
605.918	331.62
606.126	327.62
606.334	337.62
606.543	327.62
606.751	319.62
606.96	308.62
607.168	331.62
607.376	308.62
607.585	327.62
607.793	334.62
608.001	339.62
608.21	319.62
608.418	305.62
608.626	323.62
608.834	339.62
609.043	323.62
609.251	306.62
609.459	312.62
609.667	310.62
609.875	313.62
610.083	311.62
610.291	298.62
610.499	330.62
610.707	340.62
610.916	340.62
611.124	315.62
611.332	311.62
611.54	325.62
611.748	308.62
611.955	324.62
612.163	320.62
612.371	309.62
612.579	323.62
612.787	310.62
612.995	302.62
613.203	283.62
613.411	319.62
613.618	314.62
613.826	315.62
614.034	317.62
614.242	310.62
614.449	310.62
614.657	303.62
614.865	328.62
615.072	311.62
615.28	311.62
615.488	288.62
615.695	326.62
615.903	312.62
616.111	321.62
616.318	316.62
616.526	311.62
616.733	300.62
616.941	312.62
617.148	325.62
617.356	339.62
617.563	314.62
617.771	312.62
617.978	309.62
618.185	310.62
618.393	272.62
618.6	312.62
618.807	310.62
619.015	298.62
619.222	295.62
619.429	313.62
619.637	303.62
619.844	282.62
620.051	304.62
620.258	299.62
620.466	286.62
620.673	299.62
620.88	286.62
621.087	267.62
621.294	292.62
621.501	287.62
621.708	298.62
621.915	278.62
622.122	269.62
622.329	277.62
622.536	295.62
622.743	291.62
622.95	288.62
623.157	268.62
623.364	268.62
623.571	287.62
623.778	278.62
623.985	286.62
624.192	272.62
624.399	287.62
624.606	268.62
624.812	274.62
625.019	272.62
625.226	276.62
625.433	264.62
625.639	263.62
625.846	271.62
626.053	280.62
626.259	269.62
626.466	244.62
626.673	270.62
626.879	266.62
627.086	283.62
627.293	263.62
627.499	256.62
627.706	262.62
627.912	261.62
628.119	253.62
628.325	254.62
628.532	248.62
628.738	226.62
628.945	247.62
629.151	251.62
629.357	272.62
629.564	237.62
629.77	248.62
629.976	258.62
630.183	239.62
630.389	242.62
630.595	248.62
630.802	261.62
631.008	239.62
631.214	221.62
631.42	247.62
631.627	250.62
631.833	257.62
632.039	235.62
632.245	239.62
632.451	247.62
632.657	249.62
632.863	247.62
633.069	228.62
633.275	235.62
633.481	243.62
633.688	226.62
633.893	229.62
634.099	244.62
634.305	208.62
634.511	232.62
634.717	228.62
634.923	231.62
635.129	226.62
635.335	224.62
635.541	233.62
635.747	212.62
635.952	231.62
636.158	219.62
636.364	232.62
636.57	201.62
636.775	246.62
636.981	230.62
637.187	235.62
637.392	217.62
637.598	204.62
637.804	220.62
638.009	224.62
638.215	230.62
638.421	201.62
638.626	222.62
638.832	214.62
639.037	220.62
639.243	209.62
639.448	220.62
639.654	224.62
639.859	211.62
640.065	198.62
640.27	207.62
640.475	207.62
640.681	200.62
640.886	208.62
641.091	218.62
641.297	207.62
641.502	220.62
641.707	218.62
641.913	201.62
642.118	210.62
642.323	219.62
642.528	215.62
642.733	224.62
642.939	216.62
643.144	197.62
643.349	207.62
643.554	206.62
643.759	203.62
643.964	202.62
644.169	200.62
644.374	209.62
644.579	206.62
644.784	198.62
644.989	208.62
645.194	200.62
645.399	201.62
645.604	195.62
645.809	211.62
646.014	193.62
646.219	188.62
646.423	202.62
646.628	206.62
646.833	211.62
647.038	224.62
647.243	207.62
647.447	207.62
647.652	212.62
647.857	215.62
648.062	218.62
648.266	238.62
648.471	210.62
648.676	216.62
648.88	205.62
649.085	200.62
649.289	205.62
649.494	214.62
649.698	203.62
649.903	196.62
650.107	189.62
650.312	200.62
650.516	199.62
650.721	196.62
650.925	188.62
651.13	190.62
651.334	197.62
651.539	192.62
651.743	175.62
651.947	189.62
652.152	189.62
652.356	186.62
652.56	178.62
652.764	182.62
652.969	172.62
653.173	163.62
653.377	170.62
653.581	169.62
653.785	171.62
653.99	159.62
654.194	161.62
654.398	143.62
654.602	148.62
654.806	171.62
655.01	174.62
655.214	163.62
655.418	160.62
655.622	172.62
655.826	148.62
656.03	164.62
656.234	167.62
656.438	166.62
656.642	175.62
656.846	157.62
657.049	170.62
657.253	144.62
657.457	143.62
657.661	145.62
657.865	145.62
658.068	117.62
658.272	121.62
658.476	124.62
658.68	111.62
658.883	128.62
659.087	132.62
659.291	118.62
659.494	111.62
659.698	101.62
659.901	106.62
660.105	124.62
660.309	116.62
660.512	107.62
660.716	93.62
660.919	98.62
661.123	92.62
661.326	114.62
661.53	96.62
661.733	106.62
661.936	85.62
662.14	99.62
662.343	77.62
662.546	96.62
662.75	79.62
662.953	69.62
663.156	94.62
663.36	93.62
663.563	91.62
663.766	74.62
663.969	85.62
664.173	90.62
664.376	86.62
664.579	87.62
664.782	88.62
664.985	93.62
665.188	79.62
665.391	80.62
665.594	87.62
665.797	75.62
666	95.62
666.203	79.62
666.406	76.62
666.609	95.62
666.812	91.62
667.015	80.62
667.218	86.62
667.421	91.62
667.624	92.62
667.827	85.62
668.03	74.62
668.232	80.62
668.435	68.62
668.638	87.62
668.841	80.62
669.043	75.62
669.246	75.62
669.449	84.62
669.651	80.62
669.854	79.62
670.057	85.62
670.259	79.62
670.462	87.62
670.665	72.62
670.867	78.62
671.07	85.62
671.272	83.62
671.475	77.62
671.677	80.62
671.88	64.62
672.082	90.62
672.284	90.62
672.487	84.62
672.689	95.62
672.892	83.62
