Data from NiCl2@0.5M.TitratingCurve.Agarose3%dH2O.NegLispCup.LampEnergy10.LIBS07252019_HRD10591_18-20-39-571.txt Node
Date: Thu Jul 25 18:20:39 EDT 2019
User: cochatt
Spectrometer: HR+D1059
Trigger mode: 1
Integration Time (sec): 1.000000E-1
Scans to average: 1
Electric dark correction enabled: true
Nonlinearity correction enabled: false
Boxcar width: 0
XAxis mode: Wavelengths
Number of Pixels in Spectrum: 2048
>>>>>Begin Spectral Data<<<<<
223.165	-22.06
223.4	-22.06
223.635	-22.06
223.869	-9.06
224.104	-15.06
224.338	-22.06
224.573	-10.06
224.808	-13.06
225.042	0.94
225.277	-5.06
225.511	-2.06
225.746	4.94
225.98	1.94
226.215	-11.06
226.449	13.94
226.683	27.94
226.918	29.94
227.152	29.94
227.387	43.94
227.621	43.94
227.856	45.94
228.09	28.94
228.324	51.94
228.559	56.94
228.793	73.94
229.027	147.94
229.262	146.94
229.496	155.94
229.73	140.94
229.964	162.94
230.199	180.94
230.433	179.94
230.667	186.94
230.901	188.94
231.136	183.94
231.37	156.94
231.604	168.94
231.838	200.94
232.072	197.94
232.306	194.94
232.541	205.94
232.775	183.94
233.009	178.94
233.243	190.94
233.477	198.94
233.711	188.94
233.945	190.94
234.179	180.94
234.413	193.94
234.647	207.94
234.881	197.94
235.115	191.94
235.349	189.94
235.583	197.94
235.817	201.94
236.051	209.94
236.285	205.94
236.519	187.94
236.753	216.94
236.987	213.94
237.221	192.94
237.455	198.94
237.689	224.94
237.922	210.94
238.156	226.94
238.39	212.94
238.624	209.94
238.858	204.94
239.091	224.94
239.325	244.94
239.559	233.94
239.793	245.94
240.027	261.94
240.26	246.94
240.494	234.94
240.728	253.94
240.961	232.94
241.195	247.94
241.429	256.94
241.662	249.94
241.896	254.94
242.13	297.94
242.363	288.94
242.597	266.94
242.83	276.94
243.064	275.94
243.298	286.94
243.531	274.94
243.765	278.94
243.998	291.94
244.232	281.94
244.465	274.94
244.699	280.94
244.932	297.94
245.166	289.94
245.399	320.94
245.633	279.94
245.866	314.94
246.099	283.94
246.333	302.94
246.566	308.94
246.8	313.94
247.033	313.94
247.266	314.94
247.5	313.94
247.733	314.94
247.966	327.94
248.2	322.94
248.433	317.94
248.666	328.94
248.899	331.94
249.133	333.94
249.366	333.94
249.599	346.94
249.832	336.94
250.066	334.94
250.299	354.94
250.532	343.94
250.765	342.94
250.998	344.94
251.231	363.94
251.465	381.94
251.698	362.94
251.931	358.94
252.164	358.94
252.397	366.94
252.63	368.94
252.863	370.94
253.096	399.94
253.329	390.94
253.562	389.94
253.795	392.94
254.028	399.94
254.261	351.94
254.494	394.94
254.727	406.94
254.96	394.94
255.193	404.94
255.426	407.94
255.659	385.94
255.892	412.94
256.124	408.94
256.357	418.94
256.59	411.94
256.823	411.94
257.056	414.94
257.289	439.94
257.521	450.94
257.754	444.94
257.987	436.94
258.22	444.94
258.452	445.94
258.685	411.94
258.918	449.94
259.151	438.94
259.383	439.94
259.616	437.94
259.849	457.94
260.081	455.94
260.314	476.94
260.547	463.94
260.779	466.94
261.012	454.94
261.244	456.94
261.477	472.94
261.71	475.94
261.942	462.94
262.175	462.94
262.407	476.94
262.64	478.94
262.872	488.94
263.105	471.94
263.337	482.94
263.57	487.94
263.802	506.94
264.035	476.94
264.267	484.94
264.499	490.94
264.732	522.94
264.964	489.94
265.197	487.94
265.429	500.94
265.661	523.94
265.894	505.94
266.126	529.94
266.358	528.94
266.591	523.94
266.823	518.94
267.055	529.94
267.287	532.94
267.52	534.94
267.752	521.94
267.984	557.94
268.216	554.94
268.448	547.94
268.681	550.94
268.913	549.94
269.145	527.94
269.377	550.94
269.609	560.94
269.841	560.94
270.073	569.94
270.306	558.94
270.538	558.94
270.77	547.94
271.002	565.94
271.234	582.94
271.466	576.94
271.698	566.94
271.93	566.94
272.162	585.94
272.394	552.94
272.626	585.94
272.858	571.94
273.09	568.94
273.322	601.94
273.553	581.94
273.785	581.94
274.017	589.94
274.249	608.94
274.481	585.94
274.713	603.94
274.945	601.94
275.176	621.94
275.408	605.94
275.64	616.94
275.872	612.94
276.104	629.94
276.335	621.94
276.567	620.94
276.799	619.94
277.031	637.94
277.262	630.94
277.494	607.94
277.726	644.94
277.957	633.94
278.189	641.94
278.421	635.94
278.652	631.94
278.884	664.94
279.115	634.94
279.347	658.94
279.579	659.94
279.81	673.94
280.042	641.94
280.273	657.94
280.505	679.94
280.736	670.94
280.968	691.94
281.199	672.94
281.431	675.94
281.662	705.94
281.894	692.94
282.125	692.94
282.356	699.94
282.588	699.94
282.819	685.94
283.051	681.94
283.282	678.94
283.513	723.94
283.745	711.94
283.976	710.94
284.207	710.94
284.439	714.94
284.67	722.94
284.901	736.94
285.132	724.94
285.364	734.94
285.595	731.94
285.826	745.94
286.057	730.94
286.288	719.94
286.52	729.94
286.751	752.94
286.982	768.94
287.213	726.94
287.444	752.94
287.675	737.94
287.906	754.94
288.138	747.94
288.369	749.94
288.6	779.94
288.831	770.94
289.062	805.94
289.293	747.94
289.524	756.94
289.755	768.94
289.986	768.94
290.217	770.94
290.448	753.94
290.679	790.94
290.91	798.94
291.141	786.94
291.371	787.94
291.602	793.94
291.833	779.94
292.064	775.94
292.295	763.94
292.526	782.94
292.757	790.94
292.987	798.94
293.218	771.94
293.449	776.94
293.68	798.94
293.91	797.94
294.141	802.94
294.372	787.94
294.603	822.94
294.833	805.94
295.064	810.94
295.295	795.94
295.525	792.94
295.756	832.94
295.987	828.94
296.217	811.94
296.448	820.94
296.679	822.94
296.909	796.94
297.14	792.94
297.37	852.94
297.601	851.94
297.831	843.94
298.062	848.94
298.292	860.94
298.523	881.94
298.753	870.94
298.984	884.94
299.214	868.94
299.445	877.94
299.675	877.94
299.905	874.94
300.136	847.94
300.366	889.94
300.597	918.94
300.827	888.94
301.057	866.94
301.288	909.94
301.518	911.94
301.748	901.94
301.979	920.94
302.209	908.94
302.439	912.94
302.669	917.94
302.9	877.94
303.13	915.94
303.36	913.94
303.59	904.94
303.82	903.94
304.051	927.94
304.281	905.94
304.511	904.94
304.741	930.94
304.971	925.94
305.201	917.94
305.431	955.94
305.661	927.94
305.891	930.94
306.121	904.94
306.352	925.94
306.582	908.94
306.812	857.94
307.042	895.94
307.272	894.94
307.502	894.94
307.731	913.94
307.961	905.94
308.191	889.94
308.421	892.94
308.651	884.94
308.881	877.94
309.111	852.94
309.341	891.94
309.571	927.94
309.8	919.94
310.03	918.94
310.26	950.94
310.49	925.94
310.72	935.94
310.949	900.94
311.179	939.94
311.409	939.94
311.639	919.94
311.868	910.94
312.098	955.94
312.328	966.94
312.557	954.94
312.787	937.94
313.017	902.94
313.246	950.94
313.476	952.94
313.706	982.94
313.935	939.94
314.165	955.94
314.394	947.94
314.624	973.94
314.853	978.94
315.083	989.94
315.312	994.94
315.542	980.94
315.771	972.94
316.001	973.94
316.23	948.94
316.46	980.94
316.689	962.94
316.919	968.94
317.148	971.94
317.377	961.94
317.607	959.94
317.836	931.94
318.065	962.94
318.295	966.94
318.524	954.94
318.753	953.94
318.983	957.94
319.212	939.94
319.441	957.94
319.67	966.94
319.9	966.94
320.129	972.94
320.358	981.94
320.587	971.94
320.816	962.94
321.046	988.94
321.275	983.94
321.504	981.94
321.733	1005.94
321.962	976.94
322.191	984.94
322.42	993.94
322.649	994.94
322.878	1019.94
323.108	968.94
323.337	995.94
323.566	1003.94
323.795	990.94
324.024	1017.94
324.253	1008.94
324.482	994.94
324.71	1020.94
324.939	991.94
325.168	1041.94
325.397	1010.94
325.626	1051.94
325.855	1003.94
326.084	1025.94
326.313	1086.94
326.542	1039.94
326.77	1056.94
326.999	1057.94
327.228	1050.94
327.457	1044.94
327.686	1088.94
327.914	1049.94
328.143	1059.94
328.372	1047.94
328.6	1034.94
328.829	1053.94
329.058	1048.94
329.287	1070.94
329.515	1079.94
329.744	1050.94
329.972	1074.94
330.201	1067.94
330.43	1059.94
330.658	1083.94
330.887	1079.94
331.115	1078.94
331.344	1121.94
331.572	1116.94
331.801	1136.94
332.03	1138.94
332.258	1109.94
332.486	1158.94
332.715	1172.94
332.943	1182.94
333.172	1192.94
333.4	1212.94
333.629	1250.94
333.857	1272.94
334.085	1266.94
334.314	1275.94
334.542	1250.94
334.771	1322.94
334.999	1276.94
335.227	1272.94
335.455	1272.94
335.684	1270.94
335.912	1290.94
336.14	1275.94
336.369	1305.94
336.597	1297.94
336.825	1273.94
337.053	1321.94
337.281	1294.94
337.51	1251.94
337.738	1234.94
337.966	1221.94
338.194	1204.94
338.422	1243.94
338.65	1154.94
338.878	1148.94
339.106	1161.94
339.334	1178.94
339.562	1179.94
339.79	1164.94
340.018	1136.94
340.246	1113.94
340.474	1136.94
340.702	1126.94
340.93	1112.94
341.158	1124.94
341.386	1170.94
341.614	1233.94
341.842	1190.94
342.07	1081.94
342.298	1102.94
342.526	1138.94
342.754	1103.94
342.981	1077.94
343.209	1118.94
343.437	1186.94
343.665	1210.94
343.893	1241.94
344.12	1252.94
344.348	1239.94
344.576	1240.94
344.804	1234.94
345.031	1196.94
345.259	1195.94
345.487	1181.94
345.714	1154.94
345.942	1170.94
346.17	1171.94
346.397	1156.94
346.625	1080.94
346.853	1066.94
347.08	1075.94
347.308	1078.94
347.535	1094.94
347.763	1076.94
347.99	1076.94
348.218	1091.94
348.445	1094.94
348.673	1059.94
348.9	1074.94
349.128	1052.94
349.355	1075.94
349.583	1140.94
349.81	1056.94
350.037	1036.94
350.265	1028.94
350.492	1042.94
350.72	1039.94
350.947	1042.94
351.174	1074.94
351.402	1066.94
351.629	1107.94
351.856	1107.94
352.083	1052.94
352.311	1033.94
352.538	1104.94
352.765	1127.94
352.992	1032.94
353.22	1010.94
353.447	1000.94
353.674	1010.94
353.901	1002.94
354.128	1001.94
354.355	1014.94
354.583	990.94
354.81	964.94
355.037	1039.94
355.264	973.94
355.491	988.94
355.718	992.94
355.945	1028.94
356.172	1037.94
356.399	1035.94
356.626	1044.94
356.853	1056.94
357.08	1032.94
357.307	1022.94
357.534	1038.94
357.761	1009.94
357.988	1003.94
358.215	998.94
358.441	992.94
358.668	1023.94
358.895	1022.94
359.122	982.94
359.349	982.94
359.576	1011.94
359.802	1050.94
360.029	986.94
360.256	1012.94
360.483	982.94
360.709	1001.94
360.936	981.94
361.163	989.94
361.39	1027.94
361.616	1020.94
361.843	1030.94
362.07	1076.94
362.296	1066.94
362.523	995.94
362.749	996.94
362.976	985.94
363.203	972.94
363.429	1003.94
363.656	1004.94
363.882	992.94
364.109	989.94
364.335	975.94
364.562	977.94
364.788	992.94
365.015	984.94
365.241	1005.94
365.468	997.94
365.694	994.94
365.92	964.94
366.147	960.94
366.373	993.94
366.599	981.94
366.826	954.94
367.052	1000.94
367.278	977.94
367.505	987.94
367.731	994.94
367.957	1007.94
368.184	1005.94
368.41	993.94
368.636	990.94
368.862	1017.94
369.089	1027.94
369.315	973.94
369.541	1024.94
369.767	1034.94
369.993	1018.94
370.219	1033.94
370.445	1021.94
370.672	1043.94
370.898	1033.94
371.124	1028.94
371.35	1057.94
371.576	1070.94
371.802	1067.94
372.028	1043.94
372.254	1091.94
372.48	1067.94
372.706	1074.94
372.932	1055.94
373.158	1080.94
373.384	1092.94
373.61	1061.94
373.835	1047.94
374.061	1074.94
374.287	1076.94
374.513	1069.94
374.739	1094.94
374.965	1101.94
375.191	1109.94
375.416	1118.94
375.642	1125.94
375.868	1122.94
376.094	1095.94
376.319	1075.94
376.545	1088.94
376.771	1027.94
376.997	1063.94
377.222	1039.94
377.448	1037.94
377.674	1028.94
377.899	1031.94
378.125	1028.94
378.35	1051.94
378.576	1044.94
378.802	1019.94
379.027	1029.94
379.253	1057.94
379.478	1008.94
379.704	1005.94
379.929	1026.94
380.155	1038.94
380.38	1041.94
380.606	1046.94
380.831	1046.94
381.057	1055.94
381.282	996.94
381.507	1038.94
381.733	1044.94
381.958	1046.94
382.184	1067.94
382.409	1058.94
382.634	1067.94
382.86	1061.94
383.085	1065.94
383.31	1087.94
383.535	1090.94
383.761	1112.94
383.986	1095.94
384.211	1109.94
384.436	1112.94
384.662	1136.94
384.887	1178.94
385.112	1156.94
385.337	1160.94
385.562	1191.94
385.787	1193.94
386.013	1234.94
386.238	1212.94
386.463	1200.94
386.688	1198.94
386.913	1193.94
387.138	1161.94
387.363	1213.94
387.588	1221.94
387.813	1214.94
388.038	1217.94
388.263	1230.94
388.488	1219.94
388.713	1221.94
388.938	1226.94
389.163	1210.94
389.387	1196.94
389.612	1177.94
389.837	1202.94
390.062	1182.94
390.287	1212.94
390.512	1198.94
390.736	1205.94
390.961	1218.94
391.186	1233.94
391.411	1285.94
391.636	1300.94
391.86	1299.94
392.085	1299.94
392.31	1285.94
392.534	1305.94
392.759	1299.94
392.984	1264.94
393.208	1238.94
393.433	1290.94
393.658	1307.94
393.882	1317.94
394.107	1283.94
394.331	1316.94
394.556	1260.94
394.78	1255.94
395.005	1294.94
395.229	1284.94
395.454	1276.94
395.678	1308.94
395.903	1330.94
396.127	1330.94
396.352	1274.94
396.576	1317.94
396.801	1292.94
397.025	1336.94
397.249	1353.94
397.474	1409.94
397.698	1382.94
397.922	1384.94
398.147	1383.94
398.371	1387.94
398.595	1415.94
398.82	1494.94
399.044	1530.94
399.268	1592.94
399.492	1731.94
399.717	1789.94
399.941	1850.94
400.165	1784.94
400.389	1722.94
400.613	1669.94
400.837	1600.94
401.062	1533.94
401.286	1523.94
401.51	1485.94
401.734	1486.94
401.958	1512.94
402.182	1510.94
402.406	1517.94
402.63	1489.94
402.854	1536.94
403.078	1515.94
403.302	1534.94
403.526	1552.94
403.75	1572.94
403.974	1558.94
404.198	1555.94
404.422	1599.94
404.645	1565.94
404.869	1559.94
405.093	1569.94
405.317	1550.94
405.541	1577.94
405.765	1544.94
405.988	1577.94
406.212	1585.94
406.436	1614.94
406.66	1617.94
406.883	1625.94
407.107	1720.94
407.331	1738.94
407.555	1801.94
407.778	1791.94
408.002	1760.94
408.226	1730.94
408.449	1779.94
408.673	1706.94
408.896	1680.94
409.12	1665.94
409.344	1690.94
409.567	1642.94
409.791	1671.94
410.014	1671.94
410.238	1648.94
410.461	1655.94
410.685	1573.94
410.908	1529.94
411.132	1605.94
411.355	1596.94
411.578	1552.94
411.802	1575.94
412.025	1574.94
412.249	1594.94
412.472	1578.94
412.695	1541.94
412.919	1528.94
413.142	1564.94
413.365	1544.94
413.589	1525.94
413.812	1510.94
414.035	1497.94
414.258	1538.94
414.482	1497.94
414.705	1541.94
414.928	1521.94
415.151	1505.94
415.374	1476.94
415.597	1485.94
415.821	1493.94
416.044	1468.94
416.267	1460.94
416.49	1484.94
416.713	1449.94
416.936	1479.94
417.159	1462.94
417.382	1455.94
417.605	1453.94
417.828	1449.94
418.051	1438.94
418.274	1476.94
418.497	1445.94
418.72	1468.94
418.943	1482.94
419.166	1565.94
419.389	1700.94
419.611	1653.94
419.834	1579.94
420.057	1499.94
420.28	1465.94
420.503	1479.94
420.726	1437.94
420.948	1436.94
421.171	1469.94
421.394	1438.94
421.617	1436.94
421.839	1441.94
422.062	1484.94
422.285	1442.94
422.507	1520.94
422.73	1457.94
422.953	1475.94
423.175	1492.94
423.398	1468.94
423.621	1460.94
423.843	1493.94
424.066	1527.94
424.288	1466.94
424.511	1476.94
424.733	1469.94
424.956	1460.94
425.178	1477.94
425.401	1477.94
425.623	1492.94
425.846	1428.94
426.068	1413.94
426.291	1447.94
426.513	1437.94
426.735	1396.94
426.958	1447.94
427.18	1405.94
427.402	1443.94
427.625	1417.94
427.847	1396.94
428.069	1417.94
428.292	1424.94
428.514	1387.94
428.736	1370.94
428.958	1411.94
429.181	1402.94
429.403	1360.94
429.625	1379.94
429.847	1364.94
430.069	1376.94
430.292	1373.94
430.514	1378.94
430.736	1406.94
430.958	1404.94
431.18	1382.94
431.402	1399.94
431.624	1366.94
431.846	1373.94
432.068	1395.94
432.29	1430.94
432.512	1389.94
432.734	1412.94
432.956	1368.94
433.178	1400.94
433.4	1434.94
433.622	1425.94
433.844	1451.94
434.066	1419.94
434.287	1440.94
434.509	1409.94
434.731	1481.94
434.953	1481.94
435.175	1520.94
435.397	1521.94
435.618	1438.94
435.84	1464.94
436.062	1430.94
436.284	1432.94
436.505	1398.94
436.727	1413.94
436.949	1356.94
437.17	1387.94
437.392	1404.94
437.614	1388.94
437.835	1344.94
438.057	1413.94
438.278	1344.94
438.5	1334.94
438.721	1317.94
438.943	1380.94
439.165	1336.94
439.386	1335.94
439.608	1377.94
439.829	1392.94
440.05	1378.94
440.272	1379.94
440.493	1414.94
440.715	1440.94
440.936	1441.94
441.158	1437.94
441.379	1474.94
441.6	1514.94
441.822	1517.94
442.043	1474.94
442.264	1472.94
442.486	1460.94
442.707	1474.94
442.928	1493.94
443.149	1516.94
443.371	1500.94
443.592	1516.94
443.813	1524.94
444.034	1531.94
444.255	1520.94
444.476	1568.94
444.698	1607.94
444.919	1668.94
445.14	1688.94
445.361	1636.94
445.582	1559.94
445.803	1469.94
446.024	1480.94
446.245	1449.94
446.466	1466.94
446.687	1410.94
446.908	1422.94
447.129	1384.94
447.35	1358.94
447.571	1387.94
447.792	1325.94
448.013	1331.94
448.234	1348.94
448.455	1280.94
448.675	1332.94
448.896	1317.94
449.117	1269.94
449.338	1291.94
449.559	1291.94
449.779	1276.94
450	1262.94
450.221	1308.94
450.442	1301.94
450.662	1308.94
450.883	1301.94
451.104	1339.94
451.324	1325.94
451.545	1325.94
451.766	1307.94
451.986	1310.94
452.207	1304.94
452.428	1266.94
452.648	1287.94
452.869	1243.94
453.089	1250.94
453.31	1274.94
453.53	1253.94
453.751	1267.94
453.971	1282.94
454.192	1236.94
454.412	1217.94
454.633	1237.94
454.853	1192.94
455.073	1222.94
455.294	1265.94
455.514	1210.94
455.734	1225.94
455.955	1235.94
456.175	1256.94
456.395	1240.94
456.616	1234.94
456.836	1211.94
457.056	1261.94
457.276	1235.94
457.497	1260.94
457.717	1260.94
457.937	1266.94
458.157	1237.94
458.377	1282.94
458.598	1303.94
458.818	1362.94
459.038	1345.94
459.258	1371.94
459.478	1462.94
459.698	1484.94
459.918	1537.94
460.138	1536.94
460.358	1558.94
460.578	1581.94
460.798	1580.94
461.018	1644.94
461.238	1592.94
461.458	1600.94
461.678	1576.94
461.898	1641.94
462.118	1626.94
462.338	1657.94
462.558	1731.94
462.777	1761.94
462.997	1845.94
463.217	1871.94
463.437	1965.94
463.657	1852.94
463.876	1792.94
464.096	1814.94
464.316	1774.94
464.536	1731.94
464.755	1732.94
464.975	1711.94
465.195	1663.94
465.414	1584.94
465.634	1499.94
465.854	1506.94
466.073	1458.94
466.293	1446.94
466.512	1412.94
466.732	1402.94
466.951	1376.94
467.171	1360.94
467.391	1365.94
467.61	1366.94
467.829	1352.94
468.049	1347.94
468.268	1336.94
468.488	1358.94
468.707	1336.94
468.927	1365.94
469.146	1361.94
469.365	1361.94
469.585	1354.94
469.804	1349.94
470.023	1374.94
470.243	1377.94
470.462	1395.94
470.681	1381.94
470.901	1402.94
471.12	1355.94
471.339	1387.94
471.558	1377.94
471.777	1341.94
471.997	1336.94
472.216	1321.94
472.435	1341.94
472.654	1311.94
472.873	1291.94
473.092	1321.94
473.311	1289.94
473.53	1322.94
473.749	1330.94
473.968	1328.94
474.187	1307.94
474.406	1325.94
474.625	1320.94
474.844	1323.94
475.063	1378.94
475.282	1347.94
475.501	1366.94
475.72	1333.94
475.939	1319.94
476.158	1388.94
476.377	1378.94
476.596	1409.94
476.814	1412.94
477.033	1411.94
477.252	1416.94
477.471	1455.94
477.69	1475.94
477.908	1508.94
478.127	1519.94
478.346	1544.94
478.564	1518.94
478.783	1544.94
479.002	1610.94
479.22	1625.94
479.439	1639.94
479.658	1610.94
479.876	1605.94
480.095	1640.94
480.313	1636.94
480.532	1642.94
480.751	1668.94
480.969	1612.94
481.188	1626.94
481.406	1592.94
481.624	1564.94
481.843	1551.94
482.061	1558.94
482.28	1558.94
482.498	1526.94
482.717	1507.94
482.935	1537.94
483.153	1581.94
483.372	1543.94
483.59	1617.94
483.808	1584.94
484.027	1563.94
484.245	1568.94
484.463	1592.94
484.681	1569.94
484.9	1588.94
485.118	1560.94
485.336	1560.94
485.554	1603.94
485.772	1588.94
485.99	1609.94
486.209	1590.94
486.427	1603.94
486.645	1620.94
486.863	1630.94
487.081	1617.94
487.299	1603.94
487.517	1610.94
487.735	1621.94
487.953	1611.94
488.171	1605.94
488.389	1586.94
488.607	1576.94
488.825	1590.94
489.043	1558.94
489.261	1610.94
489.479	1576.94
489.696	1604.94
489.914	1608.94
490.132	1574.94
490.35	1609.94
490.568	1614.94
490.786	1616.94
491.003	1608.94
491.221	1625.94
491.439	1647.94
491.657	1601.94
491.874	1651.94
492.092	1670.94
492.31	1705.94
492.527	1712.94
492.745	1675.94
492.963	1681.94
493.18	1661.94
493.398	1665.94
493.615	1664.94
493.833	1697.94
494.05	1701.94
494.268	1683.94
494.485	1675.94
494.703	1707.94
494.92	1732.94
495.138	1748.94
495.355	1764.94
495.573	1747.94
495.79	1745.94
496.008	1776.94
496.225	1767.94
496.442	1797.94
496.66	1825.94
496.877	1833.94
497.094	1851.94
497.312	1869.94
497.529	1941.94
497.746	2025.94
497.963	2015.94
498.181	2109.94
498.398	2140.94
498.615	2271.94
498.832	2350.94
499.049	2505.94
499.267	2630.94
499.484	2786.94
499.701	2938.94
499.918	2987.94
500.135	3326.94
500.352	3528.94
500.569	3542.94
500.786	3497.94
501.003	3409.94
501.22	3329.94
501.437	3112.94
501.654	2953.94
501.871	2773.94
502.088	2594.94
502.305	2525.94
502.522	2380.94
502.739	2322.94
502.956	2176.94
503.172	2104.94
503.389	2050.94
503.606	2021.94
503.823	2028.94
504.04	1954.94
504.256	1974.94
504.473	1912.94
504.69	1923.94
504.907	1847.94
505.123	1819.94
505.34	1771.94
505.557	1718.94
505.773	1664.94
505.99	1666.94
506.207	1574.94
506.423	1621.94
506.64	1581.94
506.856	1587.94
507.073	1563.94
507.289	1566.94
507.506	1526.94
507.722	1489.94
507.939	1467.94
508.155	1478.94
508.372	1451.94
508.588	1461.94
508.805	1427.94
509.021	1426.94
509.238	1432.94
509.454	1403.94
509.67	1421.94
509.887	1410.94
510.103	1420.94
510.319	1370.94
510.536	1414.94
510.752	1369.94
510.968	1353.94
511.184	1375.94
511.401	1362.94
511.617	1363.94
511.833	1374.94
512.049	1370.94
512.265	1372.94
512.481	1403.94
512.698	1348.94
512.914	1386.94
513.13	1402.94
513.346	1350.94
513.562	1372.94
513.778	1349.94
513.994	1348.94
514.21	1392.94
514.426	1390.94
514.642	1404.94
514.858	1406.94
515.074	1409.94
515.29	1444.94
515.506	1390.94
515.721	1444.94
515.937	1442.94
516.153	1447.94
516.369	1468.94
516.585	1542.94
516.801	1550.94
517.016	1546.94
517.232	1607.94
517.448	1621.94
517.664	1685.94
517.879	1673.94
518.095	1647.94
518.311	1639.94
518.527	1597.94
518.742	1596.94
518.958	1574.94
519.173	1523.94
519.389	1476.94
519.605	1436.94
519.82	1445.94
520.036	1451.94
520.251	1357.94
520.467	1390.94
520.682	1358.94
520.898	1351.94
521.113	1314.94
521.329	1312.94
521.544	1313.94
521.76	1328.94
521.975	1269.94
522.19	1302.94
522.406	1285.94
522.621	1271.94
522.836	1280.94
523.052	1272.94
523.267	1256.94
523.482	1246.94
523.698	1230.94
523.913	1250.94
524.128	1278.94
524.343	1257.94
524.559	1228.94
524.774	1249.94
524.989	1241.94
525.204	1221.94
525.419	1258.94
525.634	1220.94
525.849	1223.94
526.064	1202.94
526.28	1214.94
526.495	1193.94
526.71	1207.94
526.925	1195.94
527.14	1194.94
527.355	1155.94
527.57	1224.94
527.785	1215.94
527.999	1177.94
528.214	1177.94
528.429	1180.94
528.644	1191.94
528.859	1172.94
529.074	1186.94
529.289	1229.94
529.503	1207.94
529.718	1180.94
529.933	1164.94
530.148	1160.94
530.363	1190.94
530.577	1177.94
530.792	1167.94
531.007	1142.94
531.221	1152.94
531.436	1196.94
531.651	1172.94
531.865	1160.94
532.08	1168.94
532.295	1181.94
532.509	1164.94
532.724	1147.94
532.938	1148.94
533.153	1145.94
533.367	1159.94
533.582	1149.94
533.796	1173.94
534.011	1160.94
534.225	1197.94
534.44	1128.94
534.654	1140.94
534.868	1162.94
535.083	1132.94
535.297	1144.94
535.511	1136.94
535.726	1164.94
535.94	1105.94
536.154	1116.94
536.369	1076.94
536.583	1084.94
536.797	1104.94
537.011	1108.94
537.225	1083.94
537.44	1082.94
537.654	1094.94
537.868	1077.94
538.082	1069.94
538.296	1068.94
538.51	1046.94
538.724	1109.94
538.938	1052.94
539.153	1050.94
539.367	1081.94
539.581	1084.94
539.795	1041.94
540.009	1048.94
540.222	1068.94
540.436	1048.94
540.65	1048.94
540.864	1052.94
541.078	1028.94
541.292	1052.94
541.506	1089.94
541.72	1062.94
541.934	1065.94
542.147	1052.94
542.361	1068.94
542.575	1075.94
542.789	1028.94
543.002	1045.94
543.216	1034.94
543.43	1038.94
543.644	1050.94
543.857	1043.94
544.071	1043.94
544.285	1086.94
544.498	1074.94
544.712	1050.94
544.925	1078.94
545.139	1053.94
545.352	1080.94
545.566	1056.94
545.779	1099.94
545.993	1072.94
546.206	1077.94
546.42	1040.94
546.633	1057.94
546.847	1053.94
547.06	1086.94
547.274	1050.94
547.487	1062.94
547.7	1053.94
547.914	1095.94
548.127	1061.94
548.34	1063.94
548.554	998.94
548.767	1028.94
548.98	1060.94
549.193	1081.94
549.407	1057.94
549.62	1076.94
549.833	1086.94
550.046	1099.94
550.259	1040.94
550.473	1038.94
550.686	1037.94
550.899	1039.94
551.112	1051.94
551.325	1036.94
551.538	1056.94
551.751	1030.94
551.964	1052.94
552.177	1081.94
552.39	1049.94
552.603	1075.94
552.816	1080.94
553.029	1088.94
553.242	1114.94
553.455	1120.94
553.667	1085.94
553.88	1083.94
554.093	1080.94
554.306	1045.94
554.519	1056.94
554.732	1063.94
554.944	1010.94
555.157	1011.94
555.37	988.94
555.583	955.94
555.795	992.94
556.008	962.94
556.221	934.94
556.433	957.94
556.646	915.94
556.859	940.94
557.071	923.94
557.284	907.94
557.496	919.94
557.709	916.94
557.921	907.94
558.134	889.94
558.346	916.94
558.559	886.94
558.771	906.94
558.984	908.94
559.196	882.94
559.409	891.94
559.621	875.94
559.833	862.94
560.046	886.94
560.258	882.94
560.47	886.94
560.683	880.94
560.895	869.94
561.107	889.94
561.32	872.94
561.532	854.94
561.744	860.94
561.956	876.94
562.168	890.94
562.381	880.94
562.593	853.94
562.805	896.94
563.017	924.94
563.229	875.94
563.441	883.94
563.653	866.94
563.865	876.94
564.077	891.94
564.289	900.94
564.501	939.94
564.713	951.94
564.925	947.94
565.137	958.94
565.349	965.94
565.561	1014.94
565.773	1028.94
565.985	1057.94
566.197	1074.94
566.408	1131.94
566.62	1173.94
566.832	1192.94
567.044	1197.94
567.255	1209.94
567.467	1221.94
567.679	1257.94
567.891	1284.94
568.102	1267.94
568.314	1235.94
568.526	1174.94
568.737	1122.94
568.949	1073.94
569.161	1067.94
569.372	984.94
569.584	979.94
569.795	955.94
570.007	926.94
570.218	934.94
570.43	869.94
570.641	882.94
570.853	880.94
571.064	876.94
571.276	861.94
571.487	841.94
571.698	813.94
571.91	832.94
572.121	790.94
572.333	789.94
572.544	749.94
572.755	732.94
572.966	746.94
573.178	731.94
573.389	742.94
573.6	731.94
573.811	722.94
574.023	717.94
574.234	711.94
574.445	710.94
574.656	705.94
574.867	737.94
575.078	717.94
575.289	684.94
575.501	670.94
575.712	682.94
575.923	664.94
576.134	664.94
576.345	691.94
576.556	658.94
576.767	642.94
576.978	657.94
577.188	646.94
577.399	653.94
577.61	645.94
577.821	644.94
578.032	640.94
578.243	681.94
578.454	664.94
578.665	636.94
578.875	628.94
579.086	628.94
579.297	606.94
579.508	622.94
579.718	627.94
579.929	612.94
580.14	621.94
580.35	619.94
580.561	625.94
580.772	622.94
580.982	611.94
581.193	595.94
581.403	605.94
581.614	601.94
581.825	600.94
582.035	609.94
582.246	570.94
582.456	588.94
582.667	595.94
582.877	573.94
583.087	581.94
583.298	571.94
583.508	594.94
583.719	576.94
583.929	602.94
584.139	590.94
584.35	569.94
584.56	569.94
584.77	565.94
584.981	581.94
585.191	574.94
585.401	593.94
585.611	566.94
585.821	567.94
586.032	562.94
586.242	569.94
586.452	579.94
586.662	577.94
586.872	549.94
587.082	554.94
587.292	566.94
587.502	566.94
587.713	556.94
587.923	548.94
588.133	531.94
588.343	557.94
588.553	576.94
588.762	572.94
588.972	548.94
589.182	647.94
589.392	642.94
589.602	588.94
589.812	626.94
590.022	599.94
590.232	584.94
590.441	558.94
590.651	574.94
590.861	558.94
591.071	574.94
591.281	568.94
591.49	571.94
591.7	589.94
591.91	576.94
592.119	593.94
592.329	600.94
592.539	594.94
592.748	610.94
592.958	628.94
593.167	605.94
593.377	599.94
593.587	624.94
593.796	635.94
594.006	608.94
594.215	634.94
594.424	610.94
594.634	626.94
594.843	607.94
595.053	590.94
595.262	578.94
595.472	567.94
595.681	539.94
595.89	557.94
596.1	531.94
596.309	555.94
596.518	514.94
596.727	531.94
596.937	516.94
597.146	521.94
597.355	502.94
597.564	496.94
597.774	494.94
597.983	506.94
598.192	481.94
598.401	501.94
598.61	489.94
598.819	472.94
599.028	481.94
599.237	469.94
599.446	469.94
599.655	453.94
599.864	456.94
600.073	472.94
600.282	453.94
600.491	470.94
600.7	460.94
600.909	448.94
601.118	458.94
601.327	430.94
601.536	437.94
601.745	458.94
601.953	433.94
602.162	451.94
602.371	452.94
602.58	417.94
602.789	429.94
602.997	435.94
603.206	414.94
603.415	427.94
603.623	432.94
603.832	444.94
604.041	432.94
604.249	427.94
604.458	418.94
604.666	422.94
604.875	433.94
605.084	424.94
605.292	415.94
605.501	423.94
605.709	425.94
605.918	413.94
606.126	403.94
606.334	410.94
606.543	419.94
606.751	410.94
606.96	416.94
607.168	425.94
607.376	421.94
607.585	422.94
607.793	405.94
608.001	422.94
608.21	408.94
608.418	397.94
608.626	393.94
608.834	400.94
609.043	419.94
609.251	423.94
609.459	401.94
609.667	399.94
609.875	405.94
610.083	392.94
610.291	394.94
610.499	395.94
610.707	394.94
610.916	384.94
611.124	400.94
611.332	404.94
611.54	405.94
611.748	404.94
611.955	376.94
612.163	397.94
612.371	391.94
612.579	373.94
612.787	386.94
612.995	402.94
613.203	388.94
613.411	377.94
613.618	374.94
613.826	399.94
614.034	402.94
614.242	380.94
614.449	384.94
614.657	365.94
614.865	399.94
615.072	389.94
615.28	391.94
615.488	374.94
615.695	366.94
615.903	382.94
616.111	370.94
616.318	381.94
616.526	388.94
616.733	380.94
616.941	390.94
617.148	387.94
617.356	372.94
617.563	380.94
617.771	368.94
617.978	372.94
618.185	368.94
618.393	353.94
618.6	375.94
618.807	368.94
619.015	368.94
619.222	368.94
619.429	356.94
619.637	341.94
619.844	361.94
620.051	364.94
620.258	368.94
620.466	352.94
620.673	361.94
620.88	345.94
621.087	339.94
621.294	340.94
621.501	346.94
621.708	355.94
621.915	363.94
622.122	363.94
622.329	345.94
622.536	354.94
622.743	344.94
622.95	350.94
623.157	330.94
623.364	334.94
623.571	340.94
623.778	330.94
623.985	333.94
624.192	343.94
624.399	331.94
624.606	324.94
624.812	328.94
625.019	327.94
625.226	326.94
625.433	321.94
625.639	317.94
625.846	310.94
626.053	299.94
626.259	326.94
626.466	306.94
626.673	315.94
626.879	314.94
627.086	314.94
627.293	315.94
627.499	333.94
627.706	306.94
627.912	302.94
628.119	312.94
628.325	316.94
628.532	318.94
628.738	314.94
628.945	305.94
629.151	291.94
629.357	304.94
629.564	305.94
629.77	310.94
629.976	304.94
630.183	284.94
630.389	265.94
630.595	294.94
630.802	290.94
631.008	284.94
631.214	296.94
631.42	296.94
631.627	314.94
631.833	292.94
632.039	308.94
632.245	290.94
632.451	302.94
632.657	291.94
632.863	294.94
633.069	288.94
633.275	277.94
633.481	269.94
633.688	272.94
633.893	281.94
634.099	289.94
634.305	270.94
634.511	267.94
634.717	281.94
634.923	265.94
635.129	267.94
635.335	261.94
635.541	290.94
635.747	283.94
635.952	263.94
636.158	268.94
636.364	276.94
636.57	259.94
636.775	263.94
636.981	257.94
637.187	277.94
637.392	283.94
637.598	286.94
637.804	264.94
638.009	265.94
638.215	265.94
638.421	260.94
638.626	258.94
638.832	257.94
639.037	243.94
639.243	268.94
639.448	260.94
639.654	263.94
639.859	262.94
640.065	249.94
640.27	267.94
640.475	260.94
640.681	272.94
640.886	261.94
641.091	261.94
641.297	254.94
641.502	258.94
641.707	252.94
641.913	243.94
642.118	226.94
642.323	240.94
642.528	255.94
642.733	271.94
642.939	260.94
643.144	240.94
643.349	267.94
643.554	235.94
643.759	258.94
643.964	240.94
644.169	268.94
644.374	237.94
644.579	259.94
644.784	245.94
644.989	242.94
645.194	238.94
645.399	240.94
645.604	263.94
645.809	252.94
646.014	237.94
646.219	257.94
646.423	248.94
646.628	251.94
646.833	235.94
647.038	222.94
647.243	228.94
647.447	245.94
647.652	264.94
647.857	240.94
648.062	246.94
648.266	225.94
648.471	248.94
648.676	249.94
648.88	259.94
649.085	231.94
649.289	248.94
649.494	224.94
649.698	264.94
649.903	225.94
650.107	220.94
650.312	242.94
650.516	228.94
650.721	220.94
650.925	212.94
651.13	222.94
651.334	216.94
651.539	222.94
651.743	221.94
651.947	209.94
652.152	214.94
652.356	206.94
652.56	211.94
652.764	206.94
652.969	217.94
653.173	214.94
653.377	196.94
653.581	190.94
653.785	182.94
653.99	198.94
654.194	197.94
654.398	185.94
654.602	196.94
654.806	196.94
655.01	173.94
655.214	178.94
655.418	188.94
655.622	170.94
655.826	173.94
656.03	190.94
656.234	176.94
656.438	177.94
656.642	165.94
656.846	164.94
657.049	170.94
657.253	167.94
657.457	153.94
657.661	153.94
657.865	146.94
658.068	136.94
658.272	138.94
658.476	135.94
658.68	127.94
658.883	120.94
659.087	113.94
659.291	122.94
659.494	118.94
659.698	105.94
659.901	106.94
660.105	116.94
660.309	108.94
660.512	111.94
660.716	91.94
660.919	100.94
661.123	101.94
661.326	105.94
661.53	96.94
661.733	94.94
661.936	93.94
662.14	87.94
662.343	100.94
662.546	98.94
662.75	98.94
662.953	87.94
663.156	92.94
663.36	84.94
663.563	81.94
663.766	73.94
663.969	93.94
664.173	77.94
664.376	82.94
664.579	91.94
664.782	81.94
664.985	87.94
665.188	85.94
665.391	77.94
665.594	74.94
665.797	83.94
666	88.94
666.203	89.94
666.406	76.94
666.609	80.94
666.812	87.94
667.015	81.94
667.218	88.94
667.421	82.94
667.624	68.94
667.827	85.94
668.03	92.94
668.232	76.94
668.435	78.94
668.638	87.94
668.841	95.94
669.043	80.94
669.246	83.94
669.449	96.94
669.651	90.94
669.854	88.94
670.057	85.94
670.259	84.94
670.462	78.94
670.665	82.94
670.867	90.94
671.07	86.94
671.272	90.94
671.475	95.94
671.677	88.94
671.88	96.94
672.082	87.94
672.284	83.94
672.487	82.94
672.689	73.94
672.892	73.94
