Data from NiCl2@0.125M.TitratingCurve.Agarose3%dH2O.NegLispCup.LampEnergy10.LIBS07252019_HRD10591_18-29-20-574.txt Node
Date: Thu Jul 25 18:29:20 EDT 2019
User: cochatt
Spectrometer: HR+D1059
Trigger mode: 1
Integration Time (sec): 1.000000E-1
Scans to average: 1
Electric dark correction enabled: true
Nonlinearity correction enabled: false
Boxcar width: 0
XAxis mode: Wavelengths
Number of Pixels in Spectrum: 2048
>>>>>Begin Spectral Data<<<<<
223.165	-8.06
223.4	-8.06
223.635	-8.06
223.869	-17.06
224.104	-8.06
224.338	-26.06
224.573	-28.06
224.808	-13.06
225.042	-11.06
225.277	-5.06
225.511	-9.06
225.746	2.94
225.98	19.94
226.215	2.94
226.449	12.94
226.683	10.94
226.918	45.94
227.152	29.94
227.387	44.94
227.621	34.94
227.856	51.94
228.09	41.94
228.324	58.94
228.559	60.94
228.793	54.94
229.027	113.94
229.262	120.94
229.496	120.94
229.73	117.94
229.964	131.94
230.199	135.94
230.433	134.94
230.667	132.94
230.901	134.94
231.136	135.94
231.37	164.94
231.604	141.94
231.838	142.94
232.072	152.94
232.306	154.94
232.541	158.94
232.775	157.94
233.009	143.94
233.243	155.94
233.477	172.94
233.711	160.94
233.945	171.94
234.179	148.94
234.413	155.94
234.647	144.94
234.881	166.94
235.115	158.94
235.349	171.94
235.583	151.94
235.817	165.94
236.051	154.94
236.285	148.94
236.519	166.94
236.753	160.94
236.987	172.94
237.221	182.94
237.455	173.94
237.689	185.94
237.922	186.94
238.156	195.94
238.39	172.94
238.624	176.94
238.858	169.94
239.091	171.94
239.325	191.94
239.559	182.94
239.793	182.94
240.027	184.94
240.26	188.94
240.494	184.94
240.728	195.94
240.961	173.94
241.195	188.94
241.429	189.94
241.662	191.94
241.896	217.94
242.13	205.94
242.363	210.94
242.597	200.94
242.83	208.94
243.064	204.94
243.298	213.94
243.531	206.94
243.765	219.94
243.998	217.94
244.232	219.94
244.465	212.94
244.699	222.94
244.932	226.94
245.166	240.94
245.399	248.94
245.633	218.94
245.866	242.94
246.099	233.94
246.333	241.94
246.566	229.94
246.8	225.94
247.033	236.94
247.266	236.94
247.5	242.94
247.733	245.94
247.966	268.94
248.2	256.94
248.433	249.94
248.666	249.94
248.899	262.94
249.133	255.94
249.366	257.94
249.599	258.94
249.832	255.94
250.066	274.94
250.299	269.94
250.532	275.94
250.765	271.94
250.998	267.94
251.231	270.94
251.465	280.94
251.698	300.94
251.931	305.94
252.164	297.94
252.397	291.94
252.63	295.94
252.863	292.94
253.096	275.94
253.329	280.94
253.562	282.94
253.795	314.94
254.028	306.94
254.261	313.94
254.494	289.94
254.727	297.94
254.96	305.94
255.193	310.94
255.426	298.94
255.659	317.94
255.892	298.94
256.124	308.94
256.357	324.94
256.59	320.94
256.823	320.94
257.056	321.94
257.289	316.94
257.521	321.94
257.754	308.94
257.987	333.94
258.22	333.94
258.452	325.94
258.685	326.94
258.918	337.94
259.151	325.94
259.383	329.94
259.616	339.94
259.849	318.94
260.081	333.94
260.314	340.94
260.547	345.94
260.779	348.94
261.012	331.94
261.244	340.94
261.477	354.94
261.71	342.94
261.942	322.94
262.175	364.94
262.407	357.94
262.64	354.94
262.872	359.94
263.105	372.94
263.337	382.94
263.57	374.94
263.802	384.94
264.035	361.94
264.267	376.94
264.499	363.94
264.732	376.94
264.964	406.94
265.197	376.94
265.429	370.94
265.661	386.94
265.894	378.94
266.126	377.94
266.358	387.94
266.591	374.94
266.823	381.94
267.055	387.94
267.287	406.94
267.52	406.94
267.752	390.94
267.984	409.94
268.216	396.94
268.448	405.94
268.681	381.94
268.913	402.94
269.145	418.94
269.377	411.94
269.609	400.94
269.841	411.94
270.073	413.94
270.306	393.94
270.538	423.94
270.77	424.94
271.002	393.94
271.234	416.94
271.466	409.94
271.698	415.94
271.93	424.94
272.162	412.94
272.394	387.94
272.626	410.94
272.858	400.94
273.09	414.94
273.322	416.94
273.553	432.94
273.785	448.94
274.017	451.94
274.249	442.94
274.481	434.94
274.713	440.94
274.945	448.94
275.176	432.94
275.408	445.94
275.64	427.94
275.872	463.94
276.104	448.94
276.335	475.94
276.567	441.94
276.799	465.94
277.031	466.94
277.262	443.94
277.494	450.94
277.726	451.94
277.957	461.94
278.189	438.94
278.421	466.94
278.652	469.94
278.884	455.94
279.115	456.94
279.347	472.94
279.579	462.94
279.81	461.94
280.042	481.94
280.273	488.94
280.505	475.94
280.736	467.94
280.968	487.94
281.199	504.94
281.431	476.94
281.662	486.94
281.894	478.94
282.125	480.94
282.356	497.94
282.588	512.94
282.819	498.94
283.051	525.94
283.282	515.94
283.513	520.94
283.745	519.94
283.976	492.94
284.207	525.94
284.439	512.94
284.67	525.94
284.901	506.94
285.132	527.94
285.364	536.94
285.595	522.94
285.826	525.94
286.057	547.94
286.288	518.94
286.52	522.94
286.751	547.94
286.982	544.94
287.213	528.94
287.444	541.94
287.675	549.94
287.906	544.94
288.138	551.94
288.369	538.94
288.6	573.94
288.831	571.94
289.062	561.94
289.293	587.94
289.524	561.94
289.755	579.94
289.986	550.94
290.217	579.94
290.448	566.94
290.679	578.94
290.91	564.94
291.141	556.94
291.371	581.94
291.602	570.94
291.833	576.94
292.064	569.94
292.295	575.94
292.526	537.94
292.757	584.94
292.987	560.94
293.218	548.94
293.449	547.94
293.68	556.94
293.91	583.94
294.141	577.94
294.372	555.94
294.603	589.94
294.833	584.94
295.064	595.94
295.295	596.94
295.525	591.94
295.756	566.94
295.987	587.94
296.217	608.94
296.448	618.94
296.679	613.94
296.909	594.94
297.14	600.94
297.37	604.94
297.601	603.94
297.831	601.94
298.062	616.94
298.292	624.94
298.523	672.94
298.753	640.94
298.984	634.94
299.214	640.94
299.445	600.94
299.675	640.94
299.905	610.94
300.136	631.94
300.366	632.94
300.597	644.94
300.827	643.94
301.057	666.94
301.288	650.94
301.518	651.94
301.748	657.94
301.979	638.94
302.209	646.94
302.439	641.94
302.669	641.94
302.9	625.94
303.13	660.94
303.36	648.94
303.59	638.94
303.82	625.94
304.051	652.94
304.281	635.94
304.511	649.94
304.741	632.94
304.971	641.94
305.201	621.94
305.431	634.94
305.661	630.94
305.891	627.94
306.121	624.94
306.352	619.94
306.582	615.94
306.812	617.94
307.042	626.94
307.272	626.94
307.502	597.94
307.731	631.94
307.961	640.94
308.191	618.94
308.421	601.94
308.651	604.94
308.881	624.94
309.111	628.94
309.341	618.94
309.571	628.94
309.8	624.94
310.03	619.94
310.26	631.94
310.49	625.94
310.72	619.94
310.949	618.94
311.179	638.94
311.409	636.94
311.639	644.94
311.868	641.94
312.098	657.94
312.328	646.94
312.557	643.94
312.787	646.94
313.017	647.94
313.246	629.94
313.476	635.94
313.706	656.94
313.935	670.94
314.165	686.94
314.394	689.94
314.624	684.94
314.853	652.94
315.083	651.94
315.312	667.94
315.542	658.94
315.771	659.94
316.001	631.94
316.23	630.94
316.46	636.94
316.689	653.94
316.919	649.94
317.148	637.94
317.377	652.94
317.607	648.94
317.836	633.94
318.065	647.94
318.295	641.94
318.524	678.94
318.753	642.94
318.983	649.94
319.212	638.94
319.441	634.94
319.67	610.94
319.9	642.94
320.129	637.94
320.358	649.94
320.587	666.94
320.816	653.94
321.046	636.94
321.275	660.94
321.504	641.94
321.733	657.94
321.962	656.94
322.191	652.94
322.42	668.94
322.649	653.94
322.878	650.94
323.108	671.94
323.337	656.94
323.566	666.94
323.795	659.94
324.024	680.94
324.253	667.94
324.482	655.94
324.71	681.94
324.939	690.94
325.168	688.94
325.397	685.94
325.626	669.94
325.855	685.94
326.084	693.94
326.313	730.94
326.542	725.94
326.77	756.94
326.999	727.94
327.228	708.94
327.457	697.94
327.686	690.94
327.914	726.94
328.143	725.94
328.372	714.94
328.6	714.94
328.829	704.94
329.058	690.94
329.287	704.94
329.515	723.94
329.744	702.94
329.972	719.94
330.201	734.94
330.43	713.94
330.658	748.94
330.887	720.94
331.115	728.94
331.344	779.94
331.572	755.94
331.801	759.94
332.03	795.94
332.258	775.94
332.486	813.94
332.715	854.94
332.943	849.94
333.172	916.94
333.4	964.94
333.629	963.94
333.857	995.94
334.085	941.94
334.314	956.94
334.542	939.94
334.771	905.94
334.999	902.94
335.227	892.94
335.455	866.94
335.684	909.94
335.912	884.94
336.14	857.94
336.369	854.94
336.597	854.94
336.825	832.94
337.053	861.94
337.281	832.94
337.51	823.94
337.738	812.94
337.966	807.94
338.194	788.94
338.422	776.94
338.65	768.94
338.878	786.94
339.106	783.94
339.334	776.94
339.562	745.94
339.79	743.94
340.018	704.94
340.246	722.94
340.474	718.94
340.702	722.94
340.93	756.94
341.158	733.94
341.386	764.94
341.614	733.94
341.842	753.94
342.07	731.94
342.298	726.94
342.526	717.94
342.754	718.94
342.981	733.94
343.209	733.94
343.437	777.94
343.665	819.94
343.893	903.94
344.12	948.94
344.348	905.94
344.576	834.94
344.804	798.94
345.031	767.94
345.259	757.94
345.487	740.94
345.714	736.94
345.942	732.94
346.17	735.94
346.397	744.94
346.625	715.94
346.853	724.94
347.08	718.94
347.308	702.94
347.535	742.94
347.763	752.94
347.99	727.94
348.218	732.94
348.445	745.94
348.673	706.94
348.9	716.94
349.128	707.94
349.355	706.94
349.583	729.94
349.81	708.94
350.037	713.94
350.265	689.94
350.492	692.94
350.72	689.94
350.947	657.94
351.174	668.94
351.402	677.94
351.629	701.94
351.856	696.94
352.083	681.94
352.311	660.94
352.538	694.94
352.765	667.94
352.992	663.94
353.22	683.94
353.447	663.94
353.674	666.94
353.901	666.94
354.128	654.94
354.355	674.94
354.583	672.94
354.81	640.94
355.037	682.94
355.264	699.94
355.491	692.94
355.718	700.94
355.945	683.94
356.172	677.94
356.399	697.94
356.626	680.94
356.853	676.94
357.08	688.94
357.307	706.94
357.534	676.94
357.761	680.94
357.988	684.94
358.215	682.94
358.441	676.94
358.668	674.94
358.895	660.94
359.122	674.94
359.349	650.94
359.576	694.94
359.802	699.94
360.029	676.94
360.256	683.94
360.483	682.94
360.709	663.94
360.936	686.94
361.163	691.94
361.39	680.94
361.616	692.94
361.843	690.94
362.07	681.94
362.296	686.94
362.523	669.94
362.749	684.94
362.976	676.94
363.203	671.94
363.429	682.94
363.656	692.94
363.882	689.94
364.109	672.94
364.335	678.94
364.562	698.94
364.788	682.94
365.015	692.94
365.241	680.94
365.468	668.94
365.694	683.94
365.92	697.94
366.147	681.94
366.373	678.94
366.599	683.94
366.826	698.94
367.052	678.94
367.278	669.94
367.505	686.94
367.731	693.94
367.957	688.94
368.184	696.94
368.41	681.94
368.636	683.94
368.862	685.94
369.089	689.94
369.315	701.94
369.541	705.94
369.767	704.94
369.993	697.94
370.219	717.94
370.445	698.94
370.672	742.94
370.898	745.94
371.124	727.94
371.35	736.94
371.576	741.94
371.802	732.94
372.028	713.94
372.254	748.94
372.48	740.94
372.706	764.94
372.932	774.94
373.158	768.94
373.384	765.94
373.61	764.94
373.835	760.94
374.061	745.94
374.287	753.94
374.513	775.94
374.739	778.94
374.965	822.94
375.191	839.94
375.416	848.94
375.642	808.94
375.868	813.94
376.094	770.94
376.319	774.94
376.545	748.94
376.771	763.94
376.997	738.94
377.222	754.94
377.448	778.94
377.674	774.94
377.899	764.94
378.125	724.94
378.35	724.94
378.576	721.94
378.802	721.94
379.027	748.94
379.253	724.94
379.478	738.94
379.704	731.94
379.929	725.94
380.155	726.94
380.38	741.94
380.606	748.94
380.831	722.94
381.057	778.94
381.282	731.94
381.507	722.94
381.733	733.94
381.958	768.94
382.184	756.94
382.409	777.94
382.634	772.94
382.86	764.94
383.085	786.94
383.31	817.94
383.535	822.94
383.761	805.94
383.986	827.94
384.211	872.94
384.436	842.94
384.662	891.94
384.887	920.94
385.112	905.94
385.337	882.94
385.562	924.94
385.787	920.94
386.013	901.94
386.238	908.94
386.463	893.94
386.688	909.94
386.913	908.94
387.138	867.94
387.363	884.94
387.588	864.94
387.813	883.94
388.038	860.94
388.263	900.94
388.488	921.94
388.713	870.94
388.938	892.94
389.163	848.94
389.387	842.94
389.612	870.94
389.837	873.94
390.062	863.94
390.287	895.94
390.512	855.94
390.736	891.94
390.961	912.94
391.186	922.94
391.411	942.94
391.636	981.94
391.86	1014.94
392.085	1018.94
392.31	1049.94
392.534	996.94
392.759	957.94
392.984	958.94
393.208	956.94
393.433	925.94
393.658	948.94
393.882	951.94
394.107	967.94
394.331	973.94
394.556	977.94
394.78	982.94
395.005	978.94
395.229	963.94
395.454	992.94
395.678	1014.94
395.903	1012.94
396.127	1022.94
396.352	949.94
396.576	942.94
396.801	950.94
397.025	948.94
397.249	966.94
397.474	1009.94
397.698	1026.94
397.922	987.94
398.147	985.94
398.371	987.94
398.595	1047.94
398.82	1107.94
399.044	1160.94
399.268	1314.94
399.492	1531.94
399.717	1786.94
399.941	1838.94
400.165	1572.94
400.389	1387.94
400.613	1246.94
400.837	1144.94
401.062	1152.94
401.286	1127.94
401.51	1130.94
401.734	1120.94
401.958	1162.94
402.182	1106.94
402.406	1165.94
402.63	1164.94
402.854	1181.94
403.078	1223.94
403.302	1294.94
403.526	1308.94
403.75	1350.94
403.974	1341.94
404.198	1368.94
404.422	1323.94
404.645	1368.94
404.869	1308.94
405.093	1319.94
405.317	1272.94
405.541	1273.94
405.765	1259.94
405.988	1227.94
406.212	1253.94
406.436	1253.94
406.66	1278.94
406.883	1247.94
407.107	1374.94
407.331	1462.94
407.555	1496.94
407.778	1477.94
408.002	1458.94
408.226	1388.94
408.449	1394.94
408.673	1316.94
408.896	1265.94
409.12	1278.94
409.344	1310.94
409.567	1300.94
409.791	1340.94
410.014	1302.94
410.238	1285.94
410.461	1307.94
410.685	1288.94
410.908	1236.94
411.132	1192.94
411.355	1168.94
411.578	1142.94
411.802	1164.94
412.025	1141.94
412.249	1190.94
412.472	1201.94
412.695	1125.94
412.919	1130.94
413.142	1136.94
413.365	1127.94
413.589	1147.94
413.812	1115.94
414.035	1124.94
414.258	1086.94
414.482	1129.94
414.705	1157.94
414.928	1170.94
415.151	1174.94
415.374	1129.94
415.597	1138.94
415.821	1122.94
416.044	1121.94
416.267	1079.94
416.49	1084.94
416.713	1105.94
416.936	1132.94
417.159	1103.94
417.382	1097.94
417.605	1100.94
417.828	1128.94
418.051	1129.94
418.274	1132.94
418.497	1115.94
418.72	1161.94
418.943	1162.94
419.166	1268.94
419.389	1351.94
419.611	1304.94
419.834	1265.94
420.057	1212.94
420.28	1149.94
420.503	1109.94
420.726	1094.94
420.948	1114.94
421.171	1107.94
421.394	1140.94
421.617	1116.94
421.839	1153.94
422.062	1152.94
422.285	1093.94
422.507	1152.94
422.73	1174.94
422.953	1162.94
423.175	1213.94
423.398	1243.94
423.621	1200.94
423.843	1221.94
424.066	1230.94
424.288	1215.94
424.511	1228.94
424.733	1143.94
424.956	1157.94
425.178	1166.94
425.401	1121.94
425.623	1129.94
425.846	1110.94
426.068	1106.94
426.291	1083.94
426.513	1053.94
426.735	1035.94
426.958	1080.94
427.18	1028.94
427.402	1016.94
427.625	1032.94
427.847	1020.94
428.069	1010.94
428.292	1018.94
428.514	978.94
428.736	998.94
428.958	980.94
429.181	1000.94
429.403	966.94
429.625	973.94
429.847	982.94
430.069	946.94
430.292	969.94
430.514	987.94
430.736	969.94
430.958	1001.94
431.18	981.94
431.402	1007.94
431.624	972.94
431.846	994.94
432.068	1011.94
432.29	1002.94
432.512	958.94
432.734	990.94
432.956	985.94
433.178	1032.94
433.4	1017.94
433.622	1015.94
433.844	1015.94
434.066	994.94
434.287	1074.94
434.509	1040.94
434.731	1110.94
434.953	1132.94
435.175	1142.94
435.397	1131.94
435.618	1078.94
435.84	1029.94
436.062	1012.94
436.284	1016.94
436.505	990.94
436.727	1023.94
436.949	1013.94
437.17	1012.94
437.392	1009.94
437.614	1002.94
437.835	942.94
438.057	980.94
438.278	937.94
438.5	971.94
438.721	966.94
438.943	982.94
439.165	935.94
439.386	966.94
439.608	1017.94
439.829	1022.94
440.05	1019.94
440.272	988.94
440.493	1006.94
440.715	1012.94
440.936	1088.94
441.158	1048.94
441.379	1128.94
441.6	1149.94
441.822	1147.94
442.043	1177.94
442.264	1135.94
442.486	1114.94
442.707	1123.94
442.928	1114.94
443.149	1126.94
443.371	1127.94
443.592	1139.94
443.813	1170.94
444.034	1158.94
444.255	1215.94
444.476	1280.94
444.698	1342.94
444.919	1411.94
445.14	1486.94
445.361	1328.94
445.582	1208.94
445.803	1094.94
446.024	1069.94
446.245	1060.94
446.466	1042.94
446.687	1018.94
446.908	1039.94
447.129	1004.94
447.35	1003.94
447.571	968.94
447.792	969.94
448.013	949.94
448.234	944.94
448.455	954.94
448.675	912.94
448.896	938.94
449.117	913.94
449.338	920.94
449.559	891.94
449.779	898.94
450	892.94
450.221	921.94
450.442	939.94
450.662	925.94
450.883	971.94
451.104	960.94
451.324	960.94
451.545	954.94
451.766	967.94
451.986	936.94
452.207	930.94
452.428	937.94
452.648	954.94
452.869	929.94
453.089	895.94
453.31	916.94
453.53	885.94
453.751	891.94
453.971	888.94
454.192	925.94
454.412	890.94
454.633	894.94
454.853	903.94
455.073	832.94
455.294	860.94
455.514	882.94
455.734	884.94
455.955	849.94
456.175	866.94
456.395	864.94
456.616	851.94
456.836	894.94
457.056	860.94
457.276	858.94
457.497	841.94
457.717	868.94
457.937	872.94
458.157	864.94
458.377	893.94
458.598	901.94
458.818	926.94
459.038	956.94
459.258	998.94
459.478	1008.94
459.698	1073.94
459.918	1069.94
460.138	1121.94
460.358	1187.94
460.578	1207.94
460.798	1234.94
461.018	1256.94
461.238	1200.94
461.458	1202.94
461.678	1185.94
461.898	1187.94
462.118	1234.94
462.338	1274.94
462.558	1313.94
462.777	1348.94
462.997	1490.94
463.217	1660.94
463.437	1739.94
463.657	1541.94
463.876	1462.94
464.096	1404.94
464.316	1427.94
464.536	1451.94
464.755	1415.94
464.975	1342.94
465.195	1275.94
465.414	1181.94
465.634	1094.94
465.854	1078.94
466.073	1016.94
466.293	1004.94
466.512	986.94
466.732	1011.94
466.951	960.94
467.171	977.94
467.391	978.94
467.61	952.94
467.829	973.94
468.049	957.94
468.268	925.94
468.488	925.94
468.707	930.94
468.927	921.94
469.146	906.94
469.365	925.94
469.585	937.94
469.804	978.94
470.023	982.94
470.243	1014.94
470.462	1039.94
470.681	1014.94
470.901	1011.94
471.12	969.94
471.339	972.94
471.558	936.94
471.777	905.94
471.997	934.94
472.216	904.94
472.435	899.94
472.654	922.94
472.873	896.94
473.092	895.94
473.311	895.94
473.53	896.94
473.749	906.94
473.968	889.94
474.187	916.94
474.406	902.94
474.625	917.94
474.844	902.94
475.063	862.94
475.282	908.94
475.501	903.94
475.72	920.94
475.939	930.94
476.158	924.94
476.377	915.94
476.596	929.94
476.814	932.94
477.033	957.94
477.252	978.94
477.471	980.94
477.69	1001.94
477.908	1049.94
478.127	1070.94
478.346	1077.94
478.564	1087.94
478.783	1094.94
479.002	1107.94
479.22	1131.94
479.439	1117.94
479.658	1091.94
479.876	1101.94
480.095	1111.94
480.313	1172.94
480.532	1235.94
480.751	1251.94
480.969	1156.94
481.188	1125.94
481.406	1085.94
481.624	1066.94
481.843	1043.94
482.061	1028.94
482.28	993.94
482.498	986.94
482.717	986.94
482.935	1024.94
483.153	1026.94
483.372	1003.94
483.59	995.94
483.808	1004.94
484.027	1020.94
484.245	1042.94
484.463	1024.94
484.681	1032.94
484.9	1047.94
485.118	1054.94
485.336	1055.94
485.554	1072.94
485.772	1078.94
485.99	1092.94
486.209	1107.94
486.427	1090.94
486.645	1093.94
486.863	1117.94
487.081	1101.94
487.299	1071.94
487.517	1058.94
487.735	1051.94
487.953	1056.94
488.171	1081.94
488.389	1077.94
488.607	1046.94
488.825	1043.94
489.043	1022.94
489.261	1037.94
489.479	1052.94
489.696	1084.94
489.914	1051.94
490.132	1062.94
490.35	1080.94
490.568	1068.94
490.786	1084.94
491.003	1096.94
491.221	1061.94
491.439	1092.94
491.657	1079.94
491.874	1069.94
492.092	1052.94
492.31	1089.94
492.527	1091.94
492.745	1112.94
492.963	1105.94
493.18	1101.94
493.398	1127.94
493.615	1129.94
493.833	1081.94
494.05	1124.94
494.268	1132.94
494.485	1125.94
494.703	1148.94
494.92	1123.94
495.138	1127.94
495.355	1113.94
495.573	1124.94
495.79	1168.94
496.008	1160.94
496.225	1133.94
496.442	1164.94
496.66	1157.94
496.877	1156.94
497.094	1203.94
497.312	1241.94
497.529	1227.94
497.746	1256.94
497.963	1298.94
498.181	1348.94
498.398	1440.94
498.615	1538.94
498.832	1611.94
499.049	1778.94
499.267	1882.94
499.484	2063.94
499.701	2304.94
499.918	2586.94
500.135	3022.94
500.352	3514.94
500.569	3678.94
500.786	3749.94
501.003	3413.94
501.22	3018.94
501.437	2606.94
501.654	2292.94
501.871	2040.94
502.088	1874.94
502.305	1758.94
502.522	1673.94
502.739	1566.94
502.956	1467.94
503.172	1440.94
503.389	1370.94
503.606	1298.94
503.823	1319.94
504.04	1298.94
504.256	1319.94
504.473	1362.94
504.69	1376.94
504.907	1365.94
505.123	1270.94
505.34	1214.94
505.557	1156.94
505.773	1121.94
505.99	1072.94
506.207	1054.94
506.423	1021.94
506.64	1052.94
506.856	1033.94
507.073	1011.94
507.289	1032.94
507.506	990.94
507.722	1014.94
507.939	1010.94
508.155	950.94
508.372	969.94
508.588	984.94
508.805	959.94
509.021	973.94
509.238	918.94
509.454	917.94
509.67	971.94
509.887	930.94
510.103	921.94
510.319	902.94
510.536	933.94
510.752	892.94
510.968	939.94
511.184	928.94
511.401	893.94
511.617	916.94
511.833	907.94
512.049	920.94
512.265	880.94
512.481	922.94
512.698	898.94
512.914	918.94
513.13	911.94
513.346	906.94
513.562	892.94
513.778	905.94
513.994	920.94
514.21	942.94
514.426	920.94
514.642	917.94
514.858	939.94
515.074	959.94
515.29	936.94
515.506	947.94
515.721	984.94
515.937	1005.94
516.153	1008.94
516.369	1013.94
516.585	1048.94
516.801	1076.94
517.016	1136.94
517.232	1201.94
517.448	1259.94
517.664	1310.94
517.879	1315.94
518.095	1330.94
518.311	1330.94
518.527	1246.94
518.742	1173.94
518.958	1116.94
519.173	1070.94
519.389	1049.94
519.605	1022.94
519.82	992.94
520.036	986.94
520.251	968.94
520.467	932.94
520.682	940.94
520.898	939.94
521.113	918.94
521.329	918.94
521.544	900.94
521.76	878.94
521.975	896.94
522.19	886.94
522.406	869.94
522.621	867.94
522.836	880.94
523.052	846.94
523.267	852.94
523.482	876.94
523.698	825.94
523.913	857.94
524.128	842.94
524.343	837.94
524.559	830.94
524.774	832.94
524.989	820.94
525.204	858.94
525.419	841.94
525.634	825.94
525.849	844.94
526.064	818.94
526.28	825.94
526.495	839.94
526.71	818.94
526.925	815.94
527.14	836.94
527.355	826.94
527.57	832.94
527.785	849.94
527.999	836.94
528.214	833.94
528.429	856.94
528.644	855.94
528.859	836.94
529.074	849.94
529.289	835.94
529.503	832.94
529.718	832.94
529.933	826.94
530.148	803.94
530.363	826.94
530.577	812.94
530.792	821.94
531.007	807.94
531.221	814.94
531.436	830.94
531.651	854.94
531.865	809.94
532.08	816.94
532.295	836.94
532.509	834.94
532.724	798.94
532.938	836.94
533.153	839.94
533.367	823.94
533.582	813.94
533.796	820.94
534.011	840.94
534.225	833.94
534.44	808.94
534.654	812.94
534.868	809.94
535.083	795.94
535.297	789.94
535.511	829.94
535.726	820.94
535.94	785.94
536.154	774.94
536.369	782.94
536.583	776.94
536.797	805.94
537.011	769.94
537.225	773.94
537.44	787.94
537.654	779.94
537.868	737.94
538.082	760.94
538.296	760.94
538.51	757.94
538.724	770.94
538.938	757.94
539.153	728.94
539.367	745.94
539.581	759.94
539.795	731.94
540.009	722.94
540.222	747.94
540.436	719.94
540.65	739.94
540.864	732.94
541.078	732.94
541.292	739.94
541.506	735.94
541.72	728.94
541.934	727.94
542.147	746.94
542.361	718.94
542.575	726.94
542.789	716.94
543.002	716.94
543.216	741.94
543.43	706.94
543.644	714.94
543.857	721.94
544.071	740.94
544.285	738.94
544.498	749.94
544.712	738.94
544.925	743.94
545.139	746.94
545.352	753.94
545.566	770.94
545.779	773.94
545.993	777.94
546.206	747.94
546.42	749.94
546.633	760.94
546.847	738.94
547.06	744.94
547.274	742.94
547.487	713.94
547.7	754.94
547.914	739.94
548.127	772.94
548.34	763.94
548.554	754.94
548.767	768.94
548.98	773.94
549.193	785.94
549.407	782.94
549.62	795.94
549.833	805.94
550.046	786.94
550.259	790.94
550.473	749.94
550.686	772.94
550.899	737.94
551.112	730.94
551.325	706.94
551.538	754.94
551.751	726.94
551.964	737.94
552.177	758.94
552.39	740.94
552.603	763.94
552.816	806.94
553.029	826.94
553.242	856.94
553.455	821.94
553.667	841.94
553.88	842.94
554.093	831.94
554.306	794.94
554.519	774.94
554.732	759.94
554.944	752.94
555.157	741.94
555.37	742.94
555.583	707.94
555.795	696.94
556.008	713.94
556.221	684.94
556.433	672.94
556.646	664.94
556.859	677.94
557.071	658.94
557.284	659.94
557.496	653.94
557.709	650.94
557.921	645.94
558.134	640.94
558.346	643.94
558.559	641.94
558.771	638.94
558.984	634.94
559.196	653.94
559.409	636.94
559.621	626.94
559.833	627.94
560.046	632.94
560.258	628.94
560.47	596.94
560.683	645.94
560.895	644.94
561.107	636.94
561.32	634.94
561.532	636.94
561.744	619.94
561.956	630.94
562.168	634.94
562.381	643.94
562.593	628.94
562.805	628.94
563.017	635.94
563.229	632.94
563.441	635.94
563.653	633.94
563.865	637.94
564.077	646.94
564.289	637.94
564.501	665.94
564.713	671.94
564.925	706.94
565.137	674.94
565.349	690.94
565.561	732.94
565.773	738.94
565.985	768.94
566.197	824.94
566.408	899.94
566.62	967.94
566.832	1055.94
567.044	1097.94
567.255	1066.94
567.467	1082.94
567.679	1177.94
567.891	1255.94
568.102	1329.94
568.314	1308.94
568.526	1102.94
568.737	1020.94
568.949	898.94
569.161	831.94
569.372	771.94
569.584	735.94
569.795	677.94
570.007	669.94
570.218	654.94
570.43	657.94
570.641	648.94
570.853	640.94
571.064	672.94
571.276	667.94
571.487	636.94
571.698	604.94
571.91	603.94
572.121	595.94
572.333	571.94
572.544	551.94
572.755	536.94
572.966	552.94
573.178	566.94
573.389	549.94
573.6	530.94
573.811	529.94
574.023	522.94
574.234	526.94
574.445	538.94
574.656	534.94
574.867	555.94
575.078	527.94
575.289	548.94
575.501	518.94
575.712	500.94
575.923	517.94
576.134	524.94
576.345	474.94
576.556	516.94
576.767	504.94
576.978	501.94
577.188	505.94
577.399	513.94
577.61	494.94
577.821	490.94
578.032	465.94
578.243	462.94
578.454	464.94
578.665	453.94
578.875	458.94
579.086	467.94
579.297	470.94
579.508	460.94
579.718	473.94
579.929	456.94
580.14	460.94
580.35	451.94
580.561	457.94
580.772	448.94
580.982	445.94
581.193	439.94
581.403	465.94
581.614	451.94
581.825	437.94
582.035	459.94
582.246	439.94
582.456	456.94
582.667	451.94
582.877	452.94
583.087	429.94
583.298	441.94
583.508	426.94
583.719	426.94
583.929	410.94
584.139	431.94
584.35	414.94
584.56	422.94
584.77	410.94
584.981	428.94
585.191	418.94
585.401	401.94
585.611	412.94
585.821	423.94
586.032	415.94
586.242	440.94
586.452	421.94
586.662	434.94
586.872	410.94
587.082	422.94
587.292	408.94
587.502	409.94
587.713	435.94
587.923	403.94
588.133	406.94
588.343	421.94
588.553	401.94
588.762	398.94
588.972	421.94
589.182	439.94
589.392	416.94
589.602	420.94
589.812	440.94
590.022	421.94
590.232	423.94
590.441	436.94
590.651	424.94
590.861	418.94
591.071	426.94
591.281	432.94
591.49	457.94
591.7	445.94
591.91	438.94
592.119	434.94
592.329	467.94
592.539	477.94
592.748	498.94
592.958	532.94
593.167	536.94
593.377	525.94
593.587	552.94
593.796	547.94
594.006	545.94
594.215	564.94
594.424	583.94
594.634	544.94
594.843	518.94
595.053	518.94
595.262	487.94
595.472	474.94
595.681	443.94
595.89	440.94
596.1	408.94
596.309	413.94
596.518	395.94
596.727	398.94
596.937	408.94
597.146	389.94
597.355	388.94
597.564	396.94
597.774	385.94
597.983	377.94
598.192	392.94
598.401	378.94
598.61	370.94
598.819	358.94
599.028	370.94
599.237	344.94
599.446	353.94
599.655	361.94
599.864	370.94
600.073	342.94
600.282	360.94
600.491	361.94
600.7	345.94
600.909	354.94
601.118	351.94
601.327	335.94
601.536	361.94
601.745	353.94
601.953	347.94
602.162	349.94
602.371	355.94
602.58	337.94
602.789	339.94
602.997	340.94
603.206	332.94
603.415	327.94
603.623	357.94
603.832	347.94
604.041	349.94
604.249	323.94
604.458	342.94
604.666	333.94
604.875	345.94
605.084	347.94
605.292	328.94
605.501	342.94
605.709	343.94
605.918	322.94
606.126	334.94
606.334	325.94
606.543	339.94
606.751	308.94
606.96	332.94
607.168	324.94
607.376	336.94
607.585	331.94
607.793	331.94
608.001	326.94
608.21	323.94
608.418	314.94
608.626	319.94
608.834	321.94
609.043	318.94
609.251	336.94
609.459	318.94
609.667	306.94
609.875	317.94
610.083	309.94
610.291	331.94
610.499	315.94
610.707	333.94
610.916	322.94
611.124	325.94
611.332	320.94
611.54	329.94
611.748	313.94
611.955	302.94
612.163	318.94
612.371	306.94
612.579	307.94
612.787	308.94
612.995	315.94
613.203	284.94
613.411	284.94
613.618	309.94
613.826	310.94
614.034	304.94
614.242	301.94
614.449	312.94
614.657	315.94
614.865	291.94
615.072	306.94
615.28	299.94
615.488	292.94
615.695	312.94
615.903	292.94
616.111	308.94
616.318	312.94
616.526	311.94
616.733	300.94
616.941	328.94
617.148	324.94
617.356	312.94
617.563	311.94
617.771	300.94
617.978	300.94
618.185	308.94
618.393	294.94
618.6	299.94
618.807	318.94
619.015	312.94
619.222	298.94
619.429	297.94
619.637	313.94
619.844	297.94
620.051	294.94
620.258	287.94
620.466	289.94
620.673	288.94
620.88	279.94
621.087	289.94
621.294	280.94
621.501	260.94
621.708	284.94
621.915	279.94
622.122	280.94
622.329	277.94
622.536	293.94
622.743	289.94
622.95	284.94
623.157	270.94
623.364	280.94
623.571	269.94
623.778	266.94
623.985	256.94
624.192	273.94
624.399	266.94
624.606	266.94
624.812	245.94
625.019	264.94
625.226	245.94
625.433	263.94
625.639	274.94
625.846	274.94
626.053	269.94
626.259	258.94
626.466	273.94
626.673	256.94
626.879	272.94
627.086	276.94
627.293	262.94
627.499	261.94
627.706	257.94
627.912	264.94
628.119	268.94
628.325	271.94
628.532	242.94
628.738	252.94
628.945	276.94
629.151	238.94
629.357	247.94
629.564	240.94
629.77	241.94
629.976	240.94
630.183	231.94
630.389	242.94
630.595	240.94
630.802	238.94
631.008	253.94
631.214	254.94
631.42	249.94
631.627	235.94
631.833	256.94
632.039	229.94
632.245	229.94
632.451	223.94
632.657	220.94
632.863	217.94
633.069	220.94
633.275	237.94
633.481	229.94
633.688	234.94
633.893	225.94
634.099	229.94
634.305	217.94
634.511	234.94
634.717	242.94
634.923	218.94
635.129	213.94
635.335	224.94
635.541	216.94
635.747	225.94
635.952	231.94
636.158	233.94
636.364	230.94
636.57	215.94
636.775	216.94
636.981	215.94
637.187	215.94
637.392	216.94
637.598	225.94
637.804	229.94
638.009	212.94
638.215	218.94
638.421	216.94
638.626	228.94
638.832	195.94
639.037	206.94
639.243	212.94
639.448	221.94
639.654	224.94
639.859	222.94
640.065	220.94
640.27	199.94
640.475	217.94
640.681	194.94
640.886	189.94
641.091	212.94
641.297	200.94
641.502	182.94
641.707	216.94
641.913	212.94
642.118	206.94
642.323	186.94
642.528	207.94
642.733	216.94
642.939	207.94
643.144	197.94
643.349	184.94
643.554	202.94
643.759	193.94
643.964	189.94
644.169	201.94
644.374	208.94
644.579	193.94
644.784	199.94
644.989	188.94
645.194	209.94
645.399	184.94
645.604	185.94
645.809	192.94
646.014	208.94
646.219	196.94
646.423	205.94
646.628	209.94
646.833	196.94
647.038	196.94
647.243	188.94
647.447	204.94
647.652	205.94
647.857	212.94
648.062	195.94
648.266	230.94
648.471	203.94
648.676	216.94
648.88	204.94
649.085	222.94
649.289	229.94
649.494	198.94
649.698	203.94
649.903	199.94
650.107	192.94
650.312	181.94
650.516	179.94
650.721	193.94
650.925	188.94
651.13	176.94
651.334	163.94
651.539	169.94
651.743	169.94
651.947	174.94
652.152	162.94
652.356	171.94
652.56	168.94
652.764	151.94
652.969	164.94
653.173	152.94
653.377	158.94
653.581	166.94
653.785	156.94
653.99	172.94
654.194	148.94
654.398	154.94
654.602	145.94
654.806	126.94
655.01	139.94
655.214	145.94
655.418	155.94
655.622	139.94
655.826	134.94
656.03	131.94
656.234	136.94
656.438	148.94
656.642	131.94
656.846	140.94
657.049	126.94
657.253	134.94
657.457	129.94
657.661	130.94
657.865	121.94
658.068	115.94
658.272	117.94
658.476	118.94
658.68	116.94
658.883	107.94
659.087	102.94
659.291	109.94
659.494	106.94
659.698	106.94
659.901	101.94
660.105	96.94
660.309	84.94
660.512	117.94
660.716	98.94
660.919	99.94
661.123	101.94
661.326	96.94
661.53	89.94
661.733	105.94
661.936	90.94
662.14	101.94
662.343	87.94
662.546	92.94
662.75	94.94
662.953	96.94
663.156	95.94
663.36	98.94
663.563	86.94
663.766	83.94
663.969	96.94
664.173	70.94
664.376	99.94
664.579	71.94
664.782	80.94
664.985	77.94
665.188	77.94
665.391	83.94
665.594	81.94
665.797	85.94
666	89.94
666.203	92.94
666.406	93.94
666.609	84.94
666.812	84.94
667.015	79.94
667.218	77.94
667.421	79.94
667.624	73.94
667.827	91.94
668.03	88.94
668.232	86.94
668.435	87.94
668.638	80.94
668.841	81.94
669.043	86.94
669.246	86.94
669.449	83.94
669.651	92.94
669.854	89.94
670.057	85.94
670.259	81.94
670.462	80.94
670.665	84.94
670.867	84.94
671.07	76.94
671.272	76.94
671.475	87.94
671.677	93.94
671.88	77.94
672.082	82.94
672.284	92.94
672.487	96.94
672.689	77.94
672.892	87.94
