Data from NiCl2@0.25M.TitratingCurve.Agarose3%dH2O.NegLispCup.LampEnergy10.LIBS07252019_HRD10591_18-23-49-573.txt Node
Date: Thu Jul 25 18:23:49 EDT 2019
User: cochatt
Spectrometer: HR+D1059
Trigger mode: 1
Integration Time (sec): 1.000000E-1
Scans to average: 1
Electric dark correction enabled: true
Nonlinearity correction enabled: false
Boxcar width: 0
XAxis mode: Wavelengths
Number of Pixels in Spectrum: 2048
>>>>>Begin Spectral Data<<<<<
223.165	-2.5
223.4	-2.5
223.635	-2.5
223.869	-18.5
224.104	-14.5
224.338	-25.5
224.573	-23.5
224.808	-7.5
225.042	-17.5
225.277	-0.5
225.511	-4.5
225.746	10.5
225.98	13.5
226.215	18.5
226.449	15.5
226.683	19.5
226.918	31.5
227.152	5.5
227.387	48.5
227.621	37.5
227.856	35.5
228.09	51.5
228.324	51.5
228.559	61.5
228.793	77.5
229.027	103.5
229.262	106.5
229.496	115.5
229.73	114.5
229.964	114.5
230.199	125.5
230.433	127.5
230.667	131.5
230.901	136.5
231.136	139.5
231.37	129.5
231.604	147.5
231.838	121.5
232.072	123.5
232.306	132.5
232.541	138.5
232.775	134.5
233.009	137.5
233.243	137.5
233.477	136.5
233.711	161.5
233.945	160.5
234.179	135.5
234.413	153.5
234.647	145.5
234.881	152.5
235.115	159.5
235.349	140.5
235.583	158.5
235.817	157.5
236.051	157.5
236.285	125.5
236.519	161.5
236.753	143.5
236.987	156.5
237.221	152.5
237.455	140.5
237.689	166.5
237.922	166.5
238.156	161.5
238.39	179.5
238.624	166.5
238.858	161.5
239.091	161.5
239.325	182.5
239.559	187.5
239.793	177.5
240.027	168.5
240.26	175.5
240.494	177.5
240.728	187.5
240.961	194.5
241.195	183.5
241.429	181.5
241.662	170.5
241.896	184.5
242.13	181.5
242.363	194.5
242.597	183.5
242.83	205.5
243.064	195.5
243.298	190.5
243.531	210.5
243.765	208.5
243.998	209.5
244.232	203.5
244.465	200.5
244.699	210.5
244.932	210.5
245.166	200.5
245.399	215.5
245.633	205.5
245.866	228.5
246.099	230.5
246.333	208.5
246.566	216.5
246.8	229.5
247.033	217.5
247.266	212.5
247.5	220.5
247.733	218.5
247.966	232.5
248.2	223.5
248.433	237.5
248.666	234.5
248.899	251.5
249.133	250.5
249.366	237.5
249.599	231.5
249.832	249.5
250.066	255.5
250.299	252.5
250.532	247.5
250.765	247.5
250.998	248.5
251.231	242.5
251.465	244.5
251.698	258.5
251.931	250.5
252.164	262.5
252.397	282.5
252.63	287.5
252.863	259.5
253.096	273.5
253.329	271.5
253.562	271.5
253.795	273.5
254.028	272.5
254.261	267.5
254.494	286.5
254.727	279.5
254.96	269.5
255.193	273.5
255.426	272.5
255.659	276.5
255.892	292.5
256.124	285.5
256.357	297.5
256.59	294.5
256.823	307.5
257.056	289.5
257.289	308.5
257.521	301.5
257.754	296.5
257.987	277.5
258.22	277.5
258.452	311.5
258.685	305.5
258.918	306.5
259.151	296.5
259.383	323.5
259.616	303.5
259.849	314.5
260.081	310.5
260.314	323.5
260.547	307.5
260.779	321.5
261.012	317.5
261.244	328.5
261.477	331.5
261.71	328.5
261.942	322.5
262.175	328.5
262.407	318.5
262.64	324.5
262.872	327.5
263.105	322.5
263.337	341.5
263.57	344.5
263.802	314.5
264.035	344.5
264.267	328.5
264.499	333.5
264.732	345.5
264.964	353.5
265.197	346.5
265.429	349.5
265.661	337.5
265.894	345.5
266.126	362.5
266.358	354.5
266.591	340.5
266.823	362.5
267.055	365.5
267.287	358.5
267.52	360.5
267.752	368.5
267.984	367.5
268.216	369.5
268.448	356.5
268.681	373.5
268.913	383.5
269.145	384.5
269.377	378.5
269.609	367.5
269.841	377.5
270.073	375.5
270.306	377.5
270.538	364.5
270.77	379.5
271.002	374.5
271.234	386.5
271.466	380.5
271.698	389.5
271.93	368.5
272.162	409.5
272.394	374.5
272.626	388.5
272.858	381.5
273.09	384.5
273.322	390.5
273.553	394.5
273.785	398.5
274.017	393.5
274.249	375.5
274.481	409.5
274.713	430.5
274.945	415.5
275.176	397.5
275.408	415.5
275.64	414.5
275.872	425.5
276.104	415.5
276.335	419.5
276.567	395.5
276.799	408.5
277.031	434.5
277.262	407.5
277.494	430.5
277.726	424.5
277.957	435.5
278.189	434.5
278.421	435.5
278.652	449.5
278.884	441.5
279.115	453.5
279.347	453.5
279.579	449.5
279.81	451.5
280.042	433.5
280.273	439.5
280.505	452.5
280.736	457.5
280.968	453.5
281.199	445.5
281.431	458.5
281.662	463.5
281.894	468.5
282.125	450.5
282.356	460.5
282.588	470.5
282.819	472.5
283.051	461.5
283.282	465.5
283.513	481.5
283.745	461.5
283.976	460.5
284.207	473.5
284.439	497.5
284.67	483.5
284.901	487.5
285.132	504.5
285.364	498.5
285.595	493.5
285.826	497.5
286.057	500.5
286.288	512.5
286.52	502.5
286.751	506.5
286.982	501.5
287.213	506.5
287.444	521.5
287.675	517.5
287.906	513.5
288.138	509.5
288.369	519.5
288.6	526.5
288.831	527.5
289.062	526.5
289.293	540.5
289.524	528.5
289.755	511.5
289.986	508.5
290.217	513.5
290.448	536.5
290.679	539.5
290.91	542.5
291.141	530.5
291.371	529.5
291.602	540.5
291.833	527.5
292.064	533.5
292.295	527.5
292.526	542.5
292.757	524.5
292.987	532.5
293.218	521.5
293.449	541.5
293.68	520.5
293.91	547.5
294.141	536.5
294.372	527.5
294.603	543.5
294.833	553.5
295.064	545.5
295.295	529.5
295.525	535.5
295.756	548.5
295.987	534.5
296.217	549.5
296.448	559.5
296.679	562.5
296.909	562.5
297.14	566.5
297.37	543.5
297.601	575.5
297.831	583.5
298.062	586.5
298.292	563.5
298.523	578.5
298.753	582.5
298.984	558.5
299.214	601.5
299.445	579.5
299.675	586.5
299.905	576.5
300.136	584.5
300.366	599.5
300.597	601.5
300.827	595.5
301.057	609.5
301.288	641.5
301.518	603.5
301.748	606.5
301.979	621.5
302.209	584.5
302.439	603.5
302.669	597.5
302.9	612.5
303.13	572.5
303.36	591.5
303.59	590.5
303.82	601.5
304.051	592.5
304.281	619.5
304.511	589.5
304.741	617.5
304.971	597.5
305.201	591.5
305.431	601.5
305.661	632.5
305.891	593.5
306.121	579.5
306.352	615.5
306.582	574.5
306.812	585.5
307.042	594.5
307.272	612.5
307.502	579.5
307.731	580.5
307.961	596.5
308.191	603.5
308.421	590.5
308.651	586.5
308.881	576.5
309.111	583.5
309.341	584.5
309.571	583.5
309.8	592.5
310.03	608.5
310.26	579.5
310.49	624.5
310.72	600.5
310.949	566.5
311.179	609.5
311.409	602.5
311.639	623.5
311.868	614.5
312.098	615.5
312.328	629.5
312.557	609.5
312.787	624.5
313.017	631.5
313.246	633.5
313.476	613.5
313.706	633.5
313.935	639.5
314.165	627.5
314.394	654.5
314.624	647.5
314.853	625.5
315.083	621.5
315.312	638.5
315.542	622.5
315.771	617.5
316.001	625.5
316.23	636.5
316.46	626.5
316.689	618.5
316.919	635.5
317.148	634.5
317.377	638.5
317.607	621.5
317.836	618.5
318.065	623.5
318.295	616.5
318.524	635.5
318.753	616.5
318.983	610.5
319.212	612.5
319.441	605.5
319.67	630.5
319.9	614.5
320.129	623.5
320.358	635.5
320.587	630.5
320.816	628.5
321.046	611.5
321.275	619.5
321.504	623.5
321.733	619.5
321.962	633.5
322.191	625.5
322.42	626.5
322.649	638.5
322.878	626.5
323.108	611.5
323.337	635.5
323.566	636.5
323.795	647.5
324.024	642.5
324.253	667.5
324.482	645.5
324.71	643.5
324.939	640.5
325.168	691.5
325.397	642.5
325.626	683.5
325.855	685.5
326.084	676.5
326.313	683.5
326.542	678.5
326.77	691.5
326.999	695.5
327.228	674.5
327.457	671.5
327.686	689.5
327.914	713.5
328.143	688.5
328.372	670.5
328.6	713.5
328.829	672.5
329.058	679.5
329.287	705.5
329.515	705.5
329.744	702.5
329.972	704.5
330.201	691.5
330.43	704.5
330.658	711.5
330.887	703.5
331.115	737.5
331.344	714.5
331.572	736.5
331.801	761.5
332.03	767.5
332.258	769.5
332.486	802.5
332.715	849.5
332.943	858.5
333.172	888.5
333.4	931.5
333.629	938.5
333.857	959.5
334.085	941.5
334.314	917.5
334.542	908.5
334.771	867.5
334.999	843.5
335.227	850.5
335.455	853.5
335.684	867.5
335.912	859.5
336.14	854.5
336.369	832.5
336.597	841.5
336.825	837.5
337.053	842.5
337.281	810.5
337.51	821.5
337.738	785.5
337.966	761.5
338.194	781.5
338.422	738.5
338.65	749.5
338.878	782.5
339.106	769.5
339.334	749.5
339.562	727.5
339.79	717.5
340.018	719.5
340.246	693.5
340.474	731.5
340.702	708.5
340.93	724.5
341.158	722.5
341.386	722.5
341.614	711.5
341.842	711.5
342.07	708.5
342.298	707.5
342.526	721.5
342.754	729.5
342.981	727.5
343.209	754.5
343.437	771.5
343.665	821.5
343.893	902.5
344.12	914.5
344.348	863.5
344.576	838.5
344.804	777.5
345.031	759.5
345.259	717.5
345.487	738.5
345.714	708.5
345.942	691.5
346.17	725.5
346.397	717.5
346.625	678.5
346.853	691.5
347.08	705.5
347.308	702.5
347.535	690.5
347.763	713.5
347.99	709.5
348.218	664.5
348.445	687.5
348.673	680.5
348.9	682.5
349.128	684.5
349.355	703.5
349.583	675.5
349.81	674.5
350.037	678.5
350.265	666.5
350.492	699.5
350.72	666.5
350.947	646.5
351.174	686.5
351.402	676.5
351.629	678.5
351.856	683.5
352.083	666.5
352.311	664.5
352.538	679.5
352.765	685.5
352.992	663.5
353.22	650.5
353.447	643.5
353.674	643.5
353.901	662.5
354.128	667.5
354.355	639.5
354.583	652.5
354.81	643.5
355.037	670.5
355.264	673.5
355.491	673.5
355.718	669.5
355.945	659.5
356.172	681.5
356.399	673.5
356.626	672.5
356.853	674.5
357.08	667.5
357.307	667.5
357.534	673.5
357.761	666.5
357.988	677.5
358.215	667.5
358.441	677.5
358.668	663.5
358.895	665.5
359.122	670.5
359.349	689.5
359.576	681.5
359.802	694.5
360.029	705.5
360.256	665.5
360.483	662.5
360.709	653.5
360.936	682.5
361.163	658.5
361.39	665.5
361.616	699.5
361.843	680.5
362.07	676.5
362.296	693.5
362.523	680.5
362.749	657.5
362.976	652.5
363.203	651.5
363.429	649.5
363.656	673.5
363.882	665.5
364.109	670.5
364.335	631.5
364.562	685.5
364.788	643.5
365.015	680.5
365.241	655.5
365.468	662.5
365.694	667.5
365.92	656.5
366.147	671.5
366.373	663.5
366.599	667.5
366.826	677.5
367.052	674.5
367.278	665.5
367.505	675.5
367.731	643.5
367.957	685.5
368.184	671.5
368.41	677.5
368.636	664.5
368.862	694.5
369.089	694.5
369.315	674.5
369.541	704.5
369.767	702.5
369.993	683.5
370.219	672.5
370.445	719.5
370.672	697.5
370.898	729.5
371.124	742.5
371.35	697.5
371.576	726.5
371.802	725.5
372.028	706.5
372.254	713.5
372.48	739.5
372.706	751.5
372.932	755.5
373.158	765.5
373.384	744.5
373.61	713.5
373.835	734.5
374.061	737.5
374.287	729.5
374.513	727.5
374.739	824.5
374.965	814.5
375.191	820.5
375.416	814.5
375.642	774.5
375.868	786.5
376.094	759.5
376.319	738.5
376.545	750.5
376.771	751.5
376.997	742.5
377.222	722.5
377.448	729.5
377.674	726.5
377.899	718.5
378.125	727.5
378.35	707.5
378.576	721.5
378.802	723.5
379.027	726.5
379.253	699.5
379.478	717.5
379.704	725.5
379.929	729.5
380.155	729.5
380.38	720.5
380.606	713.5
380.831	755.5
381.057	737.5
381.282	685.5
381.507	709.5
381.733	727.5
381.958	758.5
382.184	753.5
382.409	755.5
382.634	755.5
382.86	757.5
383.085	749.5
383.31	793.5
383.535	823.5
383.761	796.5
383.986	830.5
384.211	830.5
384.436	871.5
384.662	877.5
384.887	891.5
385.112	867.5
385.337	904.5
385.562	900.5
385.787	881.5
386.013	898.5
386.238	884.5
386.463	885.5
386.688	873.5
386.913	882.5
387.138	886.5
387.363	874.5
387.588	845.5
387.813	862.5
388.038	832.5
388.263	871.5
388.488	841.5
388.713	866.5
388.938	863.5
389.163	850.5
389.387	838.5
389.612	818.5
389.837	830.5
390.062	851.5
390.287	867.5
390.512	840.5
390.736	860.5
390.961	886.5
391.186	899.5
391.411	930.5
391.636	971.5
391.86	953.5
392.085	1021.5
392.31	1009.5
392.534	971.5
392.759	931.5
392.984	936.5
393.208	941.5
393.433	937.5
393.658	933.5
393.882	953.5
394.107	929.5
394.331	961.5
394.556	943.5
394.78	929.5
395.005	939.5
395.229	949.5
395.454	929.5
395.678	1018.5
395.903	1021.5
396.127	989.5
396.352	912.5
396.576	926.5
396.801	927.5
397.025	915.5
397.249	931.5
397.474	987.5
397.698	1006.5
397.922	1014.5
398.147	982.5
398.371	1017.5
398.595	1043.5
398.82	1066.5
399.044	1158.5
399.268	1301.5
399.492	1526.5
399.717	1737.5
399.941	1732.5
400.165	1530.5
400.389	1318.5
400.613	1221.5
400.837	1155.5
401.062	1151.5
401.286	1103.5
401.51	1109.5
401.734	1092.5
401.958	1098.5
402.182	1147.5
402.406	1153.5
402.63	1159.5
402.854	1215.5
403.078	1250.5
403.302	1262.5
403.526	1269.5
403.75	1284.5
403.974	1311.5
404.198	1311.5
404.422	1326.5
404.645	1314.5
404.869	1285.5
405.093	1286.5
405.317	1225.5
405.541	1213.5
405.765	1218.5
405.988	1177.5
406.212	1201.5
406.436	1181.5
406.66	1243.5
406.883	1246.5
407.107	1333.5
407.331	1417.5
407.555	1457.5
407.778	1437.5
408.002	1426.5
408.226	1317.5
408.449	1313.5
408.673	1272.5
408.896	1231.5
409.12	1281.5
409.344	1278.5
409.567	1234.5
409.791	1270.5
410.014	1281.5
410.238	1205.5
410.461	1204.5
410.685	1178.5
410.908	1169.5
411.132	1161.5
411.355	1140.5
411.578	1147.5
411.802	1167.5
412.025	1163.5
412.249	1159.5
412.472	1168.5
412.695	1110.5
412.919	1112.5
413.142	1082.5
413.365	1102.5
413.589	1100.5
413.812	1087.5
414.035	1050.5
414.258	1077.5
414.482	1079.5
414.705	1113.5
414.928	1086.5
415.151	1136.5
415.374	1095.5
415.597	1081.5
415.821	1079.5
416.044	1067.5
416.267	1069.5
416.49	1064.5
416.713	1069.5
416.936	1094.5
417.159	1093.5
417.382	1093.5
417.605	1088.5
417.828	1089.5
418.051	1123.5
418.274	1115.5
418.497	1100.5
418.72	1129.5
418.943	1115.5
419.166	1158.5
419.389	1232.5
419.611	1251.5
419.834	1202.5
420.057	1149.5
420.28	1094.5
420.503	1079.5
420.726	1103.5
420.948	1043.5
421.171	1061.5
421.394	1066.5
421.617	1042.5
421.839	1057.5
422.062	1104.5
422.285	1072.5
422.507	1121.5
422.73	1133.5
422.953	1142.5
423.175	1168.5
423.398	1167.5
423.621	1175.5
423.843	1184.5
424.066	1189.5
424.288	1174.5
424.511	1170.5
424.733	1137.5
424.956	1127.5
425.178	1081.5
425.401	1101.5
425.623	1087.5
425.846	1030.5
426.068	1036.5
426.291	1029.5
426.513	1043.5
426.735	1035.5
426.958	1014.5
427.18	980.5
427.402	991.5
427.625	975.5
427.847	961.5
428.069	964.5
428.292	948.5
428.514	958.5
428.736	956.5
428.958	965.5
429.181	913.5
429.403	931.5
429.625	928.5
429.847	921.5
430.069	950.5
430.292	933.5
430.514	930.5
430.736	957.5
430.958	923.5
431.18	916.5
431.402	934.5
431.624	954.5
431.846	958.5
432.068	969.5
432.29	978.5
432.512	946.5
432.734	970.5
432.956	959.5
433.178	954.5
433.4	931.5
433.622	950.5
433.844	950.5
434.066	979.5
434.287	988.5
434.509	1031.5
434.731	1049.5
434.953	1103.5
435.175	1091.5
435.397	1087.5
435.618	991.5
435.84	945.5
436.062	938.5
436.284	922.5
436.505	951.5
436.727	977.5
436.949	938.5
437.17	953.5
437.392	913.5
437.614	898.5
437.835	905.5
438.057	935.5
438.278	932.5
438.5	895.5
438.721	891.5
438.943	901.5
439.165	915.5
439.386	911.5
439.608	957.5
439.829	969.5
440.05	951.5
440.272	954.5
440.493	960.5
440.715	962.5
440.936	993.5
441.158	1007.5
441.379	1007.5
441.6	1087.5
441.822	1102.5
442.043	1102.5
442.264	1072.5
442.486	1026.5
442.707	1069.5
442.928	1056.5
443.149	1075.5
443.371	1065.5
443.592	1063.5
443.813	1090.5
444.034	1097.5
444.255	1143.5
444.476	1182.5
444.698	1266.5
444.919	1313.5
445.14	1385.5
445.361	1220.5
445.582	1123.5
445.803	1049.5
446.024	985.5
446.245	967.5
446.466	968.5
446.687	949.5
446.908	981.5
447.129	952.5
447.35	926.5
447.571	885.5
447.792	877.5
448.013	908.5
448.234	882.5
448.455	861.5
448.675	868.5
448.896	889.5
449.117	864.5
449.338	857.5
449.559	870.5
449.779	865.5
450	853.5
450.221	853.5
450.442	870.5
450.662	872.5
450.883	886.5
451.104	885.5
451.324	877.5
451.545	878.5
451.766	898.5
451.986	879.5
452.207	867.5
452.428	855.5
452.648	886.5
452.869	840.5
453.089	849.5
453.31	859.5
453.53	865.5
453.751	855.5
453.971	837.5
454.192	805.5
454.412	811.5
454.633	807.5
454.853	842.5
455.073	800.5
455.294	812.5
455.514	787.5
455.734	821.5
455.955	800.5
456.175	805.5
456.395	839.5
456.616	791.5
456.836	815.5
457.056	798.5
457.276	782.5
457.497	808.5
457.717	835.5
457.937	816.5
458.157	828.5
458.377	836.5
458.598	866.5
458.818	867.5
459.038	889.5
459.258	906.5
459.478	981.5
459.698	981.5
459.918	1008.5
460.138	1079.5
460.358	1136.5
460.578	1129.5
460.798	1157.5
461.018	1151.5
461.238	1139.5
461.458	1112.5
461.678	1115.5
461.898	1147.5
462.118	1112.5
462.338	1205.5
462.558	1247.5
462.777	1253.5
462.997	1407.5
463.217	1562.5
463.437	1567.5
463.657	1393.5
463.876	1340.5
464.096	1337.5
464.316	1325.5
464.536	1329.5
464.755	1297.5
464.975	1203.5
465.195	1161.5
465.414	1079.5
465.634	1014.5
465.854	969.5
466.073	961.5
466.293	950.5
466.512	938.5
466.732	914.5
466.951	931.5
467.171	914.5
467.391	941.5
467.61	925.5
467.829	921.5
468.049	898.5
468.268	882.5
468.488	847.5
468.707	862.5
468.927	876.5
469.146	851.5
469.365	897.5
469.585	881.5
469.804	909.5
470.023	956.5
470.243	956.5
470.462	918.5
470.681	927.5
470.901	968.5
471.12	950.5
471.339	899.5
471.558	901.5
471.777	892.5
471.997	874.5
472.216	886.5
472.435	849.5
472.654	882.5
472.873	857.5
473.092	844.5
473.311	863.5
473.53	868.5
473.749	863.5
473.968	856.5
474.187	855.5
474.406	822.5
474.625	826.5
474.844	848.5
475.063	841.5
475.282	843.5
475.501	871.5
475.72	831.5
475.939	846.5
476.158	863.5
476.377	879.5
476.596	885.5
476.814	890.5
477.033	873.5
477.252	902.5
477.471	931.5
477.69	961.5
477.908	985.5
478.127	1019.5
478.346	1039.5
478.564	1035.5
478.783	1037.5
479.002	1085.5
479.22	1057.5
479.439	1031.5
479.658	1046.5
479.876	1053.5
480.095	1079.5
480.313	1122.5
480.532	1163.5
480.751	1161.5
480.969	1085.5
481.188	1035.5
481.406	995.5
481.624	986.5
481.843	980.5
482.061	996.5
482.28	978.5
482.498	959.5
482.717	950.5
482.935	972.5
483.153	985.5
483.372	969.5
483.59	970.5
483.808	979.5
484.027	963.5
484.245	964.5
484.463	977.5
484.681	999.5
484.9	998.5
485.118	959.5
485.336	991.5
485.554	1006.5
485.772	1002.5
485.99	1006.5
486.209	1029.5
486.427	1021.5
486.645	1021.5
486.863	1019.5
487.081	997.5
487.299	1021.5
487.517	1012.5
487.735	998.5
487.953	1011.5
488.171	1016.5
488.389	1051.5
488.607	1002.5
488.825	996.5
489.043	1011.5
489.261	985.5
489.479	1021.5
489.696	996.5
489.914	1011.5
490.132	1007.5
490.35	1019.5
490.568	1021.5
490.786	1033.5
491.003	1026.5
491.221	1003.5
491.439	1027.5
491.657	1021.5
491.874	1029.5
492.092	1056.5
492.31	1038.5
492.527	1069.5
492.745	1055.5
492.963	1054.5
493.18	1036.5
493.398	1088.5
493.615	1081.5
493.833	1082.5
494.05	1099.5
494.268	1049.5
494.485	1081.5
494.703	1094.5
494.92	1081.5
495.138	1069.5
495.355	1079.5
495.573	1096.5
495.79	1112.5
496.008	1094.5
496.225	1121.5
496.442	1127.5
496.66	1138.5
496.877	1145.5
497.094	1144.5
497.312	1168.5
497.529	1200.5
497.746	1224.5
497.963	1270.5
498.181	1340.5
498.398	1363.5
498.615	1461.5
498.832	1570.5
499.049	1715.5
499.267	1827.5
499.484	2024.5
499.701	2309.5
499.918	2471.5
500.135	2947.5
500.352	3336.5
500.569	3538.5
500.786	3438.5
501.003	3177.5
501.22	2824.5
501.437	2402.5
501.654	2145.5
501.871	1935.5
502.088	1777.5
502.305	1673.5
502.522	1557.5
502.739	1512.5
502.956	1423.5
503.172	1376.5
503.389	1314.5
503.606	1291.5
503.823	1225.5
504.04	1245.5
504.256	1265.5
504.473	1303.5
504.69	1347.5
504.907	1303.5
505.123	1188.5
505.34	1118.5
505.557	1071.5
505.773	1050.5
505.99	1030.5
506.207	967.5
506.423	998.5
506.64	1006.5
506.856	969.5
507.073	984.5
507.289	965.5
507.506	949.5
507.722	960.5
507.939	955.5
508.155	929.5
508.372	922.5
508.588	904.5
508.805	894.5
509.021	931.5
509.238	884.5
509.454	895.5
509.67	888.5
509.887	892.5
510.103	863.5
510.319	855.5
510.536	878.5
510.752	885.5
510.968	900.5
511.184	857.5
511.401	903.5
511.617	863.5
511.833	862.5
512.049	878.5
512.265	882.5
512.481	864.5
512.698	873.5
512.914	873.5
513.13	894.5
513.346	911.5
513.562	876.5
513.778	897.5
513.994	875.5
514.21	866.5
514.426	880.5
514.642	899.5
514.858	894.5
515.074	913.5
515.29	926.5
515.506	895.5
515.721	921.5
515.937	911.5
516.153	982.5
516.369	985.5
516.585	1003.5
516.801	1069.5
517.016	1101.5
517.232	1143.5
517.448	1199.5
517.664	1240.5
517.879	1243.5
518.095	1263.5
518.311	1217.5
518.527	1155.5
518.742	1132.5
518.958	1050.5
519.173	1033.5
519.389	992.5
519.605	963.5
519.82	943.5
520.036	923.5
520.251	907.5
520.467	921.5
520.682	906.5
520.898	879.5
521.113	853.5
521.329	871.5
521.544	851.5
521.76	817.5
521.975	838.5
522.19	843.5
522.406	814.5
522.621	811.5
522.836	822.5
523.052	811.5
523.267	821.5
523.482	791.5
523.698	797.5
523.913	819.5
524.128	789.5
524.343	815.5
524.559	791.5
524.774	805.5
524.989	806.5
525.204	796.5
525.419	805.5
525.634	810.5
525.849	784.5
526.064	789.5
526.28	772.5
526.495	784.5
526.71	788.5
526.925	785.5
527.14	785.5
527.355	769.5
527.57	751.5
527.785	771.5
527.999	784.5
528.214	815.5
528.429	789.5
528.644	750.5
528.859	806.5
529.074	776.5
529.289	786.5
529.503	775.5
529.718	817.5
529.933	781.5
530.148	790.5
530.363	783.5
530.577	795.5
530.792	767.5
531.007	776.5
531.221	791.5
531.436	753.5
531.651	780.5
531.865	783.5
532.08	774.5
532.295	794.5
532.509	757.5
532.724	792.5
532.938	782.5
533.153	762.5
533.367	783.5
533.582	792.5
533.796	779.5
534.011	802.5
534.225	769.5
534.44	759.5
534.654	785.5
534.868	744.5
535.083	759.5
535.297	777.5
535.511	768.5
535.726	743.5
535.94	771.5
536.154	733.5
536.369	713.5
536.583	737.5
536.797	722.5
537.011	705.5
537.225	722.5
537.44	740.5
537.654	701.5
537.868	730.5
538.082	694.5
538.296	709.5
538.51	681.5
538.724	675.5
538.938	722.5
539.153	701.5
539.367	711.5
539.581	709.5
539.795	693.5
540.009	700.5
540.222	726.5
540.436	691.5
540.65	706.5
540.864	693.5
541.078	700.5
541.292	695.5
541.506	699.5
541.72	715.5
541.934	709.5
542.147	731.5
542.361	711.5
542.575	713.5
542.789	701.5
543.002	689.5
543.216	719.5
543.43	719.5
543.644	710.5
543.857	679.5
544.071	713.5
544.285	687.5
544.498	698.5
544.712	693.5
544.925	737.5
545.139	706.5
545.352	713.5
545.566	729.5
545.779	712.5
545.993	734.5
546.206	723.5
546.42	715.5
546.633	741.5
546.847	723.5
547.06	713.5
547.274	726.5
547.487	733.5
547.7	715.5
547.914	712.5
548.127	739.5
548.34	742.5
548.554	756.5
548.767	703.5
548.98	710.5
549.193	729.5
549.407	751.5
549.62	773.5
549.833	776.5
550.046	724.5
550.259	718.5
550.473	720.5
550.686	726.5
550.899	722.5
551.112	702.5
551.325	703.5
551.538	681.5
551.751	709.5
551.964	687.5
552.177	698.5
552.39	705.5
552.603	745.5
552.816	740.5
553.029	784.5
553.242	779.5
553.455	801.5
553.667	818.5
553.88	783.5
554.093	741.5
554.306	770.5
554.519	726.5
554.732	723.5
554.944	694.5
555.157	671.5
555.37	687.5
555.583	671.5
555.795	648.5
556.008	651.5
556.221	629.5
556.433	618.5
556.646	645.5
556.859	616.5
557.071	597.5
557.284	616.5
557.496	596.5
557.709	590.5
557.921	595.5
558.134	597.5
558.346	597.5
558.559	607.5
558.771	599.5
558.984	586.5
559.196	609.5
559.409	596.5
559.621	593.5
559.833	614.5
560.046	574.5
560.258	593.5
560.47	602.5
560.683	583.5
560.895	574.5
561.107	566.5
561.32	601.5
561.532	576.5
561.744	574.5
561.956	603.5
562.168	543.5
562.381	577.5
562.593	590.5
562.805	571.5
563.017	583.5
563.229	599.5
563.441	609.5
563.653	589.5
563.865	590.5
564.077	587.5
564.289	600.5
564.501	637.5
564.713	624.5
564.925	632.5
565.137	642.5
565.349	650.5
565.561	665.5
565.773	707.5
565.985	727.5
566.197	765.5
566.408	823.5
566.62	897.5
566.832	1025.5
567.044	1012.5
567.255	1006.5
567.467	1014.5
567.679	1088.5
567.891	1204.5
568.102	1214.5
568.314	1162.5
568.526	1022.5
568.737	902.5
568.949	849.5
569.161	743.5
569.372	713.5
569.584	659.5
569.795	627.5
570.007	620.5
570.218	641.5
570.43	615.5
570.641	622.5
570.853	606.5
571.064	622.5
571.276	631.5
571.487	616.5
571.698	569.5
571.91	555.5
572.121	550.5
572.333	524.5
572.544	515.5
572.755	507.5
572.966	505.5
573.178	520.5
573.389	521.5
573.6	490.5
573.811	490.5
574.023	476.5
574.234	491.5
574.445	493.5
574.656	506.5
574.867	507.5
575.078	497.5
575.289	484.5
575.501	493.5
575.712	469.5
575.923	485.5
576.134	454.5
576.345	460.5
576.556	450.5
576.767	434.5
576.978	456.5
577.188	427.5
577.399	452.5
577.61	425.5
577.821	424.5
578.032	443.5
578.243	434.5
578.454	419.5
578.665	446.5
578.875	432.5
579.086	439.5
579.297	419.5
579.508	407.5
579.718	430.5
579.929	431.5
580.14	420.5
580.35	429.5
580.561	410.5
580.772	403.5
580.982	414.5
581.193	394.5
581.403	408.5
581.614	412.5
581.825	410.5
582.035	407.5
582.246	417.5
582.456	398.5
582.667	407.5
582.877	428.5
583.087	395.5
583.298	406.5
583.508	406.5
583.719	403.5
583.929	394.5
584.139	401.5
584.35	399.5
584.56	409.5
584.77	390.5
584.981	394.5
585.191	387.5
585.401	370.5
585.611	375.5
585.821	396.5
586.032	393.5
586.242	409.5
586.452	378.5
586.662	394.5
586.872	396.5
587.082	394.5
587.292	401.5
587.502	413.5
587.713	382.5
587.923	398.5
588.133	381.5
588.343	393.5
588.553	395.5
588.762	383.5
588.972	374.5
589.182	416.5
589.392	392.5
589.602	402.5
589.812	400.5
590.022	370.5
590.232	391.5
590.441	390.5
590.651	401.5
590.861	395.5
591.071	383.5
591.281	398.5
591.49	398.5
591.7	401.5
591.91	401.5
592.119	420.5
592.329	427.5
592.539	463.5
592.748	455.5
592.958	474.5
593.167	500.5
593.377	477.5
593.587	534.5
593.796	513.5
594.006	523.5
594.215	535.5
594.424	514.5
594.634	510.5
594.843	497.5
595.053	460.5
595.262	458.5
595.472	411.5
595.681	412.5
595.89	389.5
596.1	394.5
596.309	371.5
596.518	353.5
596.727	349.5
596.937	347.5
597.146	361.5
597.355	350.5
597.564	358.5
597.774	339.5
597.983	353.5
598.192	345.5
598.401	350.5
598.61	343.5
598.819	342.5
599.028	334.5
599.237	345.5
599.446	339.5
599.655	332.5
599.864	341.5
600.073	330.5
600.282	340.5
600.491	341.5
600.7	324.5
600.909	320.5
601.118	329.5
601.327	314.5
601.536	328.5
601.745	319.5
601.953	335.5
602.162	345.5
602.371	327.5
602.58	325.5
602.789	298.5
602.997	339.5
603.206	325.5
603.415	316.5
603.623	307.5
603.832	314.5
604.041	307.5
604.249	286.5
604.458	306.5
604.666	309.5
604.875	306.5
605.084	322.5
605.292	314.5
605.501	288.5
605.709	303.5
605.918	295.5
606.126	307.5
606.334	292.5
606.543	301.5
606.751	305.5
606.96	291.5
607.168	314.5
607.376	266.5
607.585	290.5
607.793	311.5
608.001	273.5
608.21	295.5
608.418	297.5
608.626	294.5
608.834	289.5
609.043	280.5
609.251	287.5
609.459	285.5
609.667	292.5
609.875	272.5
610.083	293.5
610.291	299.5
610.499	291.5
610.707	277.5
610.916	297.5
611.124	282.5
611.332	289.5
611.54	271.5
611.748	281.5
611.955	277.5
612.163	275.5
612.371	293.5
612.579	277.5
612.787	286.5
612.995	279.5
613.203	281.5
613.411	271.5
613.618	281.5
613.826	283.5
614.034	277.5
614.242	282.5
614.449	268.5
614.657	279.5
614.865	279.5
615.072	285.5
615.28	283.5
615.488	275.5
615.695	293.5
615.903	285.5
616.111	289.5
616.318	289.5
616.526	301.5
616.733	286.5
616.941	298.5
617.148	286.5
617.356	277.5
617.563	265.5
617.771	289.5
617.978	279.5
618.185	285.5
618.393	285.5
618.6	283.5
618.807	282.5
619.015	289.5
619.222	304.5
619.429	282.5
619.637	276.5
619.844	274.5
620.051	255.5
620.258	249.5
620.466	257.5
620.673	244.5
620.88	246.5
621.087	272.5
621.294	266.5
621.501	261.5
621.708	275.5
621.915	259.5
622.122	262.5
622.329	263.5
622.536	245.5
622.743	242.5
622.95	265.5
623.157	255.5
623.364	263.5
623.571	253.5
623.778	246.5
623.985	249.5
624.192	245.5
624.399	226.5
624.606	237.5
624.812	251.5
625.019	262.5
625.226	249.5
625.433	229.5
625.639	259.5
625.846	239.5
626.053	247.5
626.259	240.5
626.466	234.5
626.673	233.5
626.879	231.5
627.086	231.5
627.293	238.5
627.499	246.5
627.706	239.5
627.912	237.5
628.119	245.5
628.325	218.5
628.532	223.5
628.738	226.5
628.945	229.5
629.151	241.5
629.357	235.5
629.564	217.5
629.77	225.5
629.976	227.5
630.183	236.5
630.389	234.5
630.595	233.5
630.802	234.5
631.008	233.5
631.214	196.5
631.42	228.5
631.627	227.5
631.833	214.5
632.039	213.5
632.245	208.5
632.451	226.5
632.657	211.5
632.863	218.5
633.069	205.5
633.275	193.5
633.481	209.5
633.688	198.5
633.893	210.5
634.099	199.5
634.305	222.5
634.511	191.5
634.717	204.5
634.923	199.5
635.129	205.5
635.335	207.5
635.541	210.5
635.747	219.5
635.952	215.5
636.158	202.5
636.364	207.5
636.57	211.5
636.775	206.5
636.981	195.5
637.187	208.5
637.392	207.5
637.598	200.5
637.804	216.5
638.009	187.5
638.215	203.5
638.421	210.5
638.626	189.5
638.832	209.5
639.037	197.5
639.243	187.5
639.448	193.5
639.654	203.5
639.859	190.5
640.065	189.5
640.27	203.5
640.475	170.5
640.681	196.5
640.886	190.5
641.091	189.5
641.297	195.5
641.502	199.5
641.707	195.5
641.913	198.5
642.118	185.5
642.323	183.5
642.528	183.5
642.733	189.5
642.939	191.5
643.144	198.5
643.349	190.5
643.554	185.5
643.759	173.5
643.964	191.5
644.169	187.5
644.374	187.5
644.579	190.5
644.784	176.5
644.989	195.5
645.194	193.5
645.399	177.5
645.604	171.5
645.809	182.5
646.014	187.5
646.219	166.5
646.423	186.5
646.628	186.5
646.833	190.5
647.038	183.5
647.243	179.5
647.447	187.5
647.652	191.5
647.857	194.5
648.062	187.5
648.266	195.5
648.471	182.5
648.676	185.5
648.88	186.5
649.085	202.5
649.289	185.5
649.494	182.5
649.698	183.5
649.903	194.5
650.107	177.5
650.312	184.5
650.516	170.5
650.721	188.5
650.925	167.5
651.13	168.5
651.334	162.5
651.539	159.5
651.743	162.5
651.947	154.5
652.152	165.5
652.356	160.5
652.56	153.5
652.764	148.5
652.969	146.5
653.173	123.5
653.377	149.5
653.581	135.5
653.785	153.5
653.99	147.5
654.194	153.5
654.398	128.5
654.602	145.5
654.806	148.5
655.01	144.5
655.214	142.5
655.418	133.5
655.622	131.5
655.826	119.5
656.03	126.5
656.234	147.5
656.438	125.5
656.642	133.5
656.846	147.5
657.049	136.5
657.253	123.5
657.457	125.5
657.661	128.5
657.865	104.5
658.068	116.5
658.272	117.5
658.476	111.5
658.68	99.5
658.883	112.5
659.087	90.5
659.291	99.5
659.494	101.5
659.698	104.5
659.901	96.5
660.105	109.5
660.309	100.5
660.512	88.5
660.716	98.5
660.919	96.5
661.123	97.5
661.326	96.5
661.53	91.5
661.733	102.5
661.936	94.5
662.14	86.5
662.343	78.5
662.546	86.5
662.75	86.5
662.953	86.5
663.156	82.5
663.36	98.5
663.563	86.5
663.766	83.5
663.969	78.5
664.173	83.5
664.376	75.5
664.579	77.5
664.782	88.5
664.985	87.5
665.188	84.5
665.391	77.5
665.594	84.5
665.797	86.5
666	73.5
666.203	71.5
666.406	90.5
666.609	74.5
666.812	85.5
667.015	80.5
667.218	94.5
667.421	88.5
667.624	72.5
667.827	74.5
668.03	79.5
668.232	83.5
668.435	66.5
668.638	80.5
668.841	88.5
669.043	74.5
669.246	73.5
669.449	84.5
669.651	88.5
669.854	73.5
670.057	93.5
670.259	85.5
670.462	76.5
670.665	71.5
670.867	71.5
671.07	87.5
671.272	87.5
671.475	98.5
671.677	81.5
671.88	82.5
672.082	81.5
672.284	74.5
672.487	82.5
672.689	83.5
672.892	75.5
