Data from NiCl2@0.0625M.TitratingCurve.Agarose3%dH2O.NegLispCup.LampEnergy10.LIBS07252019_HRD10591_18-34-49-576.txt Node
Date: Thu Jul 25 18:34:49 EDT 2019
User: cochatt
Spectrometer: HR+D1059
Trigger mode: 1
Integration Time (sec): 1.000000E-1
Scans to average: 1
Electric dark correction enabled: true
Nonlinearity correction enabled: false
Boxcar width: 0
XAxis mode: Wavelengths
Number of Pixels in Spectrum: 2048
>>>>>Begin Spectral Data<<<<<
223.165	-1.56
223.4	-1.56
223.635	-1.56
223.869	-13.56
224.104	-14.56
224.338	-26.56
224.573	-12.56
224.808	-12.56
225.042	-6.56
225.277	-12.56
225.511	-14.56
225.746	2.44
225.98	5.44
226.215	18.44
226.449	1.44
226.683	13.44
226.918	35.44
227.152	38.44
227.387	36.44
227.621	28.44
227.856	35.44
228.09	48.44
228.324	37.44
228.559	48.44
228.793	84.44
229.027	122.44
229.262	134.44
229.496	135.44
229.73	130.44
229.964	154.44
230.199	162.44
230.433	168.44
230.667	156.44
230.901	159.44
231.136	154.44
231.37	161.44
231.604	157.44
231.838	172.44
232.072	172.44
232.306	172.44
232.541	186.44
232.775	159.44
233.009	177.44
233.243	170.44
233.477	155.44
233.711	163.44
233.945	183.44
234.179	195.44
234.413	182.44
234.647	192.44
234.881	182.44
235.115	189.44
235.349	185.44
235.583	183.44
235.817	191.44
236.051	198.44
236.285	194.44
236.519	201.44
236.753	179.44
236.987	186.44
237.221	193.44
237.455	200.44
237.689	203.44
237.922	212.44
238.156	212.44
238.39	196.44
238.624	203.44
238.858	212.44
239.091	211.44
239.325	209.44
239.559	215.44
239.793	220.44
240.027	225.44
240.26	221.44
240.494	222.44
240.728	228.44
240.961	220.44
241.195	237.44
241.429	234.44
241.662	242.44
241.896	225.44
242.13	243.44
242.363	245.44
242.597	242.44
242.83	269.44
243.064	255.44
243.298	266.44
243.531	253.44
243.765	242.44
243.998	258.44
244.232	254.44
244.465	266.44
244.699	276.44
244.932	280.44
245.166	273.44
245.399	284.44
245.633	285.44
245.866	268.44
246.099	274.44
246.333	281.44
246.566	288.44
246.8	291.44
247.033	285.44
247.266	302.44
247.5	296.44
247.733	300.44
247.966	299.44
248.2	300.44
248.433	318.44
248.666	297.44
248.899	310.44
249.133	332.44
249.366	322.44
249.599	309.44
249.832	332.44
250.066	324.44
250.299	316.44
250.532	311.44
250.765	327.44
250.998	332.44
251.231	342.44
251.465	348.44
251.698	350.44
251.931	358.44
252.164	345.44
252.397	354.44
252.63	352.44
252.863	351.44
253.096	360.44
253.329	349.44
253.562	358.44
253.795	367.44
254.028	368.44
254.261	366.44
254.494	369.44
254.727	359.44
254.96	386.44
255.193	374.44
255.426	391.44
255.659	386.44
255.892	373.44
256.124	380.44
256.357	386.44
256.59	370.44
256.823	379.44
257.056	374.44
257.289	395.44
257.521	382.44
257.754	393.44
257.987	387.44
258.22	406.44
258.452	390.44
258.685	426.44
258.918	433.44
259.151	405.44
259.383	400.44
259.616	409.44
259.849	414.44
260.081	412.44
260.314	434.44
260.547	423.44
260.779	429.44
261.012	406.44
261.244	430.44
261.477	434.44
261.71	415.44
261.942	427.44
262.175	445.44
262.407	444.44
262.64	444.44
262.872	464.44
263.105	447.44
263.337	451.44
263.57	436.44
263.802	470.44
264.035	456.44
264.267	453.44
264.499	458.44
264.732	481.44
264.964	471.44
265.197	462.44
265.429	441.44
265.661	458.44
265.894	473.44
266.126	478.44
266.358	446.44
266.591	482.44
266.823	477.44
267.055	471.44
267.287	500.44
267.52	479.44
267.752	468.44
267.984	482.44
268.216	496.44
268.448	480.44
268.681	496.44
268.913	500.44
269.145	494.44
269.377	492.44
269.609	506.44
269.841	482.44
270.073	523.44
270.306	493.44
270.538	518.44
270.77	486.44
271.002	496.44
271.234	518.44
271.466	521.44
271.698	522.44
271.93	530.44
272.162	536.44
272.394	541.44
272.626	537.44
272.858	537.44
273.09	512.44
273.322	534.44
273.553	560.44
273.785	554.44
274.017	542.44
274.249	573.44
274.481	561.44
274.713	556.44
274.945	570.44
275.176	562.44
275.408	557.44
275.64	567.44
275.872	573.44
276.104	574.44
276.335	565.44
276.567	580.44
276.799	583.44
277.031	585.44
277.262	571.44
277.494	584.44
277.726	583.44
277.957	593.44
278.189	599.44
278.421	602.44
278.652	584.44
278.884	600.44
279.115	579.44
279.347	612.44
279.579	609.44
279.81	605.44
280.042	604.44
280.273	586.44
280.505	596.44
280.736	605.44
280.968	616.44
281.199	597.44
281.431	609.44
281.662	615.44
281.894	654.44
282.125	634.44
282.356	646.44
282.588	610.44
282.819	645.44
283.051	644.44
283.282	641.44
283.513	636.44
283.745	645.44
283.976	637.44
284.207	656.44
284.439	634.44
284.67	642.44
284.901	676.44
285.132	654.44
285.364	649.44
285.595	679.44
285.826	671.44
286.057	663.44
286.288	641.44
286.52	660.44
286.751	670.44
286.982	690.44
287.213	676.44
287.444	680.44
287.675	685.44
287.906	673.44
288.138	681.44
288.369	673.44
288.6	714.44
288.831	700.44
289.062	702.44
289.293	677.44
289.524	660.44
289.755	690.44
289.986	709.44
290.217	714.44
290.448	673.44
290.679	696.44
290.91	676.44
291.141	697.44
291.371	714.44
291.602	707.44
291.833	698.44
292.064	703.44
292.295	709.44
292.526	700.44
292.757	710.44
292.987	691.44
293.218	724.44
293.449	722.44
293.68	719.44
293.91	709.44
294.141	733.44
294.372	686.44
294.603	717.44
294.833	701.44
295.064	722.44
295.295	699.44
295.525	703.44
295.756	718.44
295.987	722.44
296.217	719.44
296.448	740.44
296.679	756.44
296.909	725.44
297.14	747.44
297.37	715.44
297.601	736.44
297.831	737.44
298.062	739.44
298.292	771.44
298.523	726.44
298.753	769.44
298.984	746.44
299.214	775.44
299.445	763.44
299.675	749.44
299.905	762.44
300.136	749.44
300.366	771.44
300.597	758.44
300.827	773.44
301.057	766.44
301.288	800.44
301.518	790.44
301.748	781.44
301.979	836.44
302.209	805.44
302.439	801.44
302.669	754.44
302.9	805.44
303.13	793.44
303.36	818.44
303.59	765.44
303.82	800.44
304.051	811.44
304.281	797.44
304.511	792.44
304.741	804.44
304.971	799.44
305.201	799.44
305.431	782.44
305.661	802.44
305.891	807.44
306.121	788.44
306.352	817.44
306.582	784.44
306.812	788.44
307.042	786.44
307.272	792.44
307.502	803.44
307.731	813.44
307.961	796.44
308.191	789.44
308.421	782.44
308.651	777.44
308.881	792.44
309.111	768.44
309.341	776.44
309.571	780.44
309.8	812.44
310.03	812.44
310.26	798.44
310.49	822.44
310.72	824.44
310.949	787.44
311.179	809.44
311.409	829.44
311.639	823.44
311.868	824.44
312.098	816.44
312.328	818.44
312.557	827.44
312.787	785.44
313.017	824.44
313.246	839.44
313.476	840.44
313.706	840.44
313.935	857.44
314.165	859.44
314.394	864.44
314.624	858.44
314.853	843.44
315.083	856.44
315.312	853.44
315.542	845.44
315.771	864.44
316.001	856.44
316.23	854.44
316.46	819.44
316.689	854.44
316.919	846.44
317.148	829.44
317.377	858.44
317.607	839.44
317.836	846.44
318.065	863.44
318.295	863.44
318.524	851.44
318.753	852.44
318.983	836.44
319.212	848.44
319.441	859.44
319.67	851.44
319.9	820.44
320.129	842.44
320.358	862.44
320.587	838.44
320.816	867.44
321.046	873.44
321.275	878.44
321.504	861.44
321.733	855.44
321.962	875.44
322.191	862.44
322.42	874.44
322.649	855.44
322.878	845.44
323.108	872.44
323.337	863.44
323.566	842.44
323.795	868.44
324.024	877.44
324.253	893.44
324.482	890.44
324.71	865.44
324.939	892.44
325.168	891.44
325.397	919.44
325.626	885.44
325.855	908.44
326.084	939.44
326.313	917.44
326.542	926.44
326.77	918.44
326.999	939.44
327.228	905.44
327.457	928.44
327.686	944.44
327.914	951.44
328.143	931.44
328.372	920.44
328.6	924.44
328.829	950.44
329.058	927.44
329.287	962.44
329.515	922.44
329.744	938.44
329.972	931.44
330.201	940.44
330.43	948.44
330.658	928.44
330.887	968.44
331.115	950.44
331.344	965.44
331.572	962.44
331.801	988.44
332.03	980.44
332.258	982.44
332.486	1009.44
332.715	1026.44
332.943	1085.44
333.172	1084.44
333.4	1120.44
333.629	1140.44
333.857	1159.44
334.085	1164.44
334.314	1140.44
334.542	1158.44
334.771	1144.44
334.999	1160.44
335.227	1139.44
335.455	1150.44
335.684	1152.44
335.912	1133.44
336.14	1103.44
336.369	1096.44
336.597	1093.44
336.825	1117.44
337.053	1103.44
337.281	1061.44
337.51	1078.44
337.738	1046.44
337.966	1029.44
338.194	1010.44
338.422	1028.44
338.65	1011.44
338.878	982.44
339.106	991.44
339.334	998.44
339.562	987.44
339.79	996.44
340.018	974.44
340.246	970.44
340.474	948.44
340.702	969.44
340.93	989.44
341.158	991.44
341.386	1002.44
341.614	955.44
341.842	955.44
342.07	977.44
342.298	966.44
342.526	978.44
342.754	972.44
342.981	983.44
343.209	986.44
343.437	1001.44
343.665	1081.44
343.893	1092.44
344.12	1118.44
344.348	1094.44
344.576	1074.44
344.804	1050.44
345.031	1034.44
345.259	993.44
345.487	984.44
345.714	957.44
345.942	959.44
346.17	948.44
346.397	955.44
346.625	955.44
346.853	925.44
347.08	916.44
347.308	924.44
347.535	937.44
347.763	917.44
347.99	926.44
348.218	911.44
348.445	909.44
348.673	908.44
348.9	923.44
349.128	932.44
349.355	934.44
349.583	942.44
349.81	895.44
350.037	904.44
350.265	900.44
350.492	937.44
350.72	908.44
350.947	921.44
351.174	897.44
351.402	908.44
351.629	908.44
351.856	903.44
352.083	920.44
352.311	891.44
352.538	892.44
352.765	887.44
352.992	890.44
353.22	894.44
353.447	862.44
353.674	888.44
353.901	914.44
354.128	889.44
354.355	893.44
354.583	885.44
354.81	914.44
355.037	920.44
355.264	873.44
355.491	870.44
355.718	888.44
355.945	902.44
356.172	913.44
356.399	910.44
356.626	895.44
356.853	893.44
357.08	900.44
357.307	897.44
357.534	902.44
357.761	916.44
357.988	928.44
358.215	918.44
358.441	912.44
358.668	911.44
358.895	889.44
359.122	875.44
359.349	889.44
359.576	885.44
359.802	914.44
360.029	887.44
360.256	902.44
360.483	903.44
360.709	920.44
360.936	901.44
361.163	878.44
361.39	907.44
361.616	891.44
361.843	877.44
362.07	893.44
362.296	899.44
362.523	917.44
362.749	897.44
362.976	897.44
363.203	920.44
363.429	891.44
363.656	893.44
363.882	904.44
364.109	898.44
364.335	897.44
364.562	924.44
364.788	866.44
365.015	903.44
365.241	893.44
365.468	918.44
365.694	875.44
365.92	900.44
366.147	917.44
366.373	925.44
366.599	906.44
366.826	887.44
367.052	893.44
367.278	897.44
367.505	908.44
367.731	933.44
367.957	907.44
368.184	905.44
368.41	897.44
368.636	896.44
368.862	919.44
369.089	921.44
369.315	952.44
369.541	934.44
369.767	940.44
369.993	931.44
370.219	935.44
370.445	934.44
370.672	965.44
370.898	970.44
371.124	952.44
371.35	961.44
371.576	978.44
371.802	946.44
372.028	938.44
372.254	974.44
372.48	969.44
372.706	999.44
372.932	1021.44
373.158	1000.44
373.384	983.44
373.61	971.44
373.835	1005.44
374.061	964.44
374.287	1020.44
374.513	1018.44
374.739	1012.44
374.965	1038.44
375.191	1027.44
375.416	1032.44
375.642	1028.44
375.868	1048.44
376.094	1034.44
376.319	998.44
376.545	959.44
376.771	997.44
376.997	959.44
377.222	977.44
377.448	972.44
377.674	972.44
377.899	965.44
378.125	991.44
378.35	956.44
378.576	925.44
378.802	963.44
379.027	957.44
379.253	946.44
379.478	974.44
379.704	971.44
379.929	966.44
380.155	979.44
380.38	956.44
380.606	953.44
380.831	960.44
381.057	990.44
381.282	986.44
381.507	962.44
381.733	989.44
381.958	986.44
382.184	981.44
382.409	989.44
382.634	999.44
382.86	985.44
383.085	979.44
383.31	1012.44
383.535	1033.44
383.761	1003.44
383.986	1041.44
384.211	1042.44
384.436	1061.44
384.662	1074.44
384.887	1097.44
385.112	1075.44
385.337	1080.44
385.562	1096.44
385.787	1099.44
386.013	1170.44
386.238	1130.44
386.463	1138.44
386.688	1117.44
386.913	1118.44
387.138	1108.44
387.363	1122.44
387.588	1125.44
387.813	1138.44
388.038	1164.44
388.263	1106.44
388.488	1151.44
388.713	1150.44
388.938	1140.44
389.163	1102.44
389.387	1098.44
389.612	1108.44
389.837	1131.44
390.062	1123.44
390.287	1132.44
390.512	1135.44
390.736	1150.44
390.961	1157.44
391.186	1188.44
391.411	1163.44
391.636	1184.44
391.86	1207.44
392.085	1246.44
392.31	1238.44
392.534	1218.44
392.759	1217.44
392.984	1210.44
393.208	1188.44
393.433	1175.44
393.658	1193.44
393.882	1199.44
394.107	1171.44
394.331	1209.44
394.556	1195.44
394.78	1226.44
395.005	1213.44
395.229	1185.44
395.454	1208.44
395.678	1251.44
395.903	1255.44
396.127	1251.44
396.352	1233.44
396.576	1222.44
396.801	1220.44
397.025	1228.44
397.249	1240.44
397.474	1239.44
397.698	1257.44
397.922	1270.44
398.147	1288.44
398.371	1317.44
398.595	1340.44
398.82	1386.44
399.044	1421.44
399.268	1569.44
399.492	1729.44
399.717	1819.44
399.941	1836.44
400.165	1736.44
400.389	1666.44
400.613	1577.44
400.837	1478.44
401.062	1425.44
401.286	1428.44
401.51	1406.44
401.734	1397.44
401.958	1387.44
402.182	1404.44
402.406	1376.44
402.63	1410.44
402.854	1426.44
403.078	1433.44
403.302	1455.44
403.526	1481.44
403.75	1488.44
403.974	1510.44
404.198	1524.44
404.422	1534.44
404.645	1473.44
404.869	1445.44
405.093	1501.44
405.317	1480.44
405.541	1462.44
405.765	1510.44
405.988	1488.44
406.212	1518.44
406.436	1503.44
406.66	1541.44
406.883	1541.44
407.107	1628.44
407.331	1709.44
407.555	1780.44
407.778	1744.44
408.002	1721.44
408.226	1635.44
408.449	1648.44
408.673	1617.44
408.896	1556.44
409.12	1556.44
409.344	1564.44
409.567	1540.44
409.791	1542.44
410.014	1517.44
410.238	1524.44
410.461	1515.44
410.685	1530.44
410.908	1480.44
411.132	1489.44
411.355	1417.44
411.578	1467.44
411.802	1457.44
412.025	1460.44
412.249	1506.44
412.472	1477.44
412.695	1445.44
412.919	1431.44
413.142	1412.44
413.365	1401.44
413.589	1430.44
413.812	1403.44
414.035	1434.44
414.258	1387.44
414.482	1412.44
414.705	1400.44
414.928	1376.44
415.151	1400.44
415.374	1362.44
415.597	1379.44
415.821	1357.44
416.044	1351.44
416.267	1337.44
416.49	1352.44
416.713	1325.44
416.936	1323.44
417.159	1322.44
417.382	1320.44
417.605	1332.44
417.828	1313.44
418.051	1332.44
418.274	1300.44
418.497	1344.44
418.72	1366.44
418.943	1346.44
419.166	1435.44
419.389	1522.44
419.611	1535.44
419.834	1459.44
420.057	1423.44
420.28	1380.44
420.503	1333.44
420.726	1354.44
420.948	1319.44
421.171	1322.44
421.394	1334.44
421.617	1319.44
421.839	1336.44
422.062	1357.44
422.285	1321.44
422.507	1306.44
422.73	1346.44
422.953	1321.44
423.175	1320.44
423.398	1346.44
423.621	1346.44
423.843	1353.44
424.066	1389.44
424.288	1373.44
424.511	1388.44
424.733	1356.44
424.956	1339.44
425.178	1311.44
425.401	1346.44
425.623	1343.44
425.846	1309.44
426.068	1264.44
426.291	1287.44
426.513	1304.44
426.735	1291.44
426.958	1331.44
427.18	1288.44
427.402	1256.44
427.625	1273.44
427.847	1208.44
428.069	1249.44
428.292	1276.44
428.514	1222.44
428.736	1211.44
428.958	1257.44
429.181	1211.44
429.403	1237.44
429.625	1212.44
429.847	1190.44
430.069	1195.44
430.292	1215.44
430.514	1197.44
430.736	1214.44
430.958	1233.44
431.18	1232.44
431.402	1250.44
431.624	1227.44
431.846	1236.44
432.068	1261.44
432.29	1265.44
432.512	1205.44
432.734	1261.44
432.956	1262.44
433.178	1237.44
433.4	1236.44
433.622	1275.44
433.844	1260.44
434.066	1265.44
434.287	1240.44
434.509	1290.44
434.731	1314.44
434.953	1377.44
435.175	1324.44
435.397	1357.44
435.618	1286.44
435.84	1287.44
436.062	1236.44
436.284	1238.44
436.505	1230.44
436.727	1228.44
436.949	1217.44
437.17	1232.44
437.392	1243.44
437.614	1192.44
437.835	1190.44
438.057	1177.44
438.278	1160.44
438.5	1163.44
438.721	1174.44
438.943	1187.44
439.165	1196.44
439.386	1219.44
439.608	1189.44
439.829	1163.44
440.05	1210.44
440.272	1216.44
440.493	1237.44
440.715	1225.44
440.936	1229.44
441.158	1250.44
441.379	1285.44
441.6	1330.44
441.822	1320.44
442.043	1320.44
442.264	1301.44
442.486	1295.44
442.707	1288.44
442.928	1317.44
443.149	1338.44
443.371	1319.44
443.592	1304.44
443.813	1324.44
444.034	1330.44
444.255	1350.44
444.476	1404.44
444.698	1436.44
444.919	1444.44
445.14	1547.44
445.361	1433.44
445.582	1360.44
445.803	1316.44
446.024	1301.44
446.245	1283.44
446.466	1269.44
446.687	1205.44
446.908	1210.44
447.129	1186.44
447.35	1148.44
447.571	1165.44
447.792	1130.44
448.013	1164.44
448.234	1134.44
448.455	1098.44
448.675	1131.44
448.896	1112.44
449.117	1074.44
449.338	1120.44
449.559	1061.44
449.779	1103.44
450	1109.44
450.221	1096.44
450.442	1096.44
450.662	1095.44
450.883	1112.44
451.104	1101.44
451.324	1080.44
451.545	1100.44
451.766	1083.44
451.986	1083.44
452.207	1095.44
452.428	1123.44
452.648	1074.44
452.869	1062.44
453.089	1056.44
453.31	1096.44
453.53	1064.44
453.751	1084.44
453.971	1062.44
454.192	1072.44
454.412	1067.44
454.633	1058.44
454.853	1049.44
455.073	1060.44
455.294	1044.44
455.514	1058.44
455.734	1044.44
455.955	1037.44
456.175	1029.44
456.395	1004.44
456.616	1039.44
456.836	1082.44
457.056	1027.44
457.276	1033.44
457.497	1079.44
457.717	1039.44
457.937	1036.44
458.157	1067.44
458.377	1091.44
458.598	1105.44
458.818	1111.44
459.038	1149.44
459.258	1151.44
459.478	1225.44
459.698	1229.44
459.918	1244.44
460.138	1289.44
460.358	1356.44
460.578	1332.44
460.798	1344.44
461.018	1355.44
461.238	1349.44
461.458	1368.44
461.678	1356.44
461.898	1385.44
462.118	1380.44
462.338	1450.44
462.558	1457.44
462.777	1509.44
462.997	1589.44
463.217	1640.44
463.437	1696.44
463.657	1593.44
463.876	1574.44
464.096	1584.44
464.316	1531.44
464.536	1578.44
464.755	1498.44
464.975	1461.44
465.195	1395.44
465.414	1358.44
465.634	1284.44
465.854	1275.44
466.073	1233.44
466.293	1255.44
466.512	1186.44
466.732	1163.44
466.951	1163.44
467.171	1127.44
467.391	1164.44
467.61	1190.44
467.829	1145.44
468.049	1138.44
468.268	1123.44
468.488	1150.44
468.707	1120.44
468.927	1131.44
469.146	1125.44
469.365	1122.44
469.585	1127.44
469.804	1183.44
470.023	1183.44
470.243	1146.44
470.462	1165.44
470.681	1205.44
470.901	1187.44
471.12	1206.44
471.339	1161.44
471.558	1158.44
471.777	1149.44
471.997	1163.44
472.216	1158.44
472.435	1140.44
472.654	1109.44
472.873	1129.44
473.092	1152.44
473.311	1141.44
473.53	1130.44
473.749	1140.44
473.968	1112.44
474.187	1098.44
474.406	1102.44
474.625	1143.44
474.844	1117.44
475.063	1107.44
475.282	1123.44
475.501	1134.44
475.72	1145.44
475.939	1157.44
476.158	1158.44
476.377	1176.44
476.596	1185.44
476.814	1180.44
477.033	1189.44
477.252	1204.44
477.471	1201.44
477.69	1248.44
477.908	1277.44
478.127	1288.44
478.346	1307.44
478.564	1347.44
478.783	1306.44
479.002	1342.44
479.22	1402.44
479.439	1370.44
479.658	1391.44
479.876	1410.44
480.095	1374.44
480.313	1382.44
480.532	1448.44
480.751	1448.44
480.969	1425.44
481.188	1394.44
481.406	1392.44
481.624	1370.44
481.843	1342.44
482.061	1349.44
482.28	1342.44
482.498	1372.44
482.717	1370.44
482.935	1346.44
483.153	1339.44
483.372	1350.44
483.59	1337.44
483.808	1336.44
484.027	1348.44
484.245	1372.44
484.463	1380.44
484.681	1404.44
484.9	1400.44
485.118	1425.44
485.336	1432.44
485.554	1397.44
485.772	1404.44
485.99	1444.44
486.209	1406.44
486.427	1439.44
486.645	1442.44
486.863	1401.44
487.081	1431.44
487.299	1417.44
487.517	1410.44
487.735	1404.44
487.953	1419.44
488.171	1432.44
488.389	1406.44
488.607	1385.44
488.825	1388.44
489.043	1408.44
489.261	1394.44
489.479	1375.44
489.696	1397.44
489.914	1382.44
490.132	1397.44
490.35	1430.44
490.568	1400.44
490.786	1379.44
491.003	1376.44
491.221	1394.44
491.439	1363.44
491.657	1347.44
491.874	1370.44
492.092	1404.44
492.31	1398.44
492.527	1413.44
492.745	1461.44
492.963	1412.44
493.18	1390.44
493.398	1394.44
493.615	1400.44
493.833	1419.44
494.05	1402.44
494.268	1429.44
494.485	1405.44
494.703	1421.44
494.92	1443.44
495.138	1415.44
495.355	1426.44
495.573	1424.44
495.79	1407.44
496.008	1437.44
496.225	1450.44
496.442	1467.44
496.66	1447.44
496.877	1480.44
497.094	1523.44
497.312	1530.44
497.529	1580.44
497.746	1625.44
497.963	1635.44
498.181	1677.44
498.398	1788.44
498.615	1823.44
498.832	1886.44
499.049	2078.44
499.267	2154.44
499.484	2313.44
499.701	2477.44
499.918	2656.44
500.135	2920.44
500.352	3132.44
500.569	3211.44
500.786	3237.44
501.003	3123.44
501.22	2852.44
501.437	2659.44
501.654	2422.44
501.871	2292.44
502.088	2189.44
502.305	2007.44
502.522	1948.44
502.739	1836.44
502.956	1795.44
503.172	1706.44
503.389	1724.44
503.606	1641.44
503.823	1596.44
504.04	1577.44
504.256	1582.44
504.473	1548.44
504.69	1568.44
504.907	1512.44
505.123	1473.44
505.34	1434.44
505.557	1398.44
505.773	1351.44
505.99	1320.44
506.207	1309.44
506.423	1285.44
506.64	1291.44
506.856	1216.44
507.073	1260.44
507.289	1210.44
507.506	1242.44
507.722	1233.44
507.939	1216.44
508.155	1218.44
508.372	1165.44
508.588	1159.44
508.805	1158.44
509.021	1153.44
509.238	1162.44
509.454	1129.44
509.67	1149.44
509.887	1089.44
510.103	1132.44
510.319	1102.44
510.536	1132.44
510.752	1098.44
510.968	1102.44
511.184	1114.44
511.401	1100.44
511.617	1120.44
511.833	1110.44
512.049	1131.44
512.265	1117.44
512.481	1113.44
512.698	1103.44
512.914	1122.44
513.13	1133.44
513.346	1102.44
513.562	1112.44
513.778	1103.44
513.994	1137.44
514.21	1086.44
514.426	1088.44
514.642	1136.44
514.858	1130.44
515.074	1110.44
515.29	1131.44
515.506	1143.44
515.721	1136.44
515.937	1195.44
516.153	1182.44
516.369	1225.44
516.585	1240.44
516.801	1265.44
517.016	1302.44
517.232	1372.44
517.448	1380.44
517.664	1407.44
517.879	1412.44
518.095	1409.44
518.311	1390.44
518.527	1344.44
518.742	1315.44
518.958	1251.44
519.173	1292.44
519.389	1240.44
519.605	1186.44
519.82	1175.44
520.036	1149.44
520.251	1154.44
520.467	1108.44
520.682	1072.44
520.898	1117.44
521.113	1067.44
521.329	1076.44
521.544	1093.44
521.76	1069.44
521.975	1042.44
522.19	1060.44
522.406	1066.44
522.621	1052.44
522.836	1016.44
523.052	1053.44
523.267	1032.44
523.482	1016.44
523.698	996.44
523.913	1024.44
524.128	1006.44
524.343	1011.44
524.559	1033.44
524.774	1008.44
524.989	988.44
525.204	1009.44
525.419	979.44
525.634	970.44
525.849	986.44
526.064	1003.44
526.28	985.44
526.495	958.44
526.71	974.44
526.925	958.44
527.14	978.44
527.355	981.44
527.57	970.44
527.785	997.44
527.999	997.44
528.214	963.44
528.429	973.44
528.644	997.44
528.859	973.44
529.074	986.44
529.289	963.44
529.503	972.44
529.718	940.44
529.933	971.44
530.148	914.44
530.363	973.44
530.577	966.44
530.792	954.44
531.007	968.44
531.221	982.44
531.436	975.44
531.651	962.44
531.865	977.44
532.08	986.44
532.295	947.44
532.509	949.44
532.724	956.44
532.938	944.44
533.153	947.44
533.367	978.44
533.582	949.44
533.796	955.44
534.011	966.44
534.225	929.44
534.44	910.44
534.654	921.44
534.868	920.44
535.083	928.44
535.297	949.44
535.511	940.44
535.726	919.44
535.94	908.44
536.154	905.44
536.369	927.44
536.583	908.44
536.797	900.44
537.011	888.44
537.225	881.44
537.44	889.44
537.654	892.44
537.868	903.44
538.082	883.44
538.296	906.44
538.51	885.44
538.724	890.44
538.938	864.44
539.153	842.44
539.367	889.44
539.581	864.44
539.795	863.44
540.009	872.44
540.222	882.44
540.436	880.44
540.65	857.44
540.864	855.44
541.078	889.44
541.292	865.44
541.506	881.44
541.72	857.44
541.934	886.44
542.147	868.44
542.361	825.44
542.575	827.44
542.789	888.44
543.002	847.44
543.216	865.44
543.43	844.44
543.644	862.44
543.857	856.44
544.071	838.44
544.285	832.44
544.498	842.44
544.712	845.44
544.925	852.44
545.139	856.44
545.352	890.44
545.566	872.44
545.779	846.44
545.993	847.44
546.206	893.44
546.42	873.44
546.633	830.44
546.847	857.44
547.06	864.44
547.274	857.44
547.487	858.44
547.7	853.44
547.914	882.44
548.127	875.44
548.34	885.44
548.554	867.44
548.767	865.44
548.98	845.44
549.193	847.44
549.407	853.44
549.62	878.44
549.833	887.44
550.046	861.44
550.259	887.44
550.473	847.44
550.686	860.44
550.899	840.44
551.112	841.44
551.325	859.44
551.538	853.44
551.751	846.44
551.964	857.44
552.177	867.44
552.39	876.44
552.603	877.44
552.816	902.44
553.029	910.44
553.242	917.44
553.455	924.44
553.667	901.44
553.88	888.44
554.093	876.44
554.306	867.44
554.519	875.44
554.732	852.44
554.944	857.44
555.157	839.44
555.37	798.44
555.583	817.44
555.795	797.44
556.008	771.44
556.221	742.44
556.433	738.44
556.646	758.44
556.859	756.44
557.071	780.44
557.284	753.44
557.496	744.44
557.709	779.44
557.921	750.44
558.134	739.44
558.346	770.44
558.559	731.44
558.771	735.44
558.984	723.44
559.196	713.44
559.409	722.44
559.621	724.44
559.833	733.44
560.046	725.44
560.258	714.44
560.47	716.44
560.683	713.44
560.895	712.44
561.107	703.44
561.32	704.44
561.532	723.44
561.744	711.44
561.956	723.44
562.168	718.44
562.381	752.44
562.593	743.44
562.805	727.44
563.017	722.44
563.229	730.44
563.441	756.44
563.653	717.44
563.865	759.44
564.077	767.44
564.289	757.44
564.501	767.44
564.713	765.44
564.925	782.44
565.137	776.44
565.349	802.44
565.561	826.44
565.773	834.44
565.985	884.44
566.197	896.44
566.408	916.44
566.62	989.44
566.832	1028.44
567.044	1054.44
567.255	1079.44
567.467	1078.44
567.679	1112.44
567.891	1111.44
568.102	1129.44
568.314	1109.44
568.526	1024.44
568.737	963.44
568.949	923.44
569.161	881.44
569.372	845.44
569.584	797.44
569.795	783.44
570.007	746.44
570.218	733.44
570.43	733.44
570.641	695.44
570.853	701.44
571.064	738.44
571.276	720.44
571.487	693.44
571.698	669.44
571.91	665.44
572.121	659.44
572.333	678.44
572.544	632.44
572.755	634.44
572.966	621.44
573.178	619.44
573.389	610.44
573.6	596.44
573.811	597.44
574.023	591.44
574.234	596.44
574.445	599.44
574.656	612.44
574.867	594.44
575.078	586.44
575.289	600.44
575.501	594.44
575.712	577.44
575.923	580.44
576.134	553.44
576.345	570.44
576.556	562.44
576.767	548.44
576.978	546.44
577.188	549.44
577.399	555.44
577.61	546.44
577.821	530.44
578.032	525.44
578.243	530.44
578.454	525.44
578.665	513.44
578.875	547.44
579.086	524.44
579.297	527.44
579.508	534.44
579.718	532.44
579.929	533.44
580.14	508.44
580.35	513.44
580.561	497.44
580.772	517.44
580.982	520.44
581.193	482.44
581.403	502.44
581.614	522.44
581.825	494.44
582.035	516.44
582.246	517.44
582.456	498.44
582.667	509.44
582.877	490.44
583.087	482.44
583.298	505.44
583.508	509.44
583.719	493.44
583.929	488.44
584.139	483.44
584.35	467.44
584.56	494.44
584.77	489.44
584.981	474.44
585.191	488.44
585.401	466.44
585.611	493.44
585.821	461.44
586.032	475.44
586.242	477.44
586.452	448.44
586.662	476.44
586.872	469.44
587.082	455.44
587.292	469.44
587.502	478.44
587.713	493.44
587.923	464.44
588.133	465.44
588.343	462.44
588.553	469.44
588.762	466.44
588.972	471.44
589.182	475.44
589.392	474.44
589.602	488.44
589.812	460.44
590.022	462.44
590.232	479.44
590.441	463.44
590.651	477.44
590.861	455.44
591.071	478.44
591.281	471.44
591.49	490.44
591.7	501.44
591.91	502.44
592.119	478.44
592.329	493.44
592.539	513.44
592.748	508.44
592.958	536.44
593.167	546.44
593.377	557.44
593.587	571.44
593.796	564.44
594.006	536.44
594.215	535.44
594.424	542.44
594.634	540.44
594.843	537.44
595.053	508.44
595.262	503.44
595.472	500.44
595.681	485.44
595.89	471.44
596.1	456.44
596.309	461.44
596.518	457.44
596.727	452.44
596.937	452.44
597.146	431.44
597.355	439.44
597.564	421.44
597.774	425.44
597.983	410.44
598.192	404.44
598.401	428.44
598.61	424.44
598.819	427.44
599.028	411.44
599.237	394.44
599.446	392.44
599.655	410.44
599.864	400.44
600.073	387.44
600.282	399.44
600.491	392.44
600.7	381.44
600.909	397.44
601.118	377.44
601.327	395.44
601.536	381.44
601.745	364.44
601.953	365.44
602.162	376.44
602.371	364.44
602.58	383.44
602.789	372.44
602.997	381.44
603.206	373.44
603.415	368.44
603.623	387.44
603.832	362.44
604.041	343.44
604.249	378.44
604.458	380.44
604.666	378.44
604.875	378.44
605.084	371.44
605.292	370.44
605.501	378.44
605.709	354.44
605.918	338.44
606.126	357.44
606.334	362.44
606.543	349.44
606.751	361.44
606.96	365.44
607.168	352.44
607.376	353.44
607.585	344.44
607.793	348.44
608.001	340.44
608.21	345.44
608.418	346.44
608.626	355.44
608.834	356.44
609.043	357.44
609.251	331.44
609.459	372.44
609.667	352.44
609.875	349.44
610.083	349.44
610.291	354.44
610.499	350.44
610.707	334.44
610.916	352.44
611.124	356.44
611.332	350.44
611.54	348.44
611.748	343.44
611.955	341.44
612.163	332.44
612.371	349.44
612.579	330.44
612.787	326.44
612.995	330.44
613.203	336.44
613.411	336.44
613.618	344.44
613.826	338.44
614.034	329.44
614.242	334.44
614.449	345.44
614.657	325.44
614.865	333.44
615.072	333.44
615.28	350.44
615.488	332.44
615.695	337.44
615.903	332.44
616.111	338.44
616.318	328.44
616.526	330.44
616.733	329.44
616.941	326.44
617.148	325.44
617.356	325.44
617.563	341.44
617.771	346.44
617.978	333.44
618.185	349.44
618.393	332.44
618.6	328.44
618.807	322.44
619.015	333.44
619.222	328.44
619.429	337.44
619.637	295.44
619.844	335.44
620.051	297.44
620.258	312.44
620.466	312.44
620.673	318.44
620.88	310.44
621.087	317.44
621.294	321.44
621.501	323.44
621.708	307.44
621.915	326.44
622.122	303.44
622.329	310.44
622.536	312.44
622.743	288.44
622.95	309.44
623.157	294.44
623.364	298.44
623.571	308.44
623.778	296.44
623.985	304.44
624.192	286.44
624.399	285.44
624.606	287.44
624.812	289.44
625.019	305.44
625.226	300.44
625.433	278.44
625.639	286.44
625.846	298.44
626.053	292.44
626.259	280.44
626.466	296.44
626.673	290.44
626.879	275.44
627.086	284.44
627.293	289.44
627.499	285.44
627.706	284.44
627.912	294.44
628.119	282.44
628.325	269.44
628.532	288.44
628.738	282.44
628.945	281.44
629.151	293.44
629.357	268.44
629.564	266.44
629.77	277.44
629.976	289.44
630.183	281.44
630.389	269.44
630.595	279.44
630.802	291.44
631.008	258.44
631.214	270.44
631.42	267.44
631.627	269.44
631.833	257.44
632.039	266.44
632.245	262.44
632.451	274.44
632.657	275.44
632.863	270.44
633.069	258.44
633.275	266.44
633.481	259.44
633.688	275.44
633.893	268.44
634.099	245.44
634.305	260.44
634.511	260.44
634.717	254.44
634.923	246.44
635.129	245.44
635.335	239.44
635.541	227.44
635.747	264.44
635.952	237.44
636.158	256.44
636.364	245.44
636.57	258.44
636.775	243.44
636.981	256.44
637.187	237.44
637.392	226.44
637.598	248.44
637.804	240.44
638.009	254.44
638.215	243.44
638.421	252.44
638.626	257.44
638.832	265.44
639.037	238.44
639.243	245.44
639.448	223.44
639.654	244.44
639.859	231.44
640.065	235.44
640.27	237.44
640.475	236.44
640.681	223.44
640.886	246.44
641.091	226.44
641.297	240.44
641.502	233.44
641.707	230.44
641.913	218.44
642.118	228.44
642.323	248.44
642.528	234.44
642.733	229.44
642.939	232.44
643.144	218.44
643.349	237.44
643.554	218.44
643.759	233.44
643.964	241.44
644.169	258.44
644.374	253.44
644.579	229.44
644.784	222.44
644.989	226.44
645.194	240.44
645.399	246.44
645.604	245.44
645.809	226.44
646.014	239.44
646.219	231.44
646.423	229.44
646.628	230.44
646.833	237.44
647.038	229.44
647.243	232.44
647.447	228.44
647.652	228.44
647.857	249.44
648.062	248.44
648.266	231.44
648.471	237.44
648.676	249.44
648.88	242.44
649.085	255.44
649.289	268.44
649.494	232.44
649.698	237.44
649.903	226.44
650.107	236.44
650.312	258.44
650.516	230.44
650.721	246.44
650.925	224.44
651.13	230.44
651.334	235.44
651.539	242.44
651.743	243.44
651.947	235.44
652.152	219.44
652.356	221.44
652.56	218.44
652.764	227.44
652.969	232.44
653.173	209.44
653.377	227.44
653.581	225.44
653.785	224.44
653.99	227.44
654.194	232.44
654.398	227.44
654.602	226.44
654.806	225.44
655.01	235.44
655.214	236.44
655.418	241.44
655.622	236.44
655.826	227.44
656.03	256.44
656.234	259.44
656.438	289.44
656.642	309.44
656.846	261.44
657.049	231.44
657.253	235.44
657.457	204.44
657.661	189.44
657.865	187.44
658.068	170.44
658.272	177.44
658.476	158.44
658.68	158.44
658.883	134.44
659.087	129.44
659.291	135.44
659.494	123.44
659.698	132.44
659.901	120.44
660.105	124.44
660.309	118.44
660.512	110.44
660.716	124.44
660.919	102.44
661.123	97.44
661.326	98.44
661.53	105.44
661.733	104.44
661.936	118.44
662.14	85.44
662.343	96.44
662.546	94.44
662.75	105.44
662.953	81.44
663.156	81.44
663.36	91.44
663.563	101.44
663.766	81.44
663.969	89.44
664.173	80.44
664.376	86.44
664.579	81.44
664.782	78.44
664.985	77.44
665.188	92.44
665.391	82.44
665.594	85.44
665.797	77.44
666	78.44
666.203	80.44
666.406	81.44
666.609	83.44
666.812	86.44
667.015	89.44
667.218	89.44
667.421	94.44
667.624	98.44
667.827	87.44
668.03	80.44
668.232	76.44
668.435	79.44
668.638	78.44
668.841	83.44
669.043	82.44
669.246	83.44
669.449	82.44
669.651	73.44
669.854	78.44
670.057	86.44
670.259	97.44
670.462	96.44
670.665	85.44
670.867	87.44
671.07	79.44
671.272	93.44
671.475	101.44
671.677	79.44
671.88	77.44
672.082	74.44
672.284	77.44
672.487	85.44
672.689	87.44
672.892	92.44
