Data from NiCl2@0.0625M.TitratingCurve.Agarose3%dH2O.NegLispCup.LampEnergy10.LIBS07252019_HRD10591_18-35-20-577.txt Node
Date: Thu Jul 25 18:35:20 EDT 2019
User: cochatt
Spectrometer: HR+D1059
Trigger mode: 1
Integration Time (sec): 1.000000E-1
Scans to average: 1
Electric dark correction enabled: true
Nonlinearity correction enabled: false
Boxcar width: 0
XAxis mode: Wavelengths
Number of Pixels in Spectrum: 2048
>>>>>Begin Spectral Data<<<<<
223.165	-8.88
223.4	-8.88
223.635	-8.88
223.869	-18.88
224.104	-15.88
224.338	-12.88
224.573	-22.88
224.808	-1.88
225.042	0.12
225.277	-11.88
225.511	-3.88
225.746	0.12
225.98	-0.88
226.215	7.12
226.449	26.12
226.683	22.12
226.918	8.12
227.152	34.12
227.387	38.12
227.621	46.12
227.856	45.12
228.09	50.12
228.324	45.12
228.559	54.12
228.793	84.12
229.027	145.12
229.262	143.12
229.496	157.12
229.73	159.12
229.964	177.12
230.199	172.12
230.433	179.12
230.667	176.12
230.901	174.12
231.136	189.12
231.37	185.12
231.604	185.12
231.838	195.12
232.072	193.12
232.306	210.12
232.541	196.12
232.775	186.12
233.009	194.12
233.243	196.12
233.477	213.12
233.711	203.12
233.945	212.12
234.179	193.12
234.413	210.12
234.647	213.12
234.881	206.12
235.115	211.12
235.349	216.12
235.583	220.12
235.817	212.12
236.051	208.12
236.285	219.12
236.519	220.12
236.753	228.12
236.987	231.12
237.221	221.12
237.455	237.12
237.689	253.12
237.922	244.12
238.156	222.12
238.39	215.12
238.624	228.12
238.858	250.12
239.091	216.12
239.325	254.12
239.559	261.12
239.793	264.12
240.027	255.12
240.26	263.12
240.494	264.12
240.728	258.12
240.961	266.12
241.195	282.12
241.429	291.12
241.662	278.12
241.896	271.12
242.13	294.12
242.363	271.12
242.597	282.12
242.83	306.12
243.064	306.12
243.298	315.12
243.531	306.12
243.765	291.12
243.998	311.12
244.232	324.12
244.465	316.12
244.699	317.12
244.932	333.12
245.166	341.12
245.399	334.12
245.633	319.12
245.866	319.12
246.099	327.12
246.333	364.12
246.566	339.12
246.8	346.12
247.033	342.12
247.266	355.12
247.5	332.12
247.733	352.12
247.966	339.12
248.2	349.12
248.433	362.12
248.666	355.12
248.899	365.12
249.133	362.12
249.366	370.12
249.599	392.12
249.832	378.12
250.066	381.12
250.299	384.12
250.532	383.12
250.765	384.12
250.998	397.12
251.231	412.12
251.465	402.12
251.698	422.12
251.931	384.12
252.164	415.12
252.397	413.12
252.63	421.12
252.863	424.12
253.096	436.12
253.329	420.12
253.562	417.12
253.795	431.12
254.028	438.12
254.261	442.12
254.494	454.12
254.727	423.12
254.96	431.12
255.193	428.12
255.426	447.12
255.659	430.12
255.892	456.12
256.124	464.12
256.357	450.12
256.59	446.12
256.823	470.12
257.056	467.12
257.289	469.12
257.521	475.12
257.754	480.12
257.987	480.12
258.22	501.12
258.452	503.12
258.685	451.12
258.918	507.12
259.151	483.12
259.383	472.12
259.616	498.12
259.849	507.12
260.081	493.12
260.314	507.12
260.547	518.12
260.779	513.12
261.012	519.12
261.244	508.12
261.477	514.12
261.71	522.12
261.942	523.12
262.175	522.12
262.407	521.12
262.64	526.12
262.872	563.12
263.105	536.12
263.337	499.12
263.57	544.12
263.802	541.12
264.035	544.12
264.267	540.12
264.499	559.12
264.732	553.12
264.964	557.12
265.197	560.12
265.429	560.12
265.661	563.12
265.894	554.12
266.126	569.12
266.358	582.12
266.591	570.12
266.823	582.12
267.055	565.12
267.287	588.12
267.52	573.12
267.752	581.12
267.984	584.12
268.216	593.12
268.448	608.12
268.681	605.12
268.913	601.12
269.145	602.12
269.377	591.12
269.609	606.12
269.841	611.12
270.073	628.12
270.306	617.12
270.538	607.12
270.77	616.12
271.002	632.12
271.234	628.12
271.466	639.12
271.698	620.12
271.93	617.12
272.162	631.12
272.394	652.12
272.626	641.12
272.858	637.12
273.09	635.12
273.322	645.12
273.553	662.12
273.785	670.12
274.017	644.12
274.249	662.12
274.481	687.12
274.713	662.12
274.945	667.12
275.176	689.12
275.408	676.12
275.64	671.12
275.872	706.12
276.104	678.12
276.335	676.12
276.567	692.12
276.799	687.12
277.031	710.12
277.262	713.12
277.494	710.12
277.726	717.12
277.957	716.12
278.189	701.12
278.421	734.12
278.652	713.12
278.884	719.12
279.115	737.12
279.347	718.12
279.579	736.12
279.81	735.12
280.042	736.12
280.273	734.12
280.505	742.12
280.736	752.12
280.968	769.12
281.199	774.12
281.431	759.12
281.662	736.12
281.894	770.12
282.125	773.12
282.356	776.12
282.588	780.12
282.819	750.12
283.051	776.12
283.282	770.12
283.513	764.12
283.745	782.12
283.976	784.12
284.207	781.12
284.439	790.12
284.67	781.12
284.901	795.12
285.132	804.12
285.364	809.12
285.595	783.12
285.826	802.12
286.057	811.12
286.288	809.12
286.52	822.12
286.751	816.12
286.982	825.12
287.213	840.12
287.444	815.12
287.675	840.12
287.906	822.12
288.138	843.12
288.369	859.12
288.6	842.12
288.831	860.12
289.062	854.12
289.293	845.12
289.524	826.12
289.755	862.12
289.986	854.12
290.217	858.12
290.448	874.12
290.679	839.12
290.91	866.12
291.141	863.12
291.371	872.12
291.602	874.12
291.833	875.12
292.064	875.12
292.295	845.12
292.526	891.12
292.757	890.12
292.987	857.12
293.218	874.12
293.449	874.12
293.68	893.12
293.91	860.12
294.141	860.12
294.372	869.12
294.603	884.12
294.833	871.12
295.064	852.12
295.295	863.12
295.525	875.12
295.756	884.12
295.987	896.12
296.217	883.12
296.448	927.12
296.679	913.12
296.909	895.12
297.14	925.12
297.37	918.12
297.601	937.12
297.831	922.12
298.062	934.12
298.292	952.12
298.523	958.12
298.753	978.12
298.984	950.12
299.214	911.12
299.445	946.12
299.675	962.12
299.905	954.12
300.136	964.12
300.366	934.12
300.597	948.12
300.827	985.12
301.057	974.12
301.288	989.12
301.518	979.12
301.748	987.12
301.979	992.12
302.209	985.12
302.439	996.12
302.669	978.12
302.9	980.12
303.13	985.12
303.36	966.12
303.59	982.12
303.82	1005.12
304.051	986.12
304.281	972.12
304.511	994.12
304.741	970.12
304.971	968.12
305.201	992.12
305.431	968.12
305.661	959.12
305.891	947.12
306.121	971.12
306.352	972.12
306.582	984.12
306.812	974.12
307.042	970.12
307.272	998.12
307.502	954.12
307.731	988.12
307.961	992.12
308.191	982.12
308.421	989.12
308.651	964.12
308.881	1007.12
309.111	994.12
309.341	1018.12
309.571	987.12
309.8	985.12
310.03	1011.12
310.26	986.12
310.49	1012.12
310.72	983.12
310.949	972.12
311.179	989.12
311.409	978.12
311.639	1000.12
311.868	1006.12
312.098	981.12
312.328	1036.12
312.557	1041.12
312.787	1018.12
313.017	1011.12
313.246	1022.12
313.476	1012.12
313.706	1036.12
313.935	1046.12
314.165	1035.12
314.394	1056.12
314.624	1054.12
314.853	1039.12
315.083	1050.12
315.312	1080.12
315.542	1080.12
315.771	1044.12
316.001	1054.12
316.23	1035.12
316.46	1010.12
316.689	1013.12
316.919	1055.12
317.148	1059.12
317.377	1047.12
317.607	1064.12
317.836	1033.12
318.065	1030.12
318.295	1013.12
318.524	1043.12
318.753	1066.12
318.983	1055.12
319.212	1016.12
319.441	1040.12
319.67	1030.12
319.9	1047.12
320.129	1046.12
320.358	1034.12
320.587	1046.12
320.816	1032.12
321.046	1055.12
321.275	1040.12
321.504	1033.12
321.733	1080.12
321.962	1086.12
322.191	1044.12
322.42	1044.12
322.649	1076.12
322.878	1063.12
323.108	1020.12
323.337	1071.12
323.566	1082.12
323.795	1078.12
324.024	1087.12
324.253	1082.12
324.482	1050.12
324.71	1070.12
324.939	1107.12
325.168	1106.12
325.397	1072.12
325.626	1105.12
325.855	1124.12
326.084	1133.12
326.313	1148.12
326.542	1138.12
326.77	1167.12
326.999	1097.12
327.228	1150.12
327.457	1107.12
327.686	1138.12
327.914	1138.12
328.143	1150.12
328.372	1144.12
328.6	1135.12
328.829	1095.12
329.058	1143.12
329.287	1168.12
329.515	1147.12
329.744	1182.12
329.972	1150.12
330.201	1159.12
330.43	1154.12
330.658	1183.12
330.887	1188.12
331.115	1216.12
331.344	1207.12
331.572	1181.12
331.801	1223.12
332.03	1245.12
332.258	1296.12
332.486	1272.12
332.715	1295.12
332.943	1310.12
333.172	1400.12
333.4	1420.12
333.629	1467.12
333.857	1502.12
334.085	1482.12
334.314	1423.12
334.542	1471.12
334.771	1475.12
334.999	1426.12
335.227	1428.12
335.455	1430.12
335.684	1397.12
335.912	1399.12
336.14	1411.12
336.369	1380.12
336.597	1350.12
336.825	1375.12
337.053	1374.12
337.281	1345.12
337.51	1330.12
337.738	1303.12
337.966	1314.12
338.194	1247.12
338.422	1279.12
338.65	1256.12
338.878	1245.12
339.106	1262.12
339.334	1258.12
339.562	1233.12
339.79	1222.12
340.018	1195.12
340.246	1177.12
340.474	1191.12
340.702	1214.12
340.93	1226.12
341.158	1212.12
341.386	1207.12
341.614	1217.12
341.842	1212.12
342.07	1202.12
342.298	1189.12
342.526	1161.12
342.754	1202.12
342.981	1203.12
343.209	1213.12
343.437	1246.12
343.665	1330.12
343.893	1371.12
344.12	1429.12
344.348	1407.12
344.576	1354.12
344.804	1324.12
345.031	1257.12
345.259	1256.12
345.487	1199.12
345.714	1196.12
345.942	1178.12
346.17	1203.12
346.397	1174.12
346.625	1162.12
346.853	1128.12
347.08	1149.12
347.308	1148.12
347.535	1144.12
347.763	1141.12
347.99	1130.12
348.218	1144.12
348.445	1118.12
348.673	1123.12
348.9	1140.12
349.128	1142.12
349.355	1128.12
349.583	1188.12
349.81	1125.12
350.037	1105.12
350.265	1109.12
350.492	1106.12
350.72	1124.12
350.947	1090.12
351.174	1120.12
351.402	1100.12
351.629	1103.12
351.856	1107.12
352.083	1134.12
352.311	1115.12
352.538	1121.12
352.765	1102.12
352.992	1081.12
353.22	1098.12
353.447	1084.12
353.674	1098.12
353.901	1060.12
354.128	1092.12
354.355	1086.12
354.583	1088.12
354.81	1073.12
355.037	1096.12
355.264	1112.12
355.491	1103.12
355.718	1094.12
355.945	1124.12
356.172	1104.12
356.399	1111.12
356.626	1114.12
356.853	1104.12
357.08	1130.12
357.307	1108.12
357.534	1064.12
357.761	1100.12
357.988	1130.12
358.215	1125.12
358.441	1093.12
358.668	1108.12
358.895	1094.12
359.122	1088.12
359.349	1103.12
359.576	1112.12
359.802	1101.12
360.029	1111.12
360.256	1090.12
360.483	1120.12
360.709	1070.12
360.936	1131.12
361.163	1102.12
361.39	1111.12
361.616	1136.12
361.843	1113.12
362.07	1115.12
362.296	1105.12
362.523	1099.12
362.749	1122.12
362.976	1131.12
363.203	1115.12
363.429	1085.12
363.656	1102.12
363.882	1113.12
364.109	1098.12
364.335	1103.12
364.562	1076.12
364.788	1119.12
365.015	1100.12
365.241	1097.12
365.468	1138.12
365.694	1080.12
365.92	1071.12
366.147	1100.12
366.373	1092.12
366.599	1120.12
366.826	1066.12
367.052	1105.12
367.278	1124.12
367.505	1111.12
367.731	1154.12
367.957	1114.12
368.184	1135.12
368.41	1141.12
368.636	1114.12
368.862	1145.12
369.089	1158.12
369.315	1146.12
369.541	1139.12
369.767	1144.12
369.993	1159.12
370.219	1142.12
370.445	1160.12
370.672	1191.12
370.898	1184.12
371.124	1205.12
371.35	1218.12
371.576	1194.12
371.802	1200.12
372.028	1177.12
372.254	1192.12
372.48	1214.12
372.706	1224.12
372.932	1222.12
373.158	1213.12
373.384	1242.12
373.61	1226.12
373.835	1239.12
374.061	1232.12
374.287	1245.12
374.513	1222.12
374.739	1262.12
374.965	1302.12
375.191	1338.12
375.416	1298.12
375.642	1293.12
375.868	1231.12
376.094	1226.12
376.319	1182.12
376.545	1233.12
376.771	1220.12
376.997	1243.12
377.222	1208.12
377.448	1230.12
377.674	1236.12
377.899	1183.12
378.125	1161.12
378.35	1178.12
378.576	1208.12
378.802	1206.12
379.027	1197.12
379.253	1212.12
379.478	1158.12
379.704	1192.12
379.929	1187.12
380.155	1190.12
380.38	1190.12
380.606	1189.12
380.831	1200.12
381.057	1195.12
381.282	1179.12
381.507	1216.12
381.733	1266.12
381.958	1245.12
382.184	1166.12
382.409	1248.12
382.634	1219.12
382.86	1282.12
383.085	1263.12
383.31	1308.12
383.535	1278.12
383.761	1292.12
383.986	1301.12
384.211	1326.12
384.436	1356.12
384.662	1371.12
384.887	1405.12
385.112	1394.12
385.337	1450.12
385.562	1408.12
385.787	1431.12
386.013	1454.12
386.238	1423.12
386.463	1435.12
386.688	1436.12
386.913	1428.12
387.138	1419.12
387.363	1427.12
387.588	1404.12
387.813	1435.12
388.038	1455.12
388.263	1424.12
388.488	1437.12
388.713	1453.12
388.938	1416.12
389.163	1439.12
389.387	1395.12
389.612	1396.12
389.837	1444.12
390.062	1439.12
390.287	1443.12
390.512	1420.12
390.736	1458.12
390.961	1448.12
391.186	1471.12
391.411	1519.12
391.636	1546.12
391.86	1591.12
392.085	1581.12
392.31	1584.12
392.534	1551.12
392.759	1567.12
392.984	1524.12
393.208	1493.12
393.433	1532.12
393.658	1500.12
393.882	1467.12
394.107	1532.12
394.331	1514.12
394.556	1532.12
394.78	1512.12
395.005	1568.12
395.229	1576.12
395.454	1566.12
395.678	1595.12
395.903	1615.12
396.127	1587.12
396.352	1552.12
396.576	1566.12
396.801	1582.12
397.025	1536.12
397.249	1592.12
397.474	1599.12
397.698	1625.12
397.922	1667.12
398.147	1613.12
398.371	1691.12
398.595	1710.12
398.82	1767.12
399.044	1864.12
399.268	1975.12
399.492	2268.12
399.717	2454.12
399.941	2468.12
400.165	2341.12
400.389	2139.12
400.613	2021.12
400.837	1895.12
401.062	1893.12
401.286	1811.12
401.51	1823.12
401.734	1799.12
401.958	1840.12
402.182	1783.12
402.406	1804.12
402.63	1830.12
402.854	1876.12
403.078	1850.12
403.302	1906.12
403.526	1900.12
403.75	1900.12
403.974	1975.12
404.198	1913.12
404.422	1952.12
404.645	1958.12
404.869	1926.12
405.093	1942.12
405.317	1934.12
405.541	1932.12
405.765	1965.12
405.988	1917.12
406.212	1924.12
406.436	1975.12
406.66	2009.12
406.883	2038.12
407.107	2139.12
407.331	2188.12
407.555	2272.12
407.778	2238.12
408.002	2204.12
408.226	2192.12
408.449	2157.12
408.673	2080.12
408.896	2017.12
409.12	2006.12
409.344	1998.12
409.567	2008.12
409.791	2026.12
410.014	1964.12
410.238	1941.12
410.461	1964.12
410.685	1966.12
410.908	1944.12
411.132	1892.12
411.355	1890.12
411.578	1857.12
411.802	1865.12
412.025	1893.12
412.249	1892.12
412.472	1875.12
412.695	1826.12
412.919	1822.12
413.142	1820.12
413.365	1774.12
413.589	1843.12
413.812	1778.12
414.035	1750.12
414.258	1797.12
414.482	1770.12
414.705	1784.12
414.928	1812.12
415.151	1817.12
415.374	1787.12
415.597	1763.12
415.821	1718.12
416.044	1766.12
416.267	1705.12
416.49	1722.12
416.713	1722.12
416.936	1724.12
417.159	1736.12
417.382	1719.12
417.605	1732.12
417.828	1755.12
418.051	1734.12
418.274	1728.12
418.497	1708.12
418.72	1717.12
418.943	1760.12
419.166	1882.12
419.389	1981.12
419.611	1929.12
419.834	1877.12
420.057	1781.12
420.28	1805.12
420.503	1741.12
420.726	1695.12
420.948	1681.12
421.171	1726.12
421.394	1745.12
421.617	1702.12
421.839	1746.12
422.062	1728.12
422.285	1734.12
422.507	1753.12
422.73	1772.12
422.953	1756.12
423.175	1758.12
423.398	1793.12
423.621	1747.12
423.843	1785.12
424.066	1779.12
424.288	1762.12
424.511	1750.12
424.733	1769.12
424.956	1735.12
425.178	1702.12
425.401	1742.12
425.623	1740.12
425.846	1664.12
426.068	1643.12
426.291	1660.12
426.513	1627.12
426.735	1628.12
426.958	1612.12
427.18	1619.12
427.402	1619.12
427.625	1619.12
427.847	1584.12
428.069	1598.12
428.292	1558.12
428.514	1555.12
428.736	1568.12
428.958	1617.12
429.181	1565.12
429.403	1576.12
429.625	1548.12
429.847	1562.12
430.069	1531.12
430.292	1567.12
430.514	1526.12
430.736	1568.12
430.958	1577.12
431.18	1545.12
431.402	1558.12
431.624	1553.12
431.846	1564.12
432.068	1575.12
432.29	1600.12
432.512	1587.12
432.734	1604.12
432.956	1567.12
433.178	1577.12
433.4	1568.12
433.622	1602.12
433.844	1615.12
434.066	1596.12
434.287	1617.12
434.509	1664.12
434.731	1712.12
434.953	1737.12
435.175	1733.12
435.397	1744.12
435.618	1680.12
435.84	1659.12
436.062	1607.12
436.284	1575.12
436.505	1563.12
436.727	1579.12
436.949	1541.12
437.17	1545.12
437.392	1523.12
437.614	1503.12
437.835	1496.12
438.057	1488.12
438.278	1482.12
438.5	1494.12
438.721	1482.12
438.943	1518.12
439.165	1504.12
439.386	1481.12
439.608	1511.12
439.829	1517.12
440.05	1528.12
440.272	1552.12
440.493	1571.12
440.715	1569.12
440.936	1579.12
441.158	1597.12
441.379	1624.12
441.6	1737.12
441.822	1716.12
442.043	1717.12
442.264	1679.12
442.486	1690.12
442.707	1706.12
442.928	1641.12
443.149	1686.12
443.371	1679.12
443.592	1696.12
443.813	1711.12
444.034	1706.12
444.255	1738.12
444.476	1830.12
444.698	1914.12
444.919	1947.12
445.14	2024.12
445.361	1854.12
445.582	1766.12
445.803	1659.12
446.024	1640.12
446.245	1603.12
446.466	1603.12
446.687	1535.12
446.908	1583.12
447.129	1526.12
447.35	1496.12
447.571	1509.12
447.792	1486.12
448.013	1463.12
448.234	1427.12
448.455	1419.12
448.675	1403.12
448.896	1386.12
449.117	1393.12
449.338	1412.12
449.559	1393.12
449.779	1384.12
450	1384.12
450.221	1381.12
450.442	1413.12
450.662	1417.12
450.883	1388.12
451.104	1404.12
451.324	1405.12
451.545	1385.12
451.766	1403.12
451.986	1398.12
452.207	1396.12
452.428	1407.12
452.648	1346.12
452.869	1338.12
453.089	1336.12
453.31	1365.12
453.53	1357.12
453.751	1344.12
453.971	1319.12
454.192	1356.12
454.412	1330.12
454.633	1318.12
454.853	1325.12
455.073	1359.12
455.294	1328.12
455.514	1327.12
455.734	1337.12
455.955	1304.12
456.175	1324.12
456.395	1315.12
456.616	1316.12
456.836	1323.12
457.056	1323.12
457.276	1301.12
457.497	1354.12
457.717	1321.12
457.937	1315.12
458.157	1346.12
458.377	1371.12
458.598	1394.12
458.818	1429.12
459.038	1463.12
459.258	1517.12
459.478	1570.12
459.698	1572.12
459.918	1641.12
460.138	1667.12
460.358	1748.12
460.578	1739.12
460.798	1831.12
461.018	1775.12
461.238	1766.12
461.458	1760.12
461.678	1763.12
461.898	1829.12
462.118	1782.12
462.338	1908.12
462.558	1948.12
462.777	1990.12
462.997	2121.12
463.217	2212.12
463.437	2283.12
463.657	2119.12
463.876	2023.12
464.096	2019.12
464.316	2044.12
464.536	2004.12
464.755	1975.12
464.975	1911.12
465.195	1864.12
465.414	1747.12
465.634	1667.12
465.854	1640.12
466.073	1551.12
466.293	1548.12
466.512	1508.12
466.732	1482.12
466.951	1514.12
467.171	1470.12
467.391	1460.12
467.61	1446.12
467.829	1454.12
468.049	1469.12
468.268	1390.12
468.488	1402.12
468.707	1409.12
468.927	1434.12
469.146	1414.12
469.365	1414.12
469.585	1422.12
469.804	1466.12
470.023	1491.12
470.243	1493.12
470.462	1491.12
470.681	1495.12
470.901	1495.12
471.12	1497.12
471.339	1449.12
471.558	1466.12
471.777	1482.12
471.997	1468.12
472.216	1415.12
472.435	1416.12
472.654	1355.12
472.873	1409.12
473.092	1408.12
473.311	1406.12
473.53	1413.12
473.749	1413.12
473.968	1406.12
474.187	1406.12
474.406	1408.12
474.625	1399.12
474.844	1366.12
475.063	1400.12
475.282	1412.12
475.501	1441.12
475.72	1396.12
475.939	1438.12
476.158	1453.12
476.377	1460.12
476.596	1434.12
476.814	1476.12
477.033	1484.12
477.252	1533.12
477.471	1544.12
477.69	1598.12
477.908	1614.12
478.127	1658.12
478.346	1645.12
478.564	1710.12
478.783	1742.12
479.002	1739.12
479.22	1765.12
479.439	1770.12
479.658	1742.12
479.876	1746.12
480.095	1786.12
480.313	1865.12
480.532	1859.12
480.751	1871.12
480.969	1779.12
481.188	1776.12
481.406	1750.12
481.624	1731.12
481.843	1713.12
482.061	1706.12
482.28	1658.12
482.498	1703.12
482.717	1682.12
482.935	1671.12
483.153	1688.12
483.372	1699.12
483.59	1712.12
483.808	1727.12
484.027	1740.12
484.245	1755.12
484.463	1731.12
484.681	1798.12
484.9	1820.12
485.118	1821.12
485.336	1854.12
485.554	1837.12
485.772	1857.12
485.99	1840.12
486.209	1858.12
486.427	1869.12
486.645	1871.12
486.863	1831.12
487.081	1860.12
487.299	1842.12
487.517	1850.12
487.735	1806.12
487.953	1816.12
488.171	1815.12
488.389	1803.12
488.607	1774.12
488.825	1767.12
489.043	1764.12
489.261	1756.12
489.479	1779.12
489.696	1752.12
489.914	1775.12
490.132	1766.12
490.35	1748.12
490.568	1706.12
490.786	1764.12
491.003	1750.12
491.221	1754.12
491.439	1746.12
491.657	1746.12
491.874	1756.12
492.092	1754.12
492.31	1763.12
492.527	1767.12
492.745	1743.12
492.963	1799.12
493.18	1776.12
493.398	1758.12
493.615	1786.12
493.833	1787.12
494.05	1767.12
494.268	1816.12
494.485	1829.12
494.703	1811.12
494.92	1816.12
495.138	1784.12
495.355	1824.12
495.573	1785.12
495.79	1832.12
496.008	1863.12
496.225	1836.12
496.442	1876.12
496.66	1851.12
496.877	1900.12
497.094	1924.12
497.312	1960.12
497.529	2031.12
497.746	2073.12
497.963	2102.12
498.181	2188.12
498.398	2254.12
498.615	2386.12
498.832	2506.12
499.049	2703.12
499.267	2868.12
499.484	3100.12
499.701	3365.12
499.918	3671.12
500.135	4007.12
500.352	4453.12
500.569	4588.12
500.786	4567.12
501.003	4375.12
501.22	3983.12
501.437	3594.12
501.654	3274.12
501.871	3023.12
502.088	2859.12
502.305	2650.12
502.522	2549.12
502.739	2460.12
502.956	2335.12
503.172	2186.12
503.389	2169.12
503.606	2075.12
503.823	2063.12
504.04	2068.12
504.256	2042.12
504.473	2059.12
504.69	2039.12
504.907	2015.12
505.123	1925.12
505.34	1796.12
505.557	1798.12
505.773	1711.12
505.99	1716.12
506.207	1617.12
506.423	1639.12
506.64	1629.12
506.856	1562.12
507.073	1535.12
507.289	1562.12
507.506	1553.12
507.722	1543.12
507.939	1545.12
508.155	1488.12
508.372	1469.12
508.588	1484.12
508.805	1465.12
509.021	1467.12
509.238	1443.12
509.454	1467.12
509.67	1436.12
509.887	1450.12
510.103	1424.12
510.319	1419.12
510.536	1420.12
510.752	1420.12
510.968	1404.12
511.184	1422.12
511.401	1426.12
511.617	1399.12
511.833	1394.12
512.049	1403.12
512.265	1366.12
512.481	1356.12
512.698	1378.12
512.914	1400.12
513.13	1396.12
513.346	1413.12
513.562	1385.12
513.778	1390.12
513.994	1401.12
514.21	1427.12
514.426	1433.12
514.642	1409.12
514.858	1407.12
515.074	1430.12
515.29	1470.12
515.506	1467.12
515.721	1486.12
515.937	1522.12
516.153	1511.12
516.369	1541.12
516.585	1574.12
516.801	1623.12
517.016	1674.12
517.232	1706.12
517.448	1794.12
517.664	1814.12
517.879	1869.12
518.095	1814.12
518.311	1833.12
518.527	1779.12
518.742	1706.12
518.958	1670.12
519.173	1621.12
519.389	1574.12
519.605	1500.12
519.82	1526.12
520.036	1476.12
520.251	1459.12
520.467	1434.12
520.682	1428.12
520.898	1390.12
521.113	1374.12
521.329	1401.12
521.544	1350.12
521.76	1334.12
521.975	1334.12
522.19	1342.12
522.406	1347.12
522.621	1317.12
522.836	1293.12
523.052	1310.12
523.267	1295.12
523.482	1295.12
523.698	1300.12
523.913	1290.12
524.128	1294.12
524.343	1276.12
524.559	1255.12
524.774	1254.12
524.989	1283.12
525.204	1298.12
525.419	1246.12
525.634	1239.12
525.849	1255.12
526.064	1254.12
526.28	1248.12
526.495	1221.12
526.71	1249.12
526.925	1279.12
527.14	1271.12
527.355	1253.12
527.57	1257.12
527.785	1235.12
527.999	1216.12
528.214	1219.12
528.429	1221.12
528.644	1231.12
528.859	1243.12
529.074	1218.12
529.289	1225.12
529.503	1253.12
529.718	1223.12
529.933	1202.12
530.148	1197.12
530.363	1227.12
530.577	1212.12
530.792	1207.12
531.007	1212.12
531.221	1222.12
531.436	1224.12
531.651	1238.12
531.865	1223.12
532.08	1207.12
532.295	1210.12
532.509	1229.12
532.724	1196.12
532.938	1273.12
533.153	1235.12
533.367	1218.12
533.582	1222.12
533.796	1186.12
534.011	1239.12
534.225	1209.12
534.44	1176.12
534.654	1188.12
534.868	1177.12
535.083	1197.12
535.297	1182.12
535.511	1150.12
535.726	1182.12
535.94	1148.12
536.154	1177.12
536.369	1179.12
536.583	1133.12
536.797	1156.12
537.011	1144.12
537.225	1145.12
537.44	1151.12
537.654	1136.12
537.868	1133.12
538.082	1114.12
538.296	1103.12
538.51	1107.12
538.724	1088.12
538.938	1093.12
539.153	1128.12
539.367	1112.12
539.581	1095.12
539.795	1055.12
540.009	1093.12
540.222	1100.12
540.436	1071.12
540.65	1091.12
540.864	1070.12
541.078	1074.12
541.292	1074.12
541.506	1085.12
541.72	1068.12
541.934	1083.12
542.147	1084.12
542.361	1075.12
542.575	1047.12
542.789	1079.12
543.002	1034.12
543.216	1067.12
543.43	1085.12
543.644	1060.12
543.857	1069.12
544.071	1074.12
544.285	1081.12
544.498	1070.12
544.712	1104.12
544.925	1083.12
545.139	1103.12
545.352	1095.12
545.566	1118.12
545.779	1098.12
545.993	1088.12
546.206	1125.12
546.42	1090.12
546.633	1057.12
546.847	1056.12
547.06	1116.12
547.274	1092.12
547.487	1064.12
547.7	1094.12
547.914	1095.12
548.127	1128.12
548.34	1109.12
548.554	1094.12
548.767	1103.12
548.98	1083.12
549.193	1089.12
549.407	1077.12
549.62	1139.12
549.833	1119.12
550.046	1106.12
550.259	1105.12
550.473	1091.12
550.686	1104.12
550.899	1079.12
551.112	1090.12
551.325	1069.12
551.538	1080.12
551.751	1080.12
551.964	1078.12
552.177	1122.12
552.39	1098.12
552.603	1145.12
552.816	1160.12
553.029	1154.12
553.242	1171.12
553.455	1171.12
553.667	1163.12
553.88	1193.12
554.093	1140.12
554.306	1092.12
554.519	1118.12
554.732	1094.12
554.944	1057.12
555.157	1058.12
555.37	1047.12
555.583	1013.12
555.795	1002.12
556.008	1007.12
556.221	1003.12
556.433	982.12
556.646	942.12
556.859	953.12
557.071	943.12
557.284	943.12
557.496	954.12
557.709	943.12
557.921	926.12
558.134	938.12
558.346	946.12
558.559	911.12
558.771	929.12
558.984	902.12
559.196	918.12
559.409	927.12
559.621	890.12
559.833	915.12
560.046	889.12
560.258	895.12
560.47	858.12
560.683	898.12
560.895	895.12
561.107	897.12
561.32	886.12
561.532	896.12
561.744	911.12
561.956	884.12
562.168	882.12
562.381	896.12
562.593	920.12
562.805	919.12
563.017	924.12
563.229	907.12
563.441	894.12
563.653	938.12
563.865	927.12
564.077	935.12
564.289	925.12
564.501	962.12
564.713	983.12
564.925	987.12
565.137	988.12
565.349	1031.12
565.561	1052.12
565.773	1068.12
565.985	1137.12
566.197	1190.12
566.408	1251.12
566.62	1288.12
566.832	1395.12
567.044	1385.12
567.255	1420.12
567.467	1482.12
567.679	1522.12
567.891	1532.12
568.102	1550.12
568.314	1523.12
568.526	1413.12
568.737	1297.12
568.949	1225.12
569.161	1151.12
569.372	1083.12
569.584	1033.12
569.795	1003.12
570.007	957.12
570.218	916.12
570.43	930.12
570.641	926.12
570.853	886.12
571.064	954.12
571.276	922.12
571.487	874.12
571.698	859.12
571.91	851.12
572.121	840.12
572.333	822.12
572.544	816.12
572.755	789.12
572.966	764.12
573.178	780.12
573.389	785.12
573.6	775.12
573.811	726.12
574.023	746.12
574.234	732.12
574.445	743.12
574.656	723.12
574.867	731.12
575.078	740.12
575.289	754.12
575.501	730.12
575.712	709.12
575.923	695.12
576.134	703.12
576.345	698.12
576.556	704.12
576.767	699.12
576.978	688.12
577.188	686.12
577.399	690.12
577.61	700.12
577.821	666.12
578.032	669.12
578.243	658.12
578.454	646.12
578.665	649.12
578.875	657.12
579.086	660.12
579.297	635.12
579.508	638.12
579.718	671.12
579.929	633.12
580.14	640.12
580.35	635.12
580.561	636.12
580.772	623.12
580.982	612.12
581.193	628.12
581.403	621.12
581.614	620.12
581.825	643.12
582.035	637.12
582.246	620.12
582.456	612.12
582.667	602.12
582.877	606.12
583.087	619.12
583.298	606.12
583.508	604.12
583.719	621.12
583.929	619.12
584.139	597.12
584.35	605.12
584.56	589.12
584.77	597.12
584.981	590.12
585.191	603.12
585.401	612.12
585.611	586.12
585.821	597.12
586.032	607.12
586.242	609.12
586.452	576.12
586.662	582.12
586.872	593.12
587.082	589.12
587.292	588.12
587.502	581.12
587.713	571.12
587.923	572.12
588.133	592.12
588.343	580.12
588.553	589.12
588.762	605.12
588.972	584.12
589.182	612.12
589.392	586.12
589.602	585.12
589.812	606.12
590.022	592.12
590.232	586.12
590.441	590.12
590.651	605.12
590.861	588.12
591.071	609.12
591.281	583.12
591.49	596.12
591.7	616.12
591.91	632.12
592.119	642.12
592.329	630.12
592.539	641.12
592.748	679.12
592.958	702.12
593.167	702.12
593.377	727.12
593.587	702.12
593.796	735.12
594.006	719.12
594.215	739.12
594.424	721.12
594.634	701.12
594.843	694.12
595.053	665.12
595.262	646.12
595.472	631.12
595.681	607.12
595.89	604.12
596.1	597.12
596.309	590.12
596.518	571.12
596.727	554.12
596.937	554.12
597.146	548.12
597.355	535.12
597.564	520.12
597.774	515.12
597.983	509.12
598.192	528.12
598.401	520.12
598.61	523.12
598.819	518.12
599.028	484.12
599.237	480.12
599.446	499.12
599.655	491.12
599.864	498.12
600.073	492.12
600.282	500.12
600.491	482.12
600.7	496.12
600.909	471.12
601.118	468.12
601.327	486.12
601.536	479.12
601.745	470.12
601.953	471.12
602.162	466.12
602.371	482.12
602.58	466.12
602.789	464.12
602.997	473.12
603.206	462.12
603.415	468.12
603.623	462.12
603.832	470.12
604.041	429.12
604.249	459.12
604.458	464.12
604.666	468.12
604.875	435.12
605.084	432.12
605.292	451.12
605.501	464.12
605.709	442.12
605.918	440.12
606.126	439.12
606.334	427.12
606.543	426.12
606.751	437.12
606.96	430.12
607.168	447.12
607.376	459.12
607.585	460.12
607.793	446.12
608.001	434.12
608.21	430.12
608.418	445.12
608.626	434.12
608.834	454.12
609.043	451.12
609.251	428.12
609.459	415.12
609.667	441.12
609.875	427.12
610.083	430.12
610.291	422.12
610.499	422.12
610.707	404.12
610.916	393.12
611.124	414.12
611.332	419.12
611.54	424.12
611.748	414.12
611.955	410.12
612.163	406.12
612.371	398.12
612.579	381.12
612.787	416.12
612.995	411.12
613.203	419.12
613.411	423.12
613.618	410.12
613.826	406.12
614.034	401.12
614.242	404.12
614.449	407.12
614.657	418.12
614.865	394.12
615.072	418.12
615.28	435.12
615.488	399.12
615.695	405.12
615.903	382.12
616.111	410.12
616.318	409.12
616.526	439.12
616.733	414.12
616.941	413.12
617.148	411.12
617.356	408.12
617.563	414.12
617.771	412.12
617.978	400.12
618.185	415.12
618.393	422.12
618.6	396.12
618.807	420.12
619.015	391.12
619.222	413.12
619.429	393.12
619.637	393.12
619.844	407.12
620.051	397.12
620.258	379.12
620.466	395.12
620.673	363.12
620.88	353.12
621.087	347.12
621.294	379.12
621.501	382.12
621.708	375.12
621.915	382.12
622.122	363.12
622.329	385.12
622.536	367.12
622.743	376.12
622.95	376.12
623.157	378.12
623.364	372.12
623.571	374.12
623.778	383.12
623.985	382.12
624.192	367.12
624.399	346.12
624.606	355.12
624.812	358.12
625.019	357.12
625.226	344.12
625.433	356.12
625.639	346.12
625.846	344.12
626.053	331.12
626.259	347.12
626.466	336.12
626.673	345.12
626.879	344.12
627.086	324.12
627.293	343.12
627.499	339.12
627.706	333.12
627.912	323.12
628.119	334.12
628.325	339.12
628.532	323.12
628.738	343.12
628.945	346.12
629.151	337.12
629.357	331.12
629.564	344.12
629.77	343.12
629.976	317.12
630.183	320.12
630.389	335.12
630.595	315.12
630.802	313.12
631.008	310.12
631.214	315.12
631.42	317.12
631.627	317.12
631.833	320.12
632.039	314.12
632.245	308.12
632.451	309.12
632.657	311.12
632.863	324.12
633.069	324.12
633.275	290.12
633.481	300.12
633.688	296.12
633.893	306.12
634.099	291.12
634.305	308.12
634.511	307.12
634.717	300.12
634.923	302.12
635.129	309.12
635.335	279.12
635.541	294.12
635.747	273.12
635.952	294.12
636.158	294.12
636.364	304.12
636.57	319.12
636.775	299.12
636.981	283.12
637.187	289.12
637.392	280.12
637.598	274.12
637.804	306.12
638.009	281.12
638.215	270.12
638.421	292.12
638.626	300.12
638.832	283.12
639.037	299.12
639.243	274.12
639.448	290.12
639.654	289.12
639.859	305.12
640.065	283.12
640.27	263.12
640.475	268.12
640.681	275.12
640.886	268.12
641.091	311.12
641.297	287.12
641.502	281.12
641.707	269.12
641.913	269.12
642.118	286.12
642.323	282.12
642.528	281.12
642.733	281.12
642.939	273.12
643.144	271.12
643.349	282.12
643.554	268.12
643.759	286.12
643.964	258.12
644.169	286.12
644.374	262.12
644.579	279.12
644.784	288.12
644.989	260.12
645.194	284.12
645.399	277.12
645.604	260.12
645.809	271.12
646.014	257.12
646.219	277.12
646.423	282.12
646.628	281.12
646.833	283.12
647.038	270.12
647.243	279.12
647.447	280.12
647.652	295.12
647.857	285.12
648.062	301.12
648.266	288.12
648.471	310.12
648.676	302.12
648.88	307.12
649.085	287.12
649.289	286.12
649.494	272.12
649.698	279.12
649.903	262.12
650.107	280.12
650.312	287.12
650.516	302.12
650.721	270.12
650.925	272.12
651.13	259.12
651.334	271.12
651.539	270.12
651.743	270.12
651.947	257.12
652.152	266.12
652.356	260.12
652.56	248.12
652.764	261.12
652.969	277.12
653.173	261.12
653.377	262.12
653.581	252.12
653.785	263.12
653.99	252.12
654.194	266.12
654.398	265.12
654.602	248.12
654.806	264.12
655.01	251.12
655.214	277.12
655.418	279.12
655.622	301.12
655.826	309.12
656.03	329.12
656.234	362.12
656.438	377.12
656.642	382.12
656.846	363.12
657.049	304.12
657.253	299.12
657.457	276.12
657.661	243.12
657.865	235.12
658.068	196.12
658.272	206.12
658.476	174.12
658.68	173.12
658.883	163.12
659.087	141.12
659.291	151.12
659.494	134.12
659.698	126.12
659.901	100.12
660.105	123.12
660.309	124.12
660.512	112.12
660.716	115.12
660.919	124.12
661.123	126.12
661.326	114.12
661.53	95.12
661.733	97.12
661.936	88.12
662.14	98.12
662.343	89.12
662.546	97.12
662.75	89.12
662.953	101.12
663.156	84.12
663.36	106.12
663.563	100.12
663.766	86.12
663.969	85.12
664.173	87.12
664.376	80.12
664.579	84.12
664.782	80.12
664.985	84.12
665.188	72.12
665.391	85.12
665.594	86.12
665.797	75.12
666	90.12
666.203	88.12
666.406	79.12
666.609	92.12
666.812	95.12
667.015	92.12
667.218	72.12
667.421	81.12
667.624	89.12
667.827	88.12
668.03	82.12
668.232	80.12
668.435	70.12
668.638	97.12
668.841	84.12
669.043	86.12
669.246	103.12
669.449	93.12
669.651	79.12
669.854	88.12
670.057	103.12
670.259	89.12
670.462	87.12
670.665	77.12
670.867	71.12
671.07	77.12
671.272	85.12
671.475	88.12
671.677	100.12
671.88	83.12
672.082	85.12
672.284	78.12
672.487	92.12
672.689	91.12
672.892	100.12
