Data from NiCl2@0.125M.TitratingCurve.Agarose3%dH2O.NegLispCup.LampEnergy10.LIBS07252019_HRD10591_18-28-40-574.txt Node
Date: Thu Jul 25 18:28:40 EDT 2019
User: cochatt
Spectrometer: HR+D1059
Trigger mode: 1
Integration Time (sec): 1.000000E-1
Scans to average: 1
Electric dark correction enabled: true
Nonlinearity correction enabled: false
Boxcar width: 0
XAxis mode: Wavelengths
Number of Pixels in Spectrum: 2048
>>>>>Begin Spectral Data<<<<<
223.165	-21.25
223.4	-21.25
223.635	-21.25
223.869	-26.25
224.104	-22.25
224.338	-1.25
224.573	-16.25
224.808	-7.25
225.042	-7.25
225.277	-4.25
225.511	-9.25
225.746	4.75
225.98	0.75
226.215	19.75
226.449	9.75
226.683	23.75
226.918	29.75
227.152	26.75
227.387	31.75
227.621	40.75
227.856	34.75
228.09	43.75
228.324	46.75
228.559	48.75
228.793	65.75
229.027	111.75
229.262	117.75
229.496	123.75
229.73	122.75
229.964	135.75
230.199	131.75
230.433	138.75
230.667	118.75
230.901	140.75
231.136	131.75
231.37	141.75
231.604	137.75
231.838	134.75
232.072	149.75
232.306	161.75
232.541	138.75
232.775	150.75
233.009	158.75
233.243	150.75
233.477	173.75
233.711	155.75
233.945	173.75
234.179	154.75
234.413	165.75
234.647	156.75
234.881	163.75
235.115	147.75
235.349	173.75
235.583	151.75
235.817	162.75
236.051	156.75
236.285	166.75
236.519	178.75
236.753	158.75
236.987	163.75
237.221	171.75
237.455	157.75
237.689	183.75
237.922	157.75
238.156	172.75
238.39	172.75
238.624	179.75
238.858	181.75
239.091	168.75
239.325	178.75
239.559	177.75
239.793	184.75
240.027	204.75
240.26	206.75
240.494	194.75
240.728	181.75
240.961	189.75
241.195	189.75
241.429	207.75
241.662	201.75
241.896	219.75
242.13	212.75
242.363	198.75
242.597	200.75
242.83	209.75
243.064	202.75
243.298	209.75
243.531	201.75
243.765	219.75
243.998	230.75
244.232	220.75
244.465	205.75
244.699	229.75
244.932	233.75
245.166	228.75
245.399	227.75
245.633	233.75
245.866	235.75
246.099	223.75
246.333	225.75
246.566	237.75
246.8	241.75
247.033	260.75
247.266	219.75
247.5	245.75
247.733	248.75
247.966	238.75
248.2	257.75
248.433	253.75
248.666	268.75
248.899	245.75
249.133	248.75
249.366	257.75
249.599	263.75
249.832	257.75
250.066	281.75
250.299	269.75
250.532	259.75
250.765	271.75
250.998	270.75
251.231	290.75
251.465	286.75
251.698	273.75
251.931	291.75
252.164	325.75
252.397	307.75
252.63	291.75
252.863	301.75
253.096	298.75
253.329	282.75
253.562	294.75
253.795	298.75
254.028	293.75
254.261	303.75
254.494	290.75
254.727	286.75
254.96	286.75
255.193	306.75
255.426	307.75
255.659	304.75
255.892	317.75
256.124	300.75
256.357	326.75
256.59	312.75
256.823	315.75
257.056	311.75
257.289	311.75
257.521	322.75
257.754	327.75
257.987	321.75
258.22	342.75
258.452	327.75
258.685	329.75
258.918	330.75
259.151	325.75
259.383	346.75
259.616	323.75
259.849	328.75
260.081	341.75
260.314	335.75
260.547	328.75
260.779	356.75
261.012	337.75
261.244	343.75
261.477	368.75
261.71	368.75
261.942	336.75
262.175	351.75
262.407	354.75
262.64	335.75
262.872	343.75
263.105	373.75
263.337	351.75
263.57	373.75
263.802	371.75
264.035	360.75
264.267	351.75
264.499	377.75
264.732	373.75
264.964	381.75
265.197	366.75
265.429	395.75
265.661	367.75
265.894	366.75
266.126	377.75
266.358	387.75
266.591	395.75
266.823	379.75
267.055	384.75
267.287	389.75
267.52	382.75
267.752	386.75
267.984	404.75
268.216	405.75
268.448	398.75
268.681	411.75
268.913	386.75
269.145	409.75
269.377	389.75
269.609	395.75
269.841	398.75
270.073	398.75
270.306	389.75
270.538	397.75
270.77	392.75
271.002	400.75
271.234	401.75
271.466	400.75
271.698	401.75
271.93	416.75
272.162	403.75
272.394	414.75
272.626	415.75
272.858	417.75
273.09	397.75
273.322	435.75
273.553	425.75
273.785	436.75
274.017	407.75
274.249	429.75
274.481	416.75
274.713	433.75
274.945	440.75
275.176	442.75
275.408	457.75
275.64	438.75
275.872	451.75
276.104	450.75
276.335	452.75
276.567	438.75
276.799	459.75
277.031	462.75
277.262	461.75
277.494	457.75
277.726	451.75
277.957	453.75
278.189	452.75
278.421	467.75
278.652	466.75
278.884	472.75
279.115	456.75
279.347	477.75
279.579	476.75
279.81	467.75
280.042	467.75
280.273	485.75
280.505	485.75
280.736	469.75
280.968	499.75
281.199	484.75
281.431	516.75
281.662	505.75
281.894	490.75
282.125	514.75
282.356	499.75
282.588	494.75
282.819	494.75
283.051	498.75
283.282	474.75
283.513	513.75
283.745	513.75
283.976	509.75
284.207	503.75
284.439	500.75
284.67	508.75
284.901	531.75
285.132	524.75
285.364	528.75
285.595	539.75
285.826	539.75
286.057	535.75
286.288	527.75
286.52	531.75
286.751	527.75
286.982	513.75
287.213	541.75
287.444	517.75
287.675	537.75
287.906	509.75
288.138	541.75
288.369	522.75
288.6	558.75
288.831	539.75
289.062	553.75
289.293	551.75
289.524	530.75
289.755	534.75
289.986	552.75
290.217	576.75
290.448	550.75
290.679	574.75
290.91	547.75
291.141	537.75
291.371	554.75
291.602	579.75
291.833	540.75
292.064	560.75
292.295	546.75
292.526	573.75
292.757	586.75
292.987	550.75
293.218	571.75
293.449	553.75
293.68	570.75
293.91	557.75
294.141	573.75
294.372	540.75
294.603	595.75
294.833	567.75
295.064	594.75
295.295	581.75
295.525	568.75
295.756	588.75
295.987	573.75
296.217	586.75
296.448	590.75
296.679	587.75
296.909	575.75
297.14	582.75
297.37	594.75
297.601	618.75
297.831	609.75
298.062	628.75
298.292	605.75
298.523	629.75
298.753	629.75
298.984	611.75
299.214	631.75
299.445	604.75
299.675	609.75
299.905	629.75
300.136	620.75
300.366	635.75
300.597	634.75
300.827	644.75
301.057	630.75
301.288	662.75
301.518	657.75
301.748	649.75
301.979	650.75
302.209	661.75
302.439	665.75
302.669	677.75
302.9	666.75
303.13	659.75
303.36	625.75
303.59	638.75
303.82	635.75
304.051	625.75
304.281	643.75
304.511	617.75
304.741	622.75
304.971	616.75
305.201	647.75
305.431	641.75
305.661	611.75
305.891	627.75
306.121	631.75
306.352	616.75
306.582	603.75
306.812	622.75
307.042	618.75
307.272	647.75
307.502	620.75
307.731	622.75
307.961	609.75
308.191	620.75
308.421	616.75
308.651	629.75
308.881	603.75
309.111	631.75
309.341	631.75
309.571	620.75
309.8	619.75
310.03	645.75
310.26	606.75
310.49	631.75
310.72	620.75
310.949	605.75
311.179	620.75
311.409	625.75
311.639	647.75
311.868	629.75
312.098	655.75
312.328	648.75
312.557	659.75
312.787	627.75
313.017	668.75
313.246	648.75
313.476	645.75
313.706	666.75
313.935	687.75
314.165	671.75
314.394	659.75
314.624	676.75
314.853	673.75
315.083	641.75
315.312	666.75
315.542	661.75
315.771	637.75
316.001	672.75
316.23	648.75
316.46	643.75
316.689	659.75
316.919	673.75
317.148	644.75
317.377	667.75
317.607	651.75
317.836	645.75
318.065	635.75
318.295	648.75
318.524	654.75
318.753	654.75
318.983	670.75
319.212	629.75
319.441	648.75
319.67	661.75
319.9	676.75
320.129	670.75
320.358	657.75
320.587	655.75
320.816	641.75
321.046	645.75
321.275	646.75
321.504	664.75
321.733	656.75
321.962	679.75
322.191	659.75
322.42	634.75
322.649	650.75
322.878	669.75
323.108	676.75
323.337	651.75
323.566	654.75
323.795	672.75
324.024	653.75
324.253	665.75
324.482	709.75
324.71	649.75
324.939	667.75
325.168	690.75
325.397	679.75
325.626	691.75
325.855	689.75
326.084	693.75
326.313	722.75
326.542	727.75
326.77	718.75
326.999	698.75
327.228	698.75
327.457	702.75
327.686	721.75
327.914	723.75
328.143	714.75
328.372	700.75
328.6	712.75
328.829	698.75
329.058	708.75
329.287	699.75
329.515	705.75
329.744	741.75
329.972	718.75
330.201	709.75
330.43	730.75
330.658	705.75
330.887	734.75
331.115	747.75
331.344	746.75
331.572	741.75
331.801	746.75
332.03	763.75
332.258	769.75
332.486	805.75
332.715	847.75
332.943	863.75
333.172	931.75
333.4	934.75
333.629	945.75
333.857	992.75
334.085	971.75
334.314	951.75
334.542	935.75
334.771	906.75
334.999	911.75
335.227	888.75
335.455	889.75
335.684	872.75
335.912	866.75
336.14	838.75
336.369	873.75
336.597	862.75
336.825	845.75
337.053	841.75
337.281	838.75
337.51	833.75
337.738	801.75
337.966	817.75
338.194	781.75
338.422	779.75
338.65	746.75
338.878	750.75
339.106	760.75
339.334	764.75
339.562	758.75
339.79	767.75
340.018	734.75
340.246	755.75
340.474	753.75
340.702	760.75
340.93	770.75
341.158	764.75
341.386	764.75
341.614	745.75
341.842	742.75
342.07	718.75
342.298	739.75
342.526	742.75
342.754	707.75
342.981	726.75
343.209	737.75
343.437	783.75
343.665	811.75
343.893	893.75
344.12	945.75
344.348	897.75
344.576	849.75
344.804	811.75
345.031	790.75
345.259	749.75
345.487	764.75
345.714	759.75
345.942	757.75
346.17	738.75
346.397	750.75
346.625	725.75
346.853	679.75
347.08	725.75
347.308	714.75
347.535	749.75
347.763	748.75
347.99	740.75
348.218	757.75
348.445	731.75
348.673	723.75
348.9	738.75
349.128	739.75
349.355	708.75
349.583	717.75
349.81	709.75
350.037	683.75
350.265	713.75
350.492	711.75
350.72	711.75
350.947	687.75
351.174	692.75
351.402	697.75
351.629	706.75
351.856	706.75
352.083	696.75
352.311	661.75
352.538	719.75
352.765	701.75
352.992	700.75
353.22	694.75
353.447	678.75
353.674	699.75
353.901	712.75
354.128	695.75
354.355	706.75
354.583	705.75
354.81	670.75
355.037	686.75
355.264	700.75
355.491	684.75
355.718	702.75
355.945	713.75
356.172	697.75
356.399	680.75
356.626	701.75
356.853	728.75
357.08	698.75
357.307	700.75
357.534	704.75
357.761	686.75
357.988	702.75
358.215	676.75
358.441	687.75
358.668	704.75
358.895	697.75
359.122	687.75
359.349	675.75
359.576	695.75
359.802	705.75
360.029	669.75
360.256	697.75
360.483	703.75
360.709	682.75
360.936	710.75
361.163	699.75
361.39	691.75
361.616	674.75
361.843	695.75
362.07	698.75
362.296	692.75
362.523	692.75
362.749	681.75
362.976	684.75
363.203	682.75
363.429	686.75
363.656	709.75
363.882	670.75
364.109	655.75
364.335	678.75
364.562	712.75
364.788	679.75
365.015	688.75
365.241	686.75
365.468	671.75
365.694	672.75
365.92	674.75
366.147	706.75
366.373	684.75
366.599	689.75
366.826	673.75
367.052	682.75
367.278	709.75
367.505	673.75
367.731	687.75
367.957	719.75
368.184	716.75
368.41	695.75
368.636	689.75
368.862	704.75
369.089	715.75
369.315	709.75
369.541	734.75
369.767	703.75
369.993	731.75
370.219	721.75
370.445	735.75
370.672	721.75
370.898	723.75
371.124	739.75
371.35	756.75
371.576	741.75
371.802	744.75
372.028	718.75
372.254	744.75
372.48	752.75
372.706	779.75
372.932	794.75
373.158	775.75
373.384	785.75
373.61	748.75
373.835	751.75
374.061	751.75
374.287	763.75
374.513	777.75
374.739	790.75
374.965	825.75
375.191	828.75
375.416	853.75
375.642	794.75
375.868	819.75
376.094	801.75
376.319	744.75
376.545	755.75
376.771	789.75
376.997	754.75
377.222	738.75
377.448	756.75
377.674	762.75
377.899	735.75
378.125	741.75
378.35	735.75
378.576	739.75
378.802	754.75
379.027	744.75
379.253	740.75
379.478	730.75
379.704	750.75
379.929	753.75
380.155	771.75
380.38	741.75
380.606	757.75
380.831	758.75
381.057	734.75
381.282	762.75
381.507	732.75
381.733	770.75
381.958	725.75
382.184	782.75
382.409	771.75
382.634	797.75
382.86	801.75
383.085	779.75
383.31	807.75
383.535	837.75
383.761	798.75
383.986	852.75
384.211	854.75
384.436	871.75
384.662	892.75
384.887	924.75
385.112	914.75
385.337	889.75
385.562	929.75
385.787	911.75
386.013	897.75
386.238	920.75
386.463	922.75
386.688	911.75
386.913	909.75
387.138	893.75
387.363	877.75
387.588	880.75
387.813	893.75
388.038	881.75
388.263	889.75
388.488	898.75
388.713	885.75
388.938	906.75
389.163	881.75
389.387	883.75
389.612	899.75
389.837	892.75
390.062	872.75
390.287	883.75
390.512	875.75
390.736	879.75
390.961	898.75
391.186	904.75
391.411	948.75
391.636	998.75
391.86	998.75
392.085	1015.75
392.31	1030.75
392.534	1007.75
392.759	1006.75
392.984	974.75
393.208	957.75
393.433	938.75
393.658	961.75
393.882	965.75
394.107	965.75
394.331	979.75
394.556	981.75
394.78	974.75
395.005	950.75
395.229	989.75
395.454	999.75
395.678	1015.75
395.903	1037.75
396.127	1020.75
396.352	977.75
396.576	954.75
396.801	970.75
397.025	948.75
397.249	1023.75
397.474	1034.75
397.698	1002.75
397.922	1044.75
398.147	1020.75
398.371	1030.75
398.595	1068.75
398.82	1129.75
399.044	1184.75
399.268	1337.75
399.492	1496.75
399.717	1677.75
399.941	1734.75
400.165	1558.75
400.389	1402.75
400.613	1279.75
400.837	1203.75
401.062	1179.75
401.286	1156.75
401.51	1129.75
401.734	1140.75
401.958	1132.75
402.182	1138.75
402.406	1181.75
402.63	1163.75
402.854	1205.75
403.078	1197.75
403.302	1246.75
403.526	1257.75
403.75	1307.75
403.974	1333.75
404.198	1299.75
404.422	1314.75
404.645	1311.75
404.869	1308.75
405.093	1292.75
405.317	1224.75
405.541	1252.75
405.765	1260.75
405.988	1281.75
406.212	1225.75
406.436	1253.75
406.66	1292.75
406.883	1265.75
407.107	1365.75
407.331	1454.75
407.555	1469.75
407.778	1463.75
408.002	1450.75
408.226	1395.75
408.449	1360.75
408.673	1307.75
408.896	1298.75
409.12	1247.75
409.344	1287.75
409.567	1243.75
409.791	1292.75
410.014	1286.75
410.238	1294.75
410.461	1268.75
410.685	1255.75
410.908	1237.75
411.132	1188.75
411.355	1165.75
411.578	1172.75
411.802	1185.75
412.025	1175.75
412.249	1211.75
412.472	1188.75
412.695	1145.75
412.919	1131.75
413.142	1131.75
413.365	1153.75
413.589	1131.75
413.812	1139.75
414.035	1086.75
414.258	1118.75
414.482	1120.75
414.705	1152.75
414.928	1127.75
415.151	1166.75
415.374	1128.75
415.597	1145.75
415.821	1132.75
416.044	1117.75
416.267	1113.75
416.49	1078.75
416.713	1097.75
416.936	1090.75
417.159	1101.75
417.382	1072.75
417.605	1085.75
417.828	1103.75
418.051	1121.75
418.274	1085.75
418.497	1109.75
418.72	1166.75
418.943	1163.75
419.166	1214.75
419.389	1286.75
419.611	1287.75
419.834	1251.75
420.057	1159.75
420.28	1147.75
420.503	1138.75
420.726	1118.75
420.948	1093.75
421.171	1094.75
421.394	1093.75
421.617	1108.75
421.839	1151.75
422.062	1136.75
422.285	1106.75
422.507	1137.75
422.73	1139.75
422.953	1155.75
423.175	1222.75
423.398	1211.75
423.621	1168.75
423.843	1201.75
424.066	1206.75
424.288	1198.75
424.511	1211.75
424.733	1157.75
424.956	1169.75
425.178	1171.75
425.401	1154.75
425.623	1126.75
425.846	1132.75
426.068	1096.75
426.291	1084.75
426.513	1068.75
426.735	1069.75
426.958	1067.75
427.18	1020.75
427.402	1053.75
427.625	1024.75
427.847	1045.75
428.069	1033.75
428.292	1038.75
428.514	975.75
428.736	1011.75
428.958	996.75
429.181	1000.75
429.403	982.75
429.625	981.75
429.847	939.75
430.069	962.75
430.292	995.75
430.514	978.75
430.736	990.75
430.958	989.75
431.18	989.75
431.402	1001.75
431.624	1002.75
431.846	999.75
432.068	1011.75
432.29	1035.75
432.512	976.75
432.734	1020.75
432.956	999.75
433.178	1000.75
433.4	1027.75
433.622	1034.75
433.844	1005.75
434.066	1050.75
434.287	1054.75
434.509	1060.75
434.731	1090.75
434.953	1156.75
435.175	1135.75
435.397	1134.75
435.618	1070.75
435.84	1029.75
436.062	1059.75
436.284	1015.75
436.505	1022.75
436.727	1029.75
436.949	1012.75
437.17	995.75
437.392	987.75
437.614	983.75
437.835	956.75
438.057	996.75
438.278	995.75
438.5	957.75
438.721	965.75
438.943	999.75
439.165	970.75
439.386	978.75
439.608	1013.75
439.829	1015.75
440.05	1030.75
440.272	1027.75
440.493	1026.75
440.715	1052.75
440.936	1065.75
441.158	1054.75
441.379	1108.75
441.6	1160.75
441.822	1144.75
442.043	1171.75
442.264	1129.75
442.486	1084.75
442.707	1091.75
442.928	1111.75
443.149	1115.75
443.371	1107.75
443.592	1108.75
443.813	1124.75
444.034	1115.75
444.255	1191.75
444.476	1271.75
444.698	1315.75
444.919	1373.75
445.14	1462.75
445.361	1319.75
445.582	1167.75
445.803	1130.75
446.024	1105.75
446.245	1096.75
446.466	1094.75
446.687	1053.75
446.908	1002.75
447.129	996.75
447.35	1024.75
447.571	997.75
447.792	958.75
448.013	960.75
448.234	931.75
448.455	956.75
448.675	943.75
448.896	957.75
449.117	927.75
449.338	935.75
449.559	926.75
449.779	915.75
450	917.75
450.221	920.75
450.442	947.75
450.662	944.75
450.883	977.75
451.104	995.75
451.324	983.75
451.545	972.75
451.766	964.75
451.986	975.75
452.207	959.75
452.428	933.75
452.648	939.75
452.869	919.75
453.089	918.75
453.31	925.75
453.53	923.75
453.751	923.75
453.971	919.75
454.192	904.75
454.412	912.75
454.633	884.75
454.853	892.75
455.073	896.75
455.294	899.75
455.514	882.75
455.734	879.75
455.955	854.75
456.175	885.75
456.395	894.75
456.616	909.75
456.836	876.75
457.056	868.75
457.276	851.75
457.497	907.75
457.717	882.75
457.937	892.75
458.157	899.75
458.377	915.75
458.598	905.75
458.818	947.75
459.038	952.75
459.258	999.75
459.478	1053.75
459.698	1030.75
459.918	1082.75
460.138	1135.75
460.358	1189.75
460.578	1233.75
460.798	1216.75
461.018	1213.75
461.238	1221.75
461.458	1205.75
461.678	1209.75
461.898	1218.75
462.118	1227.75
462.338	1270.75
462.558	1308.75
462.777	1390.75
462.997	1501.75
463.217	1581.75
463.437	1645.75
463.657	1510.75
463.876	1419.75
464.096	1409.75
464.316	1433.75
464.536	1437.75
464.755	1383.75
464.975	1296.75
465.195	1250.75
465.414	1209.75
465.634	1100.75
465.854	1086.75
466.073	1051.75
466.293	1033.75
466.512	989.75
466.732	990.75
466.951	999.75
467.171	989.75
467.391	989.75
467.61	977.75
467.829	943.75
468.049	965.75
468.268	956.75
468.488	966.75
468.707	953.75
468.927	928.75
469.146	934.75
469.365	952.75
469.585	945.75
469.804	951.75
470.023	999.75
470.243	1009.75
470.462	1011.75
470.681	993.75
470.901	1061.75
471.12	1023.75
471.339	1000.75
471.558	969.75
471.777	978.75
471.997	935.75
472.216	961.75
472.435	924.75
472.654	918.75
472.873	926.75
473.092	925.75
473.311	940.75
473.53	921.75
473.749	904.75
473.968	918.75
474.187	901.75
474.406	933.75
474.625	927.75
474.844	917.75
475.063	927.75
475.282	891.75
475.501	950.75
475.72	947.75
475.939	936.75
476.158	946.75
476.377	967.75
476.596	972.75
476.814	1000.75
477.033	966.75
477.252	1007.75
477.471	1012.75
477.69	1027.75
477.908	1055.75
478.127	1068.75
478.346	1090.75
478.564	1107.75
478.783	1130.75
479.002	1177.75
479.22	1169.75
479.439	1146.75
479.658	1129.75
479.876	1155.75
480.095	1167.75
480.313	1230.75
480.532	1223.75
480.751	1210.75
480.969	1195.75
481.188	1122.75
481.406	1099.75
481.624	1100.75
481.843	1081.75
482.061	1062.75
482.28	1070.75
482.498	1037.75
482.717	1059.75
482.935	1017.75
483.153	1056.75
483.372	1043.75
483.59	1048.75
483.808	1075.75
484.027	1043.75
484.245	1069.75
484.463	1051.75
484.681	1046.75
484.9	1045.75
485.118	1101.75
485.336	1111.75
485.554	1116.75
485.772	1107.75
485.99	1117.75
486.209	1140.75
486.427	1117.75
486.645	1084.75
486.863	1134.75
487.081	1110.75
487.299	1079.75
487.517	1117.75
487.735	1095.75
487.953	1110.75
488.171	1098.75
488.389	1094.75
488.607	1071.75
488.825	1097.75
489.043	1061.75
489.261	1061.75
489.479	1081.75
489.696	1095.75
489.914	1086.75
490.132	1108.75
490.35	1099.75
490.568	1108.75
490.786	1083.75
491.003	1100.75
491.221	1130.75
491.439	1130.75
491.657	1123.75
491.874	1121.75
492.092	1118.75
492.31	1119.75
492.527	1132.75
492.745	1135.75
492.963	1140.75
493.18	1131.75
493.398	1130.75
493.615	1167.75
493.833	1157.75
494.05	1137.75
494.268	1151.75
494.485	1139.75
494.703	1180.75
494.92	1187.75
495.138	1179.75
495.355	1166.75
495.573	1191.75
495.79	1180.75
496.008	1157.75
496.225	1169.75
496.442	1175.75
496.66	1223.75
496.877	1219.75
497.094	1230.75
497.312	1249.75
497.529	1288.75
497.746	1301.75
497.963	1316.75
498.181	1420.75
498.398	1444.75
498.615	1574.75
498.832	1647.75
499.049	1805.75
499.267	1927.75
499.484	2154.75
499.701	2341.75
499.918	2603.75
500.135	2987.75
500.352	3400.75
500.569	3516.75
500.786	3424.75
501.003	3269.75
501.22	3007.75
501.437	2582.75
501.654	2286.75
501.871	2099.75
502.088	1915.75
502.305	1782.75
502.522	1677.75
502.739	1654.75
502.956	1551.75
503.172	1486.75
503.389	1386.75
503.606	1350.75
503.823	1359.75
504.04	1358.75
504.256	1364.75
504.473	1373.75
504.69	1420.75
504.907	1379.75
505.123	1276.75
505.34	1247.75
505.557	1167.75
505.773	1149.75
505.99	1121.75
506.207	1105.75
506.423	1061.75
506.64	1073.75
506.856	1044.75
507.073	1050.75
507.289	1053.75
507.506	1048.75
507.722	1018.75
507.939	1006.75
508.155	994.75
508.372	1054.75
508.588	995.75
508.805	977.75
509.021	974.75
509.238	982.75
509.454	963.75
509.67	951.75
509.887	951.75
510.103	946.75
510.319	935.75
510.536	951.75
510.752	927.75
510.968	938.75
511.184	921.75
511.401	926.75
511.617	934.75
511.833	971.75
512.049	923.75
512.265	953.75
512.481	932.75
512.698	947.75
512.914	924.75
513.13	948.75
513.346	949.75
513.562	951.75
513.778	937.75
513.994	940.75
514.21	961.75
514.426	954.75
514.642	956.75
514.858	977.75
515.074	985.75
515.29	977.75
515.506	985.75
515.721	995.75
515.937	999.75
516.153	1039.75
516.369	1054.75
516.585	1071.75
516.801	1116.75
517.016	1148.75
517.232	1194.75
517.448	1251.75
517.664	1306.75
517.879	1324.75
518.095	1356.75
518.311	1291.75
518.527	1225.75
518.742	1199.75
518.958	1141.75
519.173	1110.75
519.389	1094.75
519.605	1012.75
519.82	998.75
520.036	996.75
520.251	975.75
520.467	976.75
520.682	951.75
520.898	938.75
521.113	961.75
521.329	951.75
521.544	946.75
521.76	921.75
521.975	918.75
522.19	908.75
522.406	908.75
522.621	909.75
522.836	895.75
523.052	902.75
523.267	889.75
523.482	873.75
523.698	877.75
523.913	856.75
524.128	906.75
524.343	881.75
524.559	863.75
524.774	872.75
524.989	883.75
525.204	881.75
525.419	858.75
525.634	878.75
525.849	865.75
526.064	873.75
526.28	889.75
526.495	869.75
526.71	862.75
526.925	842.75
527.14	861.75
527.355	862.75
527.57	859.75
527.785	895.75
527.999	858.75
528.214	845.75
528.429	839.75
528.644	836.75
528.859	851.75
529.074	873.75
529.289	830.75
529.503	869.75
529.718	886.75
529.933	856.75
530.148	870.75
530.363	857.75
530.577	856.75
530.792	851.75
531.007	863.75
531.221	845.75
531.436	846.75
531.651	851.75
531.865	859.75
532.08	866.75
532.295	866.75
532.509	851.75
532.724	856.75
532.938	851.75
533.153	839.75
533.367	874.75
533.582	867.75
533.796	828.75
534.011	830.75
534.225	868.75
534.44	829.75
534.654	827.75
534.868	852.75
535.083	844.75
535.297	850.75
535.511	837.75
535.726	819.75
535.94	818.75
536.154	818.75
536.369	827.75
536.583	815.75
536.797	810.75
537.011	800.75
537.225	794.75
537.44	798.75
537.654	815.75
537.868	784.75
538.082	792.75
538.296	779.75
538.51	766.75
538.724	781.75
538.938	751.75
539.153	779.75
539.367	774.75
539.581	781.75
539.795	757.75
540.009	758.75
540.222	776.75
540.436	758.75
540.65	772.75
540.864	739.75
541.078	776.75
541.292	761.75
541.506	761.75
541.72	769.75
541.934	738.75
542.147	783.75
542.361	750.75
542.575	754.75
542.789	763.75
543.002	782.75
543.216	748.75
543.43	747.75
543.644	753.75
543.857	782.75
544.071	755.75
544.285	756.75
544.498	759.75
544.712	793.75
544.925	771.75
545.139	790.75
545.352	800.75
545.566	793.75
545.779	803.75
545.993	782.75
546.206	829.75
546.42	762.75
546.633	791.75
546.847	792.75
547.06	765.75
547.274	765.75
547.487	776.75
547.7	789.75
547.914	797.75
548.127	776.75
548.34	776.75
548.554	797.75
548.767	807.75
548.98	774.75
549.193	796.75
549.407	792.75
549.62	804.75
549.833	830.75
550.046	806.75
550.259	790.75
550.473	795.75
550.686	771.75
550.899	775.75
551.112	762.75
551.325	769.75
551.538	758.75
551.751	779.75
551.964	766.75
552.177	787.75
552.39	777.75
552.603	796.75
552.816	811.75
553.029	847.75
553.242	871.75
553.455	873.75
553.667	870.75
553.88	855.75
554.093	839.75
554.306	828.75
554.519	798.75
554.732	783.75
554.944	784.75
555.157	743.75
555.37	751.75
555.583	755.75
555.795	726.75
556.008	732.75
556.221	709.75
556.433	683.75
556.646	681.75
556.859	677.75
557.071	694.75
557.284	694.75
557.496	661.75
557.709	662.75
557.921	662.75
558.134	669.75
558.346	687.75
558.559	654.75
558.771	676.75
558.984	657.75
559.196	666.75
559.409	698.75
559.621	644.75
559.833	647.75
560.046	637.75
560.258	653.75
560.47	670.75
560.683	657.75
560.895	620.75
561.107	632.75
561.32	654.75
561.532	667.75
561.744	632.75
561.956	638.75
562.168	666.75
562.381	642.75
562.593	630.75
562.805	658.75
563.017	641.75
563.229	645.75
563.441	673.75
563.653	682.75
563.865	651.75
564.077	660.75
564.289	670.75
564.501	694.75
564.713	701.75
564.925	715.75
565.137	692.75
565.349	703.75
565.561	751.75
565.773	770.75
565.985	807.75
566.197	847.75
566.408	901.75
566.62	982.75
566.832	1059.75
567.044	1084.75
567.255	1088.75
567.467	1126.75
567.679	1169.75
567.891	1246.75
568.102	1240.75
568.314	1227.75
568.526	1132.75
568.737	1001.75
568.949	895.75
569.161	829.75
569.372	794.75
569.584	760.75
569.795	726.75
570.007	697.75
570.218	663.75
570.43	682.75
570.641	685.75
570.853	691.75
571.064	684.75
571.276	673.75
571.487	641.75
571.698	651.75
571.91	618.75
572.121	613.75
572.333	595.75
572.544	566.75
572.755	581.75
572.966	565.75
573.178	571.75
573.389	554.75
573.6	563.75
573.811	554.75
574.023	547.75
574.234	525.75
574.445	573.75
574.656	557.75
574.867	533.75
575.078	550.75
575.289	536.75
575.501	545.75
575.712	520.75
575.923	514.75
576.134	525.75
576.345	510.75
576.556	499.75
576.767	509.75
576.978	499.75
577.188	517.75
577.399	493.75
577.61	482.75
577.821	492.75
578.032	492.75
578.243	473.75
578.454	468.75
578.665	505.75
578.875	487.75
579.086	474.75
579.297	475.75
579.508	488.75
579.718	497.75
579.929	467.75
580.14	455.75
580.35	464.75
580.561	449.75
580.772	465.75
580.982	480.75
581.193	493.75
581.403	458.75
581.614	463.75
581.825	459.75
582.035	463.75
582.246	459.75
582.456	463.75
582.667	444.75
582.877	462.75
583.087	469.75
583.298	464.75
583.508	452.75
583.719	445.75
583.929	453.75
584.139	433.75
584.35	440.75
584.56	464.75
584.77	467.75
584.981	430.75
585.191	450.75
585.401	442.75
585.611	441.75
585.821	465.75
586.032	441.75
586.242	439.75
586.452	426.75
586.662	426.75
586.872	449.75
587.082	457.75
587.292	446.75
587.502	440.75
587.713	452.75
587.923	431.75
588.133	437.75
588.343	455.75
588.553	434.75
588.762	429.75
588.972	448.75
589.182	457.75
589.392	471.75
589.602	425.75
589.812	449.75
590.022	442.75
590.232	423.75
590.441	429.75
590.651	434.75
590.861	437.75
591.071	463.75
591.281	463.75
591.49	474.75
591.7	464.75
591.91	462.75
592.119	460.75
592.329	461.75
592.539	478.75
592.748	517.75
592.958	531.75
593.167	526.75
593.377	563.75
593.587	557.75
593.796	550.75
594.006	558.75
594.215	585.75
594.424	572.75
594.634	541.75
594.843	535.75
595.053	530.75
595.262	519.75
595.472	473.75
595.681	461.75
595.89	455.75
596.1	437.75
596.309	433.75
596.518	439.75
596.727	431.75
596.937	411.75
597.146	423.75
597.355	395.75
597.564	402.75
597.774	396.75
597.983	388.75
598.192	403.75
598.401	390.75
598.61	393.75
598.819	391.75
599.028	393.75
599.237	381.75
599.446	370.75
599.655	371.75
599.864	372.75
600.073	374.75
600.282	362.75
600.491	361.75
600.7	379.75
600.909	377.75
601.118	370.75
601.327	359.75
601.536	361.75
601.745	355.75
601.953	360.75
602.162	356.75
602.371	364.75
602.58	372.75
602.789	363.75
602.997	359.75
603.206	379.75
603.415	373.75
603.623	359.75
603.832	345.75
604.041	371.75
604.249	366.75
604.458	349.75
604.666	358.75
604.875	354.75
605.084	326.75
605.292	333.75
605.501	367.75
605.709	350.75
605.918	345.75
606.126	342.75
606.334	344.75
606.543	342.75
606.751	352.75
606.96	345.75
607.168	341.75
607.376	326.75
607.585	335.75
607.793	334.75
608.001	336.75
608.21	333.75
608.418	334.75
608.626	332.75
608.834	341.75
609.043	326.75
609.251	331.75
609.459	344.75
609.667	311.75
609.875	311.75
610.083	318.75
610.291	337.75
610.499	329.75
610.707	321.75
610.916	315.75
611.124	317.75
611.332	322.75
611.54	327.75
611.748	341.75
611.955	339.75
612.163	331.75
612.371	341.75
612.579	321.75
612.787	328.75
612.995	315.75
613.203	339.75
613.411	322.75
613.618	321.75
613.826	313.75
614.034	328.75
614.242	330.75
614.449	302.75
614.657	331.75
614.865	303.75
615.072	305.75
615.28	331.75
615.488	306.75
615.695	323.75
615.903	327.75
616.111	322.75
616.318	309.75
616.526	307.75
616.733	325.75
616.941	332.75
617.148	329.75
617.356	312.75
617.563	316.75
617.771	334.75
617.978	331.75
618.185	304.75
618.393	299.75
618.6	316.75
618.807	311.75
619.015	325.75
619.222	316.75
619.429	302.75
619.637	315.75
619.844	307.75
620.051	288.75
620.258	298.75
620.466	278.75
620.673	296.75
620.88	300.75
621.087	298.75
621.294	295.75
621.501	307.75
621.708	315.75
621.915	302.75
622.122	291.75
622.329	300.75
622.536	312.75
622.743	296.75
622.95	295.75
623.157	291.75
623.364	307.75
623.571	273.75
623.778	286.75
623.985	286.75
624.192	279.75
624.399	294.75
624.606	275.75
624.812	276.75
625.019	274.75
625.226	287.75
625.433	284.75
625.639	297.75
625.846	288.75
626.053	282.75
626.259	296.75
626.466	277.75
626.673	264.75
626.879	275.75
627.086	277.75
627.293	270.75
627.499	247.75
627.706	256.75
627.912	269.75
628.119	263.75
628.325	275.75
628.532	270.75
628.738	276.75
628.945	258.75
629.151	264.75
629.357	252.75
629.564	263.75
629.77	244.75
629.976	248.75
630.183	271.75
630.389	257.75
630.595	252.75
630.802	232.75
631.008	249.75
631.214	257.75
631.42	274.75
631.627	251.75
631.833	263.75
632.039	249.75
632.245	241.75
632.451	253.75
632.657	257.75
632.863	254.75
633.069	245.75
633.275	239.75
633.481	275.75
633.688	249.75
633.893	255.75
634.099	269.75
634.305	234.75
634.511	225.75
634.717	227.75
634.923	226.75
635.129	222.75
635.335	237.75
635.541	237.75
635.747	249.75
635.952	219.75
636.158	236.75
636.364	233.75
636.57	232.75
636.775	232.75
636.981	224.75
637.187	221.75
637.392	237.75
637.598	226.75
637.804	229.75
638.009	217.75
638.215	214.75
638.421	221.75
638.626	208.75
638.832	221.75
639.037	217.75
639.243	227.75
639.448	234.75
639.654	230.75
639.859	214.75
640.065	218.75
640.27	227.75
640.475	216.75
640.681	208.75
640.886	213.75
641.091	216.75
641.297	223.75
641.502	216.75
641.707	205.75
641.913	199.75
642.118	220.75
642.323	201.75
642.528	213.75
642.733	210.75
642.939	188.75
643.144	203.75
643.349	217.75
643.554	221.75
643.759	207.75
643.964	206.75
644.169	204.75
644.374	218.75
644.579	197.75
644.784	209.75
644.989	220.75
645.194	198.75
645.399	204.75
645.604	205.75
645.809	227.75
646.014	208.75
646.219	191.75
646.423	203.75
646.628	206.75
646.833	191.75
647.038	204.75
647.243	222.75
647.447	199.75
647.652	224.75
647.857	229.75
648.062	218.75
648.266	214.75
648.471	237.75
648.676	219.75
648.88	223.75
649.085	214.75
649.289	199.75
649.494	209.75
649.698	212.75
649.903	202.75
650.107	198.75
650.312	193.75
650.516	183.75
650.721	198.75
650.925	197.75
651.13	189.75
651.334	179.75
651.539	200.75
651.743	188.75
651.947	172.75
652.152	181.75
652.356	168.75
652.56	177.75
652.764	177.75
652.969	167.75
653.173	168.75
653.377	181.75
653.581	175.75
653.785	151.75
653.99	159.75
654.194	167.75
654.398	165.75
654.602	156.75
654.806	150.75
655.01	169.75
655.214	161.75
655.418	170.75
655.622	155.75
655.826	147.75
656.03	156.75
656.234	137.75
656.438	135.75
656.642	153.75
656.846	152.75
657.049	149.75
657.253	126.75
657.457	123.75
657.661	117.75
657.865	122.75
658.068	132.75
658.272	124.75
658.476	127.75
658.68	99.75
658.883	117.75
659.087	121.75
659.291	123.75
659.494	105.75
659.698	103.75
659.901	99.75
660.105	102.75
660.309	103.75
660.512	97.75
660.716	102.75
660.919	99.75
661.123	89.75
661.326	94.75
661.53	83.75
661.733	104.75
661.936	106.75
662.14	80.75
662.343	87.75
662.546	80.75
662.75	95.75
662.953	102.75
663.156	87.75
663.36	98.75
663.563	93.75
663.766	100.75
663.969	85.75
664.173	89.75
664.376	90.75
664.579	90.75
664.782	98.75
664.985	91.75
665.188	98.75
665.391	76.75
665.594	91.75
665.797	67.75
666	85.75
666.203	82.75
666.406	80.75
666.609	88.75
666.812	88.75
667.015	70.75
667.218	82.75
667.421	86.75
667.624	90.75
667.827	86.75
668.03	100.75
668.232	84.75
668.435	79.75
668.638	73.75
668.841	90.75
669.043	94.75
669.246	82.75
669.449	84.75
669.651	89.75
669.854	83.75
670.057	75.75
670.259	92.75
670.462	81.75
670.665	84.75
670.867	78.75
671.07	84.75
671.272	69.75
671.475	88.75
671.677	75.75
671.88	82.75
672.082	80.75
672.284	94.75
672.487	88.75
672.689	86.75
672.892	83.75
