Data from NiCl2@0.25M.TitratingCurve.Agarose3%dH2O.NegLispCup.LampEnergy10.LIBS07252019_HRD10591_18-25-05-573.txt Node
Date: Thu Jul 25 18:25:05 EDT 2019
User: cochatt
Spectrometer: HR+D1059
Trigger mode: 1
Integration Time (sec): 1.000000E-1
Scans to average: 1
Electric dark correction enabled: true
Nonlinearity correction enabled: false
Boxcar width: 0
XAxis mode: Wavelengths
Number of Pixels in Spectrum: 2048
>>>>>Begin Spectral Data<<<<<
223.165	-7.88
223.4	-7.88
223.635	-7.88
223.869	-0.88
224.104	-7.88
224.338	-14.88
224.573	-23.88
224.808	-7.88
225.042	-1.88
225.277	-11.88
225.511	-15.88
225.746	-7.88
225.98	14.12
226.215	-0.88
226.449	20.12
226.683	10.12
226.918	26.12
227.152	31.12
227.387	42.12
227.621	34.12
227.856	43.12
228.09	58.12
228.324	40.12
228.559	50.12
228.793	74.12
229.027	122.12
229.262	122.12
229.496	129.12
229.73	128.12
229.964	144.12
230.199	148.12
230.433	158.12
230.667	150.12
230.901	148.12
231.136	154.12
231.37	153.12
231.604	155.12
231.838	154.12
232.072	167.12
232.306	164.12
232.541	187.12
232.775	140.12
233.009	164.12
233.243	167.12
233.477	163.12
233.711	171.12
233.945	176.12
234.179	162.12
234.413	173.12
234.647	172.12
234.881	176.12
235.115	176.12
235.349	186.12
235.583	178.12
235.817	194.12
236.051	185.12
236.285	195.12
236.519	174.12
236.753	186.12
236.987	193.12
237.221	207.12
237.455	185.12
237.689	198.12
237.922	177.12
238.156	190.12
238.39	189.12
238.624	199.12
238.858	178.12
239.091	189.12
239.325	205.12
239.559	202.12
239.793	203.12
240.027	230.12
240.26	230.12
240.494	222.12
240.728	218.12
240.961	224.12
241.195	225.12
241.429	226.12
241.662	221.12
241.896	240.12
242.13	221.12
242.363	228.12
242.597	217.12
242.83	228.12
243.064	236.12
243.298	230.12
243.531	243.12
243.765	255.12
243.998	272.12
244.232	255.12
244.465	258.12
244.699	250.12
244.932	266.12
245.166	277.12
245.399	277.12
245.633	255.12
245.866	267.12
246.099	284.12
246.333	286.12
246.566	298.12
246.8	271.12
247.033	293.12
247.266	279.12
247.5	302.12
247.733	281.12
247.966	282.12
248.2	276.12
248.433	292.12
248.666	290.12
248.899	288.12
249.133	298.12
249.366	306.12
249.599	310.12
249.832	294.12
250.066	311.12
250.299	322.12
250.532	312.12
250.765	304.12
250.998	310.12
251.231	295.12
251.465	310.12
251.698	318.12
251.931	308.12
252.164	326.12
252.397	330.12
252.63	339.12
252.863	350.12
253.096	332.12
253.329	341.12
253.562	327.12
253.795	350.12
254.028	351.12
254.261	351.12
254.494	328.12
254.727	360.12
254.96	340.12
255.193	360.12
255.426	346.12
255.659	362.12
255.892	343.12
256.124	338.12
256.357	354.12
256.59	351.12
256.823	363.12
257.056	368.12
257.289	363.12
257.521	380.12
257.754	374.12
257.987	385.12
258.22	379.12
258.452	382.12
258.685	382.12
258.918	374.12
259.151	388.12
259.383	378.12
259.616	358.12
259.849	378.12
260.081	382.12
260.314	402.12
260.547	410.12
260.779	382.12
261.012	386.12
261.244	401.12
261.477	392.12
261.71	397.12
261.942	397.12
262.175	408.12
262.407	372.12
262.64	384.12
262.872	420.12
263.105	412.12
263.337	415.12
263.57	422.12
263.802	434.12
264.035	419.12
264.267	408.12
264.499	413.12
264.732	432.12
264.964	423.12
265.197	442.12
265.429	423.12
265.661	463.12
265.894	452.12
266.126	464.12
266.358	423.12
266.591	448.12
266.823	444.12
267.055	449.12
267.287	448.12
267.52	453.12
267.752	464.12
267.984	444.12
268.216	468.12
268.448	444.12
268.681	458.12
268.913	455.12
269.145	465.12
269.377	466.12
269.609	470.12
269.841	464.12
270.073	476.12
270.306	477.12
270.538	485.12
270.77	470.12
271.002	478.12
271.234	471.12
271.466	503.12
271.698	494.12
271.93	458.12
272.162	465.12
272.394	467.12
272.626	498.12
272.858	485.12
273.09	487.12
273.322	516.12
273.553	494.12
273.785	499.12
274.017	500.12
274.249	500.12
274.481	511.12
274.713	506.12
274.945	509.12
275.176	504.12
275.408	522.12
275.64	525.12
275.872	498.12
276.104	542.12
276.335	520.12
276.567	544.12
276.799	542.12
277.031	549.12
277.262	528.12
277.494	528.12
277.726	524.12
277.957	540.12
278.189	536.12
278.421	541.12
278.652	552.12
278.884	565.12
279.115	562.12
279.347	546.12
279.579	538.12
279.81	571.12
280.042	567.12
280.273	558.12
280.505	532.12
280.736	565.12
280.968	569.12
281.199	554.12
281.431	578.12
281.662	578.12
281.894	555.12
282.125	603.12
282.356	582.12
282.588	596.12
282.819	590.12
283.051	582.12
283.282	583.12
283.513	587.12
283.745	614.12
283.976	601.12
284.207	600.12
284.439	606.12
284.67	606.12
284.901	621.12
285.132	595.12
285.364	606.12
285.595	612.12
285.826	621.12
286.057	632.12
286.288	615.12
286.52	616.12
286.751	634.12
286.982	658.12
287.213	636.12
287.444	617.12
287.675	638.12
287.906	648.12
288.138	650.12
288.369	649.12
288.6	645.12
288.831	632.12
289.062	655.12
289.293	652.12
289.524	621.12
289.755	666.12
289.986	653.12
290.217	648.12
290.448	654.12
290.679	651.12
290.91	650.12
291.141	669.12
291.371	662.12
291.602	646.12
291.833	646.12
292.064	677.12
292.295	670.12
292.526	669.12
292.757	670.12
292.987	650.12
293.218	644.12
293.449	670.12
293.68	660.12
293.91	665.12
294.141	653.12
294.372	666.12
294.603	672.12
294.833	674.12
295.064	666.12
295.295	680.12
295.525	678.12
295.756	659.12
295.987	679.12
296.217	678.12
296.448	694.12
296.679	685.12
296.909	701.12
297.14	682.12
297.37	712.12
297.601	702.12
297.831	712.12
298.062	696.12
298.292	733.12
298.523	740.12
298.753	715.12
298.984	718.12
299.214	697.12
299.445	717.12
299.675	699.12
299.905	716.12
300.136	724.12
300.366	725.12
300.597	718.12
300.827	744.12
301.057	749.12
301.288	747.12
301.518	742.12
301.748	791.12
301.979	758.12
302.209	761.12
302.439	746.12
302.669	766.12
302.9	716.12
303.13	734.12
303.36	727.12
303.59	730.12
303.82	755.12
304.051	744.12
304.281	734.12
304.511	733.12
304.741	738.12
304.971	741.12
305.201	727.12
305.431	735.12
305.661	739.12
305.891	735.12
306.121	729.12
306.352	757.12
306.582	734.12
306.812	714.12
307.042	720.12
307.272	711.12
307.502	738.12
307.731	748.12
307.961	742.12
308.191	712.12
308.421	718.12
308.651	747.12
308.881	726.12
309.111	747.12
309.341	711.12
309.571	740.12
309.8	728.12
310.03	743.12
310.26	737.12
310.49	730.12
310.72	749.12
310.949	726.12
311.179	731.12
311.409	733.12
311.639	742.12
311.868	760.12
312.098	745.12
312.328	758.12
312.557	729.12
312.787	771.12
313.017	770.12
313.246	790.12
313.476	779.12
313.706	782.12
313.935	788.12
314.165	774.12
314.394	774.12
314.624	799.12
314.853	777.12
315.083	780.12
315.312	763.12
315.542	804.12
315.771	792.12
316.001	758.12
316.23	784.12
316.46	790.12
316.689	765.12
316.919	783.12
317.148	791.12
317.377	781.12
317.607	778.12
317.836	739.12
318.065	770.12
318.295	770.12
318.524	775.12
318.753	754.12
318.983	778.12
319.212	755.12
319.441	755.12
319.67	773.12
319.9	782.12
320.129	790.12
320.358	775.12
320.587	758.12
320.816	766.12
321.046	771.12
321.275	749.12
321.504	777.12
321.733	771.12
321.962	772.12
322.191	757.12
322.42	784.12
322.649	782.12
322.878	783.12
323.108	752.12
323.337	796.12
323.566	785.12
323.795	809.12
324.024	825.12
324.253	808.12
324.482	779.12
324.71	783.12
324.939	824.12
325.168	827.12
325.397	800.12
325.626	823.12
325.855	820.12
326.084	858.12
326.313	835.12
326.542	877.12
326.77	850.12
326.999	845.12
327.228	831.12
327.457	824.12
327.686	832.12
327.914	840.12
328.143	862.12
328.372	874.12
328.6	875.12
328.829	829.12
329.058	880.12
329.287	841.12
329.515	856.12
329.744	843.12
329.972	853.12
330.201	858.12
330.43	874.12
330.658	864.12
330.887	888.12
331.115	897.12
331.344	884.12
331.572	916.12
331.801	934.12
332.03	943.12
332.258	922.12
332.486	987.12
332.715	1023.12
332.943	1053.12
333.172	1065.12
333.4	1117.12
333.629	1156.12
333.857	1186.12
334.085	1136.12
334.314	1152.12
334.542	1102.12
334.771	1063.12
334.999	1051.12
335.227	1065.12
335.455	1041.12
335.684	1049.12
335.912	1053.12
336.14	1034.12
336.369	1010.12
336.597	1015.12
336.825	1037.12
337.053	997.12
337.281	999.12
337.51	990.12
337.738	1002.12
337.966	973.12
338.194	926.12
338.422	966.12
338.65	920.12
338.878	918.12
339.106	930.12
339.334	942.12
339.562	912.12
339.79	931.12
340.018	875.12
340.246	858.12
340.474	916.12
340.702	907.12
340.93	906.12
341.158	920.12
341.386	908.12
341.614	895.12
341.842	896.12
342.07	895.12
342.298	903.12
342.526	876.12
342.754	894.12
342.981	877.12
343.209	920.12
343.437	972.12
343.665	1008.12
343.893	1059.12
344.12	1107.12
344.348	1060.12
344.576	1004.12
344.804	981.12
345.031	943.12
345.259	936.12
345.487	902.12
345.714	891.12
345.942	883.12
346.17	894.12
346.397	873.12
346.625	864.12
346.853	876.12
347.08	847.12
347.308	853.12
347.535	873.12
347.763	869.12
347.99	861.12
348.218	864.12
348.445	832.12
348.673	858.12
348.9	874.12
349.128	862.12
349.355	872.12
349.583	872.12
349.81	849.12
350.037	830.12
350.265	838.12
350.492	853.12
350.72	806.12
350.947	829.12
351.174	830.12
351.402	860.12
351.629	826.12
351.856	820.12
352.083	820.12
352.311	819.12
352.538	850.12
352.765	820.12
352.992	796.12
353.22	812.12
353.447	791.12
353.674	796.12
353.901	825.12
354.128	816.12
354.355	808.12
354.583	814.12
354.81	806.12
355.037	801.12
355.264	804.12
355.491	808.12
355.718	807.12
355.945	822.12
356.172	826.12
356.399	805.12
356.626	852.12
356.853	843.12
357.08	814.12
357.307	822.12
357.534	808.12
357.761	824.12
357.988	828.12
358.215	826.12
358.441	826.12
358.668	810.12
358.895	826.12
359.122	824.12
359.349	818.12
359.576	850.12
359.802	819.12
360.029	816.12
360.256	849.12
360.483	846.12
360.709	853.12
360.936	848.12
361.163	835.12
361.39	846.12
361.616	830.12
361.843	841.12
362.07	836.12
362.296	799.12
362.523	802.12
362.749	847.12
362.976	836.12
363.203	806.12
363.429	826.12
363.656	818.12
363.882	819.12
364.109	837.12
364.335	828.12
364.562	824.12
364.788	853.12
365.015	848.12
365.241	825.12
365.468	822.12
365.694	825.12
365.92	807.12
366.147	814.12
366.373	803.12
366.599	833.12
366.826	847.12
367.052	805.12
367.278	822.12
367.505	820.12
367.731	821.12
367.957	847.12
368.184	850.12
368.41	822.12
368.636	837.12
368.862	841.12
369.089	862.12
369.315	852.12
369.541	852.12
369.767	852.12
369.993	846.12
370.219	867.12
370.445	878.12
370.672	866.12
370.898	875.12
371.124	868.12
371.35	894.12
371.576	902.12
371.802	887.12
372.028	928.12
372.254	889.12
372.48	892.12
372.706	930.12
372.932	928.12
373.158	928.12
373.384	891.12
373.61	879.12
373.835	889.12
374.061	918.12
374.287	927.12
374.513	909.12
374.739	940.12
374.965	978.12
375.191	1012.12
375.416	999.12
375.642	982.12
375.868	943.12
376.094	932.12
376.319	906.12
376.545	924.12
376.771	920.12
376.997	886.12
377.222	873.12
377.448	918.12
377.674	895.12
377.899	889.12
378.125	879.12
378.35	900.12
378.576	898.12
378.802	895.12
379.027	886.12
379.253	884.12
379.478	901.12
379.704	902.12
379.929	910.12
380.155	875.12
380.38	878.12
380.606	876.12
380.831	910.12
381.057	905.12
381.282	900.12
381.507	904.12
381.733	908.12
381.958	907.12
382.184	915.12
382.409	938.12
382.634	916.12
382.86	928.12
383.085	947.12
383.31	930.12
383.535	986.12
383.761	1012.12
383.986	999.12
384.211	1020.12
384.436	1048.12
384.662	1058.12
384.887	1096.12
385.112	1089.12
385.337	1058.12
385.562	1111.12
385.787	1088.12
386.013	1112.12
386.238	1096.12
386.463	1058.12
386.688	1080.12
386.913	1085.12
387.138	1082.12
387.363	1083.12
387.588	1064.12
387.813	1064.12
388.038	1052.12
388.263	1056.12
388.488	1066.12
388.713	1096.12
388.938	1039.12
389.163	1024.12
389.387	1007.12
389.612	1055.12
389.837	1055.12
390.062	1054.12
390.287	1069.12
390.512	1045.12
390.736	1101.12
390.961	1093.12
391.186	1110.12
391.411	1140.12
391.636	1160.12
391.86	1209.12
392.085	1212.12
392.31	1262.12
392.534	1206.12
392.759	1172.12
392.984	1165.12
393.208	1103.12
393.433	1115.12
393.658	1143.12
393.882	1137.12
394.107	1164.12
394.331	1158.12
394.556	1154.12
394.78	1145.12
395.005	1164.12
395.229	1134.12
395.454	1194.12
395.678	1213.12
395.903	1234.12
396.127	1195.12
396.352	1182.12
396.576	1141.12
396.801	1134.12
397.025	1158.12
397.249	1183.12
397.474	1212.12
397.698	1180.12
397.922	1228.12
398.147	1232.12
398.371	1260.12
398.595	1261.12
398.82	1310.12
399.044	1448.12
399.268	1564.12
399.492	1833.12
399.717	2036.12
399.941	2080.12
400.165	1859.12
400.389	1616.12
400.613	1502.12
400.837	1451.12
401.062	1408.12
401.286	1344.12
401.51	1383.12
401.734	1397.12
401.958	1371.12
402.182	1403.12
402.406	1396.12
402.63	1431.12
402.854	1465.12
403.078	1455.12
403.302	1516.12
403.526	1517.12
403.75	1580.12
403.974	1607.12
404.198	1576.12
404.422	1608.12
404.645	1546.12
404.869	1574.12
405.093	1533.12
405.317	1490.12
405.541	1509.12
405.765	1453.12
405.988	1465.12
406.212	1466.12
406.436	1500.12
406.66	1555.12
406.883	1529.12
407.107	1641.12
407.331	1723.12
407.555	1785.12
407.778	1752.12
408.002	1707.12
408.226	1690.12
408.449	1651.12
408.673	1545.12
408.896	1524.12
409.12	1538.12
409.344	1547.12
409.567	1522.12
409.791	1537.12
410.014	1555.12
410.238	1485.12
410.461	1480.12
410.685	1461.12
410.908	1495.12
411.132	1435.12
411.355	1389.12
411.578	1396.12
411.802	1400.12
412.025	1454.12
412.249	1459.12
412.472	1444.12
412.695	1405.12
412.919	1355.12
413.142	1331.12
413.365	1341.12
413.589	1370.12
413.812	1332.12
414.035	1315.12
414.258	1338.12
414.482	1332.12
414.705	1383.12
414.928	1382.12
415.151	1370.12
415.374	1371.12
415.597	1347.12
415.821	1272.12
416.044	1326.12
416.267	1327.12
416.49	1306.12
416.713	1322.12
416.936	1330.12
417.159	1310.12
417.382	1334.12
417.605	1291.12
417.828	1317.12
418.051	1333.12
418.274	1330.12
418.497	1302.12
418.72	1360.12
418.943	1385.12
419.166	1423.12
419.389	1572.12
419.611	1475.12
419.834	1433.12
420.057	1409.12
420.28	1383.12
420.503	1325.12
420.726	1345.12
420.948	1342.12
421.171	1340.12
421.394	1342.12
421.617	1315.12
421.839	1346.12
422.062	1315.12
422.285	1334.12
422.507	1343.12
422.73	1359.12
422.953	1347.12
423.175	1379.12
423.398	1394.12
423.621	1396.12
423.843	1428.12
424.066	1399.12
424.288	1419.12
424.511	1389.12
424.733	1401.12
424.956	1356.12
425.178	1365.12
425.401	1355.12
425.623	1314.12
425.846	1290.12
426.068	1262.12
426.291	1298.12
426.513	1288.12
426.735	1245.12
426.958	1249.12
427.18	1222.12
427.402	1210.12
427.625	1218.12
427.847	1193.12
428.069	1165.12
428.292	1193.12
428.514	1208.12
428.736	1158.12
428.958	1186.12
429.181	1153.12
429.403	1149.12
429.625	1164.12
429.847	1126.12
430.069	1190.12
430.292	1158.12
430.514	1122.12
430.736	1150.12
430.958	1162.12
431.18	1166.12
431.402	1140.12
431.624	1176.12
431.846	1188.12
432.068	1221.12
432.29	1230.12
432.512	1173.12
432.734	1189.12
432.956	1170.12
433.178	1176.12
433.4	1171.12
433.622	1186.12
433.844	1210.12
434.066	1214.12
434.287	1211.12
434.509	1246.12
434.731	1302.12
434.953	1340.12
435.175	1338.12
435.397	1321.12
435.618	1254.12
435.84	1224.12
436.062	1176.12
436.284	1176.12
436.505	1180.12
436.727	1183.12
436.949	1194.12
437.17	1162.12
437.392	1153.12
437.614	1166.12
437.835	1130.12
438.057	1118.12
438.278	1121.12
438.5	1117.12
438.721	1112.12
438.943	1141.12
439.165	1125.12
439.386	1161.12
439.608	1161.12
439.829	1161.12
440.05	1156.12
440.272	1170.12
440.493	1193.12
440.715	1182.12
440.936	1207.12
441.158	1236.12
441.379	1255.12
441.6	1307.12
441.822	1310.12
442.043	1326.12
442.264	1296.12
442.486	1274.12
442.707	1275.12
442.928	1293.12
443.149	1293.12
443.371	1293.12
443.592	1306.12
443.813	1290.12
444.034	1307.12
444.255	1368.12
444.476	1425.12
444.698	1548.12
444.919	1583.12
445.14	1632.12
445.361	1480.12
445.582	1378.12
445.803	1284.12
446.024	1257.12
446.245	1216.12
446.466	1207.12
446.687	1171.12
446.908	1177.12
447.129	1154.12
447.35	1123.12
447.571	1102.12
447.792	1108.12
448.013	1110.12
448.234	1123.12
448.455	1118.12
448.675	1076.12
448.896	1050.12
449.117	1084.12
449.338	1094.12
449.559	1069.12
449.779	1035.12
450	1051.12
450.221	1061.12
450.442	1090.12
450.662	1069.12
450.883	1068.12
451.104	1095.12
451.324	1103.12
451.545	1081.12
451.766	1088.12
451.986	1063.12
452.207	1055.12
452.428	1065.12
452.648	1055.12
452.869	1031.12
453.089	1040.12
453.31	1074.12
453.53	1063.12
453.751	1030.12
453.971	1066.12
454.192	1018.12
454.412	1008.12
454.633	1025.12
454.853	1019.12
455.073	1016.12
455.294	1002.12
455.514	998.12
455.734	1022.12
455.955	993.12
456.175	998.12
456.395	981.12
456.616	965.12
456.836	1016.12
457.056	1016.12
457.276	966.12
457.497	1003.12
457.717	998.12
457.937	999.12
458.157	1029.12
458.377	1029.12
458.598	1039.12
458.818	1076.12
459.038	1080.12
459.258	1153.12
459.478	1181.12
459.698	1225.12
459.918	1286.12
460.138	1322.12
460.358	1337.12
460.578	1377.12
460.798	1388.12
461.018	1416.12
461.238	1355.12
461.458	1400.12
461.678	1359.12
461.898	1388.12
462.118	1390.12
462.338	1462.12
462.558	1473.12
462.777	1586.12
462.997	1701.12
463.217	1884.12
463.437	1883.12
463.657	1702.12
463.876	1616.12
464.096	1663.12
464.316	1621.12
464.536	1618.12
464.755	1575.12
464.975	1490.12
465.195	1438.12
465.414	1365.12
465.634	1280.12
465.854	1194.12
466.073	1180.12
466.293	1176.12
466.512	1157.12
466.732	1148.12
466.951	1150.12
467.171	1093.12
467.391	1135.12
467.61	1118.12
467.829	1140.12
468.049	1072.12
468.268	1101.12
468.488	1074.12
468.707	1080.12
468.927	1088.12
469.146	1074.12
469.365	1100.12
469.585	1069.12
469.804	1138.12
470.023	1144.12
470.243	1160.12
470.462	1146.12
470.681	1160.12
470.901	1174.12
471.12	1152.12
471.339	1148.12
471.558	1103.12
471.777	1110.12
471.997	1093.12
472.216	1091.12
472.435	1076.12
472.654	1060.12
472.873	1040.12
473.092	1064.12
473.311	1025.12
473.53	1079.12
473.749	1055.12
473.968	1024.12
474.187	1030.12
474.406	1040.12
474.625	1078.12
474.844	1070.12
475.063	1091.12
475.282	1048.12
475.501	1047.12
475.72	1096.12
475.939	1105.12
476.158	1082.12
476.377	1101.12
476.596	1107.12
476.814	1104.12
477.033	1122.12
477.252	1130.12
477.471	1154.12
477.69	1162.12
477.908	1191.12
478.127	1236.12
478.346	1272.12
478.564	1260.12
478.783	1314.12
479.002	1336.12
479.22	1316.12
479.439	1314.12
479.658	1305.12
479.876	1320.12
480.095	1316.12
480.313	1412.12
480.532	1430.12
480.751	1446.12
480.969	1395.12
481.188	1338.12
481.406	1294.12
481.624	1242.12
481.843	1237.12
482.061	1218.12
482.28	1222.12
482.498	1206.12
482.717	1183.12
482.935	1216.12
483.153	1190.12
483.372	1214.12
483.59	1220.12
483.808	1209.12
484.027	1193.12
484.245	1210.12
484.463	1231.12
484.681	1247.12
484.9	1240.12
485.118	1250.12
485.336	1229.12
485.554	1280.12
485.772	1267.12
485.99	1294.12
486.209	1286.12
486.427	1319.12
486.645	1267.12
486.863	1288.12
487.081	1270.12
487.299	1308.12
487.517	1278.12
487.735	1231.12
487.953	1253.12
488.171	1291.12
488.389	1277.12
488.607	1231.12
488.825	1257.12
489.043	1229.12
489.261	1254.12
489.479	1272.12
489.696	1245.12
489.914	1268.12
490.132	1296.12
490.35	1290.12
490.568	1292.12
490.786	1283.12
491.003	1269.12
491.221	1288.12
491.439	1276.12
491.657	1298.12
491.874	1282.12
492.092	1298.12
492.31	1307.12
492.527	1302.12
492.745	1297.12
492.963	1308.12
493.18	1328.12
493.398	1322.12
493.615	1320.12
493.833	1334.12
494.05	1342.12
494.268	1321.12
494.485	1345.12
494.703	1356.12
494.92	1376.12
495.138	1333.12
495.355	1353.12
495.573	1346.12
495.79	1372.12
496.008	1390.12
496.225	1350.12
496.442	1359.12
496.66	1410.12
496.877	1420.12
497.094	1442.12
497.312	1460.12
497.529	1496.12
497.746	1543.12
497.963	1626.12
498.181	1687.12
498.398	1739.12
498.615	1852.12
498.832	1972.12
499.049	2093.12
499.267	2322.12
499.484	2552.12
499.701	2752.12
499.918	3081.12
500.135	3506.12
500.352	3988.12
500.569	4191.12
500.786	4189.12
501.003	3813.12
501.22	3469.12
501.437	3007.12
501.654	2631.12
501.871	2411.12
502.088	2227.12
502.305	2085.12
502.522	1970.12
502.739	1916.12
502.956	1807.12
503.172	1763.12
503.389	1628.12
503.606	1605.12
503.823	1554.12
504.04	1542.12
504.256	1544.12
504.473	1600.12
504.69	1632.12
504.907	1629.12
505.123	1511.12
505.34	1399.12
505.557	1359.12
505.773	1326.12
505.99	1317.12
506.207	1278.12
506.423	1238.12
506.64	1247.12
506.856	1225.12
507.073	1218.12
507.289	1211.12
507.506	1230.12
507.722	1196.12
507.939	1169.12
508.155	1160.12
508.372	1140.12
508.588	1128.12
508.805	1133.12
509.021	1147.12
509.238	1138.12
509.454	1123.12
509.67	1095.12
509.887	1127.12
510.103	1114.12
510.319	1102.12
510.536	1126.12
510.752	1091.12
510.968	1095.12
511.184	1079.12
511.401	1104.12
511.617	1112.12
511.833	1075.12
512.049	1091.12
512.265	1082.12
512.481	1084.12
512.698	1079.12
512.914	1082.12
513.13	1071.12
513.346	1098.12
513.562	1123.12
513.778	1105.12
513.994	1095.12
514.21	1104.12
514.426	1092.12
514.642	1089.12
514.858	1099.12
515.074	1127.12
515.29	1138.12
515.506	1150.12
515.721	1146.12
515.937	1183.12
516.153	1194.12
516.369	1236.12
516.585	1256.12
516.801	1304.12
517.016	1346.12
517.232	1432.12
517.448	1478.12
517.664	1557.12
517.879	1522.12
518.095	1555.12
518.311	1501.12
518.527	1436.12
518.742	1349.12
518.958	1322.12
519.173	1322.12
519.389	1245.12
519.605	1193.12
519.82	1192.12
520.036	1119.12
520.251	1135.12
520.467	1091.12
520.682	1115.12
520.898	1106.12
521.113	1083.12
521.329	1055.12
521.544	1082.12
521.76	1036.12
521.975	1019.12
522.19	1041.12
522.406	1046.12
522.621	1044.12
522.836	1031.12
523.052	1024.12
523.267	1034.12
523.482	1028.12
523.698	1010.12
523.913	1001.12
524.128	1003.12
524.343	983.12
524.559	1016.12
524.774	1000.12
524.989	999.12
525.204	1002.12
525.419	1004.12
525.634	980.12
525.849	1001.12
526.064	982.12
526.28	984.12
526.495	958.12
526.71	990.12
526.925	957.12
527.14	964.12
527.355	937.12
527.57	931.12
527.785	979.12
527.999	979.12
528.214	995.12
528.429	952.12
528.644	962.12
528.859	974.12
529.074	988.12
529.289	983.12
529.503	969.12
529.718	966.12
529.933	958.12
530.148	975.12
530.363	964.12
530.577	976.12
530.792	954.12
531.007	970.12
531.221	973.12
531.436	951.12
531.651	956.12
531.865	974.12
532.08	954.12
532.295	1001.12
532.509	981.12
532.724	957.12
532.938	978.12
533.153	959.12
533.367	972.12
533.582	980.12
533.796	943.12
534.011	983.12
534.225	1002.12
534.44	948.12
534.654	930.12
534.868	974.12
535.083	935.12
535.297	946.12
535.511	936.12
535.726	950.12
535.94	947.12
536.154	927.12
536.369	884.12
536.583	900.12
536.797	892.12
537.011	895.12
537.225	907.12
537.44	879.12
537.654	891.12
537.868	874.12
538.082	886.12
538.296	883.12
538.51	894.12
538.724	888.12
538.938	891.12
539.153	852.12
539.367	882.12
539.581	863.12
539.795	875.12
540.009	883.12
540.222	846.12
540.436	874.12
540.65	860.12
540.864	866.12
541.078	874.12
541.292	882.12
541.506	843.12
541.72	841.12
541.934	857.12
542.147	896.12
542.361	886.12
542.575	842.12
542.789	869.12
543.002	846.12
543.216	838.12
543.43	866.12
543.644	848.12
543.857	868.12
544.071	845.12
544.285	854.12
544.498	845.12
544.712	847.12
544.925	896.12
545.139	906.12
545.352	889.12
545.566	873.12
545.779	899.12
545.993	911.12
546.206	898.12
546.42	888.12
546.633	900.12
546.847	881.12
547.06	898.12
547.274	872.12
547.487	882.12
547.7	881.12
547.914	863.12
548.127	894.12
548.34	892.12
548.554	885.12
548.767	886.12
548.98	896.12
549.193	882.12
549.407	908.12
549.62	924.12
549.833	902.12
550.046	909.12
550.259	890.12
550.473	873.12
550.686	866.12
550.899	891.12
551.112	876.12
551.325	851.12
551.538	861.12
551.751	885.12
551.964	871.12
552.177	874.12
552.39	887.12
552.603	895.12
552.816	944.12
553.029	939.12
553.242	955.12
553.455	990.12
553.667	1002.12
553.88	956.12
554.093	945.12
554.306	923.12
554.519	896.12
554.732	885.12
554.944	874.12
555.157	868.12
555.37	840.12
555.583	827.12
555.795	794.12
556.008	800.12
556.221	779.12
556.433	788.12
556.646	746.12
556.859	748.12
557.071	737.12
557.284	747.12
557.496	749.12
557.709	762.12
557.921	770.12
558.134	734.12
558.346	758.12
558.559	750.12
558.771	750.12
558.984	739.12
559.196	723.12
559.409	688.12
559.621	724.12
559.833	707.12
560.046	698.12
560.258	728.12
560.47	711.12
560.683	726.12
560.895	738.12
561.107	739.12
561.32	723.12
561.532	706.12
561.744	703.12
561.956	724.12
562.168	735.12
562.381	708.12
562.593	682.12
562.805	717.12
563.017	717.12
563.229	725.12
563.441	752.12
563.653	754.12
563.865	741.12
564.077	762.12
564.289	744.12
564.501	768.12
564.713	756.12
564.925	792.12
565.137	784.12
565.349	828.12
565.561	831.12
565.773	862.12
565.985	888.12
566.197	928.12
566.408	1007.12
566.62	1100.12
566.832	1202.12
567.044	1206.12
567.255	1179.12
567.467	1242.12
567.679	1308.12
567.891	1405.12
568.102	1442.12
568.314	1369.12
568.526	1246.12
568.737	1112.12
568.949	1033.12
569.161	912.12
569.372	857.12
569.584	832.12
569.795	824.12
570.007	797.12
570.218	753.12
570.43	751.12
570.641	748.12
570.853	740.12
571.064	752.12
571.276	728.12
571.487	730.12
571.698	695.12
571.91	680.12
572.121	667.12
572.333	650.12
572.544	647.12
572.755	629.12
572.966	635.12
573.178	628.12
573.389	635.12
573.6	619.12
573.811	602.12
574.023	595.12
574.234	586.12
574.445	586.12
574.656	601.12
574.867	582.12
575.078	580.12
575.289	574.12
575.501	587.12
575.712	573.12
575.923	564.12
576.134	562.12
576.345	575.12
576.556	544.12
576.767	574.12
576.978	565.12
577.188	541.12
577.399	566.12
577.61	540.12
577.821	532.12
578.032	526.12
578.243	547.12
578.454	550.12
578.665	532.12
578.875	534.12
579.086	514.12
579.297	538.12
579.508	524.12
579.718	500.12
579.929	538.12
580.14	523.12
580.35	510.12
580.561	493.12
580.772	534.12
580.982	518.12
581.193	514.12
581.403	518.12
581.614	503.12
581.825	495.12
582.035	498.12
582.246	502.12
582.456	506.12
582.667	496.12
582.877	500.12
583.087	509.12
583.298	492.12
583.508	477.12
583.719	488.12
583.929	486.12
584.139	498.12
584.35	489.12
584.56	489.12
584.77	476.12
584.981	485.12
585.191	464.12
585.401	478.12
585.611	461.12
585.821	482.12
586.032	466.12
586.242	487.12
586.452	501.12
586.662	471.12
586.872	479.12
587.082	478.12
587.292	456.12
587.502	491.12
587.713	470.12
587.923	460.12
588.133	471.12
588.343	463.12
588.553	450.12
588.762	472.12
588.972	483.12
589.182	501.12
589.392	494.12
589.602	466.12
589.812	478.12
590.022	487.12
590.232	484.12
590.441	467.12
590.651	470.12
590.861	478.12
591.071	483.12
591.281	485.12
591.49	489.12
591.7	494.12
591.91	481.12
592.119	495.12
592.329	532.12
592.539	546.12
592.748	543.12
592.958	592.12
593.167	582.12
593.377	603.12
593.587	616.12
593.796	617.12
594.006	621.12
594.215	607.12
594.424	625.12
594.634	623.12
594.843	592.12
595.053	555.12
595.262	546.12
595.472	519.12
595.681	480.12
595.89	489.12
596.1	488.12
596.309	464.12
596.518	454.12
596.727	441.12
596.937	451.12
597.146	450.12
597.355	428.12
597.564	432.12
597.774	412.12
597.983	414.12
598.192	424.12
598.401	408.12
598.61	426.12
598.819	407.12
599.028	407.12
599.237	385.12
599.446	400.12
599.655	397.12
599.864	406.12
600.073	394.12
600.282	424.12
600.491	395.12
600.7	403.12
600.909	383.12
601.118	398.12
601.327	404.12
601.536	388.12
601.745	412.12
601.953	378.12
602.162	395.12
602.371	372.12
602.58	378.12
602.789	403.12
602.997	376.12
603.206	384.12
603.415	378.12
603.623	377.12
603.832	383.12
604.041	377.12
604.249	379.12
604.458	380.12
604.666	361.12
604.875	355.12
605.084	355.12
605.292	373.12
605.501	373.12
605.709	340.12
605.918	362.12
606.126	382.12
606.334	394.12
606.543	360.12
606.751	360.12
606.96	360.12
607.168	344.12
607.376	355.12
607.585	349.12
607.793	357.12
608.001	343.12
608.21	343.12
608.418	348.12
608.626	331.12
608.834	359.12
609.043	341.12
609.251	348.12
609.459	345.12
609.667	356.12
609.875	346.12
610.083	355.12
610.291	338.12
610.499	346.12
610.707	342.12
610.916	339.12
611.124	345.12
611.332	347.12
611.54	359.12
611.748	343.12
611.955	350.12
612.163	339.12
612.371	336.12
612.579	342.12
612.787	320.12
612.995	346.12
613.203	339.12
613.411	341.12
613.618	356.12
613.826	346.12
614.034	329.12
614.242	347.12
614.449	336.12
614.657	315.12
614.865	328.12
615.072	339.12
615.28	342.12
615.488	340.12
615.695	335.12
615.903	333.12
616.111	331.12
616.318	330.12
616.526	332.12
616.733	336.12
616.941	325.12
617.148	331.12
617.356	355.12
617.563	329.12
617.771	335.12
617.978	322.12
618.185	322.12
618.393	339.12
618.6	333.12
618.807	322.12
619.015	331.12
619.222	320.12
619.429	330.12
619.637	323.12
619.844	304.12
620.051	344.12
620.258	331.12
620.466	321.12
620.673	294.12
620.88	312.12
621.087	319.12
621.294	320.12
621.501	309.12
621.708	311.12
621.915	295.12
622.122	314.12
622.329	303.12
622.536	316.12
622.743	309.12
622.95	310.12
623.157	306.12
623.364	298.12
623.571	308.12
623.778	288.12
623.985	320.12
624.192	310.12
624.399	298.12
624.606	289.12
624.812	301.12
625.019	288.12
625.226	282.12
625.433	290.12
625.639	266.12
625.846	284.12
626.053	299.12
626.259	271.12
626.466	300.12
626.673	286.12
626.879	272.12
627.086	281.12
627.293	290.12
627.499	270.12
627.706	284.12
627.912	267.12
628.119	291.12
628.325	272.12
628.532	285.12
628.738	277.12
628.945	281.12
629.151	292.12
629.357	261.12
629.564	261.12
629.77	264.12
629.976	280.12
630.183	281.12
630.389	266.12
630.595	254.12
630.802	254.12
631.008	266.12
631.214	245.12
631.42	271.12
631.627	260.12
631.833	252.12
632.039	245.12
632.245	253.12
632.451	264.12
632.657	248.12
632.863	247.12
633.069	243.12
633.275	248.12
633.481	256.12
633.688	256.12
633.893	243.12
634.099	239.12
634.305	246.12
634.511	260.12
634.717	248.12
634.923	242.12
635.129	246.12
635.335	246.12
635.541	246.12
635.747	234.12
635.952	226.12
636.158	218.12
636.364	238.12
636.57	237.12
636.775	239.12
636.981	223.12
637.187	235.12
637.392	242.12
637.598	244.12
637.804	244.12
638.009	238.12
638.215	208.12
638.421	229.12
638.626	238.12
638.832	247.12
639.037	227.12
639.243	230.12
639.448	239.12
639.654	221.12
639.859	223.12
640.065	225.12
640.27	203.12
640.475	211.12
640.681	227.12
640.886	230.12
641.091	216.12
641.297	214.12
641.502	232.12
641.707	233.12
641.913	221.12
642.118	223.12
642.323	205.12
642.528	213.12
642.733	217.12
642.939	211.12
643.144	216.12
643.349	221.12
643.554	221.12
643.759	204.12
643.964	210.12
644.169	208.12
644.374	201.12
644.579	228.12
644.784	224.12
644.989	220.12
645.194	230.12
645.399	221.12
645.604	211.12
645.809	213.12
646.014	216.12
646.219	218.12
646.423	202.12
646.628	222.12
646.833	214.12
647.038	211.12
647.243	228.12
647.447	223.12
647.652	218.12
647.857	231.12
648.062	219.12
648.266	244.12
648.471	227.12
648.676	224.12
648.88	227.12
649.085	214.12
649.289	199.12
649.494	203.12
649.698	216.12
649.903	224.12
650.107	219.12
650.312	233.12
650.516	202.12
650.721	194.12
650.925	198.12
651.13	197.12
651.334	194.12
651.539	196.12
651.743	196.12
651.947	187.12
652.152	167.12
652.356	190.12
652.56	184.12
652.764	179.12
652.969	174.12
653.173	208.12
653.377	165.12
653.581	178.12
653.785	175.12
653.99	190.12
654.194	169.12
654.398	154.12
654.602	167.12
654.806	156.12
655.01	166.12
655.214	166.12
655.418	161.12
655.622	166.12
655.826	160.12
656.03	164.12
656.234	159.12
656.438	165.12
656.642	159.12
656.846	158.12
657.049	156.12
657.253	158.12
657.457	139.12
657.661	126.12
657.865	133.12
658.068	133.12
658.272	131.12
658.476	131.12
658.68	121.12
658.883	119.12
659.087	107.12
659.291	124.12
659.494	116.12
659.698	96.12
659.901	95.12
660.105	112.12
660.309	109.12
660.512	103.12
660.716	100.12
660.919	86.12
661.123	95.12
661.326	98.12
661.53	94.12
661.733	104.12
661.936	100.12
662.14	97.12
662.343	101.12
662.546	99.12
662.75	94.12
662.953	80.12
663.156	95.12
663.36	94.12
663.563	86.12
663.766	94.12
663.969	86.12
664.173	77.12
664.376	108.12
664.579	86.12
664.782	81.12
664.985	88.12
665.188	86.12
665.391	76.12
665.594	76.12
665.797	92.12
666	84.12
666.203	89.12
666.406	75.12
666.609	80.12
666.812	77.12
667.015	73.12
667.218	95.12
667.421	80.12
667.624	80.12
667.827	87.12
668.03	66.12
668.232	80.12
668.435	74.12
668.638	91.12
668.841	97.12
669.043	77.12
669.246	86.12
669.449	73.12
669.651	79.12
669.854	74.12
670.057	96.12
670.259	74.12
670.462	91.12
670.665	87.12
670.867	86.12
671.07	87.12
671.272	91.12
671.475	107.12
671.677	76.12
671.88	98.12
672.082	79.12
672.284	93.12
672.487	85.12
672.689	73.12
672.892	76.12
