Data from NiCl2@0.5M.TitratingCurve.Agarose3%dH2O.NegLispCup.LampEnergy10.LIBS07252019_HRD10591_18-21-05-571.txt Node
Date: Thu Jul 25 18:21:05 EDT 2019
User: cochatt
Spectrometer: HR+D1059
Trigger mode: 1
Integration Time (sec): 1.000000E-1
Scans to average: 1
Electric dark correction enabled: true
Nonlinearity correction enabled: false
Boxcar width: 0
XAxis mode: Wavelengths
Number of Pixels in Spectrum: 2048
>>>>>Begin Spectral Data<<<<<
223.165	-9.31
223.4	-9.31
223.635	-9.31
223.869	-11.31
224.104	-22.31
224.338	-22.31
224.573	-16.31
224.808	-1.31
225.042	-5.31
225.277	-13.31
225.511	4.69
225.746	-9.31
225.98	9.69
226.215	19.69
226.449	9.69
226.683	24.69
226.918	17.69
227.152	24.69
227.387	33.69
227.621	45.69
227.856	42.69
228.09	40.69
228.324	51.69
228.559	63.69
228.793	85.69
229.027	132.69
229.262	138.69
229.496	140.69
229.73	149.69
229.964	164.69
230.199	165.69
230.433	167.69
230.667	159.69
230.901	160.69
231.136	163.69
231.37	166.69
231.604	177.69
231.838	193.69
232.072	190.69
232.306	199.69
232.541	181.69
232.775	203.69
233.009	179.69
233.243	183.69
233.477	181.69
233.711	174.69
233.945	178.69
234.179	185.69
234.413	195.69
234.647	195.69
234.881	203.69
235.115	186.69
235.349	194.69
235.583	189.69
235.817	205.69
236.051	197.69
236.285	206.69
236.519	187.69
236.753	217.69
236.987	210.69
237.221	211.69
237.455	209.69
237.689	196.69
237.922	210.69
238.156	220.69
238.39	224.69
238.624	213.69
238.858	207.69
239.091	206.69
239.325	218.69
239.559	225.69
239.793	219.69
240.027	238.69
240.26	231.69
240.494	234.69
240.728	249.69
240.961	247.69
241.195	263.69
241.429	241.69
241.662	261.69
241.896	269.69
242.13	269.69
242.363	271.69
242.597	257.69
242.83	257.69
243.064	265.69
243.298	260.69
243.531	250.69
243.765	270.69
243.998	290.69
244.232	285.69
244.465	267.69
244.699	277.69
244.932	282.69
245.166	284.69
245.399	286.69
245.633	293.69
245.866	289.69
246.099	306.69
246.333	310.69
246.566	291.69
246.8	310.69
247.033	293.69
247.266	305.69
247.5	286.69
247.733	306.69
247.966	305.69
248.2	327.69
248.433	312.69
248.666	324.69
248.899	323.69
249.133	332.69
249.366	322.69
249.599	323.69
249.832	355.69
250.066	350.69
250.299	346.69
250.532	334.69
250.765	355.69
250.998	339.69
251.231	355.69
251.465	366.69
251.698	365.69
251.931	347.69
252.164	350.69
252.397	363.69
252.63	353.69
252.863	385.69
253.096	355.69
253.329	375.69
253.562	359.69
253.795	357.69
254.028	380.69
254.261	387.69
254.494	385.69
254.727	403.69
254.96	382.69
255.193	400.69
255.426	363.69
255.659	381.69
255.892	393.69
256.124	402.69
256.357	405.69
256.59	395.69
256.823	397.69
257.056	426.69
257.289	403.69
257.521	398.69
257.754	424.69
257.987	419.69
258.22	417.69
258.452	417.69
258.685	411.69
258.918	415.69
259.151	440.69
259.383	429.69
259.616	412.69
259.849	439.69
260.081	422.69
260.314	445.69
260.547	438.69
260.779	453.69
261.012	440.69
261.244	473.69
261.477	444.69
261.71	447.69
261.942	442.69
262.175	435.69
262.407	459.69
262.64	454.69
262.872	470.69
263.105	454.69
263.337	455.69
263.57	456.69
263.802	470.69
264.035	474.69
264.267	437.69
264.499	470.69
264.732	488.69
264.964	487.69
265.197	506.69
265.429	495.69
265.661	482.69
265.894	472.69
266.126	498.69
266.358	507.69
266.591	489.69
266.823	515.69
267.055	504.69
267.287	506.69
267.52	501.69
267.752	505.69
267.984	500.69
268.216	516.69
268.448	538.69
268.681	542.69
268.913	516.69
269.145	533.69
269.377	514.69
269.609	537.69
269.841	505.69
270.073	526.69
270.306	525.69
270.538	539.69
270.77	531.69
271.002	535.69
271.234	521.69
271.466	537.69
271.698	553.69
271.93	553.69
272.162	549.69
272.394	554.69
272.626	531.69
272.858	572.69
273.09	567.69
273.322	579.69
273.553	554.69
273.785	561.69
274.017	559.69
274.249	560.69
274.481	595.69
274.713	596.69
274.945	571.69
275.176	565.69
275.408	590.69
275.64	592.69
275.872	588.69
276.104	588.69
276.335	599.69
276.567	613.69
276.799	593.69
277.031	616.69
277.262	613.69
277.494	618.69
277.726	614.69
277.957	597.69
278.189	610.69
278.421	592.69
278.652	627.69
278.884	602.69
279.115	629.69
279.347	633.69
279.579	629.69
279.81	615.69
280.042	638.69
280.273	644.69
280.505	630.69
280.736	646.69
280.968	631.69
281.199	637.69
281.431	646.69
281.662	690.69
281.894	669.69
282.125	651.69
282.356	695.69
282.588	670.69
282.819	654.69
283.051	680.69
283.282	653.69
283.513	667.69
283.745	700.69
283.976	663.69
284.207	675.69
284.439	691.69
284.67	690.69
284.901	718.69
285.132	690.69
285.364	675.69
285.595	685.69
285.826	707.69
286.057	718.69
286.288	695.69
286.52	707.69
286.751	692.69
286.982	702.69
287.213	713.69
287.444	730.69
287.675	722.69
287.906	731.69
288.138	716.69
288.369	734.69
288.6	718.69
288.831	730.69
289.062	712.69
289.293	724.69
289.524	722.69
289.755	738.69
289.986	767.69
290.217	734.69
290.448	725.69
290.679	769.69
290.91	744.69
291.141	732.69
291.371	743.69
291.602	765.69
291.833	754.69
292.064	742.69
292.295	731.69
292.526	777.69
292.757	767.69
292.987	757.69
293.218	750.69
293.449	758.69
293.68	734.69
293.91	762.69
294.141	740.69
294.372	770.69
294.603	744.69
294.833	751.69
295.064	771.69
295.295	775.69
295.525	768.69
295.756	778.69
295.987	777.69
296.217	789.69
296.448	806.69
296.679	794.69
296.909	798.69
297.14	792.69
297.37	805.69
297.601	789.69
297.831	806.69
298.062	804.69
298.292	844.69
298.523	837.69
298.753	838.69
298.984	784.69
299.214	830.69
299.445	821.69
299.675	862.69
299.905	833.69
300.136	811.69
300.366	837.69
300.597	875.69
300.827	868.69
301.057	853.69
301.288	863.69
301.518	916.69
301.748	867.69
301.979	890.69
302.209	881.69
302.439	868.69
302.669	835.69
302.9	827.69
303.13	852.69
303.36	897.69
303.59	843.69
303.82	872.69
304.051	894.69
304.281	889.69
304.511	888.69
304.741	868.69
304.971	886.69
305.201	898.69
305.431	870.69
305.661	895.69
305.891	873.69
306.121	876.69
306.352	862.69
306.582	861.69
306.812	850.69
307.042	836.69
307.272	882.69
307.502	844.69
307.731	843.69
307.961	850.69
308.191	861.69
308.421	844.69
308.651	851.69
308.881	849.69
309.111	851.69
309.341	849.69
309.571	863.69
309.8	879.69
310.03	882.69
310.26	895.69
310.49	904.69
310.72	863.69
310.949	877.69
311.179	879.69
311.409	875.69
311.639	855.69
311.868	899.69
312.098	887.69
312.328	891.69
312.557	897.69
312.787	873.69
313.017	887.69
313.246	898.69
313.476	942.69
313.706	952.69
313.935	914.69
314.165	908.69
314.394	934.69
314.624	897.69
314.853	902.69
315.083	913.69
315.312	934.69
315.542	914.69
315.771	919.69
316.001	909.69
316.23	926.69
316.46	895.69
316.689	890.69
316.919	922.69
317.148	941.69
317.377	902.69
317.607	894.69
317.836	881.69
318.065	907.69
318.295	894.69
318.524	939.69
318.753	905.69
318.983	902.69
319.212	901.69
319.441	889.69
319.67	913.69
319.9	932.69
320.129	916.69
320.358	900.69
320.587	927.69
320.816	925.69
321.046	930.69
321.275	939.69
321.504	913.69
321.733	924.69
321.962	927.69
322.191	930.69
322.42	942.69
322.649	910.69
322.878	926.69
323.108	931.69
323.337	951.69
323.566	960.69
323.795	951.69
324.024	986.69
324.253	966.69
324.482	960.69
324.71	970.69
324.939	953.69
325.168	963.69
325.397	969.69
325.626	999.69
325.855	987.69
326.084	991.69
326.313	977.69
326.542	1001.69
326.77	1012.69
326.999	999.69
327.228	978.69
327.457	989.69
327.686	973.69
327.914	971.69
328.143	1007.69
328.372	1016.69
328.6	988.69
328.829	993.69
329.058	984.69
329.287	998.69
329.515	1023.69
329.744	985.69
329.972	1045.69
330.201	990.69
330.43	1037.69
330.658	1000.69
330.887	1033.69
331.115	1057.69
331.344	1054.69
331.572	1048.69
331.801	1074.69
332.03	1102.69
332.258	1087.69
332.486	1108.69
332.715	1107.69
332.943	1174.69
333.172	1177.69
333.4	1209.69
333.629	1258.69
333.857	1278.69
334.085	1259.69
334.314	1267.69
334.542	1260.69
334.771	1260.69
334.999	1267.69
335.227	1238.69
335.455	1252.69
335.684	1237.69
335.912	1234.69
336.14	1235.69
336.369	1270.69
336.597	1246.69
336.825	1247.69
337.053	1244.69
337.281	1234.69
337.51	1197.69
337.738	1169.69
337.966	1182.69
338.194	1167.69
338.422	1143.69
338.65	1120.69
338.878	1090.69
339.106	1095.69
339.334	1150.69
339.562	1123.69
339.79	1084.69
340.018	1069.69
340.246	1100.69
340.474	1048.69
340.702	1047.69
340.93	1075.69
341.158	1051.69
341.386	1127.69
341.614	1155.69
341.842	1125.69
342.07	1059.69
342.298	1069.69
342.526	1073.69
342.754	1077.69
342.981	1035.69
343.209	1058.69
343.437	1131.69
343.665	1148.69
343.893	1163.69
344.12	1231.69
344.348	1224.69
344.576	1203.69
344.804	1208.69
345.031	1130.69
345.259	1088.69
345.487	1096.69
345.714	1091.69
345.942	1101.69
346.17	1134.69
346.397	1125.69
346.625	1051.69
346.853	1027.69
347.08	1003.69
347.308	1015.69
347.535	1053.69
347.763	1032.69
347.99	1030.69
348.218	1025.69
348.445	1026.69
348.673	1007.69
348.9	1024.69
349.128	1025.69
349.355	1019.69
349.583	1055.69
349.81	1005.69
350.037	998.69
350.265	972.69
350.492	1011.69
350.72	973.69
350.947	992.69
351.174	983.69
351.402	1042.69
351.629	1012.69
351.856	1060.69
352.083	935.69
352.311	1022.69
352.538	1042.69
352.765	1027.69
352.992	989.69
353.22	929.69
353.447	964.69
353.674	954.69
353.901	944.69
354.128	938.69
354.355	934.69
354.583	945.69
354.81	959.69
355.037	946.69
355.264	945.69
355.491	963.69
355.718	934.69
355.945	966.69
356.172	981.69
356.399	956.69
356.626	1015.69
356.853	971.69
357.08	990.69
357.307	947.69
357.534	967.69
357.761	960.69
357.988	958.69
358.215	949.69
358.441	952.69
358.668	982.69
358.895	956.69
359.122	932.69
359.349	949.69
359.576	958.69
359.802	938.69
360.029	963.69
360.256	965.69
360.483	939.69
360.709	939.69
360.936	964.69
361.163	953.69
361.39	965.69
361.616	961.69
361.843	981.69
362.07	1040.69
362.296	1042.69
362.523	959.69
362.749	960.69
362.976	961.69
363.203	951.69
363.429	950.69
363.656	954.69
363.882	916.69
364.109	932.69
364.335	924.69
364.562	940.69
364.788	948.69
365.015	927.69
365.241	922.69
365.468	921.69
365.694	925.69
365.92	923.69
366.147	929.69
366.373	959.69
366.599	949.69
366.826	953.69
367.052	945.69
367.278	943.69
367.505	953.69
367.731	966.69
367.957	928.69
368.184	934.69
368.41	941.69
368.636	982.69
368.862	951.69
369.089	935.69
369.315	958.69
369.541	971.69
369.767	980.69
369.993	980.69
370.219	987.69
370.445	968.69
370.672	980.69
370.898	988.69
371.124	989.69
371.35	1014.69
371.576	1024.69
371.802	999.69
372.028	1017.69
372.254	1009.69
372.48	1037.69
372.706	1055.69
372.932	1031.69
373.158	1052.69
373.384	1011.69
373.61	1019.69
373.835	1025.69
374.061	1019.69
374.287	1022.69
374.513	1052.69
374.739	1064.69
374.965	1107.69
375.191	1119.69
375.416	1095.69
375.642	1081.69
375.868	1070.69
376.094	1046.69
376.319	1055.69
376.545	1030.69
376.771	1016.69
376.997	1017.69
377.222	1017.69
377.448	961.69
377.674	1025.69
377.899	998.69
378.125	1015.69
378.35	982.69
378.576	981.69
378.802	989.69
379.027	1034.69
379.253	983.69
379.478	973.69
379.704	987.69
379.929	1006.69
380.155	996.69
380.38	986.69
380.606	989.69
380.831	1003.69
381.057	1003.69
381.282	1025.69
381.507	981.69
381.733	1006.69
381.958	1047.69
382.184	1037.69
382.409	1048.69
382.634	1052.69
382.86	1020.69
383.085	1066.69
383.31	1077.69
383.535	1051.69
383.761	1076.69
383.986	1113.69
384.211	1107.69
384.436	1118.69
384.662	1109.69
384.887	1164.69
385.112	1170.69
385.337	1166.69
385.562	1170.69
385.787	1197.69
386.013	1209.69
386.238	1226.69
386.463	1220.69
386.688	1196.69
386.913	1177.69
387.138	1156.69
387.363	1219.69
387.588	1173.69
387.813	1181.69
388.038	1179.69
388.263	1160.69
388.488	1212.69
388.713	1223.69
388.938	1207.69
389.163	1158.69
389.387	1210.69
389.612	1166.69
389.837	1207.69
390.062	1154.69
390.287	1203.69
390.512	1151.69
390.736	1194.69
390.961	1226.69
391.186	1204.69
391.411	1222.69
391.636	1268.69
391.86	1289.69
392.085	1309.69
392.31	1284.69
392.534	1291.69
392.759	1271.69
392.984	1262.69
393.208	1253.69
393.433	1292.69
393.658	1256.69
393.882	1255.69
394.107	1276.69
394.331	1276.69
394.556	1225.69
394.78	1251.69
395.005	1275.69
395.229	1261.69
395.454	1325.69
395.678	1303.69
395.903	1326.69
396.127	1323.69
396.352	1285.69
396.576	1279.69
396.801	1318.69
397.025	1334.69
397.249	1287.69
397.474	1371.69
397.698	1344.69
397.922	1380.69
398.147	1377.69
398.371	1387.69
398.595	1455.69
398.82	1468.69
399.044	1617.69
399.268	1630.69
399.492	1813.69
399.717	1901.69
399.941	1942.69
400.165	1834.69
400.389	1746.69
400.613	1658.69
400.837	1605.69
401.062	1523.69
401.286	1541.69
401.51	1493.69
401.734	1487.69
401.958	1494.69
402.182	1501.69
402.406	1498.69
402.63	1508.69
402.854	1514.69
403.078	1486.69
403.302	1509.69
403.526	1545.69
403.75	1537.69
403.974	1575.69
404.198	1580.69
404.422	1612.69
404.645	1592.69
404.869	1602.69
405.093	1589.69
405.317	1609.69
405.541	1585.69
405.765	1609.69
405.988	1562.69
406.212	1610.69
406.436	1601.69
406.66	1653.69
406.883	1630.69
407.107	1721.69
407.331	1747.69
407.555	1850.69
407.778	1803.69
408.002	1804.69
408.226	1764.69
408.449	1771.69
408.673	1717.69
408.896	1671.69
409.12	1679.69
409.344	1675.69
409.567	1685.69
409.791	1673.69
410.014	1667.69
410.238	1633.69
410.461	1650.69
410.685	1612.69
410.908	1593.69
411.132	1583.69
411.355	1546.69
411.578	1544.69
411.802	1558.69
412.025	1549.69
412.249	1547.69
412.472	1543.69
412.695	1555.69
412.919	1534.69
413.142	1541.69
413.365	1453.69
413.589	1523.69
413.812	1524.69
414.035	1461.69
414.258	1497.69
414.482	1526.69
414.705	1515.69
414.928	1502.69
415.151	1508.69
415.374	1511.69
415.597	1480.69
415.821	1460.69
416.044	1465.69
416.267	1458.69
416.49	1452.69
416.713	1431.69
416.936	1492.69
417.159	1458.69
417.382	1466.69
417.605	1443.69
417.828	1433.69
418.051	1448.69
418.274	1474.69
418.497	1421.69
418.72	1496.69
418.943	1453.69
419.166	1594.69
419.389	1656.69
419.611	1656.69
419.834	1557.69
420.057	1556.69
420.28	1494.69
420.503	1463.69
420.726	1434.69
420.948	1430.69
421.171	1508.69
421.394	1463.69
421.617	1477.69
421.839	1483.69
422.062	1500.69
422.285	1402.69
422.507	1481.69
422.73	1478.69
422.953	1505.69
423.175	1473.69
423.398	1477.69
423.621	1463.69
423.843	1509.69
424.066	1497.69
424.288	1501.69
424.511	1450.69
424.733	1467.69
424.956	1437.69
425.178	1432.69
425.401	1449.69
425.623	1507.69
425.846	1426.69
426.068	1430.69
426.291	1417.69
426.513	1383.69
426.735	1398.69
426.958	1386.69
427.18	1357.69
427.402	1386.69
427.625	1380.69
427.847	1368.69
428.069	1374.69
428.292	1363.69
428.514	1370.69
428.736	1372.69
428.958	1375.69
429.181	1315.69
429.403	1324.69
429.625	1350.69
429.847	1318.69
430.069	1355.69
430.292	1329.69
430.514	1308.69
430.736	1322.69
430.958	1309.69
431.18	1348.69
431.402	1365.69
431.624	1357.69
431.846	1349.69
432.068	1347.69
432.29	1416.69
432.512	1341.69
432.734	1358.69
432.956	1380.69
433.178	1375.69
433.4	1378.69
433.622	1387.69
433.844	1365.69
434.066	1375.69
434.287	1365.69
434.509	1420.69
434.731	1453.69
434.953	1484.69
435.175	1485.69
435.397	1474.69
435.618	1431.69
435.84	1381.69
436.062	1406.69
436.284	1369.69
436.505	1374.69
436.727	1371.69
436.949	1381.69
437.17	1373.69
437.392	1330.69
437.614	1360.69
437.835	1286.69
438.057	1330.69
438.278	1252.69
438.5	1310.69
438.721	1353.69
438.943	1314.69
439.165	1310.69
439.386	1331.69
439.608	1335.69
439.829	1363.69
440.05	1345.69
440.272	1398.69
440.493	1372.69
440.715	1369.69
440.936	1418.69
441.158	1377.69
441.379	1413.69
441.6	1457.69
441.822	1476.69
442.043	1468.69
442.264	1450.69
442.486	1419.69
442.707	1432.69
442.928	1442.69
443.149	1462.69
443.371	1457.69
443.592	1510.69
443.813	1495.69
444.034	1476.69
444.255	1571.69
444.476	1599.69
444.698	1668.69
444.919	1653.69
445.14	1727.69
445.361	1660.69
445.582	1560.69
445.803	1474.69
446.024	1435.69
446.245	1427.69
446.466	1414.69
446.687	1381.69
446.908	1395.69
447.129	1317.69
447.35	1329.69
447.571	1355.69
447.792	1310.69
448.013	1301.69
448.234	1281.69
448.455	1272.69
448.675	1267.69
448.896	1281.69
449.117	1261.69
449.338	1233.69
449.559	1263.69
449.779	1254.69
450	1244.69
450.221	1217.69
450.442	1245.69
450.662	1258.69
450.883	1267.69
451.104	1282.69
451.324	1270.69
451.545	1221.69
451.766	1258.69
451.986	1234.69
452.207	1225.69
452.428	1241.69
452.648	1241.69
452.869	1254.69
453.089	1221.69
453.31	1233.69
453.53	1225.69
453.751	1197.69
453.971	1199.69
454.192	1214.69
454.412	1226.69
454.633	1188.69
454.853	1178.69
455.073	1189.69
455.294	1208.69
455.514	1183.69
455.734	1173.69
455.955	1186.69
456.175	1198.69
456.395	1185.69
456.616	1169.69
456.836	1177.69
457.056	1177.69
457.276	1179.69
457.497	1182.69
457.717	1179.69
457.937	1223.69
458.157	1197.69
458.377	1227.69
458.598	1269.69
458.818	1245.69
459.038	1299.69
459.258	1330.69
459.478	1415.69
459.698	1416.69
459.918	1461.69
460.138	1495.69
460.358	1529.69
460.578	1591.69
460.798	1585.69
461.018	1600.69
461.238	1573.69
461.458	1580.69
461.678	1588.69
461.898	1597.69
462.118	1611.69
462.338	1715.69
462.558	1714.69
462.777	1801.69
462.997	1874.69
463.217	1924.69
463.437	1932.69
463.657	1876.69
463.876	1843.69
464.096	1817.69
464.316	1766.69
464.536	1811.69
464.755	1738.69
464.975	1705.69
465.195	1618.69
465.414	1566.69
465.634	1480.69
465.854	1438.69
466.073	1412.69
466.293	1348.69
466.512	1339.69
466.732	1340.69
466.951	1373.69
467.171	1341.69
467.391	1336.69
467.61	1263.69
467.829	1310.69
468.049	1299.69
468.268	1288.69
468.488	1281.69
468.707	1275.69
468.927	1283.69
469.146	1286.69
469.365	1289.69
469.585	1291.69
469.804	1329.69
470.023	1326.69
470.243	1292.69
470.462	1307.69
470.681	1323.69
470.901	1333.69
471.12	1352.69
471.339	1352.69
471.558	1278.69
471.777	1331.69
471.997	1317.69
472.216	1294.69
472.435	1261.69
472.654	1274.69
472.873	1263.69
473.092	1256.69
473.311	1244.69
473.53	1275.69
473.749	1235.69
473.968	1219.69
474.187	1254.69
474.406	1257.69
474.625	1235.69
474.844	1265.69
475.063	1275.69
475.282	1256.69
475.501	1309.69
475.72	1285.69
475.939	1294.69
476.158	1291.69
476.377	1336.69
476.596	1334.69
476.814	1361.69
477.033	1325.69
477.252	1359.69
477.471	1378.69
477.69	1441.69
477.908	1436.69
478.127	1467.69
478.346	1482.69
478.564	1500.69
478.783	1534.69
479.002	1558.69
479.22	1570.69
479.439	1538.69
479.658	1537.69
479.876	1547.69
480.095	1585.69
480.313	1606.69
480.532	1653.69
480.751	1615.69
480.969	1589.69
481.188	1533.69
481.406	1520.69
481.624	1506.69
481.843	1495.69
482.061	1483.69
482.28	1503.69
482.498	1463.69
482.717	1477.69
482.935	1496.69
483.153	1465.69
483.372	1496.69
483.59	1488.69
483.808	1480.69
484.027	1472.69
484.245	1477.69
484.463	1466.69
484.681	1521.69
484.9	1517.69
485.118	1509.69
485.336	1497.69
485.554	1589.69
485.772	1585.69
485.99	1550.69
486.209	1533.69
486.427	1551.69
486.645	1534.69
486.863	1565.69
487.081	1541.69
487.299	1542.69
487.517	1573.69
487.735	1536.69
487.953	1540.69
488.171	1564.69
488.389	1509.69
488.607	1527.69
488.825	1505.69
489.043	1535.69
489.261	1546.69
489.479	1495.69
489.696	1536.69
489.914	1497.69
490.132	1541.69
490.35	1514.69
490.568	1561.69
490.786	1574.69
491.003	1528.69
491.221	1526.69
491.439	1563.69
491.657	1545.69
491.874	1569.69
492.092	1591.69
492.31	1565.69
492.527	1582.69
492.745	1549.69
492.963	1595.69
493.18	1592.69
493.398	1607.69
493.615	1582.69
493.833	1612.69
494.05	1632.69
494.268	1621.69
494.485	1620.69
494.703	1609.69
494.92	1634.69
495.138	1653.69
495.355	1624.69
495.573	1649.69
495.79	1640.69
496.008	1649.69
496.225	1700.69
496.442	1753.69
496.66	1727.69
496.877	1785.69
497.094	1811.69
497.312	1803.69
497.529	1823.69
497.746	1846.69
497.963	1940.69
498.181	2019.69
498.398	2055.69
498.615	2184.69
498.832	2357.69
499.049	2466.69
499.267	2591.69
499.484	2764.69
499.701	2958.69
499.918	3181.69
500.135	3477.69
500.352	3771.69
500.569	3827.69
500.786	3792.69
501.003	3699.69
501.22	3470.69
501.437	3186.69
501.654	2965.69
501.871	2757.69
502.088	2570.69
502.305	2420.69
502.522	2329.69
502.739	2245.69
502.956	2088.69
503.172	2007.69
503.389	2008.69
503.606	1959.69
503.823	1908.69
504.04	1880.69
504.256	1863.69
504.473	1849.69
504.69	1820.69
504.907	1805.69
505.123	1755.69
505.34	1687.69
505.557	1637.69
505.773	1576.69
505.99	1544.69
506.207	1518.69
506.423	1527.69
506.64	1481.69
506.856	1470.69
507.073	1462.69
507.289	1446.69
507.506	1483.69
507.722	1410.69
507.939	1411.69
508.155	1419.69
508.372	1404.69
508.588	1365.69
508.805	1346.69
509.021	1339.69
509.238	1337.69
509.454	1318.69
509.67	1320.69
509.887	1339.69
510.103	1315.69
510.319	1291.69
510.536	1282.69
510.752	1276.69
510.968	1310.69
511.184	1287.69
511.401	1284.69
511.617	1290.69
511.833	1293.69
512.049	1247.69
512.265	1283.69
512.481	1288.69
512.698	1261.69
512.914	1283.69
513.13	1331.69
513.346	1291.69
513.562	1297.69
513.778	1294.69
513.994	1313.69
514.21	1311.69
514.426	1286.69
514.642	1285.69
514.858	1336.69
515.074	1312.69
515.29	1348.69
515.506	1380.69
515.721	1386.69
515.937	1386.69
516.153	1378.69
516.369	1395.69
516.585	1470.69
516.801	1512.69
517.016	1527.69
517.232	1535.69
517.448	1591.69
517.664	1662.69
517.879	1649.69
518.095	1642.69
518.311	1649.69
518.527	1568.69
518.742	1554.69
518.958	1477.69
519.173	1441.69
519.389	1424.69
519.605	1385.69
519.82	1393.69
520.036	1345.69
520.251	1315.69
520.467	1295.69
520.682	1288.69
520.898	1293.69
521.113	1260.69
521.329	1271.69
521.544	1225.69
521.76	1233.69
521.975	1190.69
522.19	1222.69
522.406	1231.69
522.621	1219.69
522.836	1189.69
523.052	1187.69
523.267	1171.69
523.482	1183.69
523.698	1165.69
523.913	1184.69
524.128	1167.69
524.343	1165.69
524.559	1144.69
524.774	1164.69
524.989	1168.69
525.204	1186.69
525.419	1150.69
525.634	1155.69
525.849	1151.69
526.064	1148.69
526.28	1155.69
526.495	1126.69
526.71	1130.69
526.925	1151.69
527.14	1129.69
527.355	1123.69
527.57	1126.69
527.785	1132.69
527.999	1130.69
528.214	1126.69
528.429	1132.69
528.644	1145.69
528.859	1161.69
529.074	1170.69
529.289	1129.69
529.503	1104.69
529.718	1131.69
529.933	1134.69
530.148	1137.69
530.363	1153.69
530.577	1139.69
530.792	1110.69
531.007	1146.69
531.221	1137.69
531.436	1104.69
531.651	1148.69
531.865	1141.69
532.08	1146.69
532.295	1137.69
532.509	1093.69
532.724	1089.69
532.938	1146.69
533.153	1101.69
533.367	1098.69
533.582	1101.69
533.796	1125.69
534.011	1130.69
534.225	1077.69
534.44	1097.69
534.654	1100.69
534.868	1079.69
535.083	1095.69
535.297	1098.69
535.511	1070.69
535.726	1067.69
535.94	1042.69
536.154	1054.69
536.369	1068.69
536.583	1043.69
536.797	1022.69
537.011	1042.69
537.225	1069.69
537.44	1038.69
537.654	1053.69
537.868	1029.69
538.082	1007.69
538.296	1046.69
538.51	1009.69
538.724	1002.69
538.938	997.69
539.153	1000.69
539.367	1005.69
539.581	1009.69
539.795	997.69
540.009	1051.69
540.222	990.69
540.436	1006.69
540.65	984.69
540.864	1037.69
541.078	1001.69
541.292	1006.69
541.506	1010.69
541.72	983.69
541.934	1000.69
542.147	1024.69
542.361	1003.69
542.575	1003.69
542.789	983.69
543.002	985.69
543.216	983.69
543.43	961.69
543.644	974.69
543.857	968.69
544.071	972.69
544.285	996.69
544.498	1010.69
544.712	998.69
544.925	1007.69
545.139	1011.69
545.352	1021.69
545.566	1023.69
545.779	1023.69
545.993	1005.69
546.206	1025.69
546.42	996.69
546.633	1016.69
546.847	1037.69
547.06	1049.69
547.274	1005.69
547.487	1031.69
547.7	1017.69
547.914	1074.69
548.127	1029.69
548.34	1007.69
548.554	1036.69
548.767	1027.69
548.98	1020.69
549.193	1023.69
549.407	1030.69
549.62	1009.69
549.833	1016.69
550.046	999.69
550.259	1057.69
550.473	997.69
550.686	1008.69
550.899	1018.69
551.112	998.69
551.325	983.69
551.538	1022.69
551.751	960.69
551.964	1013.69
552.177	985.69
552.39	1006.69
552.603	1035.69
552.816	1066.69
553.029	1045.69
553.242	1079.69
553.455	1099.69
553.667	1091.69
553.88	1082.69
554.093	1020.69
554.306	1007.69
554.519	1053.69
554.732	992.69
554.944	987.69
555.157	964.69
555.37	981.69
555.583	973.69
555.795	942.69
556.008	903.69
556.221	909.69
556.433	902.69
556.646	901.69
556.859	915.69
557.071	904.69
557.284	895.69
557.496	857.69
557.709	846.69
557.921	849.69
558.134	869.69
558.346	863.69
558.559	855.69
558.771	836.69
558.984	847.69
559.196	826.69
559.409	855.69
559.621	857.69
559.833	872.69
560.046	811.69
560.258	829.69
560.47	848.69
560.683	847.69
560.895	835.69
561.107	840.69
561.32	829.69
561.532	834.69
561.744	834.69
561.956	826.69
562.168	846.69
562.381	843.69
562.593	843.69
562.805	890.69
563.017	857.69
563.229	858.69
563.441	855.69
563.653	855.69
563.865	884.69
564.077	874.69
564.289	881.69
564.501	894.69
564.713	933.69
564.925	918.69
565.137	920.69
565.349	943.69
565.561	971.69
565.773	991.69
565.985	1038.69
566.197	1069.69
566.408	1133.69
566.62	1145.69
566.832	1225.69
567.044	1211.69
567.255	1256.69
567.467	1294.69
567.679	1292.69
567.891	1344.69
568.102	1353.69
568.314	1325.69
568.526	1215.69
568.737	1160.69
568.949	1113.69
569.161	1048.69
569.372	1001.69
569.584	929.69
569.795	922.69
570.007	886.69
570.218	897.69
570.43	862.69
570.641	870.69
570.853	828.69
571.064	835.69
571.276	844.69
571.487	806.69
571.698	799.69
571.91	787.69
572.121	744.69
572.333	743.69
572.544	724.69
572.755	719.69
572.966	715.69
573.178	711.69
573.389	709.69
573.6	698.69
573.811	691.69
574.023	687.69
574.234	695.69
574.445	704.69
574.656	665.69
574.867	655.69
575.078	691.69
575.289	659.69
575.501	654.69
575.712	648.69
575.923	631.69
576.134	646.69
576.345	661.69
576.556	651.69
576.767	653.69
576.978	625.69
577.188	635.69
577.399	636.69
577.61	628.69
577.821	616.69
578.032	607.69
578.243	598.69
578.454	597.69
578.665	618.69
578.875	595.69
579.086	602.69
579.297	617.69
579.508	600.69
579.718	616.69
579.929	603.69
580.14	581.69
580.35	578.69
580.561	600.69
580.772	575.69
580.982	585.69
581.193	580.69
581.403	585.69
581.614	581.69
581.825	567.69
582.035	575.69
582.246	551.69
582.456	556.69
582.667	582.69
582.877	557.69
583.087	554.69
583.298	567.69
583.508	571.69
583.719	569.69
583.929	562.69
584.139	575.69
584.35	567.69
584.56	569.69
584.77	571.69
584.981	547.69
585.191	539.69
585.401	539.69
585.611	558.69
585.821	558.69
586.032	552.69
586.242	544.69
586.452	523.69
586.662	554.69
586.872	558.69
587.082	555.69
587.292	547.69
587.502	553.69
587.713	542.69
587.923	569.69
588.133	530.69
588.343	535.69
588.553	554.69
588.762	556.69
588.972	561.69
589.182	661.69
589.392	647.69
589.602	572.69
589.812	627.69
590.022	608.69
590.232	550.69
590.441	544.69
590.651	548.69
590.861	550.69
591.071	544.69
591.281	584.69
591.49	571.69
591.7	590.69
591.91	547.69
592.119	570.69
592.329	578.69
592.539	596.69
592.748	635.69
592.958	636.69
593.167	606.69
593.377	614.69
593.587	622.69
593.796	646.69
594.006	627.69
594.215	664.69
594.424	627.69
594.634	634.69
594.843	634.69
595.053	598.69
595.262	601.69
595.472	587.69
595.681	537.69
595.89	563.69
596.1	534.69
596.309	526.69
596.518	523.69
596.727	486.69
596.937	509.69
597.146	501.69
597.355	498.69
597.564	480.69
597.774	483.69
597.983	478.69
598.192	470.69
598.401	483.69
598.61	442.69
598.819	450.69
599.028	455.69
599.237	461.69
599.446	472.69
599.655	463.69
599.864	458.69
600.073	444.69
600.282	438.69
600.491	450.69
600.7	426.69
600.909	447.69
601.118	441.69
601.327	441.69
601.536	444.69
601.745	437.69
601.953	440.69
602.162	429.69
602.371	418.69
602.58	427.69
602.789	421.69
602.997	413.69
603.206	415.69
603.415	402.69
603.623	418.69
603.832	414.69
604.041	415.69
604.249	435.69
604.458	427.69
604.666	426.69
604.875	426.69
605.084	413.69
605.292	392.69
605.501	403.69
605.709	416.69
605.918	415.69
606.126	397.69
606.334	405.69
606.543	415.69
606.751	403.69
606.96	394.69
607.168	403.69
607.376	407.69
607.585	405.69
607.793	376.69
608.001	401.69
608.21	414.69
608.418	397.69
608.626	406.69
608.834	401.69
609.043	390.69
609.251	391.69
609.459	391.69
609.667	388.69
609.875	383.69
610.083	385.69
610.291	384.69
610.499	374.69
610.707	372.69
610.916	366.69
611.124	373.69
611.332	384.69
611.54	393.69
611.748	394.69
611.955	376.69
612.163	372.69
612.371	385.69
612.579	391.69
612.787	385.69
612.995	387.69
613.203	387.69
613.411	386.69
613.618	369.69
613.826	376.69
614.034	363.69
614.242	371.69
614.449	379.69
614.657	375.69
614.865	372.69
615.072	356.69
615.28	359.69
615.488	371.69
615.695	369.69
615.903	362.69
616.111	371.69
616.318	369.69
616.526	371.69
616.733	365.69
616.941	377.69
617.148	361.69
617.356	370.69
617.563	339.69
617.771	364.69
617.978	364.69
618.185	357.69
618.393	363.69
618.6	366.69
618.807	361.69
619.015	348.69
619.222	351.69
619.429	351.69
619.637	354.69
619.844	358.69
620.051	365.69
620.258	330.69
620.466	327.69
620.673	327.69
620.88	343.69
621.087	333.69
621.294	307.69
621.501	351.69
621.708	330.69
621.915	334.69
622.122	347.69
622.329	324.69
622.536	342.69
622.743	351.69
622.95	329.69
623.157	322.69
623.364	347.69
623.571	329.69
623.778	331.69
623.985	344.69
624.192	327.69
624.399	323.69
624.606	342.69
624.812	322.69
625.019	312.69
625.226	317.69
625.433	320.69
625.639	309.69
625.846	307.69
626.053	307.69
626.259	321.69
626.466	313.69
626.673	317.69
626.879	297.69
627.086	317.69
627.293	320.69
627.499	323.69
627.706	327.69
627.912	319.69
628.119	311.69
628.325	292.69
628.532	284.69
628.738	310.69
628.945	298.69
629.151	291.69
629.357	297.69
629.564	291.69
629.77	283.69
629.976	292.69
630.183	300.69
630.389	285.69
630.595	296.69
630.802	302.69
631.008	278.69
631.214	287.69
631.42	290.69
631.627	278.69
631.833	284.69
632.039	272.69
632.245	279.69
632.451	269.69
632.657	273.69
632.863	276.69
633.069	267.69
633.275	285.69
633.481	271.69
633.688	264.69
633.893	290.69
634.099	259.69
634.305	262.69
634.511	275.69
634.717	271.69
634.923	261.69
635.129	268.69
635.335	265.69
635.541	270.69
635.747	263.69
635.952	281.69
636.158	250.69
636.364	267.69
636.57	274.69
636.775	290.69
636.981	268.69
637.187	260.69
637.392	268.69
637.598	242.69
637.804	231.69
638.009	246.69
638.215	253.69
638.421	263.69
638.626	257.69
638.832	261.69
639.037	241.69
639.243	241.69
639.448	244.69
639.654	263.69
639.859	234.69
640.065	232.69
640.27	261.69
640.475	247.69
640.681	261.69
640.886	254.69
641.091	251.69
641.297	238.69
641.502	252.69
641.707	265.69
641.913	247.69
642.118	237.69
642.323	227.69
642.528	227.69
642.733	236.69
642.939	246.69
643.144	234.69
643.349	247.69
643.554	227.69
643.759	246.69
643.964	235.69
644.169	229.69
644.374	226.69
644.579	230.69
644.784	249.69
644.989	224.69
645.194	241.69
645.399	246.69
645.604	242.69
645.809	250.69
646.014	248.69
646.219	238.69
646.423	223.69
646.628	231.69
646.833	228.69
647.038	242.69
647.243	242.69
647.447	241.69
647.652	241.69
647.857	225.69
648.062	247.69
648.266	236.69
648.471	224.69
648.676	235.69
648.88	251.69
649.085	236.69
649.289	259.69
649.494	228.69
649.698	227.69
649.903	220.69
650.107	233.69
650.312	235.69
650.516	230.69
650.721	217.69
650.925	211.69
651.13	235.69
651.334	201.69
651.539	220.69
651.743	201.69
651.947	212.69
652.152	205.69
652.356	208.69
652.56	187.69
652.764	189.69
652.969	204.69
653.173	188.69
653.377	202.69
653.581	180.69
653.785	198.69
653.99	194.69
654.194	189.69
654.398	214.69
654.602	187.69
654.806	187.69
655.01	171.69
655.214	197.69
655.418	185.69
655.622	193.69
655.826	191.69
656.03	190.69
656.234	187.69
656.438	189.69
656.642	190.69
656.846	189.69
657.049	161.69
657.253	185.69
657.457	161.69
657.661	149.69
657.865	151.69
658.068	169.69
658.272	129.69
658.476	138.69
658.68	130.69
658.883	136.69
659.087	132.69
659.291	119.69
659.494	132.69
659.698	127.69
659.901	122.69
660.105	122.69
660.309	108.69
660.512	109.69
660.716	116.69
660.919	107.69
661.123	99.69
661.326	106.69
661.53	107.69
661.733	105.69
661.936	93.69
662.14	98.69
662.343	87.69
662.546	105.69
662.75	96.69
662.953	87.69
663.156	82.69
663.36	90.69
663.563	96.69
663.766	84.69
663.969	70.69
664.173	73.69
664.376	98.69
664.579	79.69
664.782	84.69
664.985	70.69
665.188	90.69
665.391	72.69
665.594	96.69
665.797	86.69
666	84.69
666.203	86.69
666.406	88.69
666.609	69.69
666.812	82.69
667.015	83.69
667.218	85.69
667.421	86.69
667.624	86.69
667.827	91.69
668.03	85.69
668.232	85.69
668.435	83.69
668.638	76.69
668.841	79.69
669.043	84.69
669.246	93.69
669.449	86.69
669.651	84.69
669.854	78.69
670.057	73.69
670.259	81.69
670.462	89.69
670.665	91.69
670.867	94.69
671.07	90.69
671.272	86.69
671.475	88.69
671.677	61.69
671.88	87.69
672.082	81.69
672.284	80.69
672.487	82.69
672.689	73.69
672.892	88.69
