Data from NiCl2@0.5M.TitratingCurve.Agarose3%dH2O.NegLispCup.LampEnergy10.LIBS07252019_HRD10591_18-21-31-571.txt Node
Date: Thu Jul 25 18:21:31 EDT 2019
User: cochatt
Spectrometer: HR+D1059
Trigger mode: 1
Integration Time (sec): 1.000000E-1
Scans to average: 1
Electric dark correction enabled: true
Nonlinearity correction enabled: false
Boxcar width: 0
XAxis mode: Wavelengths
Number of Pixels in Spectrum: 2048
>>>>>Begin Spectral Data<<<<<
223.165	-22.62
223.4	-22.62
223.635	-22.62
223.869	-12.62
224.104	-12.62
224.338	-17.62
224.573	-14.62
224.808	-25.62
225.042	-12.62
225.277	-3.62
225.511	-4.62
225.746	8.38
225.98	9.38
226.215	-4.62
226.449	16.38
226.683	28.38
226.918	31.38
227.152	37.38
227.387	22.38
227.621	29.38
227.856	56.38
228.09	38.38
228.324	32.38
228.559	59.38
228.793	70.38
229.027	121.38
229.262	119.38
229.496	120.38
229.73	124.38
229.964	135.38
230.199	121.38
230.433	152.38
230.667	133.38
230.901	155.38
231.136	127.38
231.37	141.38
231.604	156.38
231.838	137.38
232.072	136.38
232.306	159.38
232.541	141.38
232.775	172.38
233.009	135.38
233.243	159.38
233.477	149.38
233.711	162.38
233.945	137.38
234.179	171.38
234.413	152.38
234.647	160.38
234.881	159.38
235.115	162.38
235.349	146.38
235.583	158.38
235.817	161.38
236.051	145.38
236.285	167.38
236.519	163.38
236.753	155.38
236.987	161.38
237.221	157.38
237.455	164.38
237.689	159.38
237.922	179.38
238.156	169.38
238.39	174.38
238.624	179.38
238.858	163.38
239.091	164.38
239.325	166.38
239.559	187.38
239.793	184.38
240.027	201.38
240.26	183.38
240.494	185.38
240.728	195.38
240.961	184.38
241.195	200.38
241.429	197.38
241.662	200.38
241.896	193.38
242.13	197.38
242.363	193.38
242.597	195.38
242.83	191.38
243.064	221.38
243.298	210.38
243.531	214.38
243.765	211.38
243.998	215.38
244.232	214.38
244.465	224.38
244.699	229.38
244.932	236.38
245.166	226.38
245.399	208.38
245.633	221.38
245.866	245.38
246.099	217.38
246.333	223.38
246.566	208.38
246.8	226.38
247.033	233.38
247.266	235.38
247.5	217.38
247.733	243.38
247.966	243.38
248.2	243.38
248.433	256.38
248.666	249.38
248.899	250.38
249.133	256.38
249.366	277.38
249.599	281.38
249.832	265.38
250.066	256.38
250.299	264.38
250.532	275.38
250.765	266.38
250.998	253.38
251.231	268.38
251.465	279.38
251.698	274.38
251.931	274.38
252.164	289.38
252.397	266.38
252.63	292.38
252.863	289.38
253.096	276.38
253.329	279.38
253.562	273.38
253.795	312.38
254.028	287.38
254.261	299.38
254.494	285.38
254.727	294.38
254.96	309.38
255.193	299.38
255.426	305.38
255.659	293.38
255.892	296.38
256.124	294.38
256.357	294.38
256.59	306.38
256.823	307.38
257.056	299.38
257.289	299.38
257.521	327.38
257.754	339.38
257.987	319.38
258.22	316.38
258.452	314.38
258.685	322.38
258.918	322.38
259.151	326.38
259.383	316.38
259.616	327.38
259.849	319.38
260.081	326.38
260.314	347.38
260.547	332.38
260.779	313.38
261.012	329.38
261.244	328.38
261.477	339.38
261.71	343.38
261.942	342.38
262.175	342.38
262.407	330.38
262.64	337.38
262.872	354.38
263.105	358.38
263.337	347.38
263.57	334.38
263.802	362.38
264.035	352.38
264.267	373.38
264.499	348.38
264.732	364.38
264.964	355.38
265.197	357.38
265.429	367.38
265.661	360.38
265.894	377.38
266.126	380.38
266.358	370.38
266.591	401.38
266.823	388.38
267.055	381.38
267.287	374.38
267.52	369.38
267.752	389.38
267.984	390.38
268.216	397.38
268.448	403.38
268.681	378.38
268.913	397.38
269.145	379.38
269.377	379.38
269.609	383.38
269.841	379.38
270.073	401.38
270.306	409.38
270.538	392.38
270.77	411.38
271.002	393.38
271.234	392.38
271.466	396.38
271.698	419.38
271.93	402.38
272.162	417.38
272.394	437.38
272.626	413.38
272.858	432.38
273.09	416.38
273.322	425.38
273.553	420.38
273.785	413.38
274.017	433.38
274.249	436.38
274.481	439.38
274.713	439.38
274.945	434.38
275.176	431.38
275.408	435.38
275.64	445.38
275.872	453.38
276.104	473.38
276.335	448.38
276.567	461.38
276.799	439.38
277.031	465.38
277.262	469.38
277.494	456.38
277.726	467.38
277.957	440.38
278.189	472.38
278.421	466.38
278.652	470.38
278.884	479.38
279.115	466.38
279.347	490.38
279.579	468.38
279.81	470.38
280.042	459.38
280.273	479.38
280.505	505.38
280.736	463.38
280.968	505.38
281.199	485.38
281.431	476.38
281.662	503.38
281.894	485.38
282.125	487.38
282.356	481.38
282.588	492.38
282.819	482.38
283.051	504.38
283.282	531.38
283.513	502.38
283.745	532.38
283.976	521.38
284.207	507.38
284.439	515.38
284.67	532.38
284.901	536.38
285.132	531.38
285.364	501.38
285.595	518.38
285.826	537.38
286.057	507.38
286.288	554.38
286.52	544.38
286.751	547.38
286.982	524.38
287.213	549.38
287.444	538.38
287.675	561.38
287.906	520.38
288.138	532.38
288.369	546.38
288.6	561.38
288.831	552.38
289.062	565.38
289.293	572.38
289.524	571.38
289.755	554.38
289.986	535.38
290.217	531.38
290.448	583.38
290.679	576.38
290.91	552.38
291.141	569.38
291.371	576.38
291.602	573.38
291.833	553.38
292.064	573.38
292.295	557.38
292.526	568.38
292.757	557.38
292.987	554.38
293.218	546.38
293.449	551.38
293.68	581.38
293.91	576.38
294.141	556.38
294.372	557.38
294.603	564.38
294.833	571.38
295.064	582.38
295.295	597.38
295.525	567.38
295.756	571.38
295.987	578.38
296.217	597.38
296.448	618.38
296.679	602.38
296.909	606.38
297.14	602.38
297.37	580.38
297.601	611.38
297.831	598.38
298.062	622.38
298.292	614.38
298.523	618.38
298.753	649.38
298.984	631.38
299.214	608.38
299.445	631.38
299.675	633.38
299.905	626.38
300.136	613.38
300.366	618.38
300.597	644.38
300.827	633.38
301.057	647.38
301.288	665.38
301.518	657.38
301.748	647.38
301.979	648.38
302.209	644.38
302.439	665.38
302.669	643.38
302.9	643.38
303.13	654.38
303.36	634.38
303.59	633.38
303.82	647.38
304.051	655.38
304.281	650.38
304.511	629.38
304.741	627.38
304.971	662.38
305.201	637.38
305.431	665.38
305.661	647.38
305.891	627.38
306.121	647.38
306.352	633.38
306.582	669.38
306.812	633.38
307.042	619.38
307.272	635.38
307.502	632.38
307.731	635.38
307.961	633.38
308.191	646.38
308.421	619.38
308.651	610.38
308.881	627.38
309.111	625.38
309.341	635.38
309.571	657.38
309.8	643.38
310.03	632.38
310.26	658.38
310.49	647.38
310.72	654.38
310.949	666.38
311.179	660.38
311.409	659.38
311.639	651.38
311.868	658.38
312.098	667.38
312.328	656.38
312.557	665.38
312.787	669.38
313.017	684.38
313.246	698.38
313.476	707.38
313.706	717.38
313.935	691.38
314.165	703.38
314.394	687.38
314.624	691.38
314.853	692.38
315.083	680.38
315.312	681.38
315.542	689.38
315.771	698.38
316.001	681.38
316.23	681.38
316.46	667.38
316.689	733.38
316.919	698.38
317.148	675.38
317.377	667.38
317.607	687.38
317.836	681.38
318.065	661.38
318.295	667.38
318.524	672.38
318.753	675.38
318.983	676.38
319.212	684.38
319.441	699.38
319.67	659.38
319.9	675.38
320.129	680.38
320.358	711.38
320.587	678.38
320.816	661.38
321.046	693.38
321.275	666.38
321.504	699.38
321.733	700.38
321.962	698.38
322.191	680.38
322.42	684.38
322.649	694.38
322.878	698.38
323.108	687.38
323.337	687.38
323.566	703.38
323.795	704.38
324.024	701.38
324.253	695.38
324.482	698.38
324.71	727.38
324.939	713.38
325.168	709.38
325.397	714.38
325.626	732.38
325.855	738.38
326.084	747.38
326.313	736.38
326.542	723.38
326.77	742.38
326.999	741.38
327.228	736.38
327.457	752.38
327.686	728.38
327.914	728.38
328.143	757.38
328.372	731.38
328.6	736.38
328.829	738.38
329.058	769.38
329.287	744.38
329.515	757.38
329.744	723.38
329.972	738.38
330.201	774.38
330.43	724.38
330.658	765.38
330.887	745.38
331.115	787.38
331.344	809.38
331.572	812.38
331.801	823.38
332.03	837.38
332.258	834.38
332.486	836.38
332.715	886.38
332.943	913.38
333.172	934.38
333.4	978.38
333.629	996.38
333.857	1026.38
334.085	968.38
334.314	987.38
334.542	971.38
334.771	935.38
334.999	935.38
335.227	941.38
335.455	964.38
335.684	933.38
335.912	905.38
336.14	900.38
336.369	871.38
336.597	911.38
336.825	915.38
337.053	907.38
337.281	879.38
337.51	855.38
337.738	851.38
337.966	826.38
338.194	849.38
338.422	817.38
338.65	841.38
338.878	821.38
339.106	834.38
339.334	851.38
339.562	808.38
339.79	796.38
340.018	789.38
340.246	762.38
340.474	762.38
340.702	795.38
340.93	786.38
341.158	780.38
341.386	785.38
341.614	791.38
341.842	812.38
342.07	784.38
342.298	775.38
342.526	790.38
342.754	778.38
342.981	768.38
343.209	810.38
343.437	823.38
343.665	909.38
343.893	914.38
344.12	957.38
344.348	923.38
344.576	889.38
344.804	867.38
345.031	826.38
345.259	808.38
345.487	775.38
345.714	785.38
345.942	776.38
346.17	787.38
346.397	748.38
346.625	756.38
346.853	764.38
347.08	756.38
347.308	745.38
347.535	723.38
347.763	739.38
347.99	723.38
348.218	747.38
348.445	756.38
348.673	719.38
348.9	724.38
349.128	737.38
349.355	742.38
349.583	776.38
349.81	726.38
350.037	725.38
350.265	729.38
350.492	729.38
350.72	732.38
350.947	731.38
351.174	753.38
351.402	731.38
351.629	738.38
351.856	748.38
352.083	719.38
352.311	731.38
352.538	761.38
352.765	732.38
352.992	720.38
353.22	700.38
353.447	679.38
353.674	706.38
353.901	710.38
354.128	720.38
354.355	708.38
354.583	693.38
354.81	694.38
355.037	726.38
355.264	685.38
355.491	723.38
355.718	706.38
355.945	711.38
356.172	733.38
356.399	729.38
356.626	723.38
356.853	725.38
357.08	706.38
357.307	704.38
357.534	716.38
357.761	720.38
357.988	728.38
358.215	724.38
358.441	711.38
358.668	716.38
358.895	717.38
359.122	708.38
359.349	703.38
359.576	726.38
359.802	717.38
360.029	694.38
360.256	694.38
360.483	708.38
360.709	707.38
360.936	731.38
361.163	715.38
361.39	730.38
361.616	723.38
361.843	703.38
362.07	744.38
362.296	722.38
362.523	715.38
362.749	722.38
362.976	715.38
363.203	711.38
363.429	725.38
363.656	713.38
363.882	706.38
364.109	699.38
364.335	722.38
364.562	710.38
364.788	691.38
365.015	714.38
365.241	723.38
365.468	729.38
365.694	693.38
365.92	714.38
366.147	694.38
366.373	697.38
366.599	730.38
366.826	691.38
367.052	711.38
367.278	733.38
367.505	740.38
367.731	714.38
367.957	714.38
368.184	723.38
368.41	713.38
368.636	731.38
368.862	727.38
369.089	730.38
369.315	747.38
369.541	733.38
369.767	709.38
369.993	728.38
370.219	742.38
370.445	762.38
370.672	759.38
370.898	746.38
371.124	755.38
371.35	761.38
371.576	772.38
371.802	769.38
372.028	753.38
372.254	755.38
372.48	775.38
372.706	786.38
372.932	837.38
373.158	786.38
373.384	809.38
373.61	751.38
373.835	781.38
374.061	779.38
374.287	785.38
374.513	801.38
374.739	806.38
374.965	842.38
375.191	851.38
375.416	831.38
375.642	809.38
375.868	801.38
376.094	823.38
376.319	787.38
376.545	784.38
376.771	791.38
376.997	788.38
377.222	741.38
377.448	776.38
377.674	753.38
377.899	766.38
378.125	753.38
378.35	754.38
378.576	771.38
378.802	771.38
379.027	816.38
379.253	758.38
379.478	742.38
379.704	764.38
379.929	775.38
380.155	762.38
380.38	748.38
380.606	755.38
380.831	733.38
381.057	750.38
381.282	769.38
381.507	755.38
381.733	787.38
381.958	757.38
382.184	763.38
382.409	768.38
382.634	795.38
382.86	807.38
383.085	795.38
383.31	790.38
383.535	834.38
383.761	849.38
383.986	852.38
384.211	884.38
384.436	894.38
384.662	890.38
384.887	912.38
385.112	913.38
385.337	927.38
385.562	915.38
385.787	922.38
386.013	903.38
386.238	968.38
386.463	933.38
386.688	932.38
386.913	908.38
387.138	909.38
387.363	899.38
387.588	906.38
387.813	914.38
388.038	876.38
388.263	887.38
388.488	907.38
388.713	914.38
388.938	905.38
389.163	904.38
389.387	882.38
389.612	894.38
389.837	919.38
390.062	877.38
390.287	880.38
390.512	867.38
390.736	917.38
390.961	926.38
391.186	893.38
391.411	965.38
391.636	971.38
391.86	1059.38
392.085	1026.38
392.31	1021.38
392.534	1013.38
392.759	1002.38
392.984	974.38
393.208	984.38
393.433	967.38
393.658	956.38
393.882	977.38
394.107	977.38
394.331	979.38
394.556	969.38
394.78	991.38
395.005	988.38
395.229	1012.38
395.454	1011.38
395.678	1040.38
395.903	1040.38
396.127	1033.38
396.352	961.38
396.576	959.38
396.801	965.38
397.025	1002.38
397.249	989.38
397.474	1009.38
397.698	1035.38
397.922	1051.38
398.147	1029.38
398.371	1039.38
398.595	1079.38
398.82	1173.38
399.044	1196.38
399.268	1338.38
399.492	1527.38
399.717	1748.38
399.941	1717.38
400.165	1521.38
400.389	1395.38
400.613	1241.38
400.837	1220.38
401.062	1183.38
401.286	1163.38
401.51	1130.38
401.734	1139.38
401.958	1178.38
402.182	1199.38
402.406	1209.38
402.63	1204.38
402.854	1241.38
403.078	1258.38
403.302	1290.38
403.526	1327.38
403.75	1344.38
403.974	1333.38
404.198	1333.38
404.422	1374.38
404.645	1324.38
404.869	1272.38
405.093	1305.38
405.317	1271.38
405.541	1253.38
405.765	1240.38
405.988	1241.38
406.212	1259.38
406.436	1234.38
406.66	1286.38
406.883	1316.38
407.107	1388.38
407.331	1440.38
407.555	1467.38
407.778	1475.38
408.002	1461.38
408.226	1383.38
408.449	1348.38
408.673	1343.38
408.896	1285.38
409.12	1281.38
409.344	1303.38
409.567	1314.38
409.791	1281.38
410.014	1276.38
410.238	1269.38
410.461	1293.38
410.685	1279.38
410.908	1225.38
411.132	1186.38
411.355	1175.38
411.578	1201.38
411.802	1192.38
412.025	1235.38
412.249	1215.38
412.472	1230.38
412.695	1175.38
412.919	1155.38
413.142	1163.38
413.365	1177.38
413.589	1194.38
413.812	1153.38
414.035	1119.38
414.258	1159.38
414.482	1179.38
414.705	1172.38
414.928	1224.38
415.151	1176.38
415.374	1172.38
415.597	1142.38
415.821	1116.38
416.044	1137.38
416.267	1105.38
416.49	1125.38
416.713	1133.38
416.936	1123.38
417.159	1106.38
417.382	1140.38
417.605	1134.38
417.828	1137.38
418.051	1157.38
418.274	1149.38
418.497	1140.38
418.72	1181.38
418.943	1185.38
419.166	1258.38
419.389	1301.38
419.611	1281.38
419.834	1206.38
420.057	1184.38
420.28	1175.38
420.503	1144.38
420.726	1151.38
420.948	1131.38
421.171	1127.38
421.394	1160.38
421.617	1138.38
421.839	1133.38
422.062	1201.38
422.285	1127.38
422.507	1148.38
422.73	1216.38
422.953	1188.38
423.175	1233.38
423.398	1210.38
423.621	1212.38
423.843	1257.38
424.066	1223.38
424.288	1213.38
424.511	1189.38
424.733	1164.38
424.956	1183.38
425.178	1186.38
425.401	1163.38
425.623	1141.38
425.846	1112.38
426.068	1108.38
426.291	1102.38
426.513	1077.38
426.735	1065.38
426.958	1048.38
427.18	1065.38
427.402	1071.38
427.625	1045.38
427.847	1041.38
428.069	1028.38
428.292	1041.38
428.514	1039.38
428.736	1021.38
428.958	1029.38
429.181	1000.38
429.403	1012.38
429.625	1023.38
429.847	983.38
430.069	1016.38
430.292	1007.38
430.514	979.38
430.736	989.38
430.958	988.38
431.18	1001.38
431.402	1047.38
431.624	1007.38
431.846	1042.38
432.068	1003.38
432.29	1043.38
432.512	1016.38
432.734	1032.38
432.956	1032.38
433.178	1036.38
433.4	1062.38
433.622	1045.38
433.844	1044.38
434.066	1024.38
434.287	1052.38
434.509	1083.38
434.731	1148.38
434.953	1132.38
435.175	1179.38
435.397	1157.38
435.618	1087.38
435.84	1079.38
436.062	1028.38
436.284	1029.38
436.505	1010.38
436.727	1032.38
436.949	1024.38
437.17	1033.38
437.392	998.38
437.614	993.38
437.835	969.38
438.057	964.38
438.278	1003.38
438.5	970.38
438.721	980.38
438.943	1000.38
439.165	996.38
439.386	1015.38
439.608	1045.38
439.829	1025.38
440.05	1027.38
440.272	1059.38
440.493	1048.38
440.715	1046.38
440.936	1077.38
441.158	1093.38
441.379	1101.38
441.6	1139.38
441.822	1167.38
442.043	1187.38
442.264	1147.38
442.486	1114.38
442.707	1137.38
442.928	1132.38
443.149	1143.38
443.371	1119.38
443.592	1149.38
443.813	1133.38
444.034	1144.38
444.255	1203.38
444.476	1266.38
444.698	1359.38
444.919	1401.38
445.14	1434.38
445.361	1291.38
445.582	1173.38
445.803	1125.38
446.024	1124.38
446.245	1089.38
446.466	1101.38
446.687	1043.38
446.908	1024.38
447.129	1038.38
447.35	1001.38
447.571	1014.38
447.792	992.38
448.013	986.38
448.234	941.38
448.455	973.38
448.675	1002.38
448.896	984.38
449.117	922.38
449.338	949.38
449.559	931.38
449.779	947.38
450	945.38
450.221	952.38
450.442	948.38
450.662	969.38
450.883	947.38
451.104	976.38
451.324	955.38
451.545	965.38
451.766	965.38
451.986	955.38
452.207	962.38
452.428	969.38
452.648	972.38
452.869	924.38
453.089	904.38
453.31	928.38
453.53	924.38
453.751	929.38
453.971	904.38
454.192	916.38
454.412	897.38
454.633	910.38
454.853	901.38
455.073	904.38
455.294	907.38
455.514	916.38
455.734	900.38
455.955	888.38
456.175	913.38
456.395	888.38
456.616	909.38
456.836	887.38
457.056	899.38
457.276	892.38
457.497	896.38
457.717	880.38
457.937	861.38
458.157	890.38
458.377	888.38
458.598	930.38
458.818	951.38
459.038	975.38
459.258	1007.38
459.478	1037.38
459.698	1067.38
459.918	1098.38
460.138	1143.38
460.358	1209.38
460.578	1239.38
460.798	1223.38
461.018	1224.38
461.238	1219.38
461.458	1204.38
461.678	1231.38
461.898	1237.38
462.118	1245.38
462.338	1348.38
462.558	1343.38
462.777	1396.38
462.997	1519.38
463.217	1610.38
463.437	1632.38
463.657	1491.38
463.876	1443.38
464.096	1434.38
464.316	1412.38
464.536	1440.38
464.755	1359.38
464.975	1322.38
465.195	1252.38
465.414	1199.38
465.634	1109.38
465.854	1098.38
466.073	1089.38
466.293	1064.38
466.512	1037.38
466.732	981.38
466.951	1023.38
467.171	1003.38
467.391	973.38
467.61	1024.38
467.829	992.38
468.049	989.38
468.268	949.38
468.488	970.38
468.707	971.38
468.927	948.38
469.146	941.38
469.365	1007.38
469.585	995.38
469.804	1027.38
470.023	1045.38
470.243	987.38
470.462	1063.38
470.681	1060.38
470.901	1049.38
471.12	1010.38
471.339	1009.38
471.558	978.38
471.777	977.38
471.997	1007.38
472.216	965.38
472.435	959.38
472.654	943.38
472.873	928.38
473.092	940.38
473.311	917.38
473.53	935.38
473.749	949.38
473.968	920.38
474.187	935.38
474.406	937.38
474.625	948.38
474.844	942.38
475.063	938.38
475.282	928.38
475.501	944.38
475.72	915.38
475.939	947.38
476.158	958.38
476.377	988.38
476.596	971.38
476.814	977.38
477.033	991.38
477.252	969.38
477.471	1021.38
477.69	1047.38
477.908	1088.38
478.127	1096.38
478.346	1112.38
478.564	1153.38
478.783	1099.38
479.002	1211.38
479.22	1223.38
479.439	1153.38
479.658	1164.38
479.876	1149.38
480.095	1178.38
480.313	1253.38
480.532	1274.38
480.751	1255.38
480.969	1197.38
481.188	1120.38
481.406	1129.38
481.624	1095.38
481.843	1081.38
482.061	1100.38
482.28	1067.38
482.498	1063.38
482.717	1049.38
482.935	1106.38
483.153	1050.38
483.372	1084.38
483.59	1084.38
483.808	1058.38
484.027	1065.38
484.245	1099.38
484.463	1083.38
484.681	1114.38
484.9	1116.38
485.118	1115.38
485.336	1088.38
485.554	1104.38
485.772	1137.38
485.99	1129.38
486.209	1131.38
486.427	1144.38
486.645	1115.38
486.863	1128.38
487.081	1140.38
487.299	1094.38
487.517	1103.38
487.735	1126.38
487.953	1160.38
488.171	1124.38
488.389	1123.38
488.607	1091.38
488.825	1106.38
489.043	1076.38
489.261	1113.38
489.479	1063.38
489.696	1124.38
489.914	1142.38
490.132	1106.38
490.35	1100.38
490.568	1116.38
490.786	1130.38
491.003	1114.38
491.221	1123.38
491.439	1112.38
491.657	1135.38
491.874	1125.38
492.092	1151.38
492.31	1173.38
492.527	1122.38
492.745	1175.38
492.963	1156.38
493.18	1196.38
493.398	1164.38
493.615	1167.38
493.833	1207.38
494.05	1197.38
494.268	1201.38
494.485	1202.38
494.703	1221.38
494.92	1231.38
495.138	1201.38
495.355	1182.38
495.573	1206.38
495.79	1183.38
496.008	1185.38
496.225	1228.38
496.442	1204.38
496.66	1288.38
496.877	1271.38
497.094	1268.38
497.312	1321.38
497.529	1356.38
497.746	1391.38
497.963	1407.38
498.181	1484.38
498.398	1517.38
498.615	1618.38
498.832	1715.38
499.049	1859.38
499.267	1972.38
499.484	2183.38
499.701	2419.38
499.918	2657.38
500.135	3027.38
500.352	3460.38
500.569	3601.38
500.786	3570.38
501.003	3319.38
501.22	2940.38
501.437	2615.38
501.654	2282.38
501.871	2119.38
502.088	1953.38
502.305	1796.38
502.522	1735.38
502.739	1660.38
502.956	1542.38
503.172	1508.38
503.389	1436.38
503.606	1395.38
503.823	1384.38
504.04	1359.38
504.256	1346.38
504.473	1417.38
504.69	1436.38
504.907	1422.38
505.123	1313.38
505.34	1234.38
505.557	1187.38
505.773	1155.38
505.99	1113.38
506.207	1099.38
506.423	1080.38
506.64	1049.38
506.856	1046.38
507.073	1086.38
507.289	1033.38
507.506	1037.38
507.722	1059.38
507.939	1027.38
508.155	1019.38
508.372	1005.38
508.588	1007.38
508.805	989.38
509.021	987.38
509.238	1026.38
509.454	995.38
509.67	981.38
509.887	970.38
510.103	963.38
510.319	976.38
510.536	971.38
510.752	964.38
510.968	952.38
511.184	963.38
511.401	927.38
511.617	980.38
511.833	959.38
512.049	923.38
512.265	931.38
512.481	959.38
512.698	950.38
512.914	935.38
513.13	941.38
513.346	931.38
513.562	916.38
513.778	959.38
513.994	969.38
514.21	957.38
514.426	953.38
514.642	946.38
514.858	957.38
515.074	978.38
515.29	962.38
515.506	972.38
515.721	1002.38
515.937	1034.38
516.153	1033.38
516.369	1047.38
516.585	1084.38
516.801	1127.38
517.016	1183.38
517.232	1249.38
517.448	1271.38
517.664	1339.38
517.879	1365.38
518.095	1316.38
518.311	1292.38
518.527	1215.38
518.742	1186.38
518.958	1132.38
519.173	1083.38
519.389	1092.38
519.605	1025.38
519.82	1013.38
520.036	1009.38
520.251	973.38
520.467	974.38
520.682	951.38
520.898	918.38
521.113	940.38
521.329	946.38
521.544	917.38
521.76	928.38
521.975	926.38
522.19	929.38
522.406	875.38
522.621	870.38
522.836	886.38
523.052	881.38
523.267	846.38
523.482	888.38
523.698	892.38
523.913	900.38
524.128	873.38
524.343	866.38
524.559	857.38
524.774	869.38
524.989	873.38
525.204	854.38
525.419	882.38
525.634	842.38
525.849	866.38
526.064	860.38
526.28	869.38
526.495	854.38
526.71	851.38
526.925	857.38
527.14	835.38
527.355	837.38
527.57	855.38
527.785	853.38
527.999	874.38
528.214	851.38
528.429	853.38
528.644	869.38
528.859	846.38
529.074	859.38
529.289	866.38
529.503	866.38
529.718	824.38
529.933	823.38
530.148	849.38
530.363	840.38
530.577	832.38
530.792	817.38
531.007	854.38
531.221	840.38
531.436	852.38
531.651	855.38
531.865	819.38
532.08	860.38
532.295	851.38
532.509	832.38
532.724	861.38
532.938	856.38
533.153	841.38
533.367	837.38
533.582	837.38
533.796	845.38
534.011	824.38
534.225	841.38
534.44	855.38
534.654	822.38
534.868	825.38
535.083	820.38
535.297	818.38
535.511	815.38
535.726	808.38
535.94	825.38
536.154	805.38
536.369	820.38
536.583	778.38
536.797	805.38
537.011	799.38
537.225	786.38
537.44	792.38
537.654	798.38
537.868	768.38
538.082	756.38
538.296	755.38
538.51	769.38
538.724	795.38
538.938	754.38
539.153	775.38
539.367	750.38
539.581	769.38
539.795	754.38
540.009	782.38
540.222	768.38
540.436	754.38
540.65	769.38
540.864	754.38
541.078	760.38
541.292	752.38
541.506	744.38
541.72	781.38
541.934	761.38
542.147	743.38
542.361	756.38
542.575	757.38
542.789	736.38
543.002	746.38
543.216	757.38
543.43	760.38
543.644	757.38
543.857	746.38
544.071	773.38
544.285	757.38
544.498	776.38
544.712	774.38
544.925	757.38
545.139	782.38
545.352	785.38
545.566	782.38
545.779	780.38
545.993	775.38
546.206	772.38
546.42	781.38
546.633	774.38
546.847	781.38
547.06	788.38
547.274	781.38
547.487	788.38
547.7	752.38
547.914	807.38
548.127	792.38
548.34	798.38
548.554	785.38
548.767	782.38
548.98	768.38
549.193	784.38
549.407	787.38
549.62	787.38
549.833	792.38
550.046	792.38
550.259	779.38
550.473	790.38
550.686	765.38
550.899	761.38
551.112	776.38
551.325	755.38
551.538	761.38
551.751	732.38
551.964	763.38
552.177	767.38
552.39	785.38
552.603	814.38
552.816	818.38
553.029	841.38
553.242	853.38
553.455	884.38
553.667	875.38
553.88	876.38
554.093	809.38
554.306	813.38
554.519	780.38
554.732	767.38
554.944	759.38
555.157	762.38
555.37	739.38
555.583	743.38
555.795	715.38
556.008	726.38
556.221	701.38
556.433	685.38
556.646	694.38
556.859	659.38
557.071	634.38
557.284	668.38
557.496	669.38
557.709	667.38
557.921	663.38
558.134	661.38
558.346	654.38
558.559	653.38
558.771	654.38
558.984	659.38
559.196	637.38
559.409	646.38
559.621	636.38
559.833	661.38
560.046	650.38
560.258	646.38
560.47	640.38
560.683	634.38
560.895	643.38
561.107	619.38
561.32	619.38
561.532	631.38
561.744	651.38
561.956	644.38
562.168	632.38
562.381	632.38
562.593	652.38
562.805	636.38
563.017	643.38
563.229	639.38
563.441	651.38
563.653	649.38
563.865	652.38
564.077	667.38
564.289	659.38
564.501	677.38
564.713	674.38
564.925	699.38
565.137	714.38
565.349	728.38
565.561	721.38
565.773	769.38
565.985	788.38
566.197	844.38
566.408	869.38
566.62	955.38
566.832	1053.38
567.044	1096.38
567.255	1052.38
567.467	1048.38
567.679	1115.38
567.891	1218.38
568.102	1235.38
568.314	1190.38
568.526	1039.38
568.737	957.38
568.949	873.38
569.161	833.38
569.372	746.38
569.584	732.38
569.795	702.38
570.007	663.38
570.218	671.38
570.43	633.38
570.641	635.38
570.853	671.38
571.064	667.38
571.276	664.38
571.487	643.38
571.698	604.38
571.91	588.38
572.121	597.38
572.333	566.38
572.544	548.38
572.755	541.38
572.966	525.38
573.178	564.38
573.389	553.38
573.6	550.38
573.811	516.38
574.023	516.38
574.234	523.38
574.445	537.38
574.656	527.38
574.867	520.38
575.078	529.38
575.289	522.38
575.501	519.38
575.712	516.38
575.923	482.38
576.134	482.38
576.345	488.38
576.556	508.38
576.767	497.38
576.978	497.38
577.188	485.38
577.399	499.38
577.61	482.38
577.821	452.38
578.032	465.38
578.243	446.38
578.454	449.38
578.665	459.38
578.875	464.38
579.086	473.38
579.297	452.38
579.508	447.38
579.718	467.38
579.929	439.38
580.14	455.38
580.35	440.38
580.561	436.38
580.772	447.38
580.982	444.38
581.193	447.38
581.403	427.38
581.614	450.38
581.825	434.38
582.035	408.38
582.246	444.38
582.456	440.38
582.667	433.38
582.877	425.38
583.087	456.38
583.298	438.38
583.508	423.38
583.719	427.38
583.929	413.38
584.139	429.38
584.35	424.38
584.56	421.38
584.77	426.38
584.981	412.38
585.191	419.38
585.401	403.38
585.611	387.38
585.821	419.38
586.032	435.38
586.242	442.38
586.452	417.38
586.662	403.38
586.872	394.38
587.082	414.38
587.292	403.38
587.502	426.38
587.713	421.38
587.923	415.38
588.133	400.38
588.343	412.38
588.553	419.38
588.762	441.38
588.972	421.38
589.182	478.38
589.392	468.38
589.602	452.38
589.812	474.38
590.022	454.38
590.232	421.38
590.441	413.38
590.651	415.38
590.861	416.38
591.071	432.38
591.281	425.38
591.49	442.38
591.7	447.38
591.91	452.38
592.119	441.38
592.329	452.38
592.539	464.38
592.748	518.38
592.958	495.38
593.167	519.38
593.377	533.38
593.587	527.38
593.796	543.38
594.006	530.38
594.215	537.38
594.424	523.38
594.634	509.38
594.843	479.38
595.053	477.38
595.262	463.38
595.472	454.38
595.681	436.38
595.89	429.38
596.1	415.38
596.309	418.38
596.518	416.38
596.727	409.38
596.937	387.38
597.146	373.38
597.355	380.38
597.564	387.38
597.774	386.38
597.983	372.38
598.192	364.38
598.401	373.38
598.61	377.38
598.819	369.38
599.028	359.38
599.237	356.38
599.446	371.38
599.655	338.38
599.864	356.38
600.073	360.38
600.282	359.38
600.491	355.38
600.7	350.38
600.909	348.38
601.118	342.38
601.327	344.38
601.536	335.38
601.745	335.38
601.953	308.38
602.162	345.38
602.371	338.38
602.58	341.38
602.789	351.38
602.997	341.38
603.206	339.38
603.415	338.38
603.623	334.38
603.832	327.38
604.041	313.38
604.249	301.38
604.458	322.38
604.666	307.38
604.875	323.38
605.084	334.38
605.292	325.38
605.501	315.38
605.709	331.38
605.918	331.38
606.126	317.38
606.334	317.38
606.543	319.38
606.751	310.38
606.96	316.38
607.168	298.38
607.376	310.38
607.585	340.38
607.793	321.38
608.001	303.38
608.21	288.38
608.418	300.38
608.626	307.38
608.834	326.38
609.043	326.38
609.251	314.38
609.459	294.38
609.667	312.38
609.875	298.38
610.083	298.38
610.291	320.38
610.499	290.38
610.707	290.38
610.916	296.38
611.124	290.38
611.332	326.38
611.54	309.38
611.748	305.38
611.955	297.38
612.163	296.38
612.371	307.38
612.579	287.38
612.787	292.38
612.995	308.38
613.203	308.38
613.411	296.38
613.618	296.38
613.826	303.38
614.034	293.38
614.242	279.38
614.449	298.38
614.657	305.38
614.865	295.38
615.072	296.38
615.28	316.38
615.488	292.38
615.695	286.38
615.903	296.38
616.111	301.38
616.318	303.38
616.526	292.38
616.733	309.38
616.941	306.38
617.148	289.38
617.356	289.38
617.563	288.38
617.771	307.38
617.978	306.38
618.185	308.38
618.393	308.38
618.6	294.38
618.807	301.38
619.015	289.38
619.222	291.38
619.429	281.38
619.637	294.38
619.844	282.38
620.051	270.38
620.258	289.38
620.466	266.38
620.673	277.38
620.88	283.38
621.087	281.38
621.294	273.38
621.501	272.38
621.708	266.38
621.915	283.38
622.122	267.38
622.329	273.38
622.536	266.38
622.743	291.38
622.95	273.38
623.157	277.38
623.364	268.38
623.571	249.38
623.778	276.38
623.985	276.38
624.192	267.38
624.399	263.38
624.606	267.38
624.812	261.38
625.019	252.38
625.226	258.38
625.433	262.38
625.639	244.38
625.846	251.38
626.053	261.38
626.259	245.38
626.466	250.38
626.673	250.38
626.879	253.38
627.086	266.38
627.293	244.38
627.499	255.38
627.706	249.38
627.912	251.38
628.119	239.38
628.325	250.38
628.532	249.38
628.738	243.38
628.945	217.38
629.151	237.38
629.357	230.38
629.564	224.38
629.77	240.38
629.976	232.38
630.183	203.38
630.389	232.38
630.595	236.38
630.802	240.38
631.008	243.38
631.214	218.38
631.42	217.38
631.627	227.38
631.833	231.38
632.039	211.38
632.245	220.38
632.451	220.38
632.657	217.38
632.863	221.38
633.069	209.38
633.275	209.38
633.481	232.38
633.688	217.38
633.893	208.38
634.099	206.38
634.305	214.38
634.511	231.38
634.717	217.38
634.923	217.38
635.129	216.38
635.335	198.38
635.541	223.38
635.747	226.38
635.952	224.38
636.158	199.38
636.364	214.38
636.57	222.38
636.775	210.38
636.981	201.38
637.187	211.38
637.392	227.38
637.598	205.38
637.804	217.38
638.009	197.38
638.215	212.38
638.421	216.38
638.626	194.38
638.832	198.38
639.037	205.38
639.243	212.38
639.448	198.38
639.654	206.38
639.859	195.38
640.065	199.38
640.27	209.38
640.475	187.38
640.681	203.38
640.886	197.38
641.091	206.38
641.297	213.38
641.502	195.38
641.707	192.38
641.913	189.38
642.118	187.38
642.323	200.38
642.528	210.38
642.733	197.38
642.939	201.38
643.144	187.38
643.349	183.38
643.554	188.38
643.759	181.38
643.964	202.38
644.169	182.38
644.374	197.38
644.579	203.38
644.784	203.38
644.989	191.38
645.194	188.38
645.399	206.38
645.604	185.38
645.809	183.38
646.014	194.38
646.219	193.38
646.423	195.38
646.628	205.38
646.833	190.38
647.038	200.38
647.243	192.38
647.447	192.38
647.652	172.38
647.857	191.38
648.062	192.38
648.266	203.38
648.471	186.38
648.676	208.38
648.88	197.38
649.085	218.38
649.289	168.38
649.494	191.38
649.698	193.38
649.903	189.38
650.107	184.38
650.312	198.38
650.516	180.38
650.721	189.38
650.925	186.38
651.13	196.38
651.334	177.38
651.539	168.38
651.743	176.38
651.947	165.38
652.152	177.38
652.356	162.38
652.56	175.38
652.764	160.38
652.969	159.38
653.173	163.38
653.377	164.38
653.581	154.38
653.785	144.38
653.99	147.38
654.194	153.38
654.398	151.38
654.602	141.38
654.806	148.38
655.01	169.38
655.214	146.38
655.418	127.38
655.622	142.38
655.826	160.38
656.03	137.38
656.234	136.38
656.438	155.38
656.642	131.38
656.846	140.38
657.049	133.38
657.253	147.38
657.457	122.38
657.661	113.38
657.865	120.38
658.068	119.38
658.272	108.38
658.476	120.38
658.68	108.38
658.883	109.38
659.087	111.38
659.291	96.38
659.494	122.38
659.698	101.38
659.901	111.38
660.105	89.38
660.309	102.38
660.512	102.38
660.716	101.38
660.919	102.38
661.123	105.38
661.326	104.38
661.53	82.38
661.733	98.38
661.936	113.38
662.14	85.38
662.343	93.38
662.546	80.38
662.75	84.38
662.953	83.38
663.156	92.38
663.36	79.38
663.563	81.38
663.766	100.38
663.969	90.38
664.173	77.38
664.376	82.38
664.579	91.38
664.782	82.38
664.985	86.38
665.188	90.38
665.391	70.38
665.594	83.38
665.797	78.38
666	90.38
666.203	78.38
666.406	72.38
666.609	78.38
666.812	79.38
667.015	88.38
667.218	84.38
667.421	96.38
667.624	85.38
667.827	87.38
668.03	98.38
668.232	84.38
668.435	84.38
668.638	77.38
668.841	75.38
669.043	85.38
669.246	77.38
669.449	84.38
669.651	83.38
669.854	84.38
670.057	79.38
670.259	91.38
670.462	93.38
670.665	96.38
670.867	75.38
671.07	86.38
671.272	96.38
671.475	86.38
671.677	88.38
671.88	81.38
672.082	73.38
672.284	73.38
672.487	92.38
672.689	79.38
672.892	73.38
