Data from NiCl2@0.125M.TitratingCurve.Agarose3%dH2O.NegLispCup.LampEnergy10.LIBS07252019_HRD10591_18-28-39-574.txt Node
Date: Thu Jul 25 18:28:39 EDT 2019
User: cochatt
Spectrometer: HR+D1059
Trigger mode: 1
Integration Time (sec): 1.000000E-1
Scans to average: 1
Electric dark correction enabled: true
Nonlinearity correction enabled: false
Boxcar width: 0
XAxis mode: Wavelengths
Number of Pixels in Spectrum: 2048
>>>>>Begin Spectral Data<<<<<
223.165	-9.31
223.4	-9.31
223.635	-9.31
223.869	-19.31
224.104	-12.31
224.338	-17.31
224.573	-7.31
224.808	-13.31
225.042	-18.31
225.277	-21.31
225.511	1.69
225.746	16.69
225.98	12.69
226.215	8.69
226.449	9.69
226.683	19.69
226.918	23.69
227.152	25.69
227.387	32.69
227.621	33.69
227.856	55.69
228.09	50.69
228.324	47.69
228.559	41.69
228.793	71.69
229.027	120.69
229.262	122.69
229.496	106.69
229.73	123.69
229.964	122.69
230.199	121.69
230.433	127.69
230.667	142.69
230.901	129.69
231.136	142.69
231.37	160.69
231.604	147.69
231.838	146.69
232.072	154.69
232.306	152.69
232.541	145.69
232.775	160.69
233.009	164.69
233.243	162.69
233.477	164.69
233.711	146.69
233.945	162.69
234.179	163.69
234.413	150.69
234.647	162.69
234.881	165.69
235.115	164.69
235.349	174.69
235.583	154.69
235.817	166.69
236.051	158.69
236.285	167.69
236.519	163.69
236.753	158.69
236.987	167.69
237.221	172.69
237.455	168.69
237.689	187.69
237.922	174.69
238.156	188.69
238.39	172.69
238.624	162.69
238.858	180.69
239.091	180.69
239.325	167.69
239.559	189.69
239.793	184.69
240.027	193.69
240.26	199.69
240.494	197.69
240.728	193.69
240.961	202.69
241.195	210.69
241.429	203.69
241.662	222.69
241.896	211.69
242.13	194.69
242.363	218.69
242.597	205.69
242.83	202.69
243.064	215.69
243.298	204.69
243.531	218.69
243.765	200.69
243.998	219.69
244.232	213.69
244.465	220.69
244.699	240.69
244.932	225.69
245.166	220.69
245.399	219.69
245.633	224.69
245.866	231.69
246.099	232.69
246.333	248.69
246.566	229.69
246.8	246.69
247.033	244.69
247.266	245.69
247.5	234.69
247.733	248.69
247.966	258.69
248.2	264.69
248.433	258.69
248.666	260.69
248.899	270.69
249.133	265.69
249.366	267.69
249.599	267.69
249.832	268.69
250.066	261.69
250.299	270.69
250.532	272.69
250.765	287.69
250.998	270.69
251.231	288.69
251.465	289.69
251.698	282.69
251.931	298.69
252.164	296.69
252.397	295.69
252.63	295.69
252.863	293.69
253.096	299.69
253.329	296.69
253.562	280.69
253.795	294.69
254.028	309.69
254.261	319.69
254.494	309.69
254.727	313.69
254.96	300.69
255.193	302.69
255.426	300.69
255.659	312.69
255.892	321.69
256.124	324.69
256.357	317.69
256.59	313.69
256.823	312.69
257.056	306.69
257.289	314.69
257.521	308.69
257.754	339.69
257.987	300.69
258.22	341.69
258.452	334.69
258.685	340.69
258.918	322.69
259.151	333.69
259.383	343.69
259.616	324.69
259.849	322.69
260.081	341.69
260.314	349.69
260.547	348.69
260.779	347.69
261.012	365.69
261.244	360.69
261.477	334.69
261.71	356.69
261.942	341.69
262.175	346.69
262.407	370.69
262.64	365.69
262.872	368.69
263.105	368.69
263.337	357.69
263.57	349.69
263.802	350.69
264.035	355.69
264.267	381.69
264.499	385.69
264.732	358.69
264.964	384.69
265.197	384.69
265.429	385.69
265.661	374.69
265.894	369.69
266.126	384.69
266.358	372.69
266.591	384.69
266.823	395.69
267.055	378.69
267.287	393.69
267.52	394.69
267.752	393.69
267.984	406.69
268.216	398.69
268.448	405.69
268.681	393.69
268.913	397.69
269.145	412.69
269.377	422.69
269.609	405.69
269.841	411.69
270.073	404.69
270.306	402.69
270.538	398.69
270.77	412.69
271.002	424.69
271.234	388.69
271.466	413.69
271.698	413.69
271.93	426.69
272.162	411.69
272.394	430.69
272.626	422.69
272.858	435.69
273.09	431.69
273.322	432.69
273.553	448.69
273.785	448.69
274.017	427.69
274.249	434.69
274.481	454.69
274.713	457.69
274.945	475.69
275.176	457.69
275.408	430.69
275.64	456.69
275.872	442.69
276.104	455.69
276.335	461.69
276.567	454.69
276.799	461.69
277.031	489.69
277.262	460.69
277.494	436.69
277.726	450.69
277.957	468.69
278.189	452.69
278.421	460.69
278.652	472.69
278.884	470.69
279.115	471.69
279.347	480.69
279.579	473.69
279.81	486.69
280.042	482.69
280.273	490.69
280.505	484.69
280.736	491.69
280.968	499.69
281.199	505.69
281.431	493.69
281.662	496.69
281.894	494.69
282.125	485.69
282.356	492.69
282.588	515.69
282.819	510.69
283.051	480.69
283.282	505.69
283.513	514.69
283.745	505.69
283.976	508.69
284.207	510.69
284.439	506.69
284.67	525.69
284.901	521.69
285.132	518.69
285.364	531.69
285.595	532.69
285.826	506.69
286.057	528.69
286.288	529.69
286.52	546.69
286.751	537.69
286.982	542.69
287.213	541.69
287.444	527.69
287.675	557.69
287.906	539.69
288.138	545.69
288.369	581.69
288.6	539.69
288.831	571.69
289.062	570.69
289.293	556.69
289.524	549.69
289.755	569.69
289.986	568.69
290.217	556.69
290.448	568.69
290.679	552.69
290.91	581.69
291.141	576.69
291.371	584.69
291.602	566.69
291.833	578.69
292.064	578.69
292.295	562.69
292.526	554.69
292.757	560.69
292.987	566.69
293.218	584.69
293.449	579.69
293.68	585.69
293.91	589.69
294.141	569.69
294.372	565.69
294.603	573.69
294.833	604.69
295.064	594.69
295.295	573.69
295.525	571.69
295.756	579.69
295.987	599.69
296.217	610.69
296.448	616.69
296.679	595.69
296.909	599.69
297.14	606.69
297.37	605.69
297.601	608.69
297.831	638.69
298.062	608.69
298.292	636.69
298.523	618.69
298.753	650.69
298.984	631.69
299.214	631.69
299.445	641.69
299.675	624.69
299.905	606.69
300.136	638.69
300.366	651.69
300.597	630.69
300.827	643.69
301.057	630.69
301.288	632.69
301.518	652.69
301.748	664.69
301.979	661.69
302.209	620.69
302.439	653.69
302.669	637.69
302.9	682.69
303.13	633.69
303.36	663.69
303.59	650.69
303.82	634.69
304.051	640.69
304.281	636.69
304.511	636.69
304.741	652.69
304.971	649.69
305.201	655.69
305.431	653.69
305.661	651.69
305.891	648.69
306.121	652.69
306.352	641.69
306.582	669.69
306.812	630.69
307.042	650.69
307.272	614.69
307.502	630.69
307.731	616.69
307.961	626.69
308.191	646.69
308.421	613.69
308.651	605.69
308.881	616.69
309.111	614.69
309.341	625.69
309.571	636.69
309.8	633.69
310.03	609.69
310.26	636.69
310.49	622.69
310.72	636.69
310.949	646.69
311.179	638.69
311.409	618.69
311.639	639.69
311.868	642.69
312.098	633.69
312.328	638.69
312.557	628.69
312.787	660.69
313.017	664.69
313.246	669.69
313.476	637.69
313.706	670.69
313.935	667.69
314.165	669.69
314.394	676.69
314.624	691.69
314.853	668.69
315.083	680.69
315.312	690.69
315.542	675.69
315.771	660.69
316.001	642.69
316.23	670.69
316.46	658.69
316.689	653.69
316.919	649.69
317.148	659.69
317.377	664.69
317.607	674.69
317.836	654.69
318.065	666.69
318.295	648.69
318.524	674.69
318.753	655.69
318.983	681.69
319.212	650.69
319.441	649.69
319.67	644.69
319.9	628.69
320.129	656.69
320.358	675.69
320.587	665.69
320.816	661.69
321.046	662.69
321.275	676.69
321.504	673.69
321.733	652.69
321.962	661.69
322.191	666.69
322.42	673.69
322.649	662.69
322.878	678.69
323.108	665.69
323.337	693.69
323.566	682.69
323.795	673.69
324.024	652.69
324.253	688.69
324.482	681.69
324.71	680.69
324.939	672.69
325.168	708.69
325.397	709.69
325.626	700.69
325.855	706.69
326.084	718.69
326.313	756.69
326.542	741.69
326.77	718.69
326.999	704.69
327.228	712.69
327.457	713.69
327.686	730.69
327.914	723.69
328.143	706.69
328.372	719.69
328.6	718.69
328.829	744.69
329.058	735.69
329.287	752.69
329.515	730.69
329.744	731.69
329.972	742.69
330.201	732.69
330.43	754.69
330.658	736.69
330.887	757.69
331.115	777.69
331.344	740.69
331.572	782.69
331.801	778.69
332.03	779.69
332.258	807.69
332.486	821.69
332.715	838.69
332.943	871.69
333.172	937.69
333.4	968.69
333.629	951.69
333.857	1006.69
334.085	983.69
334.314	979.69
334.542	950.69
334.771	930.69
334.999	917.69
335.227	918.69
335.455	910.69
335.684	894.69
335.912	896.69
336.14	867.69
336.369	861.69
336.597	876.69
336.825	872.69
337.053	873.69
337.281	844.69
337.51	840.69
337.738	811.69
337.966	804.69
338.194	763.69
338.422	802.69
338.65	789.69
338.878	792.69
339.106	772.69
339.334	775.69
339.562	787.69
339.79	756.69
340.018	742.69
340.246	745.69
340.474	759.69
340.702	760.69
340.93	758.69
341.158	762.69
341.386	788.69
341.614	759.69
341.842	749.69
342.07	765.69
342.298	755.69
342.526	756.69
342.754	726.69
342.981	749.69
343.209	781.69
343.437	813.69
343.665	858.69
343.893	904.69
344.12	950.69
344.348	927.69
344.576	877.69
344.804	822.69
345.031	799.69
345.259	802.69
345.487	776.69
345.714	762.69
345.942	759.69
346.17	746.69
346.397	736.69
346.625	725.69
346.853	722.69
347.08	756.69
347.308	747.69
347.535	754.69
347.763	774.69
347.99	737.69
348.218	747.69
348.445	766.69
348.673	713.69
348.9	735.69
349.128	727.69
349.355	714.69
349.583	710.69
349.81	728.69
350.037	710.69
350.265	719.69
350.492	726.69
350.72	686.69
350.947	676.69
351.174	695.69
351.402	676.69
351.629	708.69
351.856	722.69
352.083	717.69
352.311	675.69
352.538	702.69
352.765	696.69
352.992	692.69
353.22	720.69
353.447	697.69
353.674	694.69
353.901	678.69
354.128	714.69
354.355	704.69
354.583	684.69
354.81	700.69
355.037	707.69
355.264	718.69
355.491	737.69
355.718	733.69
355.945	697.69
356.172	728.69
356.399	724.69
356.626	689.69
356.853	721.69
357.08	718.69
357.307	715.69
357.534	702.69
357.761	716.69
357.988	689.69
358.215	701.69
358.441	696.69
358.668	702.69
358.895	719.69
359.122	686.69
359.349	692.69
359.576	711.69
359.802	717.69
360.029	705.69
360.256	702.69
360.483	730.69
360.709	698.69
360.936	739.69
361.163	698.69
361.39	713.69
361.616	702.69
361.843	693.69
362.07	720.69
362.296	714.69
362.523	712.69
362.749	695.69
362.976	712.69
363.203	698.69
363.429	705.69
363.656	684.69
363.882	693.69
364.109	706.69
364.335	703.69
364.562	716.69
364.788	701.69
365.015	706.69
365.241	698.69
365.468	696.69
365.694	701.69
365.92	714.69
366.147	693.69
366.373	717.69
366.599	705.69
366.826	707.69
367.052	700.69
367.278	685.69
367.505	714.69
367.731	718.69
367.957	726.69
368.184	720.69
368.41	716.69
368.636	691.69
368.862	725.69
369.089	726.69
369.315	701.69
369.541	741.69
369.767	719.69
369.993	735.69
370.219	720.69
370.445	744.69
370.672	743.69
370.898	749.69
371.124	758.69
371.35	776.69
371.576	803.69
371.802	754.69
372.028	784.69
372.254	794.69
372.48	758.69
372.706	776.69
372.932	775.69
373.158	804.69
373.384	781.69
373.61	764.69
373.835	776.69
374.061	770.69
374.287	781.69
374.513	786.69
374.739	792.69
374.965	848.69
375.191	871.69
375.416	845.69
375.642	836.69
375.868	811.69
376.094	802.69
376.319	778.69
376.545	793.69
376.771	797.69
376.997	743.69
377.222	749.69
377.448	775.69
377.674	790.69
377.899	761.69
378.125	744.69
378.35	750.69
378.576	746.69
378.802	758.69
379.027	794.69
379.253	775.69
379.478	756.69
379.704	742.69
379.929	760.69
380.155	757.69
380.38	750.69
380.606	757.69
380.831	758.69
381.057	755.69
381.282	730.69
381.507	783.69
381.733	782.69
381.958	771.69
382.184	800.69
382.409	804.69
382.634	775.69
382.86	792.69
383.085	836.69
383.31	821.69
383.535	812.69
383.761	847.69
383.986	861.69
384.211	864.69
384.436	906.69
384.662	909.69
384.887	933.69
385.112	918.69
385.337	941.69
385.562	941.69
385.787	949.69
386.013	936.69
386.238	948.69
386.463	956.69
386.688	933.69
386.913	916.69
387.138	908.69
387.363	901.69
387.588	898.69
387.813	912.69
388.038	925.69
388.263	931.69
388.488	911.69
388.713	898.69
388.938	890.69
389.163	903.69
389.387	918.69
389.612	923.69
389.837	894.69
390.062	899.69
390.287	898.69
390.512	909.69
390.736	887.69
390.961	926.69
391.186	946.69
391.411	970.69
391.636	990.69
391.86	998.69
392.085	1044.69
392.31	1045.69
392.534	1019.69
392.759	1008.69
392.984	992.69
393.208	974.69
393.433	999.69
393.658	965.69
393.882	989.69
394.107	946.69
394.331	996.69
394.556	981.69
394.78	987.69
395.005	990.69
395.229	1006.69
395.454	1008.69
395.678	1032.69
395.903	995.69
396.127	1012.69
396.352	998.69
396.576	986.69
396.801	984.69
397.025	999.69
397.249	1028.69
397.474	1036.69
397.698	1049.69
397.922	1048.69
398.147	1062.69
398.371	1090.69
398.595	1057.69
398.82	1112.69
399.044	1204.69
399.268	1340.69
399.492	1564.69
399.717	1735.69
399.941	1767.69
400.165	1588.69
400.389	1430.69
400.613	1338.69
400.837	1236.69
401.062	1187.69
401.286	1147.69
401.51	1164.69
401.734	1194.69
401.958	1180.69
402.182	1193.69
402.406	1180.69
402.63	1209.69
402.854	1238.69
403.078	1250.69
403.302	1302.69
403.526	1302.69
403.75	1302.69
403.974	1332.69
404.198	1372.69
404.422	1363.69
404.645	1337.69
404.869	1312.69
405.093	1288.69
405.317	1299.69
405.541	1328.69
405.765	1286.69
405.988	1243.69
406.212	1262.69
406.436	1258.69
406.66	1305.69
406.883	1320.69
407.107	1410.69
407.331	1430.69
407.555	1520.69
407.778	1530.69
408.002	1471.69
408.226	1408.69
408.449	1392.69
408.673	1318.69
408.896	1332.69
409.12	1324.69
409.344	1345.69
409.567	1304.69
409.791	1332.69
410.014	1318.69
410.238	1307.69
410.461	1304.69
410.685	1277.69
410.908	1267.69
411.132	1224.69
411.355	1193.69
411.578	1210.69
411.802	1212.69
412.025	1221.69
412.249	1227.69
412.472	1226.69
412.695	1210.69
412.919	1188.69
413.142	1159.69
413.365	1149.69
413.589	1171.69
413.812	1164.69
414.035	1139.69
414.258	1144.69
414.482	1162.69
414.705	1194.69
414.928	1176.69
415.151	1160.69
415.374	1195.69
415.597	1174.69
415.821	1112.69
416.044	1136.69
416.267	1095.69
416.49	1120.69
416.713	1121.69
416.936	1160.69
417.159	1156.69
417.382	1123.69
417.605	1150.69
417.828	1160.69
418.051	1145.69
418.274	1142.69
418.497	1160.69
418.72	1155.69
418.943	1174.69
419.166	1268.69
419.389	1332.69
419.611	1324.69
419.834	1247.69
420.057	1220.69
420.28	1172.69
420.503	1179.69
420.726	1127.69
420.948	1125.69
421.171	1136.69
421.394	1144.69
421.617	1162.69
421.839	1144.69
422.062	1147.69
422.285	1149.69
422.507	1162.69
422.73	1186.69
422.953	1196.69
423.175	1184.69
423.398	1205.69
423.621	1197.69
423.843	1236.69
424.066	1258.69
424.288	1210.69
424.511	1225.69
424.733	1209.69
424.956	1180.69
425.178	1168.69
425.401	1156.69
425.623	1192.69
425.846	1100.69
426.068	1120.69
426.291	1107.69
426.513	1094.69
426.735	1057.69
426.958	1116.69
427.18	1056.69
427.402	1075.69
427.625	1048.69
427.847	1040.69
428.069	1044.69
428.292	1051.69
428.514	1027.69
428.736	1022.69
428.958	1030.69
429.181	1016.69
429.403	1012.69
429.625	1026.69
429.847	1027.69
430.069	1018.69
430.292	1010.69
430.514	986.69
430.736	1038.69
430.958	1008.69
431.18	992.69
431.402	998.69
431.624	977.69
431.846	1043.69
432.068	1020.69
432.29	1062.69
432.512	1017.69
432.734	1056.69
432.956	1009.69
433.178	1054.69
433.4	1045.69
433.622	1050.69
433.844	1078.69
434.066	1053.69
434.287	1059.69
434.509	1078.69
434.731	1119.69
434.953	1164.69
435.175	1167.69
435.397	1150.69
435.618	1114.69
435.84	1096.69
436.062	1037.69
436.284	1034.69
436.505	1050.69
436.727	1050.69
436.949	1033.69
437.17	1041.69
437.392	1027.69
437.614	1001.69
437.835	975.69
438.057	963.69
438.278	988.69
438.5	1016.69
438.721	994.69
438.943	1028.69
439.165	992.69
439.386	1011.69
439.608	1032.69
439.829	1014.69
440.05	1054.69
440.272	1025.69
440.493	1060.69
440.715	1072.69
440.936	1112.69
441.158	1081.69
441.379	1109.69
441.6	1178.69
441.822	1192.69
442.043	1182.69
442.264	1172.69
442.486	1123.69
442.707	1156.69
442.928	1115.69
443.149	1150.69
443.371	1148.69
443.592	1158.69
443.813	1156.69
444.034	1193.69
444.255	1230.69
444.476	1274.69
444.698	1335.69
444.919	1415.69
445.14	1508.69
445.361	1366.69
445.582	1242.69
445.803	1170.69
446.024	1118.69
446.245	1130.69
446.466	1105.69
446.687	1072.69
446.908	1044.69
447.129	1047.69
447.35	1031.69
447.571	1007.69
447.792	981.69
448.013	1006.69
448.234	959.69
448.455	956.69
448.675	957.69
448.896	946.69
449.117	965.69
449.338	944.69
449.559	926.69
449.779	935.69
450	964.69
450.221	949.69
450.442	971.69
450.662	976.69
450.883	968.69
451.104	982.69
451.324	980.69
451.545	1002.69
451.766	981.69
451.986	925.69
452.207	959.69
452.428	978.69
452.648	959.69
452.869	942.69
453.089	966.69
453.31	956.69
453.53	956.69
453.751	945.69
453.971	925.69
454.192	914.69
454.412	888.69
454.633	919.69
454.853	896.69
455.073	892.69
455.294	907.69
455.514	897.69
455.734	924.69
455.955	895.69
456.175	917.69
456.395	879.69
456.616	893.69
456.836	909.69
457.056	912.69
457.276	885.69
457.497	912.69
457.717	877.69
457.937	900.69
458.157	908.69
458.377	933.69
458.598	918.69
458.818	970.69
459.038	966.69
459.258	1028.69
459.478	1060.69
459.698	1062.69
459.918	1100.69
460.138	1162.69
460.358	1221.69
460.578	1247.69
460.798	1232.69
461.018	1254.69
461.238	1257.69
461.458	1205.69
461.678	1228.69
461.898	1230.69
462.118	1262.69
462.338	1349.69
462.558	1354.69
462.777	1462.69
462.997	1526.69
463.217	1666.69
463.437	1682.69
463.657	1548.69
463.876	1481.69
464.096	1474.69
464.316	1458.69
464.536	1456.69
464.755	1434.69
464.975	1336.69
465.195	1344.69
465.414	1241.69
465.634	1129.69
465.854	1106.69
466.073	1067.69
466.293	1063.69
466.512	997.69
466.732	1018.69
466.951	1031.69
467.171	1013.69
467.391	1012.69
467.61	1016.69
467.829	978.69
468.049	1016.69
468.268	973.69
468.488	972.69
468.707	973.69
468.927	980.69
469.146	972.69
469.365	971.69
469.585	963.69
469.804	1000.69
470.023	1026.69
470.243	1021.69
470.462	1044.69
470.681	1048.69
470.901	1039.69
471.12	1001.69
471.339	1003.69
471.558	985.69
471.777	978.69
471.997	960.69
472.216	965.69
472.435	944.69
472.654	964.69
472.873	934.69
473.092	913.69
473.311	914.69
473.53	905.69
473.749	937.69
473.968	954.69
474.187	914.69
474.406	923.69
474.625	955.69
474.844	977.69
475.063	952.69
475.282	945.69
475.501	936.69
475.72	938.69
475.939	961.69
476.158	952.69
476.377	960.69
476.596	977.69
476.814	980.69
477.033	995.69
477.252	991.69
477.471	1057.69
477.69	1043.69
477.908	1103.69
478.127	1106.69
478.346	1134.69
478.564	1123.69
478.783	1144.69
479.002	1164.69
479.22	1206.69
479.439	1143.69
479.658	1130.69
479.876	1156.69
480.095	1178.69
480.313	1253.69
480.532	1270.69
480.751	1261.69
480.969	1222.69
481.188	1166.69
481.406	1140.69
481.624	1101.69
481.843	1078.69
482.061	1078.69
482.28	1074.69
482.498	1048.69
482.717	1039.69
482.935	1053.69
483.153	1065.69
483.372	1069.69
483.59	1081.69
483.808	1119.69
484.027	1077.69
484.245	1068.69
484.463	1090.69
484.681	1117.69
484.9	1117.69
485.118	1133.69
485.336	1128.69
485.554	1139.69
485.772	1128.69
485.99	1142.69
486.209	1134.69
486.427	1144.69
486.645	1136.69
486.863	1160.69
487.081	1147.69
487.299	1114.69
487.517	1118.69
487.735	1122.69
487.953	1138.69
488.171	1123.69
488.389	1090.69
488.607	1098.69
488.825	1113.69
489.043	1122.69
489.261	1102.69
489.479	1134.69
489.696	1101.69
489.914	1116.69
490.132	1120.69
490.35	1122.69
490.568	1104.69
490.786	1133.69
491.003	1119.69
491.221	1136.69
491.439	1101.69
491.657	1130.69
491.874	1146.69
492.092	1136.69
492.31	1140.69
492.527	1126.69
492.745	1159.69
492.963	1142.69
493.18	1146.69
493.398	1159.69
493.615	1134.69
493.833	1141.69
494.05	1210.69
494.268	1203.69
494.485	1203.69
494.703	1214.69
494.92	1184.69
495.138	1204.69
495.355	1195.69
495.573	1203.69
495.79	1207.69
496.008	1244.69
496.225	1208.69
496.442	1235.69
496.66	1249.69
496.877	1248.69
497.094	1301.69
497.312	1285.69
497.529	1325.69
497.746	1357.69
497.963	1366.69
498.181	1420.69
498.398	1512.69
498.615	1587.69
498.832	1720.69
499.049	1840.69
499.267	1970.69
499.484	2189.69
499.701	2461.69
499.918	2680.69
500.135	3092.69
500.352	3392.69
500.569	3583.69
500.786	3572.69
501.003	3420.69
501.22	3034.69
501.437	2688.69
501.654	2376.69
501.871	2140.69
502.088	1996.69
502.305	1844.69
502.522	1730.69
502.739	1651.69
502.956	1579.69
503.172	1545.69
503.389	1444.69
503.606	1430.69
503.823	1406.69
504.04	1387.69
504.256	1408.69
504.473	1440.69
504.69	1461.69
504.907	1412.69
505.123	1324.69
505.34	1246.69
505.557	1214.69
505.773	1185.69
505.99	1143.69
506.207	1118.69
506.423	1092.69
506.64	1092.69
506.856	1074.69
507.073	1074.69
507.289	1044.69
507.506	1044.69
507.722	1060.69
507.939	1033.69
508.155	1046.69
508.372	1042.69
508.588	1008.69
508.805	1012.69
509.021	993.69
509.238	1008.69
509.454	993.69
509.67	975.69
509.887	981.69
510.103	956.69
510.319	967.69
510.536	980.69
510.752	972.69
510.968	970.69
511.184	986.69
511.401	964.69
511.617	960.69
511.833	977.69
512.049	955.69
512.265	984.69
512.481	970.69
512.698	970.69
512.914	932.69
513.13	985.69
513.346	966.69
513.562	963.69
513.778	977.69
513.994	984.69
514.21	954.69
514.426	949.69
514.642	953.69
514.858	1025.69
515.074	1010.69
515.29	1010.69
515.506	1001.69
515.721	1057.69
515.937	1003.69
516.153	1060.69
516.369	1063.69
516.585	1086.69
516.801	1108.69
517.016	1165.69
517.232	1267.69
517.448	1287.69
517.664	1321.69
517.879	1366.69
518.095	1381.69
518.311	1348.69
518.527	1300.69
518.742	1210.69
518.958	1156.69
519.173	1106.69
519.389	1112.69
519.605	1088.69
519.82	1052.69
520.036	1015.69
520.251	1031.69
520.467	1000.69
520.682	993.69
520.898	962.69
521.113	967.69
521.329	937.69
521.544	944.69
521.76	954.69
521.975	924.69
522.19	933.69
522.406	935.69
522.621	918.69
522.836	933.69
523.052	922.69
523.267	902.69
523.482	908.69
523.698	907.69
523.913	925.69
524.128	932.69
524.343	898.69
524.559	882.69
524.774	865.69
524.989	891.69
525.204	901.69
525.419	910.69
525.634	867.69
525.849	888.69
526.064	880.69
526.28	867.69
526.495	871.69
526.71	867.69
526.925	876.69
527.14	854.69
527.355	869.69
527.57	873.69
527.785	888.69
527.999	898.69
528.214	895.69
528.429	877.69
528.644	892.69
528.859	896.69
529.074	869.69
529.289	875.69
529.503	875.69
529.718	881.69
529.933	880.69
530.148	864.69
530.363	866.69
530.577	885.69
530.792	871.69
531.007	878.69
531.221	874.69
531.436	884.69
531.651	859.69
531.865	905.69
532.08	888.69
532.295	896.69
532.509	872.69
532.724	873.69
532.938	884.69
533.153	880.69
533.367	866.69
533.582	885.69
533.796	864.69
534.011	896.69
534.225	862.69
534.44	871.69
534.654	856.69
534.868	850.69
535.083	878.69
535.297	870.69
535.511	842.69
535.726	854.69
535.94	854.69
536.154	838.69
536.369	835.69
536.583	851.69
536.797	828.69
537.011	822.69
537.225	824.69
537.44	810.69
537.654	830.69
537.868	816.69
538.082	803.69
538.296	776.69
538.51	812.69
538.724	805.69
538.938	805.69
539.153	800.69
539.367	784.69
539.581	780.69
539.795	806.69
540.009	829.69
540.222	780.69
540.436	795.69
540.65	802.69
540.864	772.69
541.078	780.69
541.292	808.69
541.506	791.69
541.72	801.69
541.934	793.69
542.147	805.69
542.361	794.69
542.575	799.69
542.789	806.69
543.002	790.69
543.216	789.69
543.43	768.69
543.644	764.69
543.857	768.69
544.071	796.69
544.285	775.69
544.498	803.69
544.712	782.69
544.925	820.69
545.139	814.69
545.352	812.69
545.566	800.69
545.779	812.69
545.993	840.69
546.206	804.69
546.42	792.69
546.633	805.69
546.847	840.69
547.06	790.69
547.274	784.69
547.487	801.69
547.7	806.69
547.914	798.69
548.127	801.69
548.34	814.69
548.554	777.69
548.767	817.69
548.98	798.69
549.193	813.69
549.407	826.69
549.62	843.69
549.833	836.69
550.046	812.69
550.259	824.69
550.473	782.69
550.686	795.69
550.899	797.69
551.112	795.69
551.325	793.69
551.538	755.69
551.751	757.69
551.964	770.69
552.177	810.69
552.39	819.69
552.603	830.69
552.816	833.69
553.029	838.69
553.242	877.69
553.455	883.69
553.667	875.69
553.88	870.69
554.093	853.69
554.306	818.69
554.519	837.69
554.732	813.69
554.944	776.69
555.157	768.69
555.37	794.69
555.583	760.69
555.795	753.69
556.008	716.69
556.221	732.69
556.433	705.69
556.646	724.69
556.859	707.69
557.071	680.69
557.284	682.69
557.496	682.69
557.709	688.69
557.921	697.69
558.134	693.69
558.346	684.69
558.559	682.69
558.771	685.69
558.984	692.69
559.196	672.69
559.409	680.69
559.621	658.69
559.833	630.69
560.046	663.69
560.258	658.69
560.47	650.69
560.683	658.69
560.895	695.69
561.107	669.69
561.32	663.69
561.532	673.69
561.744	658.69
561.956	680.69
562.168	675.69
562.381	660.69
562.593	689.69
562.805	661.69
563.017	665.69
563.229	677.69
563.441	681.69
563.653	665.69
563.865	692.69
564.077	707.69
564.289	690.69
564.501	725.69
564.713	703.69
564.925	725.69
565.137	729.69
565.349	721.69
565.561	785.69
565.773	794.69
565.985	854.69
566.197	862.69
566.408	942.69
566.62	1017.69
566.832	1072.69
567.044	1118.69
567.255	1101.69
567.467	1124.69
567.679	1235.69
567.891	1285.69
568.102	1330.69
568.314	1238.69
568.526	1163.69
568.737	1010.69
568.949	941.69
569.161	870.69
569.372	807.69
569.584	779.69
569.795	732.69
570.007	700.69
570.218	708.69
570.43	695.69
570.641	693.69
570.853	691.69
571.064	688.69
571.276	704.69
571.487	693.69
571.698	655.69
571.91	638.69
572.121	626.69
572.333	605.69
572.544	582.69
572.755	602.69
572.966	590.69
573.178	586.69
573.389	572.69
573.6	589.69
573.811	582.69
574.023	565.69
574.234	558.69
574.445	569.69
574.656	568.69
574.867	556.69
575.078	570.69
575.289	548.69
575.501	541.69
575.712	523.69
575.923	538.69
576.134	547.69
576.345	516.69
576.556	516.69
576.767	490.69
576.978	545.69
577.188	503.69
577.399	524.69
577.61	520.69
577.821	513.69
578.032	493.69
578.243	494.69
578.454	485.69
578.665	518.69
578.875	515.69
579.086	482.69
579.297	469.69
579.508	500.69
579.718	507.69
579.929	500.69
580.14	483.69
580.35	489.69
580.561	492.69
580.772	503.69
580.982	479.69
581.193	472.69
581.403	469.69
581.614	470.69
581.825	483.69
582.035	473.69
582.246	500.69
582.456	457.69
582.667	468.69
582.877	467.69
583.087	462.69
583.298	475.69
583.508	477.69
583.719	458.69
583.929	461.69
584.139	460.69
584.35	437.69
584.56	466.69
584.77	461.69
584.981	459.69
585.191	471.69
585.401	470.69
585.611	436.69
585.821	467.69
586.032	469.69
586.242	453.69
586.452	446.69
586.662	432.69
586.872	470.69
587.082	450.69
587.292	442.69
587.502	436.69
587.713	435.69
587.923	420.69
588.133	434.69
588.343	442.69
588.553	445.69
588.762	459.69
588.972	445.69
589.182	441.69
589.392	470.69
589.602	456.69
589.812	470.69
590.022	455.69
590.232	457.69
590.441	471.69
590.651	450.69
590.861	458.69
591.071	474.69
591.281	452.69
591.49	450.69
591.7	490.69
591.91	487.69
592.119	483.69
592.329	498.69
592.539	495.69
592.748	505.69
592.958	535.69
593.167	557.69
593.377	563.69
593.587	549.69
593.796	563.69
594.006	596.69
594.215	586.69
594.424	585.69
594.634	579.69
594.843	546.69
595.053	486.69
595.262	496.69
595.472	480.69
595.681	465.69
595.89	476.69
596.1	445.69
596.309	434.69
596.518	444.69
596.727	422.69
596.937	412.69
597.146	419.69
597.355	430.69
597.564	421.69
597.774	396.69
597.983	398.69
598.192	408.69
598.401	393.69
598.61	399.69
598.819	397.69
599.028	383.69
599.237	376.69
599.446	386.69
599.655	388.69
599.864	401.69
600.073	393.69
600.282	395.69
600.491	374.69
600.7	382.69
600.909	376.69
601.118	374.69
601.327	363.69
601.536	373.69
601.745	387.69
601.953	385.69
602.162	393.69
602.371	367.69
602.58	358.69
602.789	361.69
602.997	376.69
603.206	378.69
603.415	363.69
603.623	363.69
603.832	386.69
604.041	352.69
604.249	349.69
604.458	344.69
604.666	356.69
604.875	348.69
605.084	352.69
605.292	369.69
605.501	353.69
605.709	338.69
605.918	349.69
606.126	338.69
606.334	351.69
606.543	347.69
606.751	350.69
606.96	359.69
607.168	344.69
607.376	326.69
607.585	352.69
607.793	356.69
608.001	359.69
608.21	329.69
608.418	343.69
608.626	322.69
608.834	352.69
609.043	353.69
609.251	334.69
609.459	344.69
609.667	365.69
609.875	329.69
610.083	333.69
610.291	357.69
610.499	348.69
610.707	338.69
610.916	342.69
611.124	337.69
611.332	329.69
611.54	334.69
611.748	333.69
611.955	319.69
612.163	332.69
612.371	320.69
612.579	328.69
612.787	323.69
612.995	332.69
613.203	344.69
613.411	328.69
613.618	322.69
613.826	338.69
614.034	320.69
614.242	314.69
614.449	322.69
614.657	333.69
614.865	328.69
615.072	319.69
615.28	317.69
615.488	332.69
615.695	330.69
615.903	333.69
616.111	324.69
616.318	341.69
616.526	342.69
616.733	343.69
616.941	318.69
617.148	333.69
617.356	325.69
617.563	346.69
617.771	337.69
617.978	322.69
618.185	329.69
618.393	349.69
618.6	339.69
618.807	314.69
619.015	301.69
619.222	313.69
619.429	327.69
619.637	322.69
619.844	325.69
620.051	308.69
620.258	309.69
620.466	296.69
620.673	284.69
620.88	305.69
621.087	303.69
621.294	289.69
621.501	314.69
621.708	306.69
621.915	301.69
622.122	302.69
622.329	301.69
622.536	316.69
622.743	279.69
622.95	293.69
623.157	296.69
623.364	283.69
623.571	305.69
623.778	304.69
623.985	295.69
624.192	301.69
624.399	290.69
624.606	290.69
624.812	276.69
625.019	277.69
625.226	290.69
625.433	295.69
625.639	284.69
625.846	271.69
626.053	264.69
626.259	266.69
626.466	283.69
626.673	280.69
626.879	274.69
627.086	269.69
627.293	258.69
627.499	268.69
627.706	278.69
627.912	268.69
628.119	264.69
628.325	271.69
628.532	270.69
628.738	248.69
628.945	248.69
629.151	268.69
629.357	270.69
629.564	273.69
629.77	257.69
629.976	271.69
630.183	250.69
630.389	261.69
630.595	270.69
630.802	265.69
631.008	237.69
631.214	254.69
631.42	264.69
631.627	253.69
631.833	254.69
632.039	258.69
632.245	256.69
632.451	247.69
632.657	241.69
632.863	234.69
633.069	256.69
633.275	232.69
633.481	244.69
633.688	245.69
633.893	225.69
634.099	254.69
634.305	235.69
634.511	250.69
634.717	249.69
634.923	230.69
635.129	244.69
635.335	242.69
635.541	247.69
635.747	246.69
635.952	226.69
636.158	233.69
636.364	248.69
636.57	224.69
636.775	234.69
636.981	243.69
637.187	217.69
637.392	222.69
637.598	247.69
637.804	248.69
638.009	240.69
638.215	237.69
638.421	233.69
638.626	229.69
638.832	226.69
639.037	243.69
639.243	233.69
639.448	205.69
639.654	228.69
639.859	229.69
640.065	224.69
640.27	230.69
640.475	212.69
640.681	224.69
640.886	231.69
641.091	218.69
641.297	215.69
641.502	227.69
641.707	228.69
641.913	213.69
642.118	225.69
642.323	227.69
642.528	220.69
642.733	216.69
642.939	215.69
643.144	198.69
643.349	211.69
643.554	213.69
643.759	205.69
643.964	213.69
644.169	210.69
644.374	205.69
644.579	228.69
644.784	219.69
644.989	223.69
645.194	218.69
645.399	207.69
645.604	215.69
645.809	217.69
646.014	213.69
646.219	221.69
646.423	201.69
646.628	201.69
646.833	201.69
647.038	208.69
647.243	205.69
647.447	209.69
647.652	220.69
647.857	226.69
648.062	217.69
648.266	222.69
648.471	219.69
648.676	220.69
648.88	235.69
649.085	212.69
649.289	203.69
649.494	211.69
649.698	228.69
649.903	200.69
650.107	200.69
650.312	209.69
650.516	196.69
650.721	195.69
650.925	211.69
651.13	199.69
651.334	210.69
651.539	193.69
651.743	202.69
651.947	181.69
652.152	169.69
652.356	198.69
652.56	180.69
652.764	172.69
652.969	181.69
653.173	170.69
653.377	164.69
653.581	158.69
653.785	162.69
653.99	176.69
654.194	155.69
654.398	168.69
654.602	158.69
654.806	160.69
655.01	154.69
655.214	144.69
655.418	156.69
655.622	158.69
655.826	158.69
656.03	144.69
656.234	149.69
656.438	155.69
656.642	143.69
656.846	140.69
657.049	147.69
657.253	130.69
657.457	122.69
657.661	143.69
657.865	129.69
658.068	126.69
658.272	130.69
658.476	124.69
658.68	115.69
658.883	98.69
659.087	109.69
659.291	108.69
659.494	120.69
659.698	108.69
659.901	113.69
660.105	98.69
660.309	112.69
660.512	101.69
660.716	102.69
660.919	93.69
661.123	108.69
661.326	85.69
661.53	84.69
661.733	102.69
661.936	103.69
662.14	92.69
662.343	85.69
662.546	90.69
662.75	104.69
662.953	81.69
663.156	91.69
663.36	78.69
663.563	85.69
663.766	94.69
663.969	81.69
664.173	84.69
664.376	71.69
664.579	66.69
664.782	83.69
664.985	86.69
665.188	90.69
665.391	78.69
665.594	72.69
665.797	68.69
666	96.69
666.203	73.69
666.406	84.69
666.609	83.69
666.812	89.69
667.015	78.69
667.218	88.69
667.421	92.69
667.624	80.69
667.827	90.69
668.03	80.69
668.232	93.69
668.435	92.69
668.638	72.69
668.841	82.69
669.043	88.69
669.246	88.69
669.449	83.69
669.651	74.69
669.854	91.69
670.057	90.69
670.259	82.69
670.462	79.69
670.665	83.69
670.867	92.69
671.07	78.69
671.272	85.69
671.475	86.69
671.677	100.69
671.88	90.69
672.082	96.69
672.284	66.69
672.487	85.69
672.689	89.69
672.892	82.69
