Data from NiCl2@0.0625M.TitratingCurve.Agarose3%dH2O.NegLispCup.LampEnergy10.LIBS07252019_HRD10591_18-33-40-576.txt Node
Date: Thu Jul 25 18:33:40 EDT 2019
User: cochatt
Spectrometer: HR+D1059
Trigger mode: 1
Integration Time (sec): 1.000000E-1
Scans to average: 1
Electric dark correction enabled: true
Nonlinearity correction enabled: false
Boxcar width: 0
XAxis mode: Wavelengths
Number of Pixels in Spectrum: 2048
>>>>>Begin Spectral Data<<<<<
223.165	-31.31
223.4	-31.31
223.635	-31.31
223.869	-11.31
224.104	-4.31
224.338	-7.31
224.573	-17.31
224.808	-12.31
225.042	-13.31
225.277	-5.31
225.511	-4.31
225.746	-0.31
225.98	0.69
226.215	14.69
226.449	8.69
226.683	17.69
226.918	31.69
227.152	33.69
227.387	14.69
227.621	28.69
227.856	45.69
228.09	37.69
228.324	48.69
228.559	42.69
228.793	69.69
229.027	153.69
229.262	163.69
229.496	146.69
229.73	165.69
229.964	182.69
230.199	196.69
230.433	211.69
230.667	191.69
230.901	200.69
231.136	199.69
231.37	186.69
231.604	203.69
231.838	210.69
232.072	209.69
232.306	212.69
232.541	216.69
232.775	211.69
233.009	221.69
233.243	223.69
233.477	216.69
233.711	219.69
233.945	223.69
234.179	227.69
234.413	244.69
234.647	227.69
234.881	242.69
235.115	243.69
235.349	255.69
235.583	251.69
235.817	264.69
236.051	245.69
236.285	262.69
236.519	254.69
236.753	240.69
236.987	260.69
237.221	245.69
237.455	260.69
237.689	254.69
237.922	269.69
238.156	273.69
238.39	275.69
238.624	281.69
238.858	266.69
239.091	277.69
239.325	270.69
239.559	289.69
239.793	284.69
240.027	327.69
240.26	285.69
240.494	296.69
240.728	310.69
240.961	305.69
241.195	323.69
241.429	315.69
241.662	310.69
241.896	326.69
242.13	323.69
242.363	325.69
242.597	356.69
242.83	330.69
243.064	344.69
243.298	339.69
243.531	343.69
243.765	364.69
243.998	350.69
244.232	368.69
244.465	348.69
244.699	367.69
244.932	371.69
245.166	370.69
245.399	361.69
245.633	379.69
245.866	367.69
246.099	384.69
246.333	373.69
246.566	399.69
246.8	391.69
247.033	394.69
247.266	387.69
247.5	400.69
247.733	383.69
247.966	418.69
248.2	445.69
248.433	429.69
248.666	424.69
248.899	443.69
249.133	418.69
249.366	414.69
249.599	439.69
249.832	450.69
250.066	438.69
250.299	449.69
250.532	444.69
250.765	430.69
250.998	468.69
251.231	497.69
251.465	481.69
251.698	487.69
251.931	487.69
252.164	480.69
252.397	484.69
252.63	462.69
252.863	478.69
253.096	504.69
253.329	487.69
253.562	469.69
253.795	503.69
254.028	504.69
254.261	527.69
254.494	506.69
254.727	495.69
254.96	496.69
255.193	482.69
255.426	502.69
255.659	521.69
255.892	549.69
256.124	533.69
256.357	524.69
256.59	512.69
256.823	537.69
257.056	542.69
257.289	541.69
257.521	550.69
257.754	538.69
257.987	552.69
258.22	575.69
258.452	573.69
258.685	571.69
258.918	567.69
259.151	563.69
259.383	562.69
259.616	575.69
259.849	576.69
260.081	570.69
260.314	611.69
260.547	586.69
260.779	586.69
261.012	621.69
261.244	607.69
261.477	595.69
261.71	592.69
261.942	583.69
262.175	599.69
262.407	618.69
262.64	607.69
262.872	589.69
263.105	610.69
263.337	612.69
263.57	641.69
263.802	621.69
264.035	630.69
264.267	626.69
264.499	617.69
264.732	630.69
264.964	643.69
265.197	646.69
265.429	655.69
265.661	651.69
265.894	655.69
266.126	675.69
266.358	647.69
266.591	689.69
266.823	681.69
267.055	675.69
267.287	717.69
267.52	694.69
267.752	658.69
267.984	694.69
268.216	677.69
268.448	683.69
268.681	689.69
268.913	682.69
269.145	669.69
269.377	687.69
269.609	683.69
269.841	710.69
270.073	718.69
270.306	723.69
270.538	706.69
270.77	714.69
271.002	714.69
271.234	721.69
271.466	721.69
271.698	719.69
271.93	721.69
272.162	737.69
272.394	752.69
272.626	746.69
272.858	747.69
273.09	779.69
273.322	765.69
273.553	764.69
273.785	764.69
274.017	767.69
274.249	781.69
274.481	805.69
274.713	771.69
274.945	782.69
275.176	785.69
275.408	787.69
275.64	802.69
275.872	807.69
276.104	804.69
276.335	798.69
276.567	797.69
276.799	810.69
277.031	850.69
277.262	805.69
277.494	816.69
277.726	817.69
277.957	833.69
278.189	842.69
278.421	835.69
278.652	821.69
278.884	840.69
279.115	850.69
279.347	873.69
279.579	859.69
279.81	873.69
280.042	875.69
280.273	891.69
280.505	866.69
280.736	879.69
280.968	891.69
281.199	883.69
281.431	861.69
281.662	898.69
281.894	885.69
282.125	872.69
282.356	907.69
282.588	884.69
282.819	896.69
283.051	908.69
283.282	897.69
283.513	931.69
283.745	944.69
283.976	929.69
284.207	917.69
284.439	918.69
284.67	938.69
284.901	950.69
285.132	967.69
285.364	945.69
285.595	953.69
285.826	942.69
286.057	980.69
286.288	953.69
286.52	971.69
286.751	974.69
286.982	1000.69
287.213	970.69
287.444	960.69
287.675	973.69
287.906	991.69
288.138	970.69
288.369	982.69
288.6	975.69
288.831	1017.69
289.062	997.69
289.293	992.69
289.524	1000.69
289.755	974.69
289.986	993.69
290.217	972.69
290.448	980.69
290.679	1015.69
290.91	1003.69
291.141	1021.69
291.371	1029.69
291.602	995.69
291.833	1005.69
292.064	993.69
292.295	1001.69
292.526	1026.69
292.757	981.69
292.987	983.69
293.218	995.69
293.449	1025.69
293.68	1007.69
293.91	1032.69
294.141	1011.69
294.372	1000.69
294.603	1001.69
294.833	1020.69
295.064	1053.69
295.295	1029.69
295.525	1033.69
295.756	1029.69
295.987	1038.69
296.217	1051.69
296.448	1039.69
296.679	1043.69
296.909	1057.69
297.14	1056.69
297.37	1059.69
297.601	1080.69
297.831	1097.69
298.062	1105.69
298.292	1076.69
298.523	1127.69
298.753	1120.69
298.984	1114.69
299.214	1106.69
299.445	1071.69
299.675	1088.69
299.905	1113.69
300.136	1103.69
300.366	1088.69
300.597	1114.69
300.827	1144.69
301.057	1151.69
301.288	1170.69
301.518	1136.69
301.748	1145.69
301.979	1168.69
302.209	1169.69
302.439	1188.69
302.669	1163.69
302.9	1149.69
303.13	1137.69
303.36	1149.69
303.59	1169.69
303.82	1159.69
304.051	1167.69
304.281	1161.69
304.511	1144.69
304.741	1169.69
304.971	1177.69
305.201	1154.69
305.431	1173.69
305.661	1186.69
305.891	1171.69
306.121	1113.69
306.352	1154.69
306.582	1157.69
306.812	1113.69
307.042	1151.69
307.272	1172.69
307.502	1126.69
307.731	1163.69
307.961	1170.69
308.191	1130.69
308.421	1110.69
308.651	1137.69
308.881	1145.69
309.111	1112.69
309.341	1150.69
309.571	1178.69
309.8	1153.69
310.03	1159.69
310.26	1149.69
310.49	1157.69
310.72	1166.69
310.949	1191.69
311.179	1165.69
311.409	1144.69
311.639	1173.69
311.868	1167.69
312.098	1163.69
312.328	1197.69
312.557	1220.69
312.787	1218.69
313.017	1220.69
313.246	1252.69
313.476	1227.69
313.706	1211.69
313.935	1229.69
314.165	1222.69
314.394	1258.69
314.624	1267.69
314.853	1186.69
315.083	1222.69
315.312	1268.69
315.542	1261.69
315.771	1230.69
316.001	1203.69
316.23	1211.69
316.46	1213.69
316.689	1199.69
316.919	1209.69
317.148	1239.69
317.377	1222.69
317.607	1221.69
317.836	1210.69
318.065	1205.69
318.295	1264.69
318.524	1245.69
318.753	1214.69
318.983	1210.69
319.212	1204.69
319.441	1201.69
319.67	1233.69
319.9	1208.69
320.129	1233.69
320.358	1220.69
320.587	1207.69
320.816	1235.69
321.046	1213.69
321.275	1205.69
321.504	1194.69
321.733	1207.69
321.962	1237.69
322.191	1251.69
322.42	1233.69
322.649	1226.69
322.878	1248.69
323.108	1182.69
323.337	1223.69
323.566	1287.69
323.795	1261.69
324.024	1277.69
324.253	1309.69
324.482	1284.69
324.71	1289.69
324.939	1289.69
325.168	1310.69
325.397	1315.69
325.626	1315.69
325.855	1310.69
326.084	1305.69
326.313	1356.69
326.542	1314.69
326.77	1355.69
326.999	1319.69
327.228	1334.69
327.457	1329.69
327.686	1335.69
327.914	1308.69
328.143	1342.69
328.372	1347.69
328.6	1287.69
328.829	1341.69
329.058	1374.69
329.287	1369.69
329.515	1374.69
329.744	1387.69
329.972	1370.69
330.201	1366.69
330.43	1379.69
330.658	1386.69
330.887	1393.69
331.115	1407.69
331.344	1423.69
331.572	1457.69
331.801	1473.69
332.03	1450.69
332.258	1471.69
332.486	1519.69
332.715	1567.69
332.943	1608.69
333.172	1645.69
333.4	1676.69
333.629	1725.69
333.857	1773.69
334.085	1760.69
334.314	1722.69
334.542	1678.69
334.771	1749.69
334.999	1707.69
335.227	1681.69
335.455	1701.69
335.684	1657.69
335.912	1673.69
336.14	1650.69
336.369	1610.69
336.597	1649.69
336.825	1619.69
337.053	1591.69
337.281	1590.69
337.51	1562.69
337.738	1602.69
337.966	1511.69
338.194	1518.69
338.422	1457.69
338.65	1491.69
338.878	1462.69
339.106	1467.69
339.334	1514.69
339.562	1464.69
339.79	1445.69
340.018	1413.69
340.246	1413.69
340.474	1384.69
340.702	1407.69
340.93	1409.69
341.158	1413.69
341.386	1413.69
341.614	1399.69
341.842	1435.69
342.07	1363.69
342.298	1412.69
342.526	1391.69
342.754	1394.69
342.981	1429.69
343.209	1453.69
343.437	1490.69
343.665	1562.69
343.893	1606.69
344.12	1664.69
344.348	1615.69
344.576	1577.69
344.804	1569.69
345.031	1459.69
345.259	1418.69
345.487	1419.69
345.714	1417.69
345.942	1402.69
346.17	1397.69
346.397	1385.69
346.625	1405.69
346.853	1349.69
347.08	1357.69
347.308	1323.69
347.535	1355.69
347.763	1346.69
347.99	1368.69
348.218	1379.69
348.445	1321.69
348.673	1342.69
348.9	1343.69
349.128	1376.69
349.355	1299.69
349.583	1341.69
349.81	1321.69
350.037	1338.69
350.265	1319.69
350.492	1290.69
350.72	1297.69
350.947	1321.69
351.174	1299.69
351.402	1309.69
351.629	1319.69
351.856	1304.69
352.083	1293.69
352.311	1276.69
352.538	1306.69
352.765	1322.69
352.992	1283.69
353.22	1295.69
353.447	1299.69
353.674	1279.69
353.901	1253.69
354.128	1267.69
354.355	1281.69
354.583	1304.69
354.81	1296.69
355.037	1294.69
355.264	1280.69
355.491	1304.69
355.718	1294.69
355.945	1308.69
356.172	1320.69
356.399	1280.69
356.626	1348.69
356.853	1295.69
357.08	1303.69
357.307	1316.69
357.534	1314.69
357.761	1323.69
357.988	1346.69
358.215	1313.69
358.441	1330.69
358.668	1323.69
358.895	1339.69
359.122	1290.69
359.349	1295.69
359.576	1301.69
359.802	1321.69
360.029	1295.69
360.256	1266.69
360.483	1291.69
360.709	1301.69
360.936	1316.69
361.163	1313.69
361.39	1265.69
361.616	1345.69
361.843	1303.69
362.07	1321.69
362.296	1325.69
362.523	1295.69
362.749	1336.69
362.976	1293.69
363.203	1299.69
363.429	1282.69
363.656	1329.69
363.882	1312.69
364.109	1309.69
364.335	1317.69
364.562	1291.69
364.788	1298.69
365.015	1337.69
365.241	1299.69
365.468	1293.69
365.694	1340.69
365.92	1304.69
366.147	1313.69
366.373	1317.69
366.599	1307.69
366.826	1324.69
367.052	1333.69
367.278	1316.69
367.505	1327.69
367.731	1325.69
367.957	1325.69
368.184	1323.69
368.41	1346.69
368.636	1335.69
368.862	1310.69
369.089	1347.69
369.315	1354.69
369.541	1324.69
369.767	1370.69
369.993	1401.69
370.219	1368.69
370.445	1377.69
370.672	1382.69
370.898	1377.69
371.124	1373.69
371.35	1444.69
371.576	1441.69
371.802	1415.69
372.028	1404.69
372.254	1417.69
372.48	1444.69
372.706	1496.69
372.932	1470.69
373.158	1466.69
373.384	1459.69
373.61	1444.69
373.835	1454.69
374.061	1442.69
374.287	1467.69
374.513	1434.69
374.739	1484.69
374.965	1545.69
375.191	1585.69
375.416	1547.69
375.642	1465.69
375.868	1490.69
376.094	1459.69
376.319	1439.69
376.545	1441.69
376.771	1452.69
376.997	1449.69
377.222	1415.69
377.448	1406.69
377.674	1423.69
377.899	1428.69
378.125	1395.69
378.35	1403.69
378.576	1397.69
378.802	1400.69
379.027	1427.69
379.253	1411.69
379.478	1405.69
379.704	1413.69
379.929	1368.69
380.155	1379.69
380.38	1414.69
380.606	1401.69
380.831	1414.69
381.057	1400.69
381.282	1412.69
381.507	1364.69
381.733	1456.69
381.958	1465.69
382.184	1422.69
382.409	1462.69
382.634	1502.69
382.86	1520.69
383.085	1515.69
383.31	1534.69
383.535	1581.69
383.761	1567.69
383.986	1554.69
384.211	1608.69
384.436	1633.69
384.662	1657.69
384.887	1675.69
385.112	1639.69
385.337	1666.69
385.562	1705.69
385.787	1677.69
386.013	1700.69
386.238	1700.69
386.463	1716.69
386.688	1746.69
386.913	1689.69
387.138	1684.69
387.363	1675.69
387.588	1672.69
387.813	1696.69
388.038	1694.69
388.263	1725.69
388.488	1714.69
388.713	1732.69
388.938	1707.69
389.163	1694.69
389.387	1699.69
389.612	1635.69
389.837	1662.69
390.062	1643.69
390.287	1663.69
390.512	1685.69
390.736	1695.69
390.961	1775.69
391.186	1739.69
391.411	1802.69
391.636	1806.69
391.86	1870.69
392.085	1923.69
392.31	1875.69
392.534	1872.69
392.759	1863.69
392.984	1825.69
393.208	1826.69
393.433	1888.69
393.658	1928.69
393.882	1821.69
394.107	1785.69
394.331	1803.69
394.556	1812.69
394.78	1806.69
395.005	1811.69
395.229	1860.69
395.454	1888.69
395.678	1885.69
395.903	1859.69
396.127	1890.69
396.352	1844.69
396.576	1822.69
396.801	1822.69
397.025	1887.69
397.249	1895.69
397.474	1952.69
397.698	1946.69
397.922	1919.69
398.147	1928.69
398.371	1975.69
398.595	2029.69
398.82	2071.69
399.044	2246.69
399.268	2389.69
399.492	2694.69
399.717	2933.69
399.941	2951.69
400.165	2717.69
400.389	2544.69
400.613	2386.69
400.837	2264.69
401.062	2145.69
401.286	2116.69
401.51	2116.69
401.734	2104.69
401.958	2121.69
402.182	2116.69
402.406	2161.69
402.63	2143.69
402.854	2169.69
403.078	2230.69
403.302	2270.69
403.526	2291.69
403.75	2326.69
403.974	2312.69
404.198	2311.69
404.422	2342.69
404.645	2320.69
404.869	2297.69
405.093	2293.69
405.317	2302.69
405.541	2296.69
405.765	2255.69
405.988	2257.69
406.212	2317.69
406.436	2306.69
406.66	2365.69
406.883	2425.69
407.107	2485.69
407.331	2606.69
407.555	2663.69
407.778	2700.69
408.002	2619.69
408.226	2504.69
408.449	2522.69
408.673	2424.69
408.896	2429.69
409.12	2342.69
409.344	2385.69
409.567	2330.69
409.791	2321.69
410.014	2310.69
410.238	2315.69
410.461	2323.69
410.685	2288.69
410.908	2249.69
411.132	2225.69
411.355	2214.69
411.578	2174.69
411.802	2188.69
412.025	2218.69
412.249	2197.69
412.472	2210.69
412.695	2128.69
412.919	2149.69
413.142	2143.69
413.365	2118.69
413.589	2113.69
413.812	2122.69
414.035	2103.69
414.258	2105.69
414.482	2109.69
414.705	2153.69
414.928	2119.69
415.151	2140.69
415.374	2082.69
415.597	2121.69
415.821	2051.69
416.044	2025.69
416.267	2009.69
416.49	2033.69
416.713	2031.69
416.936	2074.69
417.159	2027.69
417.382	1962.69
417.605	1999.69
417.828	2018.69
418.051	2054.69
418.274	2051.69
418.497	2032.69
418.72	2078.69
418.943	2069.69
419.166	2186.69
419.389	2382.69
419.611	2260.69
419.834	2222.69
420.057	2158.69
420.28	2058.69
420.503	2011.69
420.726	2010.69
420.948	2039.69
421.171	2038.69
421.394	2021.69
421.617	1985.69
421.839	2007.69
422.062	2074.69
422.285	2001.69
422.507	2061.69
422.73	2054.69
422.953	2043.69
423.175	2064.69
423.398	2099.69
423.621	2081.69
423.843	2135.69
424.066	2128.69
424.288	2107.69
424.511	2111.69
424.733	2061.69
424.956	2038.69
425.178	2051.69
425.401	2015.69
425.623	2033.69
425.846	1997.69
426.068	1972.69
426.291	1952.69
426.513	1944.69
426.735	1948.69
426.958	1984.69
427.18	1912.69
427.402	1909.69
427.625	1904.69
427.847	1885.69
428.069	1855.69
428.292	1891.69
428.514	1874.69
428.736	1843.69
428.958	1850.69
429.181	1829.69
429.403	1819.69
429.625	1779.69
429.847	1793.69
430.069	1799.69
430.292	1827.69
430.514	1810.69
430.736	1834.69
430.958	1865.69
431.18	1809.69
431.402	1834.69
431.624	1856.69
431.846	1878.69
432.068	1846.69
432.29	1893.69
432.512	1834.69
432.734	1856.69
432.956	1848.69
433.178	1875.69
433.4	1876.69
433.622	1886.69
433.844	1927.69
434.066	1913.69
434.287	1957.69
434.509	1967.69
434.731	2041.69
434.953	2045.69
435.175	2017.69
435.397	2041.69
435.618	1953.69
435.84	1925.69
436.062	1903.69
436.284	1895.69
436.505	1861.69
436.727	1870.69
436.949	1874.69
437.17	1860.69
437.392	1839.69
437.614	1806.69
437.835	1748.69
438.057	1736.69
438.278	1758.69
438.5	1785.69
438.721	1693.69
438.943	1760.69
439.165	1779.69
439.386	1778.69
439.608	1799.69
439.829	1795.69
440.05	1807.69
440.272	1830.69
440.493	1810.69
440.715	1892.69
440.936	1877.69
441.158	1875.69
441.379	1942.69
441.6	2003.69
441.822	2017.69
442.043	1994.69
442.264	1988.69
442.486	1935.69
442.707	1992.69
442.928	1939.69
443.149	1958.69
443.371	1912.69
443.592	1984.69
443.813	2030.69
444.034	2034.69
444.255	2080.69
444.476	2130.69
444.698	2256.69
444.919	2275.69
445.14	2367.69
445.361	2183.69
445.582	2087.69
445.803	1968.69
446.024	1927.69
446.245	1910.69
446.466	1876.69
446.687	1832.69
446.908	1813.69
447.129	1727.69
447.35	1773.69
447.571	1735.69
447.792	1707.69
448.013	1682.69
448.234	1663.69
448.455	1667.69
448.675	1667.69
448.896	1631.69
449.117	1639.69
449.338	1642.69
449.559	1626.69
449.779	1617.69
450	1609.69
450.221	1652.69
450.442	1612.69
450.662	1638.69
450.883	1661.69
451.104	1657.69
451.324	1668.69
451.545	1649.69
451.766	1674.69
451.986	1642.69
452.207	1630.69
452.428	1593.69
452.648	1632.69
452.869	1594.69
453.089	1557.69
453.31	1591.69
453.53	1553.69
453.751	1591.69
453.971	1584.69
454.192	1577.69
454.412	1550.69
454.633	1586.69
454.853	1557.69
455.073	1558.69
455.294	1566.69
455.514	1494.69
455.734	1569.69
455.955	1496.69
456.175	1510.69
456.395	1513.69
456.616	1524.69
456.836	1531.69
457.056	1541.69
457.276	1547.69
457.497	1558.69
457.717	1564.69
457.937	1576.69
458.157	1569.69
458.377	1606.69
458.598	1616.69
458.818	1676.69
459.038	1693.69
459.258	1785.69
459.478	1833.69
459.698	1879.69
459.918	1875.69
460.138	1899.69
460.358	2017.69
460.578	2061.69
460.798	2085.69
461.018	2111.69
461.238	2045.69
461.458	2090.69
461.678	2030.69
461.898	2093.69
462.118	2136.69
462.338	2238.69
462.558	2278.69
462.777	2337.69
462.997	2481.69
463.217	2642.69
463.437	2680.69
463.657	2501.69
463.876	2419.69
464.096	2418.69
464.316	2363.69
464.536	2398.69
464.755	2295.69
464.975	2252.69
465.195	2164.69
465.414	2077.69
465.634	1923.69
465.854	1923.69
466.073	1858.69
466.293	1839.69
466.512	1789.69
466.732	1771.69
466.951	1766.69
467.171	1744.69
467.391	1776.69
467.61	1722.69
467.829	1739.69
468.049	1677.69
468.268	1693.69
468.488	1658.69
468.707	1658.69
468.927	1671.69
469.146	1693.69
469.365	1653.69
469.585	1679.69
469.804	1745.69
470.023	1777.69
470.243	1728.69
470.462	1769.69
470.681	1754.69
470.901	1757.69
471.12	1740.69
471.339	1741.69
471.558	1712.69
471.777	1721.69
471.997	1697.69
472.216	1692.69
472.435	1677.69
472.654	1661.69
472.873	1639.69
473.092	1657.69
473.311	1653.69
473.53	1668.69
473.749	1606.69
473.968	1606.69
474.187	1615.69
474.406	1635.69
474.625	1652.69
474.844	1641.69
475.063	1677.69
475.282	1675.69
475.501	1678.69
475.72	1673.69
475.939	1686.69
476.158	1730.69
476.377	1740.69
476.596	1715.69
476.814	1800.69
477.033	1769.69
477.252	1831.69
477.471	1822.69
477.69	1873.69
477.908	1913.69
478.127	1948.69
478.346	1990.69
478.564	2000.69
478.783	2024.69
479.002	2029.69
479.22	2074.69
479.439	2071.69
479.658	2072.69
479.876	2086.69
480.095	2127.69
480.313	2182.69
480.532	2224.69
480.751	2212.69
480.969	2129.69
481.188	2114.69
481.406	2116.69
481.624	2053.69
481.843	1986.69
482.061	1994.69
482.28	2003.69
482.498	2011.69
482.717	1991.69
482.935	2037.69
483.153	2021.69
483.372	2047.69
483.59	2076.69
483.808	2029.69
484.027	2077.69
484.245	2122.69
484.463	2120.69
484.681	2113.69
484.9	2157.69
485.118	2203.69
485.336	2215.69
485.554	2193.69
485.772	2271.69
485.99	2245.69
486.209	2231.69
486.427	2230.69
486.645	2208.69
486.863	2192.69
487.081	2203.69
487.299	2210.69
487.517	2204.69
487.735	2161.69
487.953	2166.69
488.171	2160.69
488.389	2143.69
488.607	2154.69
488.825	2138.69
489.043	2135.69
489.261	2132.69
489.479	2099.69
489.696	2067.69
489.914	2114.69
490.132	2097.69
490.35	2105.69
490.568	2078.69
490.786	2085.69
491.003	2106.69
491.221	2118.69
491.439	2096.69
491.657	2052.69
491.874	2095.69
492.092	2068.69
492.31	2102.69
492.527	2070.69
492.745	2074.69
492.963	2063.69
493.18	2100.69
493.398	2098.69
493.615	2111.69
493.833	2128.69
494.05	2110.69
494.268	2089.69
494.485	2118.69
494.703	2158.69
494.92	2170.69
495.138	2145.69
495.355	2138.69
495.573	2136.69
495.79	2158.69
496.008	2207.69
496.225	2179.69
496.442	2199.69
496.66	2237.69
496.877	2250.69
497.094	2329.69
497.312	2312.69
497.529	2352.69
497.746	2405.69
497.963	2460.69
498.181	2547.69
498.398	2692.69
498.615	2801.69
498.832	2991.69
499.049	3143.69
499.267	3423.69
499.484	3606.69
499.701	4000.69
499.918	4296.69
500.135	4825.69
500.352	5176.69
500.569	5400.69
500.786	5273.69
501.003	5080.69
501.22	4717.69
501.437	4225.69
501.654	3856.69
501.871	3590.69
502.088	3320.69
502.305	3084.69
502.522	2909.69
502.739	2843.69
502.956	2744.69
503.172	2607.69
503.389	2545.69
503.606	2446.69
503.823	2355.69
504.04	2365.69
504.256	2417.69
504.473	2389.69
504.69	2378.69
504.907	2360.69
505.123	2308.69
505.34	2151.69
505.557	2105.69
505.773	2033.69
505.99	1947.69
506.207	1936.69
506.423	1912.69
506.64	1913.69
506.856	1886.69
507.073	1845.69
507.289	1854.69
507.506	1858.69
507.722	1745.69
507.939	1791.69
508.155	1775.69
508.372	1754.69
508.588	1784.69
508.805	1726.69
509.021	1753.69
509.238	1739.69
509.454	1723.69
509.67	1678.69
509.887	1705.69
510.103	1670.69
510.319	1681.69
510.536	1657.69
510.752	1660.69
510.968	1674.69
511.184	1622.69
511.401	1656.69
511.617	1648.69
511.833	1641.69
512.049	1634.69
512.265	1612.69
512.481	1659.69
512.698	1624.69
512.914	1652.69
513.13	1617.69
513.346	1632.69
513.562	1649.69
513.778	1645.69
513.994	1643.69
514.21	1654.69
514.426	1652.69
514.642	1712.69
514.858	1708.69
515.074	1732.69
515.29	1742.69
515.506	1710.69
515.721	1732.69
515.937	1815.69
516.153	1793.69
516.369	1813.69
516.585	1881.69
516.801	1920.69
517.016	1973.69
517.232	2056.69
517.448	2160.69
517.664	2159.69
517.879	2147.69
518.095	2169.69
518.311	2145.69
518.527	2039.69
518.742	2024.69
518.958	1980.69
519.173	1896.69
519.389	1841.69
519.605	1787.69
519.82	1744.69
520.036	1738.69
520.251	1673.69
520.467	1660.69
520.682	1655.69
520.898	1616.69
521.113	1611.69
521.329	1604.69
521.544	1599.69
521.76	1599.69
521.975	1578.69
522.19	1555.69
522.406	1542.69
522.621	1558.69
522.836	1509.69
523.052	1557.69
523.267	1538.69
523.482	1524.69
523.698	1528.69
523.913	1506.69
524.128	1521.69
524.343	1520.69
524.559	1510.69
524.774	1520.69
524.989	1478.69
525.204	1489.69
525.419	1511.69
525.634	1468.69
525.849	1520.69
526.064	1494.69
526.28	1485.69
526.495	1448.69
526.71	1471.69
526.925	1436.69
527.14	1437.69
527.355	1463.69
527.57	1442.69
527.785	1446.69
527.999	1440.69
528.214	1470.69
528.429	1447.69
528.644	1456.69
528.859	1434.69
529.074	1465.69
529.289	1449.69
529.503	1442.69
529.718	1428.69
529.933	1414.69
530.148	1424.69
530.363	1457.69
530.577	1459.69
530.792	1420.69
531.007	1431.69
531.221	1416.69
531.436	1418.69
531.651	1446.69
531.865	1419.69
532.08	1447.69
532.295	1436.69
532.509	1429.69
532.724	1423.69
532.938	1422.69
533.153	1422.69
533.367	1414.69
533.582	1407.69
533.796	1413.69
534.011	1420.69
534.225	1378.69
534.44	1407.69
534.654	1378.69
534.868	1407.69
535.083	1402.69
535.297	1389.69
535.511	1368.69
535.726	1347.69
535.94	1364.69
536.154	1377.69
536.369	1343.69
536.583	1347.69
536.797	1355.69
537.011	1354.69
537.225	1335.69
537.44	1297.69
537.654	1318.69
537.868	1311.69
538.082	1306.69
538.296	1333.69
538.51	1319.69
538.724	1297.69
538.938	1288.69
539.153	1277.69
539.367	1334.69
539.581	1304.69
539.795	1255.69
540.009	1298.69
540.222	1298.69
540.436	1277.69
540.65	1273.69
540.864	1277.69
541.078	1299.69
541.292	1283.69
541.506	1289.69
541.72	1265.69
541.934	1272.69
542.147	1261.69
542.361	1242.69
542.575	1269.69
542.789	1261.69
543.002	1277.69
543.216	1245.69
543.43	1289.69
543.644	1252.69
543.857	1244.69
544.071	1259.69
544.285	1301.69
544.498	1256.69
544.712	1289.69
544.925	1268.69
545.139	1296.69
545.352	1310.69
545.566	1311.69
545.779	1290.69
545.993	1278.69
546.206	1255.69
546.42	1295.69
546.633	1283.69
546.847	1283.69
547.06	1269.69
547.274	1275.69
547.487	1268.69
547.7	1267.69
547.914	1279.69
548.127	1300.69
548.34	1311.69
548.554	1287.69
548.767	1265.69
548.98	1305.69
549.193	1306.69
549.407	1288.69
549.62	1296.69
549.833	1322.69
550.046	1274.69
550.259	1299.69
550.473	1266.69
550.686	1293.69
550.899	1282.69
551.112	1253.69
551.325	1237.69
551.538	1271.69
551.751	1284.69
551.964	1234.69
552.177	1275.69
552.39	1270.69
552.603	1335.69
552.816	1359.69
553.029	1331.69
553.242	1358.69
553.455	1415.69
553.667	1367.69
553.88	1366.69
554.093	1315.69
554.306	1287.69
554.519	1294.69
554.732	1266.69
554.944	1220.69
555.157	1203.69
555.37	1200.69
555.583	1180.69
555.795	1157.69
556.008	1118.69
556.221	1142.69
556.433	1139.69
556.646	1126.69
556.859	1141.69
557.071	1137.69
557.284	1099.69
557.496	1071.69
557.709	1084.69
557.921	1088.69
558.134	1114.69
558.346	1072.69
558.559	1079.69
558.771	1089.69
558.984	1073.69
559.196	1048.69
559.409	1106.69
559.621	1064.69
559.833	1074.69
560.046	1060.69
560.258	1056.69
560.47	1073.69
560.683	1062.69
560.895	1031.69
561.107	1045.69
561.32	1071.69
561.532	1051.69
561.744	1077.69
561.956	1045.69
562.168	1024.69
562.381	1061.69
562.593	1017.69
562.805	1071.69
563.017	1079.69
563.229	1059.69
563.441	1081.69
563.653	1079.69
563.865	1123.69
564.077	1098.69
564.289	1103.69
564.501	1109.69
564.713	1137.69
564.925	1121.69
565.137	1163.69
565.349	1241.69
565.561	1235.69
565.773	1291.69
565.985	1334.69
566.197	1347.69
566.408	1461.69
566.62	1507.69
566.832	1621.69
567.044	1632.69
567.255	1673.69
567.467	1728.69
567.679	1758.69
567.891	1840.69
568.102	1870.69
568.314	1765.69
568.526	1635.69
568.737	1542.69
568.949	1439.69
569.161	1333.69
569.372	1263.69
569.584	1216.69
569.795	1159.69
570.007	1139.69
570.218	1113.69
570.43	1078.69
570.641	1060.69
570.853	1088.69
571.064	1100.69
571.276	1056.69
571.487	1021.69
571.698	988.69
571.91	979.69
572.121	973.69
572.333	957.69
572.544	921.69
572.755	933.69
572.966	917.69
573.178	902.69
573.389	895.69
573.6	880.69
573.811	871.69
574.023	877.69
574.234	849.69
574.445	854.69
574.656	871.69
574.867	854.69
575.078	862.69
575.289	872.69
575.501	853.69
575.712	838.69
575.923	825.69
576.134	805.69
576.345	815.69
576.556	799.69
576.767	802.69
576.978	799.69
577.188	801.69
577.399	783.69
577.61	781.69
577.821	774.69
578.032	778.69
578.243	767.69
578.454	788.69
578.665	741.69
578.875	769.69
579.086	759.69
579.297	755.69
579.508	749.69
579.718	778.69
579.929	732.69
580.14	745.69
580.35	718.69
580.561	734.69
580.772	745.69
580.982	721.69
581.193	727.69
581.403	723.69
581.614	731.69
581.825	734.69
582.035	709.69
582.246	707.69
582.456	703.69
582.667	745.69
582.877	700.69
583.087	709.69
583.298	696.69
583.508	687.69
583.719	704.69
583.929	685.69
584.139	720.69
584.35	677.69
584.56	702.69
584.77	709.69
584.981	706.69
585.191	694.69
585.401	712.69
585.611	676.69
585.821	680.69
586.032	679.69
586.242	681.69
586.452	694.69
586.662	689.69
586.872	662.69
587.082	659.69
587.292	676.69
587.502	685.69
587.713	683.69
587.923	690.69
588.133	685.69
588.343	680.69
588.553	691.69
588.762	668.69
588.972	677.69
589.182	706.69
589.392	677.69
589.602	670.69
589.812	703.69
590.022	676.69
590.232	690.69
590.441	670.69
590.651	691.69
590.861	679.69
591.071	688.69
591.281	699.69
591.49	676.69
591.7	672.69
591.91	717.69
592.119	709.69
592.329	721.69
592.539	763.69
592.748	792.69
592.958	816.69
593.167	814.69
593.377	818.69
593.587	832.69
593.796	843.69
594.006	832.69
594.215	829.69
594.424	811.69
594.634	803.69
594.843	777.69
595.053	752.69
595.262	725.69
595.472	727.69
595.681	725.69
595.89	677.69
596.1	666.69
596.309	641.69
596.518	673.69
596.727	635.69
596.937	644.69
597.146	601.69
597.355	613.69
597.564	603.69
597.774	597.69
597.983	604.69
598.192	602.69
598.401	595.69
598.61	590.69
598.819	595.69
599.028	570.69
599.237	553.69
599.446	588.69
599.655	588.69
599.864	559.69
600.073	569.69
600.282	573.69
600.491	551.69
600.7	545.69
600.909	554.69
601.118	566.69
601.327	554.69
601.536	541.69
601.745	531.69
601.953	570.69
602.162	562.69
602.371	526.69
602.58	549.69
602.789	542.69
602.997	529.69
603.206	548.69
603.415	541.69
603.623	524.69
603.832	514.69
604.041	551.69
604.249	529.69
604.458	515.69
604.666	533.69
604.875	502.69
605.084	498.69
605.292	503.69
605.501	498.69
605.709	528.69
605.918	499.69
606.126	481.69
606.334	509.69
606.543	490.69
606.751	513.69
606.96	517.69
607.168	533.69
607.376	496.69
607.585	490.69
607.793	504.69
608.001	477.69
608.21	502.69
608.418	505.69
608.626	486.69
608.834	500.69
609.043	500.69
609.251	499.69
609.459	494.69
609.667	494.69
609.875	474.69
610.083	478.69
610.291	469.69
610.499	465.69
610.707	463.69
610.916	481.69
611.124	509.69
611.332	459.69
611.54	464.69
611.748	474.69
611.955	482.69
612.163	471.69
612.371	475.69
612.579	466.69
612.787	448.69
612.995	457.69
613.203	464.69
613.411	484.69
613.618	460.69
613.826	447.69
614.034	474.69
614.242	459.69
614.449	472.69
614.657	467.69
614.865	482.69
615.072	483.69
615.28	488.69
615.488	447.69
615.695	453.69
615.903	473.69
616.111	475.69
616.318	480.69
616.526	485.69
616.733	468.69
616.941	467.69
617.148	484.69
617.356	497.69
617.563	465.69
617.771	470.69
617.978	452.69
618.185	447.69
618.393	460.69
618.6	455.69
618.807	472.69
619.015	463.69
619.222	454.69
619.429	453.69
619.637	456.69
619.844	431.69
620.051	451.69
620.258	435.69
620.466	429.69
620.673	435.69
620.88	429.69
621.087	439.69
621.294	426.69
621.501	441.69
621.708	420.69
621.915	443.69
622.122	414.69
622.329	410.69
622.536	426.69
622.743	450.69
622.95	413.69
623.157	410.69
623.364	423.69
623.571	424.69
623.778	415.69
623.985	416.69
624.192	393.69
624.399	403.69
624.606	411.69
624.812	422.69
625.019	403.69
625.226	415.69
625.433	411.69
625.639	410.69
625.846	391.69
626.053	370.69
626.259	404.69
626.466	392.69
626.673	413.69
626.879	366.69
627.086	385.69
627.293	382.69
627.499	385.69
627.706	377.69
627.912	368.69
628.119	371.69
628.325	377.69
628.532	385.69
628.738	401.69
628.945	385.69
629.151	368.69
629.357	357.69
629.564	389.69
629.77	361.69
629.976	372.69
630.183	361.69
630.389	355.69
630.595	356.69
630.802	354.69
631.008	353.69
631.214	351.69
631.42	369.69
631.627	366.69
631.833	349.69
632.039	342.69
632.245	352.69
632.451	366.69
632.657	350.69
632.863	361.69
633.069	365.69
633.275	343.69
633.481	344.69
633.688	340.69
633.893	366.69
634.099	338.69
634.305	333.69
634.511	335.69
634.717	356.69
634.923	335.69
635.129	318.69
635.335	339.69
635.541	342.69
635.747	342.69
635.952	322.69
636.158	327.69
636.364	313.69
636.57	322.69
636.775	303.69
636.981	337.69
637.187	337.69
637.392	335.69
637.598	328.69
637.804	329.69
638.009	331.69
638.215	326.69
638.421	327.69
638.626	321.69
638.832	314.69
639.037	330.69
639.243	306.69
639.448	317.69
639.654	320.69
639.859	307.69
640.065	298.69
640.27	334.69
640.475	303.69
640.681	319.69
640.886	301.69
641.091	320.69
641.297	321.69
641.502	312.69
641.707	305.69
641.913	294.69
642.118	314.69
642.323	299.69
642.528	300.69
642.733	302.69
642.939	307.69
643.144	309.69
643.349	305.69
643.554	315.69
643.759	312.69
643.964	298.69
644.169	307.69
644.374	303.69
644.579	309.69
644.784	309.69
644.989	310.69
645.194	301.69
645.399	317.69
645.604	297.69
645.809	296.69
646.014	301.69
646.219	311.69
646.423	294.69
646.628	331.69
646.833	313.69
647.038	314.69
647.243	314.69
647.447	317.69
647.652	317.69
647.857	326.69
648.062	336.69
648.266	333.69
648.471	339.69
648.676	324.69
648.88	334.69
649.085	348.69
649.289	333.69
649.494	312.69
649.698	323.69
649.903	320.69
650.107	308.69
650.312	322.69
650.516	307.69
650.721	315.69
650.925	298.69
651.13	288.69
651.334	292.69
651.539	298.69
651.743	303.69
651.947	295.69
652.152	309.69
652.356	303.69
652.56	270.69
652.764	298.69
652.969	280.69
653.173	297.69
653.377	305.69
653.581	304.69
653.785	302.69
653.99	285.69
654.194	305.69
654.398	294.69
654.602	305.69
654.806	309.69
655.01	324.69
655.214	339.69
655.418	330.69
655.622	349.69
655.826	358.69
656.03	391.69
656.234	418.69
656.438	441.69
656.642	432.69
656.846	409.69
657.049	381.69
657.253	335.69
657.457	304.69
657.661	271.69
657.865	253.69
658.068	226.69
658.272	225.69
658.476	202.69
658.68	190.69
658.883	180.69
659.087	169.69
659.291	160.69
659.494	142.69
659.698	129.69
659.901	141.69
660.105	137.69
660.309	114.69
660.512	120.69
660.716	133.69
660.919	126.69
661.123	114.69
661.326	111.69
661.53	98.69
661.733	113.69
661.936	97.69
662.14	83.69
662.343	88.69
662.546	88.69
662.75	86.69
662.953	98.69
663.156	78.69
663.36	94.69
663.563	79.69
663.766	93.69
663.969	89.69
664.173	90.69
664.376	71.69
664.579	91.69
664.782	97.69
664.985	67.69
665.188	90.69
665.391	86.69
665.594	78.69
665.797	77.69
666	91.69
666.203	71.69
666.406	68.69
666.609	80.69
666.812	89.69
667.015	88.69
667.218	75.69
667.421	80.69
667.624	83.69
667.827	77.69
668.03	76.69
668.232	82.69
668.435	82.69
668.638	69.69
668.841	77.69
669.043	71.69
669.246	80.69
669.449	74.69
669.651	83.69
669.854	88.69
670.057	77.69
670.259	90.69
670.462	79.69
670.665	82.69
670.867	84.69
671.07	75.69
671.272	93.69
671.475	84.69
671.677	71.69
671.88	78.69
672.082	71.69
672.284	80.69
672.487	85.69
672.689	72.69
672.892	79.69
