Data from NiCl2@0.5M.TitratingCurve.Agarose3%dH2O.NegLispCup.LampEnergy10.LIBS07252019_HRD10591_18-21-06-571.txt Node
Date: Thu Jul 25 18:21:06 EDT 2019
User: cochatt
Spectrometer: HR+D1059
Trigger mode: 1
Integration Time (sec): 1.000000E-1
Scans to average: 1
Electric dark correction enabled: true
Nonlinearity correction enabled: false
Boxcar width: 0
XAxis mode: Wavelengths
Number of Pixels in Spectrum: 2048
>>>>>Begin Spectral Data<<<<<
223.165	-12.19
223.4	-12.19
223.635	-12.19
223.869	-6.19
224.104	-25.19
224.338	-21.19
224.573	-17.19
224.808	0.81
225.042	-16.19
225.277	-16.19
225.511	-1.19
225.746	8.81
225.98	1.81
226.215	17.81
226.449	3.81
226.683	30.81
226.918	31.81
227.152	19.81
227.387	45.81
227.621	39.81
227.856	40.81
228.09	57.81
228.324	55.81
228.559	54.81
228.793	63.81
229.027	78.81
229.262	91.81
229.496	99.81
229.73	100.81
229.964	107.81
230.199	99.81
230.433	120.81
230.667	109.81
230.901	103.81
231.136	118.81
231.37	120.81
231.604	132.81
231.838	121.81
232.072	121.81
232.306	118.81
232.541	118.81
232.775	126.81
233.009	128.81
233.243	107.81
233.477	117.81
233.711	129.81
233.945	146.81
234.179	124.81
234.413	131.81
234.647	125.81
234.881	135.81
235.115	135.81
235.349	136.81
235.583	117.81
235.817	133.81
236.051	111.81
236.285	131.81
236.519	129.81
236.753	134.81
236.987	123.81
237.221	137.81
237.455	117.81
237.689	122.81
237.922	125.81
238.156	144.81
238.39	131.81
238.624	135.81
238.858	132.81
239.091	146.81
239.325	136.81
239.559	133.81
239.793	114.81
240.027	141.81
240.26	125.81
240.494	132.81
240.728	157.81
240.961	131.81
241.195	138.81
241.429	144.81
241.662	147.81
241.896	152.81
242.13	150.81
242.363	161.81
242.597	160.81
242.83	154.81
243.064	150.81
243.298	159.81
243.531	156.81
243.765	170.81
243.998	146.81
244.232	161.81
244.465	153.81
244.699	160.81
244.932	170.81
245.166	172.81
245.399	166.81
245.633	167.81
245.866	157.81
246.099	167.81
246.333	155.81
246.566	166.81
246.8	159.81
247.033	165.81
247.266	152.81
247.5	166.81
247.733	172.81
247.966	162.81
248.2	165.81
248.433	174.81
248.666	181.81
248.899	165.81
249.133	185.81
249.366	171.81
249.599	172.81
249.832	169.81
250.066	179.81
250.299	184.81
250.532	181.81
250.765	168.81
250.998	188.81
251.231	184.81
251.465	184.81
251.698	187.81
251.931	187.81
252.164	193.81
252.397	191.81
252.63	204.81
252.863	197.81
253.096	196.81
253.329	216.81
253.562	192.81
253.795	179.81
254.028	189.81
254.261	216.81
254.494	218.81
254.727	203.81
254.96	180.81
255.193	199.81
255.426	208.81
255.659	210.81
255.892	215.81
256.124	198.81
256.357	210.81
256.59	226.81
256.823	194.81
257.056	215.81
257.289	201.81
257.521	224.81
257.754	213.81
257.987	218.81
258.22	218.81
258.452	219.81
258.685	202.81
258.918	227.81
259.151	206.81
259.383	227.81
259.616	229.81
259.849	235.81
260.081	221.81
260.314	225.81
260.547	227.81
260.779	219.81
261.012	233.81
261.244	224.81
261.477	239.81
261.71	224.81
261.942	237.81
262.175	231.81
262.407	224.81
262.64	235.81
262.872	236.81
263.105	226.81
263.337	240.81
263.57	240.81
263.802	234.81
264.035	231.81
264.267	231.81
264.499	248.81
264.732	263.81
264.964	251.81
265.197	236.81
265.429	241.81
265.661	235.81
265.894	248.81
266.126	239.81
266.358	251.81
266.591	254.81
266.823	272.81
267.055	233.81
267.287	248.81
267.52	259.81
267.752	240.81
267.984	254.81
268.216	259.81
268.448	246.81
268.681	257.81
268.913	261.81
269.145	255.81
269.377	253.81
269.609	267.81
269.841	271.81
270.073	260.81
270.306	248.81
270.538	251.81
270.77	259.81
271.002	264.81
271.234	263.81
271.466	264.81
271.698	266.81
271.93	260.81
272.162	249.81
272.394	276.81
272.626	269.81
272.858	265.81
273.09	290.81
273.322	273.81
273.553	281.81
273.785	277.81
274.017	271.81
274.249	284.81
274.481	284.81
274.713	276.81
274.945	270.81
275.176	273.81
275.408	271.81
275.64	289.81
275.872	295.81
276.104	316.81
276.335	272.81
276.567	277.81
276.799	285.81
277.031	304.81
277.262	285.81
277.494	293.81
277.726	322.81
277.957	305.81
278.189	309.81
278.421	274.81
278.652	302.81
278.884	328.81
279.115	311.81
279.347	305.81
279.579	294.81
279.81	319.81
280.042	288.81
280.273	317.81
280.505	304.81
280.736	311.81
280.968	324.81
281.199	330.81
281.431	311.81
281.662	317.81
281.894	326.81
282.125	326.81
282.356	328.81
282.588	309.81
282.819	343.81
283.051	313.81
283.282	326.81
283.513	315.81
283.745	331.81
283.976	323.81
284.207	319.81
284.439	330.81
284.67	315.81
284.901	323.81
285.132	328.81
285.364	319.81
285.595	336.81
285.826	337.81
286.057	324.81
286.288	307.81
286.52	337.81
286.751	329.81
286.982	324.81
287.213	354.81
287.444	348.81
287.675	347.81
287.906	347.81
288.138	352.81
288.369	324.81
288.6	365.81
288.831	341.81
289.062	348.81
289.293	360.81
289.524	336.81
289.755	375.81
289.986	349.81
290.217	361.81
290.448	347.81
290.679	353.81
290.91	352.81
291.141	379.81
291.371	379.81
291.602	374.81
291.833	351.81
292.064	355.81
292.295	360.81
292.526	355.81
292.757	354.81
292.987	349.81
293.218	354.81
293.449	377.81
293.68	364.81
293.91	350.81
294.141	371.81
294.372	361.81
294.603	361.81
294.833	380.81
295.064	365.81
295.295	364.81
295.525	380.81
295.756	371.81
295.987	363.81
296.217	363.81
296.448	365.81
296.679	361.81
296.909	378.81
297.14	387.81
297.37	386.81
297.601	382.81
297.831	371.81
298.062	383.81
298.292	408.81
298.523	396.81
298.753	405.81
298.984	401.81
299.214	383.81
299.445	394.81
299.675	389.81
299.905	390.81
300.136	383.81
300.366	391.81
300.597	407.81
300.827	400.81
301.057	408.81
301.288	417.81
301.518	412.81
301.748	427.81
301.979	424.81
302.209	415.81
302.439	398.81
302.669	396.81
302.9	397.81
303.13	419.81
303.36	410.81
303.59	399.81
303.82	404.81
304.051	411.81
304.281	395.81
304.511	426.81
304.741	432.81
304.971	412.81
305.201	405.81
305.431	441.81
305.661	414.81
305.891	397.81
306.121	407.81
306.352	397.81
306.582	407.81
306.812	383.81
307.042	403.81
307.272	392.81
307.502	402.81
307.731	408.81
307.961	403.81
308.191	416.81
308.421	411.81
308.651	424.81
308.881	404.81
309.111	409.81
309.341	402.81
309.571	409.81
309.8	401.81
310.03	391.81
310.26	405.81
310.49	423.81
310.72	426.81
310.949	414.81
311.179	416.81
311.409	410.81
311.639	432.81
311.868	406.81
312.098	418.81
312.328	448.81
312.557	429.81
312.787	430.81
313.017	432.81
313.246	433.81
313.476	417.81
313.706	460.81
313.935	435.81
314.165	426.81
314.394	441.81
314.624	442.81
314.853	453.81
315.083	418.81
315.312	441.81
315.542	441.81
315.771	429.81
316.001	417.81
316.23	443.81
316.46	441.81
316.689	418.81
316.919	414.81
317.148	437.81
317.377	431.81
317.607	424.81
317.836	437.81
318.065	428.81
318.295	420.81
318.524	433.81
318.753	423.81
318.983	445.81
319.212	418.81
319.441	417.81
319.67	413.81
319.9	421.81
320.129	435.81
320.358	406.81
320.587	425.81
320.816	432.81
321.046	424.81
321.275	431.81
321.504	432.81
321.733	423.81
321.962	427.81
322.191	433.81
322.42	422.81
322.649	441.81
322.878	451.81
323.108	445.81
323.337	445.81
323.566	416.81
323.795	443.81
324.024	459.81
324.253	448.81
324.482	455.81
324.71	448.81
324.939	437.81
325.168	456.81
325.397	453.81
325.626	471.81
325.855	460.81
326.084	462.81
326.313	459.81
326.542	463.81
326.77	486.81
326.999	453.81
327.228	471.81
327.457	465.81
327.686	451.81
327.914	464.81
328.143	480.81
328.372	477.81
328.6	480.81
328.829	468.81
329.058	468.81
329.287	463.81
329.515	471.81
329.744	491.81
329.972	481.81
330.201	469.81
330.43	470.81
330.658	483.81
330.887	489.81
331.115	493.81
331.344	509.81
331.572	500.81
331.801	505.81
332.03	522.81
332.258	548.81
332.486	533.81
332.715	539.81
332.943	576.81
333.172	578.81
333.4	615.81
333.629	624.81
333.857	640.81
334.085	604.81
334.314	605.81
334.542	602.81
334.771	588.81
334.999	565.81
335.227	589.81
335.455	577.81
335.684	589.81
335.912	565.81
336.14	547.81
336.369	559.81
336.597	560.81
336.825	563.81
337.053	559.81
337.281	566.81
337.51	534.81
337.738	517.81
337.966	527.81
338.194	561.81
338.422	554.81
338.65	521.81
338.878	525.81
339.106	528.81
339.334	524.81
339.562	506.81
339.79	515.81
340.018	493.81
340.246	487.81
340.474	481.81
340.702	500.81
340.93	508.81
341.158	513.81
341.386	520.81
341.614	513.81
341.842	492.81
342.07	481.81
342.298	484.81
342.526	501.81
342.754	496.81
342.981	508.81
343.209	509.81
343.437	527.81
343.665	550.81
343.893	580.81
344.12	608.81
344.348	552.81
344.576	545.81
344.804	547.81
345.031	546.81
345.259	503.81
345.487	500.81
345.714	517.81
345.942	493.81
346.17	484.81
346.397	482.81
346.625	477.81
346.853	463.81
347.08	490.81
347.308	496.81
347.535	481.81
347.763	477.81
347.99	473.81
348.218	501.81
348.445	466.81
348.673	491.81
348.9	487.81
349.128	490.81
349.355	475.81
349.583	499.81
349.81	474.81
350.037	466.81
350.265	465.81
350.492	465.81
350.72	460.81
350.947	453.81
351.174	474.81
351.402	474.81
351.629	475.81
351.856	471.81
352.083	453.81
352.311	465.81
352.538	455.81
352.765	477.81
352.992	462.81
353.22	461.81
353.447	446.81
353.674	458.81
353.901	447.81
354.128	441.81
354.355	459.81
354.583	450.81
354.81	458.81
355.037	445.81
355.264	457.81
355.491	448.81
355.718	456.81
355.945	459.81
356.172	474.81
356.399	440.81
356.626	471.81
356.853	480.81
357.08	468.81
357.307	469.81
357.534	451.81
357.761	467.81
357.988	468.81
358.215	464.81
358.441	469.81
358.668	451.81
358.895	458.81
359.122	447.81
359.349	457.81
359.576	464.81
359.802	453.81
360.029	444.81
360.256	457.81
360.483	455.81
360.709	454.81
360.936	447.81
361.163	469.81
361.39	453.81
361.616	465.81
361.843	456.81
362.07	478.81
362.296	457.81
362.523	452.81
362.749	452.81
362.976	440.81
363.203	428.81
363.429	447.81
363.656	447.81
363.882	463.81
364.109	469.81
364.335	442.81
364.562	440.81
364.788	436.81
365.015	443.81
365.241	449.81
365.468	464.81
365.694	449.81
365.92	441.81
366.147	446.81
366.373	455.81
366.599	450.81
366.826	449.81
367.052	455.81
367.278	459.81
367.505	464.81
367.731	456.81
367.957	465.81
368.184	466.81
368.41	453.81
368.636	471.81
368.862	459.81
369.089	479.81
369.315	461.81
369.541	457.81
369.767	449.81
369.993	459.81
370.219	455.81
370.445	460.81
370.672	470.81
370.898	480.81
371.124	489.81
371.35	484.81
371.576	501.81
371.802	496.81
372.028	463.81
372.254	479.81
372.48	494.81
372.706	492.81
372.932	500.81
373.158	512.81
373.384	515.81
373.61	484.81
373.835	505.81
374.061	485.81
374.287	502.81
374.513	481.81
374.739	509.81
374.965	557.81
375.191	535.81
375.416	535.81
375.642	521.81
375.868	521.81
376.094	515.81
376.319	493.81
376.545	491.81
376.771	493.81
376.997	495.81
377.222	477.81
377.448	494.81
377.674	490.81
377.899	456.81
378.125	471.81
378.35	485.81
378.576	463.81
378.802	459.81
379.027	473.81
379.253	471.81
379.478	457.81
379.704	477.81
379.929	460.81
380.155	481.81
380.38	465.81
380.606	493.81
380.831	474.81
381.057	473.81
381.282	469.81
381.507	470.81
381.733	478.81
381.958	488.81
382.184	513.81
382.409	484.81
382.634	518.81
382.86	483.81
383.085	524.81
383.31	531.81
383.535	519.81
383.761	518.81
383.986	526.81
384.211	542.81
384.436	546.81
384.662	555.81
384.887	580.81
385.112	558.81
385.337	583.81
385.562	578.81
385.787	579.81
386.013	572.81
386.238	561.81
386.463	569.81
386.688	585.81
386.913	588.81
387.138	565.81
387.363	574.81
387.588	569.81
387.813	556.81
388.038	579.81
388.263	574.81
388.488	583.81
388.713	568.81
388.938	543.81
389.163	535.81
389.387	568.81
389.612	565.81
389.837	550.81
390.062	558.81
390.287	565.81
390.512	558.81
390.736	565.81
390.961	596.81
391.186	587.81
391.411	603.81
391.636	605.81
391.86	655.81
392.085	643.81
392.31	634.81
392.534	615.81
392.759	605.81
392.984	613.81
393.208	589.81
393.433	598.81
393.658	610.81
393.882	600.81
394.107	581.81
394.331	623.81
394.556	615.81
394.78	602.81
395.005	620.81
395.229	591.81
395.454	609.81
395.678	623.81
395.903	641.81
396.127	642.81
396.352	597.81
396.576	622.81
396.801	602.81
397.025	643.81
397.249	674.81
397.474	660.81
397.698	633.81
397.922	663.81
398.147	633.81
398.371	661.81
398.595	671.81
398.82	720.81
399.044	751.81
399.268	831.81
399.492	943.81
399.717	1024.81
399.941	1023.81
400.165	915.81
400.389	830.81
400.613	794.81
400.837	758.81
401.062	740.81
401.286	724.81
401.51	721.81
401.734	730.81
401.958	725.81
402.182	726.81
402.406	724.81
402.63	751.81
402.854	781.81
403.078	766.81
403.302	759.81
403.526	823.81
403.75	786.81
403.974	785.81
404.198	784.81
404.422	812.81
404.645	794.81
404.869	805.81
405.093	808.81
405.317	779.81
405.541	779.81
405.765	781.81
405.988	786.81
406.212	765.81
406.436	779.81
406.66	812.81
406.883	824.81
407.107	847.81
407.331	899.81
407.555	921.81
407.778	900.81
408.002	879.81
408.226	865.81
408.449	868.81
408.673	815.81
408.896	839.81
409.12	812.81
409.344	810.81
409.567	810.81
409.791	829.81
410.014	811.81
410.238	806.81
410.461	796.81
410.685	797.81
410.908	778.81
411.132	778.81
411.355	777.81
411.578	751.81
411.802	748.81
412.025	768.81
412.249	769.81
412.472	740.81
412.695	745.81
412.919	751.81
413.142	735.81
413.365	713.81
413.589	734.81
413.812	721.81
414.035	699.81
414.258	738.81
414.482	731.81
414.705	736.81
414.928	712.81
415.151	729.81
415.374	721.81
415.597	709.81
415.821	700.81
416.044	702.81
416.267	693.81
416.49	708.81
416.713	701.81
416.936	711.81
417.159	714.81
417.382	726.81
417.605	723.81
417.828	718.81
418.051	723.81
418.274	715.81
418.497	723.81
418.72	731.81
418.943	725.81
419.166	768.81
419.389	800.81
419.611	799.81
419.834	775.81
420.057	757.81
420.28	737.81
420.503	677.81
420.726	721.81
420.948	686.81
421.171	714.81
421.394	716.81
421.617	720.81
421.839	718.81
422.062	725.81
422.285	709.81
422.507	758.81
422.73	747.81
422.953	729.81
423.175	729.81
423.398	750.81
423.621	728.81
423.843	773.81
424.066	758.81
424.288	740.81
424.511	736.81
424.733	752.81
424.956	715.81
425.178	720.81
425.401	759.81
425.623	727.81
425.846	689.81
426.068	697.81
426.291	699.81
426.513	688.81
426.735	697.81
426.958	671.81
427.18	663.81
427.402	667.81
427.625	658.81
427.847	645.81
428.069	663.81
428.292	662.81
428.514	644.81
428.736	643.81
428.958	657.81
429.181	654.81
429.403	648.81
429.625	643.81
429.847	614.81
430.069	607.81
430.292	647.81
430.514	655.81
430.736	651.81
430.958	645.81
431.18	663.81
431.402	648.81
431.624	637.81
431.846	651.81
432.068	648.81
432.29	677.81
432.512	661.81
432.734	650.81
432.956	665.81
433.178	654.81
433.4	622.81
433.622	653.81
433.844	665.81
434.066	675.81
434.287	691.81
434.509	691.81
434.731	723.81
434.953	742.81
435.175	745.81
435.397	717.81
435.618	703.81
435.84	660.81
436.062	660.81
436.284	685.81
436.505	667.81
436.727	655.81
436.949	651.81
437.17	661.81
437.392	642.81
437.614	655.81
437.835	616.81
438.057	650.81
438.278	633.81
438.5	630.81
438.721	621.81
438.943	654.81
439.165	628.81
439.386	661.81
439.608	652.81
439.829	659.81
440.05	653.81
440.272	680.81
440.493	673.81
440.715	679.81
440.936	707.81
441.158	692.81
441.379	692.81
441.6	736.81
441.822	729.81
442.043	752.81
442.264	742.81
442.486	715.81
442.707	744.81
442.928	737.81
443.149	721.81
443.371	725.81
443.592	750.81
443.813	729.81
444.034	742.81
444.255	794.81
444.476	776.81
444.698	813.81
444.919	838.81
445.14	924.81
445.361	809.81
445.582	775.81
445.803	725.81
446.024	713.81
446.245	706.81
446.466	701.81
446.687	666.81
446.908	678.81
447.129	648.81
447.35	659.81
447.571	648.81
447.792	633.81
448.013	629.81
448.234	648.81
448.455	647.81
448.675	634.81
448.896	637.81
449.117	621.81
449.338	622.81
449.559	610.81
449.779	597.81
450	619.81
450.221	628.81
450.442	593.81
450.662	628.81
450.883	627.81
451.104	618.81
451.324	630.81
451.545	657.81
451.766	632.81
451.986	625.81
452.207	629.81
452.428	642.81
452.648	632.81
452.869	606.81
453.089	619.81
453.31	606.81
453.53	616.81
453.751	599.81
453.971	570.81
454.192	580.81
454.412	589.81
454.633	597.81
454.853	598.81
455.073	559.81
455.294	604.81
455.514	571.81
455.734	566.81
455.955	579.81
456.175	576.81
456.395	557.81
456.616	556.81
456.836	579.81
457.056	578.81
457.276	561.81
457.497	571.81
457.717	562.81
457.937	579.81
458.157	592.81
458.377	591.81
458.598	614.81
458.818	620.81
459.038	630.81
459.258	649.81
459.478	667.81
459.698	670.81
459.918	671.81
460.138	752.81
460.358	755.81
460.578	767.81
460.798	745.81
461.018	773.81
461.238	780.81
461.458	773.81
461.678	764.81
461.898	769.81
462.118	800.81
462.338	828.81
462.558	844.81
462.777	874.81
462.997	957.81
463.217	991.81
463.437	988.81
463.657	947.81
463.876	883.81
464.096	910.81
464.316	924.81
464.536	892.81
464.755	859.81
464.975	850.81
465.195	828.81
465.414	769.81
465.634	740.81
465.854	717.81
466.073	676.81
466.293	662.81
466.512	671.81
466.732	654.81
466.951	662.81
467.171	666.81
467.391	635.81
467.61	653.81
467.829	647.81
468.049	651.81
468.268	624.81
468.488	634.81
468.707	630.81
468.927	633.81
469.146	628.81
469.365	643.81
469.585	639.81
469.804	625.81
470.023	667.81
470.243	658.81
470.462	670.81
470.681	671.81
470.901	693.81
471.12	657.81
471.339	658.81
471.558	647.81
471.777	632.81
471.997	650.81
472.216	623.81
472.435	629.81
472.654	615.81
472.873	619.81
473.092	615.81
473.311	614.81
473.53	595.81
473.749	604.81
473.968	616.81
474.187	581.81
474.406	597.81
474.625	593.81
474.844	609.81
475.063	619.81
475.282	637.81
475.501	638.81
475.72	647.81
475.939	612.81
476.158	633.81
476.377	631.81
476.596	640.81
476.814	644.81
477.033	657.81
477.252	660.81
477.471	675.81
477.69	673.81
477.908	698.81
478.127	727.81
478.346	710.81
478.564	725.81
478.783	734.81
479.002	772.81
479.22	741.81
479.439	751.81
479.658	729.81
479.876	744.81
480.095	752.81
480.313	794.81
480.532	789.81
480.751	779.81
480.969	750.81
481.188	739.81
481.406	728.81
481.624	717.81
481.843	691.81
482.061	685.81
482.28	701.81
482.498	677.81
482.717	697.81
482.935	673.81
483.153	684.81
483.372	666.81
483.59	697.81
483.808	687.81
484.027	680.81
484.245	700.81
484.463	711.81
484.681	699.81
484.9	728.81
485.118	707.81
485.336	697.81
485.554	709.81
485.772	701.81
485.99	714.81
486.209	715.81
486.427	733.81
486.645	741.81
486.863	729.81
487.081	724.81
487.299	743.81
487.517	739.81
487.735	733.81
487.953	732.81
488.171	714.81
488.389	730.81
488.607	708.81
488.825	711.81
489.043	714.81
489.261	726.81
489.479	720.81
489.696	706.81
489.914	720.81
490.132	736.81
490.35	757.81
490.568	733.81
490.786	728.81
491.003	764.81
491.221	738.81
491.439	768.81
491.657	739.81
491.874	768.81
492.092	780.81
492.31	744.81
492.527	773.81
492.745	779.81
492.963	769.81
493.18	769.81
493.398	746.81
493.615	765.81
493.833	762.81
494.05	789.81
494.268	789.81
494.485	774.81
494.703	779.81
494.92	768.81
495.138	769.81
495.355	787.81
495.573	798.81
495.79	785.81
496.008	806.81
496.225	797.81
496.442	809.81
496.66	841.81
496.877	843.81
497.094	831.81
497.312	856.81
497.529	875.81
497.746	883.81
497.963	919.81
498.181	950.81
498.398	987.81
498.615	1024.81
498.832	1075.81
499.049	1184.81
499.267	1236.81
499.484	1394.81
499.701	1481.81
499.918	1657.81
500.135	1849.81
500.352	2075.81
500.569	2145.81
500.786	2094.81
501.003	2008.81
501.22	1788.81
501.437	1631.81
501.654	1449.81
501.871	1306.81
502.088	1242.81
502.305	1181.81
502.522	1108.81
502.739	1077.81
502.956	1009.81
503.172	925.81
503.389	894.81
503.606	897.81
503.823	885.81
504.04	885.81
504.256	899.81
504.473	881.81
504.69	883.81
504.907	857.81
505.123	865.81
505.34	828.81
505.557	784.81
505.773	753.81
505.99	723.81
506.207	721.81
506.423	685.81
506.64	719.81
506.856	685.81
507.073	704.81
507.289	688.81
507.506	691.81
507.722	697.81
507.939	679.81
508.155	682.81
508.372	661.81
508.588	655.81
508.805	662.81
509.021	640.81
509.238	638.81
509.454	627.81
509.67	638.81
509.887	641.81
510.103	618.81
510.319	633.81
510.536	636.81
510.752	623.81
510.968	606.81
511.184	617.81
511.401	615.81
511.617	625.81
511.833	629.81
512.049	640.81
512.265	620.81
512.481	598.81
512.698	605.81
512.914	612.81
513.13	633.81
513.346	581.81
513.562	618.81
513.778	611.81
513.994	618.81
514.21	642.81
514.426	627.81
514.642	638.81
514.858	643.81
515.074	633.81
515.29	670.81
515.506	634.81
515.721	641.81
515.937	644.81
516.153	672.81
516.369	669.81
516.585	675.81
516.801	732.81
517.016	753.81
517.232	775.81
517.448	789.81
517.664	831.81
517.879	836.81
518.095	842.81
518.311	802.81
518.527	798.81
518.742	787.81
518.958	747.81
519.173	717.81
519.389	700.81
519.605	679.81
519.82	640.81
520.036	663.81
520.251	635.81
520.467	632.81
520.682	642.81
520.898	615.81
521.113	605.81
521.329	617.81
521.544	608.81
521.76	613.81
521.975	617.81
522.19	578.81
522.406	589.81
522.621	592.81
522.836	574.81
523.052	604.81
523.267	594.81
523.482	611.81
523.698	566.81
523.913	582.81
524.128	572.81
524.343	578.81
524.559	563.81
524.774	576.81
524.989	582.81
525.204	581.81
525.419	566.81
525.634	567.81
525.849	581.81
526.064	574.81
526.28	552.81
526.495	566.81
526.71	547.81
526.925	557.81
527.14	528.81
527.355	543.81
527.57	538.81
527.785	561.81
527.999	550.81
528.214	558.81
528.429	556.81
528.644	557.81
528.859	563.81
529.074	560.81
529.289	563.81
529.503	555.81
529.718	559.81
529.933	577.81
530.148	567.81
530.363	561.81
530.577	555.81
530.792	558.81
531.007	541.81
531.221	542.81
531.436	532.81
531.651	550.81
531.865	543.81
532.08	539.81
532.295	564.81
532.509	542.81
532.724	552.81
532.938	564.81
533.153	566.81
533.367	537.81
533.582	553.81
533.796	559.81
534.011	557.81
534.225	553.81
534.44	531.81
534.654	549.81
534.868	544.81
535.083	545.81
535.297	544.81
535.511	540.81
535.726	548.81
535.94	543.81
536.154	544.81
536.369	507.81
536.583	505.81
536.797	517.81
537.011	505.81
537.225	515.81
537.44	498.81
537.654	511.81
537.868	520.81
538.082	512.81
538.296	508.81
538.51	515.81
538.724	515.81
538.938	489.81
539.153	495.81
539.367	507.81
539.581	494.81
539.795	524.81
540.009	515.81
540.222	499.81
540.436	513.81
540.65	506.81
540.864	492.81
541.078	513.81
541.292	518.81
541.506	492.81
541.72	499.81
541.934	520.81
542.147	530.81
542.361	490.81
542.575	497.81
542.789	504.81
543.002	491.81
543.216	492.81
543.43	489.81
543.644	496.81
543.857	502.81
544.071	504.81
544.285	522.81
544.498	499.81
544.712	503.81
544.925	506.81
545.139	515.81
545.352	525.81
545.566	519.81
545.779	517.81
545.993	527.81
546.206	528.81
546.42	549.81
546.633	531.81
546.847	539.81
547.06	510.81
547.274	533.81
547.487	506.81
547.7	492.81
547.914	538.81
548.127	513.81
548.34	526.81
548.554	515.81
548.767	523.81
548.98	513.81
549.193	529.81
549.407	523.81
549.62	527.81
549.833	541.81
550.046	546.81
550.259	543.81
550.473	520.81
550.686	517.81
550.899	510.81
551.112	515.81
551.325	509.81
551.538	501.81
551.751	501.81
551.964	517.81
552.177	506.81
552.39	510.81
552.603	520.81
552.816	536.81
553.029	575.81
553.242	560.81
553.455	554.81
553.667	574.81
553.88	557.81
554.093	547.81
554.306	537.81
554.519	511.81
554.732	509.81
554.944	500.81
555.157	517.81
555.37	499.81
555.583	499.81
555.795	477.81
556.008	469.81
556.221	465.81
556.433	465.81
556.646	470.81
556.859	453.81
557.071	448.81
557.284	470.81
557.496	456.81
557.709	440.81
557.921	441.81
558.134	427.81
558.346	440.81
558.559	437.81
558.771	462.81
558.984	455.81
559.196	430.81
559.409	448.81
559.621	435.81
559.833	427.81
560.046	436.81
560.258	420.81
560.47	422.81
560.683	440.81
560.895	399.81
561.107	435.81
561.32	442.81
561.532	427.81
561.744	421.81
561.956	428.81
562.168	439.81
562.381	422.81
562.593	427.81
562.805	440.81
563.017	459.81
563.229	440.81
563.441	455.81
563.653	452.81
563.865	430.81
564.077	448.81
564.289	449.81
564.501	428.81
564.713	473.81
564.925	480.81
565.137	456.81
565.349	493.81
565.561	471.81
565.773	505.81
565.985	519.81
566.197	555.81
566.408	581.81
566.62	616.81
566.832	652.81
567.044	669.81
567.255	679.81
567.467	677.81
567.679	718.81
567.891	741.81
568.102	761.81
568.314	739.81
568.526	646.81
568.737	598.81
568.949	561.81
569.161	538.81
569.372	500.81
569.584	478.81
569.795	472.81
570.007	489.81
570.218	452.81
570.43	446.81
570.641	430.81
570.853	433.81
571.064	442.81
571.276	423.81
571.487	415.81
571.698	408.81
571.91	402.81
572.121	392.81
572.333	389.81
572.544	392.81
572.755	389.81
572.966	350.81
573.178	365.81
573.389	367.81
573.6	357.81
573.811	340.81
574.023	351.81
574.234	350.81
574.445	335.81
574.656	351.81
574.867	368.81
575.078	358.81
575.289	343.81
575.501	342.81
575.712	354.81
575.923	345.81
576.134	341.81
576.345	324.81
576.556	357.81
576.767	339.81
576.978	330.81
577.188	337.81
577.399	332.81
577.61	332.81
577.821	329.81
578.032	320.81
578.243	312.81
578.454	329.81
578.665	323.81
578.875	328.81
579.086	332.81
579.297	310.81
579.508	317.81
579.718	344.81
579.929	330.81
580.14	299.81
580.35	317.81
580.561	296.81
580.772	302.81
580.982	312.81
581.193	304.81
581.403	312.81
581.614	311.81
581.825	313.81
582.035	305.81
582.246	299.81
582.456	295.81
582.667	302.81
582.877	296.81
583.087	311.81
583.298	310.81
583.508	288.81
583.719	281.81
583.929	308.81
584.139	292.81
584.35	291.81
584.56	286.81
584.77	302.81
584.981	273.81
585.191	291.81
585.401	284.81
585.611	312.81
585.821	293.81
586.032	305.81
586.242	292.81
586.452	296.81
586.662	293.81
586.872	301.81
587.082	286.81
587.292	304.81
587.502	308.81
587.713	307.81
587.923	291.81
588.133	280.81
588.343	302.81
588.553	284.81
588.762	297.81
588.972	302.81
589.182	343.81
589.392	320.81
589.602	302.81
589.812	302.81
590.022	296.81
590.232	302.81
590.441	285.81
590.651	306.81
590.861	290.81
591.071	313.81
591.281	316.81
591.49	329.81
591.7	308.81
591.91	309.81
592.119	310.81
592.329	302.81
592.539	323.81
592.748	333.81
592.958	323.81
593.167	347.81
593.377	371.81
593.587	353.81
593.796	334.81
594.006	343.81
594.215	357.81
594.424	337.81
594.634	359.81
594.843	344.81
595.053	321.81
595.262	319.81
595.472	311.81
595.681	315.81
595.89	315.81
596.1	294.81
596.309	292.81
596.518	307.81
596.727	281.81
596.937	282.81
597.146	287.81
597.355	265.81
597.564	269.81
597.774	243.81
597.983	293.81
598.192	245.81
598.401	266.81
598.61	262.81
598.819	248.81
599.028	252.81
599.237	239.81
599.446	249.81
599.655	244.81
599.864	231.81
600.073	259.81
600.282	236.81
600.491	250.81
600.7	239.81
600.909	244.81
601.118	254.81
601.327	247.81
601.536	239.81
601.745	245.81
601.953	240.81
602.162	236.81
602.371	238.81
602.58	235.81
602.789	234.81
602.997	256.81
603.206	241.81
603.415	241.81
603.623	234.81
603.832	244.81
604.041	231.81
604.249	218.81
604.458	241.81
604.666	226.81
604.875	239.81
605.084	234.81
605.292	265.81
605.501	238.81
605.709	229.81
605.918	237.81
606.126	235.81
606.334	219.81
606.543	219.81
606.751	241.81
606.96	230.81
607.168	211.81
607.376	229.81
607.585	244.81
607.793	209.81
608.001	232.81
608.21	227.81
608.418	218.81
608.626	214.81
608.834	232.81
609.043	223.81
609.251	251.81
609.459	207.81
609.667	240.81
609.875	230.81
610.083	222.81
610.291	228.81
610.499	249.81
610.707	230.81
610.916	216.81
611.124	208.81
611.332	233.81
611.54	217.81
611.748	207.81
611.955	215.81
612.163	211.81
612.371	224.81
612.579	209.81
612.787	225.81
612.995	218.81
613.203	226.81
613.411	227.81
613.618	228.81
613.826	203.81
614.034	219.81
614.242	209.81
614.449	225.81
614.657	227.81
614.865	231.81
615.072	194.81
615.28	205.81
615.488	205.81
615.695	221.81
615.903	208.81
616.111	227.81
616.318	232.81
616.526	224.81
616.733	228.81
616.941	214.81
617.148	212.81
617.356	215.81
617.563	222.81
617.771	204.81
617.978	215.81
618.185	222.81
618.393	227.81
618.6	232.81
618.807	213.81
619.015	206.81
619.222	208.81
619.429	195.81
619.637	216.81
619.844	210.81
620.051	218.81
620.258	211.81
620.466	206.81
620.673	195.81
620.88	192.81
621.087	191.81
621.294	192.81
621.501	197.81
621.708	205.81
621.915	207.81
622.122	231.81
622.329	223.81
622.536	212.81
622.743	198.81
622.95	201.81
623.157	197.81
623.364	196.81
623.571	192.81
623.778	217.81
623.985	189.81
624.192	200.81
624.399	206.81
624.606	180.81
624.812	183.81
625.019	172.81
625.226	212.81
625.433	203.81
625.639	188.81
625.846	204.81
626.053	178.81
626.259	185.81
626.466	181.81
626.673	188.81
626.879	157.81
627.086	182.81
627.293	189.81
627.499	187.81
627.706	199.81
627.912	197.81
628.119	184.81
628.325	203.81
628.532	172.81
628.738	174.81
628.945	197.81
629.151	175.81
629.357	170.81
629.564	188.81
629.77	174.81
629.976	176.81
630.183	174.81
630.389	175.81
630.595	195.81
630.802	186.81
631.008	167.81
631.214	183.81
631.42	172.81
631.627	190.81
631.833	179.81
632.039	188.81
632.245	169.81
632.451	165.81
632.657	177.81
632.863	167.81
633.069	172.81
633.275	178.81
633.481	173.81
633.688	167.81
633.893	175.81
634.099	174.81
634.305	155.81
634.511	163.81
634.717	153.81
634.923	162.81
635.129	163.81
635.335	172.81
635.541	143.81
635.747	168.81
635.952	169.81
636.158	168.81
636.364	171.81
636.57	161.81
636.775	172.81
636.981	171.81
637.187	171.81
637.392	177.81
637.598	164.81
637.804	164.81
638.009	181.81
638.215	165.81
638.421	172.81
638.626	176.81
638.832	171.81
639.037	151.81
639.243	165.81
639.448	160.81
639.654	175.81
639.859	155.81
640.065	147.81
640.27	157.81
640.475	162.81
640.681	155.81
640.886	160.81
641.091	162.81
641.297	147.81
641.502	169.81
641.707	153.81
641.913	159.81
642.118	151.81
642.323	148.81
642.528	175.81
642.733	158.81
642.939	155.81
643.144	152.81
643.349	142.81
643.554	157.81
643.759	169.81
643.964	153.81
644.169	160.81
644.374	161.81
644.579	149.81
644.784	161.81
644.989	162.81
645.194	160.81
645.399	139.81
645.604	142.81
645.809	145.81
646.014	143.81
646.219	144.81
646.423	148.81
646.628	150.81
646.833	138.81
647.038	136.81
647.243	144.81
647.447	152.81
647.652	152.81
647.857	164.81
648.062	180.81
648.266	167.81
648.471	155.81
648.676	163.81
648.88	167.81
649.085	156.81
649.289	147.81
649.494	152.81
649.698	152.81
649.903	157.81
650.107	152.81
650.312	144.81
650.516	147.81
650.721	138.81
650.925	136.81
651.13	153.81
651.334	143.81
651.539	143.81
651.743	141.81
651.947	158.81
652.152	131.81
652.356	142.81
652.56	136.81
652.764	135.81
652.969	144.81
653.173	144.81
653.377	126.81
653.581	127.81
653.785	142.81
653.99	136.81
654.194	131.81
654.398	127.81
654.602	123.81
654.806	147.81
655.01	143.81
655.214	127.81
655.418	107.81
655.622	129.81
655.826	118.81
656.03	137.81
656.234	132.81
656.438	129.81
656.642	131.81
656.846	136.81
657.049	129.81
657.253	117.81
657.457	120.81
657.661	116.81
657.865	107.81
658.068	93.81
658.272	109.81
658.476	117.81
658.68	111.81
658.883	99.81
659.087	95.81
659.291	108.81
659.494	107.81
659.698	89.81
659.901	103.81
660.105	93.81
660.309	100.81
660.512	90.81
660.716	91.81
660.919	84.81
661.123	104.81
661.326	98.81
661.53	77.81
661.733	94.81
661.936	84.81
662.14	103.81
662.343	77.81
662.546	90.81
662.75	80.81
662.953	92.81
663.156	79.81
663.36	91.81
663.563	91.81
663.766	86.81
663.969	85.81
664.173	76.81
664.376	110.81
664.579	91.81
664.782	97.81
664.985	87.81
665.188	85.81
665.391	91.81
665.594	75.81
665.797	76.81
666	90.81
666.203	104.81
666.406	96.81
666.609	83.81
666.812	105.81
667.015	86.81
667.218	93.81
667.421	83.81
667.624	88.81
667.827	94.81
668.03	88.81
668.232	86.81
668.435	77.81
668.638	81.81
668.841	84.81
669.043	93.81
669.246	88.81
669.449	81.81
669.651	86.81
669.854	93.81
670.057	87.81
670.259	85.81
670.462	77.81
670.665	61.81
670.867	85.81
671.07	93.81
671.272	101.81
671.475	94.81
671.677	82.81
671.88	79.81
672.082	94.81
672.284	96.81
672.487	76.81
672.689	93.81
672.892	79.81
