Data from NiCl2@0.0625M.TitratingCurve.Agarose3%dH2O.NegLispCup.LampEnergy10.LIBS07252019_HRD10591_18-35-32-576.txt Node
Date: Thu Jul 25 18:35:32 EDT 2019
User: cochatt
Spectrometer: HR+D1059
Trigger mode: 1
Integration Time (sec): 1.000000E-1
Scans to average: 1
Electric dark correction enabled: true
Nonlinearity correction enabled: false
Boxcar width: 0
XAxis mode: Wavelengths
Number of Pixels in Spectrum: 2048
>>>>>Begin Spectral Data<<<<<
223.165	-21.25
223.4	-21.25
223.635	-21.25
223.869	-16.25
224.104	-22.25
224.338	-22.25
224.573	-15.25
224.808	-16.25
225.042	-11.25
225.277	12.75
225.511	14.75
225.746	2.75
225.98	8.75
226.215	5.75
226.449	14.75
226.683	17.75
226.918	23.75
227.152	23.75
227.387	35.75
227.621	30.75
227.856	45.75
228.09	54.75
228.324	44.75
228.559	59.75
228.793	77.75
229.027	132.75
229.262	129.75
229.496	149.75
229.73	150.75
229.964	159.75
230.199	170.75
230.433	171.75
230.667	153.75
230.901	186.75
231.136	169.75
231.37	183.75
231.604	178.75
231.838	215.75
232.072	189.75
232.306	182.75
232.541	175.75
232.775	182.75
233.009	193.75
233.243	193.75
233.477	174.75
233.711	182.75
233.945	187.75
234.179	183.75
234.413	201.75
234.647	215.75
234.881	204.75
235.115	200.75
235.349	203.75
235.583	209.75
235.817	203.75
236.051	219.75
236.285	208.75
236.519	216.75
236.753	222.75
236.987	209.75
237.221	226.75
237.455	217.75
237.689	223.75
237.922	226.75
238.156	240.75
238.39	227.75
238.624	224.75
238.858	226.75
239.091	248.75
239.325	243.75
239.559	236.75
239.793	236.75
240.027	248.75
240.26	244.75
240.494	251.75
240.728	246.75
240.961	253.75
241.195	266.75
241.429	278.75
241.662	269.75
241.896	276.75
242.13	284.75
242.363	280.75
242.597	282.75
242.83	282.75
243.064	280.75
243.298	299.75
243.531	281.75
243.765	299.75
243.998	301.75
244.232	320.75
244.465	318.75
244.699	304.75
244.932	307.75
245.166	318.75
245.399	312.75
245.633	310.75
245.866	299.75
246.099	329.75
246.333	317.75
246.566	333.75
246.8	333.75
247.033	300.75
247.266	329.75
247.5	325.75
247.733	351.75
247.966	337.75
248.2	337.75
248.433	336.75
248.666	359.75
248.899	363.75
249.133	373.75
249.366	346.75
249.599	360.75
249.832	361.75
250.066	360.75
250.299	390.75
250.532	370.75
250.765	370.75
250.998	379.75
251.231	371.75
251.465	400.75
251.698	387.75
251.931	392.75
252.164	384.75
252.397	395.75
252.63	388.75
252.863	389.75
253.096	398.75
253.329	399.75
253.562	381.75
253.795	405.75
254.028	416.75
254.261	422.75
254.494	428.75
254.727	414.75
254.96	409.75
255.193	418.75
255.426	414.75
255.659	414.75
255.892	431.75
256.124	441.75
256.357	436.75
256.59	429.75
256.823	434.75
257.056	439.75
257.289	441.75
257.521	452.75
257.754	446.75
257.987	446.75
258.22	446.75
258.452	467.75
258.685	465.75
258.918	456.75
259.151	460.75
259.383	468.75
259.616	471.75
259.849	470.75
260.081	468.75
260.314	489.75
260.547	456.75
260.779	482.75
261.012	499.75
261.244	505.75
261.477	484.75
261.71	493.75
261.942	500.75
262.175	482.75
262.407	494.75
262.64	493.75
262.872	508.75
263.105	510.75
263.337	502.75
263.57	518.75
263.802	536.75
264.035	518.75
264.267	521.75
264.499	515.75
264.732	500.75
264.964	542.75
265.197	534.75
265.429	517.75
265.661	538.75
265.894	556.75
266.126	552.75
266.358	541.75
266.591	552.75
266.823	572.75
267.055	548.75
267.287	566.75
267.52	552.75
267.752	580.75
267.984	575.75
268.216	552.75
268.448	557.75
268.681	595.75
268.913	576.75
269.145	573.75
269.377	563.75
269.609	589.75
269.841	579.75
270.073	580.75
270.306	569.75
270.538	602.75
270.77	587.75
271.002	606.75
271.234	564.75
271.466	588.75
271.698	606.75
271.93	594.75
272.162	623.75
272.394	594.75
272.626	596.75
272.858	606.75
273.09	632.75
273.322	612.75
273.553	614.75
273.785	622.75
274.017	621.75
274.249	636.75
274.481	634.75
274.713	632.75
274.945	647.75
275.176	632.75
275.408	641.75
275.64	657.75
275.872	660.75
276.104	639.75
276.335	643.75
276.567	638.75
276.799	651.75
277.031	662.75
277.262	646.75
277.494	646.75
277.726	685.75
277.957	679.75
278.189	680.75
278.421	683.75
278.652	678.75
278.884	664.75
279.115	676.75
279.347	694.75
279.579	703.75
279.81	711.75
280.042	682.75
280.273	711.75
280.505	701.75
280.736	691.75
280.968	708.75
281.199	721.75
281.431	714.75
281.662	717.75
281.894	733.75
282.125	707.75
282.356	708.75
282.588	742.75
282.819	751.75
283.051	734.75
283.282	730.75
283.513	767.75
283.745	751.75
283.976	748.75
284.207	772.75
284.439	747.75
284.67	776.75
284.901	763.75
285.132	779.75
285.364	768.75
285.595	744.75
285.826	749.75
286.057	763.75
286.288	772.75
286.52	790.75
286.751	780.75
286.982	766.75
287.213	789.75
287.444	780.75
287.675	811.75
287.906	791.75
288.138	782.75
288.369	792.75
288.6	837.75
288.831	799.75
289.062	798.75
289.293	812.75
289.524	797.75
289.755	796.75
289.986	799.75
290.217	794.75
290.448	806.75
290.679	796.75
290.91	810.75
291.141	824.75
291.371	807.75
291.602	816.75
291.833	837.75
292.064	833.75
292.295	789.75
292.526	806.75
292.757	847.75
292.987	843.75
293.218	808.75
293.449	843.75
293.68	834.75
293.91	827.75
294.141	820.75
294.372	813.75
294.603	811.75
294.833	826.75
295.064	826.75
295.295	831.75
295.525	828.75
295.756	825.75
295.987	851.75
296.217	854.75
296.448	832.75
296.679	859.75
296.909	845.75
297.14	863.75
297.37	886.75
297.601	866.75
297.831	879.75
298.062	865.75
298.292	889.75
298.523	896.75
298.753	867.75
298.984	878.75
299.214	868.75
299.445	898.75
299.675	874.75
299.905	874.75
300.136	886.75
300.366	876.75
300.597	892.75
300.827	908.75
301.057	930.75
301.288	920.75
301.518	946.75
301.748	958.75
301.979	943.75
302.209	958.75
302.439	944.75
302.669	912.75
302.9	923.75
303.13	950.75
303.36	925.75
303.59	926.75
303.82	911.75
304.051	935.75
304.281	938.75
304.511	950.75
304.741	914.75
304.971	940.75
305.201	919.75
305.431	931.75
305.661	924.75
305.891	920.75
306.121	938.75
306.352	931.75
306.582	917.75
306.812	909.75
307.042	947.75
307.272	922.75
307.502	926.75
307.731	940.75
307.961	912.75
308.191	929.75
308.421	916.75
308.651	940.75
308.881	904.75
309.111	932.75
309.341	907.75
309.571	940.75
309.8	940.75
310.03	911.75
310.26	926.75
310.49	943.75
310.72	965.75
310.949	946.75
311.179	946.75
311.409	959.75
311.639	946.75
311.868	976.75
312.098	974.75
312.328	951.75
312.557	971.75
312.787	954.75
313.017	945.75
313.246	1002.75
313.476	960.75
313.706	997.75
313.935	986.75
314.165	1002.75
314.394	998.75
314.624	1007.75
314.853	1013.75
315.083	991.75
315.312	985.75
315.542	1022.75
315.771	991.75
316.001	990.75
316.23	972.75
316.46	979.75
316.689	971.75
316.919	998.75
317.148	990.75
317.377	970.75
317.607	984.75
317.836	966.75
318.065	974.75
318.295	990.75
318.524	966.75
318.753	965.75
318.983	988.75
319.212	946.75
319.441	967.75
319.67	979.75
319.9	968.75
320.129	978.75
320.358	990.75
320.587	985.75
320.816	967.75
321.046	975.75
321.275	1003.75
321.504	998.75
321.733	997.75
321.962	1004.75
322.191	985.75
322.42	985.75
322.649	957.75
322.878	1007.75
323.108	1011.75
323.337	995.75
323.566	1012.75
323.795	1001.75
324.024	1016.75
324.253	1028.75
324.482	994.75
324.71	1032.75
324.939	1046.75
325.168	1034.75
325.397	1028.75
325.626	1046.75
325.855	1070.75
326.084	1036.75
326.313	1045.75
326.542	1062.75
326.77	1083.75
326.999	1075.75
327.228	1069.75
327.457	1067.75
327.686	1082.75
327.914	1076.75
328.143	1079.75
328.372	1088.75
328.6	1083.75
328.829	1084.75
329.058	1081.75
329.287	1090.75
329.515	1100.75
329.744	1056.75
329.972	1076.75
330.201	1102.75
330.43	1085.75
330.658	1133.75
330.887	1107.75
331.115	1086.75
331.344	1133.75
331.572	1125.75
331.801	1166.75
332.03	1158.75
332.258	1207.75
332.486	1238.75
332.715	1224.75
332.943	1277.75
333.172	1321.75
333.4	1321.75
333.629	1319.75
333.857	1354.75
334.085	1374.75
334.314	1378.75
334.542	1372.75
334.771	1351.75
334.999	1344.75
335.227	1354.75
335.455	1375.75
335.684	1327.75
335.912	1319.75
336.14	1326.75
336.369	1265.75
336.597	1267.75
336.825	1289.75
337.053	1268.75
337.281	1299.75
337.51	1243.75
337.738	1248.75
337.966	1205.75
338.194	1219.75
338.422	1194.75
338.65	1180.75
338.878	1181.75
339.106	1187.75
339.334	1164.75
339.562	1179.75
339.79	1152.75
340.018	1144.75
340.246	1148.75
340.474	1143.75
340.702	1159.75
340.93	1134.75
341.158	1140.75
341.386	1164.75
341.614	1156.75
341.842	1146.75
342.07	1133.75
342.298	1110.75
342.526	1136.75
342.754	1099.75
342.981	1130.75
343.209	1143.75
343.437	1224.75
343.665	1199.75
343.893	1296.75
344.12	1339.75
344.348	1313.75
344.576	1254.75
344.804	1246.75
345.031	1196.75
345.259	1170.75
345.487	1131.75
345.714	1105.75
345.942	1129.75
346.17	1124.75
346.397	1128.75
346.625	1116.75
346.853	1086.75
347.08	1086.75
347.308	1072.75
347.535	1098.75
347.763	1098.75
347.99	1081.75
348.218	1088.75
348.445	1092.75
348.673	1082.75
348.9	1066.75
349.128	1058.75
349.355	1065.75
349.583	1085.75
349.81	1061.75
350.037	1076.75
350.265	1042.75
350.492	1090.75
350.72	1046.75
350.947	1066.75
351.174	1043.75
351.402	1046.75
351.629	1044.75
351.856	1033.75
352.083	1037.75
352.311	1037.75
352.538	1016.75
352.765	1058.75
352.992	1056.75
353.22	1021.75
353.447	1039.75
353.674	1048.75
353.901	1006.75
354.128	1020.75
354.355	1045.75
354.583	1032.75
354.81	1037.75
355.037	1041.75
355.264	1018.75
355.491	1022.75
355.718	1032.75
355.945	1042.75
356.172	1079.75
356.399	1066.75
356.626	1050.75
356.853	1014.75
357.08	1068.75
357.307	1036.75
357.534	1059.75
357.761	1084.75
357.988	1052.75
358.215	1030.75
358.441	1024.75
358.668	1050.75
358.895	998.75
359.122	1034.75
359.349	1068.75
359.576	1049.75
359.802	1042.75
360.029	1029.75
360.256	1056.75
360.483	1031.75
360.709	1046.75
360.936	1037.75
361.163	1044.75
361.39	1055.75
361.616	1087.75
361.843	1042.75
362.07	1067.75
362.296	1055.75
362.523	1058.75
362.749	1059.75
362.976	1036.75
363.203	1039.75
363.429	1053.75
363.656	1051.75
363.882	1023.75
364.109	1061.75
364.335	1035.75
364.562	1016.75
364.788	1020.75
365.015	1040.75
365.241	1023.75
365.468	1032.75
365.694	1055.75
365.92	1062.75
366.147	1040.75
366.373	1054.75
366.599	1044.75
366.826	1058.75
367.052	1068.75
367.278	1042.75
367.505	1051.75
367.731	1076.75
367.957	1060.75
368.184	1066.75
368.41	1056.75
368.636	1094.75
368.862	1118.75
369.089	1069.75
369.315	1072.75
369.541	1096.75
369.767	1074.75
369.993	1106.75
370.219	1094.75
370.445	1110.75
370.672	1095.75
370.898	1102.75
371.124	1116.75
371.35	1145.75
371.576	1123.75
371.802	1140.75
372.028	1146.75
372.254	1126.75
372.48	1153.75
372.706	1167.75
372.932	1164.75
373.158	1179.75
373.384	1164.75
373.61	1128.75
373.835	1149.75
374.061	1136.75
374.287	1180.75
374.513	1170.75
374.739	1183.75
374.965	1240.75
375.191	1244.75
375.416	1214.75
375.642	1198.75
375.868	1162.75
376.094	1184.75
376.319	1147.75
376.545	1139.75
376.771	1153.75
376.997	1112.75
377.222	1130.75
377.448	1132.75
377.674	1138.75
377.899	1117.75
378.125	1109.75
378.35	1126.75
378.576	1151.75
378.802	1078.75
379.027	1095.75
379.253	1124.75
379.478	1144.75
379.704	1129.75
379.929	1122.75
380.155	1116.75
380.38	1089.75
380.606	1119.75
380.831	1115.75
381.057	1117.75
381.282	1128.75
381.507	1120.75
381.733	1133.75
381.958	1151.75
382.184	1156.75
382.409	1155.75
382.634	1169.75
382.86	1187.75
383.085	1204.75
383.31	1187.75
383.535	1238.75
383.761	1208.75
383.986	1234.75
384.211	1274.75
384.436	1268.75
384.662	1254.75
384.887	1303.75
385.112	1310.75
385.337	1303.75
385.562	1315.75
385.787	1354.75
386.013	1325.75
386.238	1358.75
386.463	1347.75
386.688	1331.75
386.913	1350.75
387.138	1359.75
387.363	1331.75
387.588	1326.75
387.813	1360.75
388.038	1367.75
388.263	1343.75
388.488	1353.75
388.713	1340.75
388.938	1347.75
389.163	1351.75
389.387	1332.75
389.612	1330.75
389.837	1359.75
390.062	1335.75
390.287	1321.75
390.512	1322.75
390.736	1353.75
390.961	1374.75
391.186	1377.75
391.411	1433.75
391.636	1414.75
391.86	1502.75
392.085	1482.75
392.31	1451.75
392.534	1470.75
392.759	1440.75
392.984	1454.75
393.208	1432.75
393.433	1420.75
393.658	1448.75
393.882	1406.75
394.107	1435.75
394.331	1425.75
394.556	1423.75
394.78	1441.75
395.005	1453.75
395.229	1434.75
395.454	1464.75
395.678	1494.75
395.903	1483.75
396.127	1507.75
396.352	1462.75
396.576	1475.75
396.801	1430.75
397.025	1485.75
397.249	1487.75
397.474	1542.75
397.698	1495.75
397.922	1513.75
398.147	1543.75
398.371	1553.75
398.595	1618.75
398.82	1672.75
399.044	1761.75
399.268	1886.75
399.492	2109.75
399.717	2256.75
399.941	2304.75
400.165	2166.75
400.389	2013.75
400.613	1857.75
400.837	1830.75
401.062	1778.75
401.286	1704.75
401.51	1724.75
401.734	1664.75
401.958	1680.75
402.182	1704.75
402.406	1709.75
402.63	1714.75
402.854	1742.75
403.078	1755.75
403.302	1801.75
403.526	1786.75
403.75	1779.75
403.974	1854.75
404.198	1817.75
404.422	1850.75
404.645	1814.75
404.869	1783.75
405.093	1794.75
405.317	1802.75
405.541	1821.75
405.765	1816.75
405.988	1817.75
406.212	1853.75
406.436	1876.75
406.66	1887.75
406.883	1919.75
407.107	1990.75
407.331	2046.75
407.555	2090.75
407.778	2120.75
408.002	2081.75
408.226	2013.75
408.449	1992.75
408.673	1920.75
408.896	1925.75
409.12	1819.75
409.344	1894.75
409.567	1858.75
409.791	1875.75
410.014	1848.75
410.238	1813.75
410.461	1829.75
410.685	1766.75
410.908	1817.75
411.132	1790.75
411.355	1718.75
411.578	1741.75
411.802	1741.75
412.025	1759.75
412.249	1763.75
412.472	1739.75
412.695	1750.75
412.919	1686.75
413.142	1679.75
413.365	1641.75
413.589	1726.75
413.812	1654.75
414.035	1635.75
414.258	1692.75
414.482	1708.75
414.705	1674.75
414.928	1699.75
415.151	1662.75
415.374	1666.75
415.597	1626.75
415.821	1607.75
416.044	1586.75
416.267	1637.75
416.49	1597.75
416.713	1572.75
416.936	1632.75
417.159	1611.75
417.382	1588.75
417.605	1635.75
417.828	1593.75
418.051	1650.75
418.274	1644.75
418.497	1592.75
418.72	1624.75
418.943	1638.75
419.166	1752.75
419.389	1818.75
419.611	1849.75
419.834	1748.75
420.057	1696.75
420.28	1672.75
420.503	1616.75
420.726	1549.75
420.948	1632.75
421.171	1590.75
421.394	1595.75
421.617	1590.75
421.839	1603.75
422.062	1608.75
422.285	1603.75
422.507	1597.75
422.73	1627.75
422.953	1666.75
423.175	1646.75
423.398	1684.75
423.621	1650.75
423.843	1667.75
424.066	1647.75
424.288	1650.75
424.511	1639.75
424.733	1615.75
424.956	1601.75
425.178	1604.75
425.401	1597.75
425.623	1635.75
425.846	1558.75
426.068	1600.75
426.291	1542.75
426.513	1556.75
426.735	1533.75
426.958	1564.75
427.18	1506.75
427.402	1507.75
427.625	1508.75
427.847	1485.75
428.069	1440.75
428.292	1523.75
428.514	1506.75
428.736	1467.75
428.958	1482.75
429.181	1429.75
429.403	1467.75
429.625	1482.75
429.847	1449.75
430.069	1461.75
430.292	1448.75
430.514	1416.75
430.736	1466.75
430.958	1412.75
431.18	1477.75
431.402	1493.75
431.624	1462.75
431.846	1470.75
432.068	1482.75
432.29	1527.75
432.512	1484.75
432.734	1472.75
432.956	1493.75
433.178	1468.75
433.4	1499.75
433.622	1519.75
433.844	1534.75
434.066	1514.75
434.287	1568.75
434.509	1621.75
434.731	1611.75
434.953	1631.75
435.175	1651.75
435.397	1644.75
435.618	1559.75
435.84	1548.75
436.062	1504.75
436.284	1496.75
436.505	1468.75
436.727	1461.75
436.949	1487.75
437.17	1449.75
437.392	1453.75
437.614	1424.75
437.835	1417.75
438.057	1406.75
438.278	1390.75
438.5	1418.75
438.721	1411.75
438.943	1435.75
439.165	1427.75
439.386	1423.75
439.608	1474.75
439.829	1461.75
440.05	1420.75
440.272	1456.75
440.493	1423.75
440.715	1460.75
440.936	1496.75
441.158	1503.75
441.379	1561.75
441.6	1610.75
441.822	1607.75
442.043	1610.75
442.264	1606.75
442.486	1566.75
442.707	1584.75
442.928	1578.75
443.149	1594.75
443.371	1552.75
443.592	1560.75
443.813	1602.75
444.034	1586.75
444.255	1680.75
444.476	1680.75
444.698	1767.75
444.919	1834.75
445.14	1910.75
445.361	1754.75
445.582	1675.75
445.803	1592.75
446.024	1505.75
446.245	1560.75
446.466	1488.75
446.687	1475.75
446.908	1488.75
447.129	1426.75
447.35	1453.75
447.571	1395.75
447.792	1327.75
448.013	1358.75
448.234	1342.75
448.455	1360.75
448.675	1337.75
448.896	1330.75
449.117	1308.75
449.338	1300.75
449.559	1300.75
449.779	1289.75
450	1270.75
450.221	1317.75
450.442	1313.75
450.662	1302.75
450.883	1321.75
451.104	1344.75
451.324	1328.75
451.545	1315.75
451.766	1300.75
451.986	1296.75
452.207	1271.75
452.428	1304.75
452.648	1297.75
452.869	1240.75
453.089	1234.75
453.31	1286.75
453.53	1243.75
453.751	1257.75
453.971	1230.75
454.192	1269.75
454.412	1243.75
454.633	1247.75
454.853	1240.75
455.073	1240.75
455.294	1245.75
455.514	1231.75
455.734	1252.75
455.955	1236.75
456.175	1238.75
456.395	1218.75
456.616	1257.75
456.836	1232.75
457.056	1228.75
457.276	1214.75
457.497	1287.75
457.717	1215.75
457.937	1246.75
458.157	1299.75
458.377	1346.75
458.598	1298.75
458.818	1350.75
459.038	1382.75
459.258	1398.75
459.478	1453.75
459.698	1443.75
459.918	1500.75
460.138	1562.75
460.358	1642.75
460.578	1647.75
460.798	1670.75
461.018	1658.75
461.238	1633.75
461.458	1660.75
461.678	1640.75
461.898	1677.75
462.118	1694.75
462.338	1790.75
462.558	1807.75
462.777	1878.75
462.997	1971.75
463.217	2081.75
463.437	2135.75
463.657	1970.75
463.876	1953.75
464.096	1902.75
464.316	1906.75
464.536	1887.75
464.755	1870.75
464.975	1803.75
465.195	1742.75
465.414	1664.75
465.634	1574.75
465.854	1529.75
466.073	1494.75
466.293	1464.75
466.512	1404.75
466.732	1402.75
466.951	1376.75
467.171	1420.75
467.391	1398.75
467.61	1398.75
467.829	1337.75
468.049	1363.75
468.268	1309.75
468.488	1324.75
468.707	1342.75
468.927	1340.75
469.146	1359.75
469.365	1348.75
469.585	1347.75
469.804	1394.75
470.023	1412.75
470.243	1388.75
470.462	1391.75
470.681	1411.75
470.901	1430.75
471.12	1397.75
471.339	1434.75
471.558	1373.75
471.777	1365.75
471.997	1371.75
472.216	1390.75
472.435	1333.75
472.654	1312.75
472.873	1327.75
473.092	1333.75
473.311	1335.75
473.53	1332.75
473.749	1342.75
473.968	1291.75
474.187	1291.75
474.406	1332.75
474.625	1311.75
474.844	1311.75
475.063	1330.75
475.282	1354.75
475.501	1324.75
475.72	1351.75
475.939	1362.75
476.158	1346.75
476.377	1382.75
476.596	1372.75
476.814	1430.75
477.033	1420.75
477.252	1414.75
477.471	1458.75
477.69	1468.75
477.908	1534.75
478.127	1575.75
478.346	1544.75
478.564	1581.75
478.783	1606.75
479.002	1656.75
479.22	1638.75
479.439	1634.75
479.658	1626.75
479.876	1638.75
480.095	1681.75
480.313	1720.75
480.532	1758.75
480.751	1746.75
480.969	1716.75
481.188	1659.75
481.406	1647.75
481.624	1636.75
481.843	1598.75
482.061	1577.75
482.28	1595.75
482.498	1593.75
482.717	1579.75
482.935	1628.75
483.153	1583.75
483.372	1620.75
483.59	1627.75
483.808	1617.75
484.027	1632.75
484.245	1659.75
484.463	1645.75
484.681	1714.75
484.9	1702.75
485.118	1691.75
485.336	1692.75
485.554	1749.75
485.772	1718.75
485.99	1709.75
486.209	1746.75
486.427	1732.75
486.645	1701.75
486.863	1758.75
487.081	1716.75
487.299	1715.75
487.517	1680.75
487.735	1694.75
487.953	1706.75
488.171	1682.75
488.389	1664.75
488.607	1670.75
488.825	1643.75
489.043	1652.75
489.261	1637.75
489.479	1660.75
489.696	1656.75
489.914	1634.75
490.132	1622.75
490.35	1674.75
490.568	1650.75
490.786	1663.75
491.003	1646.75
491.221	1652.75
491.439	1654.75
491.657	1652.75
491.874	1630.75
492.092	1661.75
492.31	1654.75
492.527	1652.75
492.745	1690.75
492.963	1631.75
493.18	1653.75
493.398	1691.75
493.615	1661.75
493.833	1676.75
494.05	1703.75
494.268	1715.75
494.485	1654.75
494.703	1674.75
494.92	1692.75
495.138	1711.75
495.355	1698.75
495.573	1734.75
495.79	1686.75
496.008	1727.75
496.225	1678.75
496.442	1752.75
496.66	1784.75
496.877	1794.75
497.094	1798.75
497.312	1829.75
497.529	1878.75
497.746	1935.75
497.963	1970.75
498.181	2048.75
498.398	2116.75
498.615	2250.75
498.832	2406.75
499.049	2487.75
499.267	2620.75
499.484	2876.75
499.701	3232.75
499.918	3394.75
500.135	3708.75
500.352	4064.75
500.569	4202.75
500.786	4167.75
501.003	4012.75
501.22	3698.75
501.437	3370.75
501.654	3066.75
501.871	2854.75
502.088	2632.75
502.305	2482.75
502.522	2354.75
502.739	2255.75
502.956	2138.75
503.172	2088.75
503.389	1977.75
503.606	1948.75
503.823	1910.75
504.04	1922.75
504.256	1928.75
504.473	1883.75
504.69	1876.75
504.907	1855.75
505.123	1808.75
505.34	1703.75
505.557	1669.75
505.773	1607.75
505.99	1570.75
506.207	1547.75
506.423	1540.75
506.64	1515.75
506.856	1474.75
507.073	1484.75
507.289	1442.75
507.506	1450.75
507.722	1465.75
507.939	1426.75
508.155	1400.75
508.372	1401.75
508.588	1387.75
508.805	1441.75
509.021	1392.75
509.238	1379.75
509.454	1340.75
509.67	1347.75
509.887	1343.75
510.103	1321.75
510.319	1326.75
510.536	1338.75
510.752	1320.75
510.968	1314.75
511.184	1323.75
511.401	1337.75
511.617	1296.75
511.833	1350.75
512.049	1297.75
512.265	1307.75
512.481	1309.75
512.698	1295.75
512.914	1308.75
513.13	1297.75
513.346	1318.75
513.562	1300.75
513.778	1325.75
513.994	1319.75
514.21	1323.75
514.426	1313.75
514.642	1318.75
514.858	1331.75
515.074	1335.75
515.29	1347.75
515.506	1404.75
515.721	1405.75
515.937	1418.75
516.153	1405.75
516.369	1418.75
516.585	1491.75
516.801	1488.75
517.016	1550.75
517.232	1608.75
517.448	1673.75
517.664	1730.75
517.879	1709.75
518.095	1728.75
518.311	1705.75
518.527	1669.75
518.742	1623.75
518.958	1555.75
519.173	1548.75
519.389	1487.75
519.605	1431.75
519.82	1421.75
520.036	1377.75
520.251	1367.75
520.467	1295.75
520.682	1308.75
520.898	1286.75
521.113	1320.75
521.329	1282.75
521.544	1253.75
521.76	1260.75
521.975	1229.75
522.19	1250.75
522.406	1243.75
522.621	1188.75
522.836	1246.75
523.052	1221.75
523.267	1228.75
523.482	1221.75
523.698	1226.75
523.913	1190.75
524.128	1163.75
524.343	1182.75
524.559	1209.75
524.774	1180.75
524.989	1179.75
525.204	1165.75
525.419	1187.75
525.634	1170.75
525.849	1180.75
526.064	1182.75
526.28	1151.75
526.495	1152.75
526.71	1186.75
526.925	1182.75
527.14	1152.75
527.355	1149.75
527.57	1148.75
527.785	1150.75
527.999	1140.75
528.214	1140.75
528.429	1161.75
528.644	1170.75
528.859	1147.75
529.074	1152.75
529.289	1134.75
529.503	1154.75
529.718	1131.75
529.933	1153.75
530.148	1126.75
530.363	1121.75
530.577	1123.75
530.792	1156.75
531.007	1134.75
531.221	1124.75
531.436	1133.75
531.651	1139.75
531.865	1160.75
532.08	1158.75
532.295	1126.75
532.509	1155.75
532.724	1119.75
532.938	1152.75
533.153	1169.75
533.367	1159.75
533.582	1168.75
533.796	1133.75
534.011	1138.75
534.225	1146.75
534.44	1120.75
534.654	1130.75
534.868	1117.75
535.083	1124.75
535.297	1116.75
535.511	1086.75
535.726	1106.75
535.94	1093.75
536.154	1066.75
536.369	1086.75
536.583	1072.75
536.797	1084.75
537.011	1083.75
537.225	1071.75
537.44	1028.75
537.654	1034.75
537.868	1047.75
538.082	1044.75
538.296	1048.75
538.51	1039.75
538.724	1035.75
538.938	1020.75
539.153	1062.75
539.367	1025.75
539.581	1031.75
539.795	996.75
540.009	1000.75
540.222	1013.75
540.436	1029.75
540.65	991.75
540.864	1023.75
541.078	1032.75
541.292	1030.75
541.506	1011.75
541.72	1034.75
541.934	1007.75
542.147	1056.75
542.361	1010.75
542.575	1012.75
542.789	988.75
543.002	999.75
543.216	1004.75
543.43	1038.75
543.644	980.75
543.857	986.75
544.071	1019.75
544.285	1014.75
544.498	1010.75
544.712	999.75
544.925	1005.75
545.139	1023.75
545.352	1035.75
545.566	1006.75
545.779	1022.75
545.993	1018.75
546.206	1027.75
546.42	1004.75
546.633	1016.75
546.847	1040.75
547.06	1007.75
547.274	1027.75
547.487	1049.75
547.7	996.75
547.914	1029.75
548.127	1012.75
548.34	1061.75
548.554	1020.75
548.767	1053.75
548.98	1062.75
549.193	1046.75
549.407	1047.75
549.62	1057.75
549.833	1035.75
550.046	1046.75
550.259	1055.75
550.473	1041.75
550.686	1049.75
550.899	1001.75
551.112	991.75
551.325	1005.75
551.538	1024.75
551.751	1028.75
551.964	994.75
552.177	1027.75
552.39	1055.75
552.603	1054.75
552.816	1082.75
553.029	1078.75
553.242	1095.75
553.455	1116.75
553.667	1114.75
553.88	1108.75
554.093	1094.75
554.306	1047.75
554.519	1007.75
554.732	1028.75
554.944	979.75
555.157	992.75
555.37	975.75
555.583	950.75
555.795	900.75
556.008	914.75
556.221	910.75
556.433	921.75
556.646	898.75
556.859	921.75
557.071	887.75
557.284	870.75
557.496	888.75
557.709	898.75
557.921	892.75
558.134	872.75
558.346	886.75
558.559	866.75
558.771	891.75
558.984	844.75
559.196	875.75
559.409	868.75
559.621	877.75
559.833	851.75
560.046	850.75
560.258	847.75
560.47	859.75
560.683	824.75
560.895	832.75
561.107	808.75
561.32	848.75
561.532	840.75
561.744	823.75
561.956	854.75
562.168	850.75
562.381	835.75
562.593	838.75
562.805	851.75
563.017	859.75
563.229	861.75
563.441	859.75
563.653	874.75
563.865	867.75
564.077	884.75
564.289	908.75
564.501	920.75
564.713	943.75
564.925	942.75
565.137	952.75
565.349	955.75
565.561	989.75
565.773	1044.75
565.985	1048.75
566.197	1069.75
566.408	1164.75
566.62	1225.75
566.832	1278.75
567.044	1318.75
567.255	1333.75
567.467	1344.75
567.679	1407.75
567.891	1467.75
568.102	1472.75
568.314	1400.75
568.526	1278.75
568.737	1186.75
568.949	1129.75
569.161	1067.75
569.372	1010.75
569.584	954.75
569.795	935.75
570.007	916.75
570.218	855.75
570.43	875.75
570.641	847.75
570.853	870.75
571.064	867.75
571.276	834.75
571.487	842.75
571.698	805.75
571.91	794.75
572.121	785.75
572.333	763.75
572.544	755.75
572.755	724.75
572.966	727.75
573.178	740.75
573.389	712.75
573.6	710.75
573.811	706.75
574.023	694.75
574.234	707.75
574.445	684.75
574.656	691.75
574.867	707.75
575.078	680.75
575.289	684.75
575.501	695.75
575.712	651.75
575.923	655.75
576.134	646.75
576.345	662.75
576.556	662.75
576.767	668.75
576.978	644.75
577.188	652.75
577.399	632.75
577.61	642.75
577.821	624.75
578.032	621.75
578.243	621.75
578.454	632.75
578.665	625.75
578.875	620.75
579.086	623.75
579.297	604.75
579.508	607.75
579.718	604.75
579.929	620.75
580.14	605.75
580.35	590.75
580.561	584.75
580.772	616.75
580.982	598.75
581.193	607.75
581.403	599.75
581.614	580.75
581.825	598.75
582.035	589.75
582.246	589.75
582.456	598.75
582.667	585.75
582.877	580.75
583.087	573.75
583.298	592.75
583.508	585.75
583.719	594.75
583.929	603.75
584.139	574.75
584.35	550.75
584.56	568.75
584.77	556.75
584.981	552.75
585.191	568.75
585.401	549.75
585.611	559.75
585.821	550.75
586.032	565.75
586.242	549.75
586.452	567.75
586.662	558.75
586.872	541.75
587.082	562.75
587.292	562.75
587.502	567.75
587.713	538.75
587.923	569.75
588.133	543.75
588.343	556.75
588.553	564.75
588.762	545.75
588.972	571.75
589.182	582.75
589.392	562.75
589.602	543.75
589.812	536.75
590.022	552.75
590.232	554.75
590.441	556.75
590.651	579.75
590.861	563.75
591.071	559.75
591.281	574.75
591.49	575.75
591.7	576.75
591.91	596.75
592.119	591.75
592.329	613.75
592.539	634.75
592.748	630.75
592.958	647.75
593.167	631.75
593.377	656.75
593.587	682.75
593.796	668.75
594.006	670.75
594.215	664.75
594.424	674.75
594.634	662.75
594.843	651.75
595.053	635.75
595.262	624.75
595.472	587.75
595.681	568.75
595.89	566.75
596.1	554.75
596.309	550.75
596.518	542.75
596.727	525.75
596.937	542.75
597.146	539.75
597.355	491.75
597.564	506.75
597.774	486.75
597.983	496.75
598.192	499.75
598.401	490.75
598.61	488.75
598.819	484.75
599.028	473.75
599.237	466.75
599.446	482.75
599.655	466.75
599.864	467.75
600.073	452.75
600.282	459.75
600.491	470.75
600.7	474.75
600.909	454.75
601.118	454.75
601.327	442.75
601.536	449.75
601.745	475.75
601.953	441.75
602.162	455.75
602.371	434.75
602.58	430.75
602.789	427.75
602.997	430.75
603.206	451.75
603.415	425.75
603.623	428.75
603.832	418.75
604.041	435.75
604.249	428.75
604.458	411.75
604.666	417.75
604.875	421.75
605.084	413.75
605.292	435.75
605.501	431.75
605.709	430.75
605.918	397.75
606.126	413.75
606.334	424.75
606.543	426.75
606.751	442.75
606.96	418.75
607.168	396.75
607.376	413.75
607.585	402.75
607.793	403.75
608.001	422.75
608.21	404.75
608.418	412.75
608.626	386.75
608.834	414.75
609.043	398.75
609.251	396.75
609.459	395.75
609.667	406.75
609.875	390.75
610.083	407.75
610.291	395.75
610.499	397.75
610.707	394.75
610.916	392.75
611.124	396.75
611.332	407.75
611.54	383.75
611.748	406.75
611.955	402.75
612.163	407.75
612.371	379.75
612.579	394.75
612.787	394.75
612.995	379.75
613.203	394.75
613.411	384.75
613.618	395.75
613.826	379.75
614.034	375.75
614.242	389.75
614.449	384.75
614.657	373.75
614.865	373.75
615.072	381.75
615.28	376.75
615.488	402.75
615.695	391.75
615.903	378.75
616.111	393.75
616.318	410.75
616.526	406.75
616.733	378.75
616.941	408.75
617.148	400.75
617.356	381.75
617.563	381.75
617.771	399.75
617.978	388.75
618.185	384.75
618.393	378.75
618.6	379.75
618.807	389.75
619.015	393.75
619.222	384.75
619.429	376.75
619.637	382.75
619.844	365.75
620.051	386.75
620.258	362.75
620.466	361.75
620.673	356.75
620.88	355.75
621.087	352.75
621.294	343.75
621.501	364.75
621.708	357.75
621.915	359.75
622.122	348.75
622.329	345.75
622.536	364.75
622.743	376.75
622.95	352.75
623.157	356.75
623.364	370.75
623.571	344.75
623.778	342.75
623.985	346.75
624.192	350.75
624.399	362.75
624.606	349.75
624.812	333.75
625.019	364.75
625.226	334.75
625.433	331.75
625.639	319.75
625.846	326.75
626.053	314.75
626.259	338.75
626.466	326.75
626.673	321.75
626.879	329.75
627.086	326.75
627.293	324.75
627.499	308.75
627.706	353.75
627.912	334.75
628.119	316.75
628.325	314.75
628.532	328.75
628.738	322.75
628.945	314.75
629.151	318.75
629.357	316.75
629.564	304.75
629.77	328.75
629.976	308.75
630.183	289.75
630.389	307.75
630.595	309.75
630.802	303.75
631.008	304.75
631.214	290.75
631.42	306.75
631.627	303.75
631.833	302.75
632.039	302.75
632.245	288.75
632.451	285.75
632.657	299.75
632.863	289.75
633.069	300.75
633.275	297.75
633.481	295.75
633.688	295.75
633.893	283.75
634.099	298.75
634.305	301.75
634.511	291.75
634.717	295.75
634.923	280.75
635.129	286.75
635.335	275.75
635.541	294.75
635.747	286.75
635.952	287.75
636.158	275.75
636.364	300.75
636.57	272.75
636.775	297.75
636.981	299.75
637.187	248.75
637.392	272.75
637.598	279.75
637.804	293.75
638.009	293.75
638.215	268.75
638.421	277.75
638.626	266.75
638.832	280.75
639.037	290.75
639.243	276.75
639.448	264.75
639.654	262.75
639.859	273.75
640.065	271.75
640.27	270.75
640.475	270.75
640.681	265.75
640.886	259.75
641.091	271.75
641.297	243.75
641.502	279.75
641.707	272.75
641.913	255.75
642.118	260.75
642.323	252.75
642.528	262.75
642.733	276.75
642.939	263.75
643.144	252.75
643.349	258.75
643.554	252.75
643.759	248.75
643.964	256.75
644.169	250.75
644.374	248.75
644.579	261.75
644.784	268.75
644.989	263.75
645.194	265.75
645.399	270.75
645.604	253.75
645.809	254.75
646.014	258.75
646.219	263.75
646.423	274.75
646.628	268.75
646.833	258.75
647.038	271.75
647.243	274.75
647.447	245.75
647.652	280.75
647.857	296.75
648.062	280.75
648.266	278.75
648.471	278.75
648.676	301.75
648.88	272.75
649.085	293.75
649.289	290.75
649.494	270.75
649.698	273.75
649.903	281.75
650.107	263.75
650.312	261.75
650.516	286.75
650.721	262.75
650.925	269.75
651.13	267.75
651.334	260.75
651.539	260.75
651.743	266.75
651.947	238.75
652.152	239.75
652.356	272.75
652.56	237.75
652.764	253.75
652.969	268.75
653.173	255.75
653.377	260.75
653.581	244.75
653.785	242.75
653.99	249.75
654.194	246.75
654.398	232.75
654.602	233.75
654.806	239.75
655.01	247.75
655.214	280.75
655.418	265.75
655.622	288.75
655.826	297.75
656.03	291.75
656.234	343.75
656.438	349.75
656.642	356.75
656.846	344.75
657.049	307.75
657.253	264.75
657.457	230.75
657.661	213.75
657.865	191.75
658.068	186.75
658.272	173.75
658.476	172.75
658.68	162.75
658.883	151.75
659.087	146.75
659.291	160.75
659.494	138.75
659.698	124.75
659.901	127.75
660.105	128.75
660.309	121.75
660.512	111.75
660.716	119.75
660.919	111.75
661.123	107.75
661.326	112.75
661.53	91.75
661.733	99.75
661.936	104.75
662.14	87.75
662.343	100.75
662.546	104.75
662.75	85.75
662.953	91.75
663.156	96.75
663.36	89.75
663.563	92.75
663.766	86.75
663.969	91.75
664.173	95.75
664.376	83.75
664.579	93.75
664.782	83.75
664.985	91.75
665.188	90.75
665.391	95.75
665.594	90.75
665.797	76.75
666	86.75
666.203	75.75
666.406	73.75
666.609	93.75
666.812	89.75
667.015	81.75
667.218	75.75
667.421	89.75
667.624	99.75
667.827	78.75
668.03	87.75
668.232	78.75
668.435	77.75
668.638	81.75
668.841	93.75
669.043	93.75
669.246	88.75
669.449	88.75
669.651	82.75
669.854	73.75
670.057	85.75
670.259	84.75
670.462	91.75
670.665	79.75
670.867	72.75
671.07	87.75
671.272	92.75
671.475	74.75
671.677	93.75
671.88	84.75
672.082	85.75
672.284	83.75
672.487	93.75
672.689	83.75
672.892	93.75
