Data from NiCl2@0.25M.TitratingCurve.Agarose3%dH2O.NegLispCup.LampEnergy10.LIBS07252019_HRD10591_18-26-02-573.txt Node
Date: Thu Jul 25 18:26:02 EDT 2019
User: cochatt
Spectrometer: HR+D1059
Trigger mode: 1
Integration Time (sec): 1.000000E-1
Scans to average: 1
Electric dark correction enabled: true
Nonlinearity correction enabled: false
Boxcar width: 0
XAxis mode: Wavelengths
Number of Pixels in Spectrum: 2048
>>>>>Begin Spectral Data<<<<<
223.165	-19.62
223.4	-19.62
223.635	-19.62
223.869	-15.62
224.104	-17.62
224.338	-17.62
224.573	-15.62
224.808	-27.62
225.042	-5.62
225.277	-1.62
225.511	-4.62
225.746	10.38
225.98	3.38
226.215	14.38
226.449	12.38
226.683	21.38
226.918	20.38
227.152	43.38
227.387	23.38
227.621	40.38
227.856	42.38
228.09	56.38
228.324	60.38
228.559	60.38
228.793	72.38
229.027	89.38
229.262	99.38
229.496	106.38
229.73	117.38
229.964	128.38
230.199	121.38
230.433	132.38
230.667	122.38
230.901	136.38
231.136	143.38
231.37	136.38
231.604	133.38
231.838	144.38
232.072	142.38
232.306	136.38
232.541	150.38
232.775	138.38
233.009	142.38
233.243	142.38
233.477	147.38
233.711	147.38
233.945	135.38
234.179	151.38
234.413	139.38
234.647	130.38
234.881	149.38
235.115	146.38
235.349	148.38
235.583	137.38
235.817	151.38
236.051	136.38
236.285	131.38
236.519	154.38
236.753	158.38
236.987	164.38
237.221	150.38
237.455	163.38
237.689	159.38
237.922	162.38
238.156	158.38
238.39	166.38
238.624	163.38
238.858	184.38
239.091	169.38
239.325	177.38
239.559	178.38
239.793	148.38
240.027	174.38
240.26	177.38
240.494	182.38
240.728	184.38
240.961	196.38
241.195	186.38
241.429	187.38
241.662	185.38
241.896	201.38
242.13	189.38
242.363	200.38
242.597	183.38
242.83	173.38
243.064	189.38
243.298	198.38
243.531	192.38
243.765	200.38
243.998	194.38
244.232	212.38
244.465	213.38
244.699	205.38
244.932	203.38
245.166	198.38
245.399	215.38
245.633	218.38
245.866	213.38
246.099	203.38
246.333	233.38
246.566	206.38
246.8	218.38
247.033	228.38
247.266	235.38
247.5	205.38
247.733	210.38
247.966	240.38
248.2	220.38
248.433	221.38
248.666	219.38
248.899	224.38
249.133	235.38
249.366	245.38
249.599	240.38
249.832	235.38
250.066	232.38
250.299	233.38
250.532	233.38
250.765	238.38
250.998	248.38
251.231	239.38
251.465	265.38
251.698	247.38
251.931	231.38
252.164	270.38
252.397	264.38
252.63	254.38
252.863	271.38
253.096	260.38
253.329	256.38
253.562	248.38
253.795	265.38
254.028	263.38
254.261	254.38
254.494	270.38
254.727	273.38
254.96	285.38
255.193	280.38
255.426	276.38
255.659	273.38
255.892	273.38
256.124	288.38
256.357	278.38
256.59	294.38
256.823	261.38
257.056	274.38
257.289	277.38
257.521	318.38
257.754	280.38
257.987	265.38
258.22	307.38
258.452	283.38
258.685	290.38
258.918	282.38
259.151	292.38
259.383	308.38
259.616	291.38
259.849	303.38
260.081	297.38
260.314	296.38
260.547	306.38
260.779	304.38
261.012	314.38
261.244	325.38
261.477	309.38
261.71	310.38
261.942	320.38
262.175	317.38
262.407	309.38
262.64	310.38
262.872	317.38
263.105	310.38
263.337	338.38
263.57	324.38
263.802	316.38
264.035	322.38
264.267	328.38
264.499	304.38
264.732	310.38
264.964	336.38
265.197	334.38
265.429	328.38
265.661	343.38
265.894	321.38
266.126	350.38
266.358	328.38
266.591	337.38
266.823	334.38
267.055	323.38
267.287	350.38
267.52	343.38
267.752	335.38
267.984	347.38
268.216	355.38
268.448	375.38
268.681	382.38
268.913	340.38
269.145	349.38
269.377	362.38
269.609	360.38
269.841	354.38
270.073	339.38
270.306	349.38
270.538	368.38
270.77	355.38
271.002	356.38
271.234	368.38
271.466	365.38
271.698	356.38
271.93	373.38
272.162	370.38
272.394	361.38
272.626	368.38
272.858	368.38
273.09	380.38
273.322	387.38
273.553	388.38
273.785	373.38
274.017	379.38
274.249	386.38
274.481	392.38
274.713	388.38
274.945	380.38
275.176	404.38
275.408	405.38
275.64	417.38
275.872	414.38
276.104	406.38
276.335	395.38
276.567	384.38
276.799	421.38
277.031	396.38
277.262	403.38
277.494	406.38
277.726	421.38
277.957	427.38
278.189	413.38
278.421	403.38
278.652	393.38
278.884	412.38
279.115	424.38
279.347	417.38
279.579	414.38
279.81	423.38
280.042	428.38
280.273	431.38
280.505	428.38
280.736	423.38
280.968	421.38
281.199	427.38
281.431	429.38
281.662	429.38
281.894	450.38
282.125	432.38
282.356	443.38
282.588	451.38
282.819	426.38
283.051	450.38
283.282	432.38
283.513	462.38
283.745	467.38
283.976	464.38
284.207	451.38
284.439	461.38
284.67	451.38
284.901	446.38
285.132	469.38
285.364	456.38
285.595	474.38
285.826	479.38
286.057	461.38
286.288	465.38
286.52	465.38
286.751	474.38
286.982	500.38
287.213	476.38
287.444	495.38
287.675	449.38
287.906	482.38
288.138	483.38
288.369	493.38
288.6	497.38
288.831	500.38
289.062	483.38
289.293	485.38
289.524	493.38
289.755	488.38
289.986	488.38
290.217	501.38
290.448	498.38
290.679	520.38
290.91	513.38
291.141	507.38
291.371	501.38
291.602	510.38
291.833	500.38
292.064	517.38
292.295	499.38
292.526	492.38
292.757	485.38
292.987	503.38
293.218	503.38
293.449	513.38
293.68	512.38
293.91	517.38
294.141	501.38
294.372	529.38
294.603	520.38
294.833	528.38
295.064	528.38
295.295	512.38
295.525	505.38
295.756	517.38
295.987	528.38
296.217	504.38
296.448	520.38
296.679	502.38
296.909	521.38
297.14	530.38
297.37	545.38
297.601	536.38
297.831	534.38
298.062	528.38
298.292	560.38
298.523	562.38
298.753	549.38
298.984	539.38
299.214	547.38
299.445	527.38
299.675	532.38
299.905	541.38
300.136	552.38
300.366	555.38
300.597	531.38
300.827	567.38
301.057	584.38
301.288	596.38
301.518	584.38
301.748	596.38
301.979	593.38
302.209	589.38
302.439	562.38
302.669	562.38
302.9	570.38
303.13	564.38
303.36	561.38
303.59	569.38
303.82	550.38
304.051	562.38
304.281	553.38
304.511	564.38
304.741	560.38
304.971	568.38
305.201	577.38
305.431	550.38
305.661	555.38
305.891	560.38
306.121	563.38
306.352	568.38
306.582	546.38
306.812	538.38
307.042	561.38
307.272	555.38
307.502	566.38
307.731	556.38
307.961	551.38
308.191	550.38
308.421	548.38
308.651	548.38
308.881	551.38
309.111	531.38
309.341	546.38
309.571	564.38
309.8	561.38
310.03	550.38
310.26	561.38
310.49	548.38
310.72	584.38
310.949	577.38
311.179	562.38
311.409	576.38
311.639	590.38
311.868	570.38
312.098	592.38
312.328	571.38
312.557	588.38
312.787	579.38
313.017	583.38
313.246	617.38
313.476	589.38
313.706	602.38
313.935	596.38
314.165	621.38
314.394	617.38
314.624	601.38
314.853	593.38
315.083	617.38
315.312	610.38
315.542	599.38
315.771	608.38
316.001	598.38
316.23	605.38
316.46	598.38
316.689	594.38
316.919	599.38
317.148	619.38
317.377	598.38
317.607	590.38
317.836	581.38
318.065	605.38
318.295	592.38
318.524	603.38
318.753	582.38
318.983	587.38
319.212	576.38
319.441	588.38
319.67	573.38
319.9	569.38
320.129	616.38
320.358	626.38
320.587	593.38
320.816	601.38
321.046	572.38
321.275	585.38
321.504	605.38
321.733	602.38
321.962	589.38
322.191	609.38
322.42	636.38
322.649	596.38
322.878	603.38
323.108	620.38
323.337	599.38
323.566	602.38
323.795	597.38
324.024	622.38
324.253	601.38
324.482	616.38
324.71	615.38
324.939	615.38
325.168	613.38
325.397	616.38
325.626	642.38
325.855	634.38
326.084	654.38
326.313	664.38
326.542	632.38
326.77	641.38
326.999	621.38
327.228	622.38
327.457	649.38
327.686	636.38
327.914	647.38
328.143	669.38
328.372	661.38
328.6	662.38
328.829	668.38
329.058	652.38
329.287	649.38
329.515	661.38
329.744	666.38
329.972	644.38
330.201	662.38
330.43	654.38
330.658	673.38
330.887	705.38
331.115	694.38
331.344	667.38
331.572	699.38
331.801	701.38
332.03	723.38
332.258	746.38
332.486	733.38
332.715	758.38
332.943	768.38
333.172	829.38
333.4	853.38
333.629	869.38
333.857	872.38
334.085	852.38
334.314	854.38
334.542	849.38
334.771	819.38
334.999	804.38
335.227	821.38
335.455	830.38
335.684	803.38
335.912	802.38
336.14	789.38
336.369	801.38
336.597	793.38
336.825	778.38
337.053	761.38
337.281	773.38
337.51	766.38
337.738	768.38
337.966	743.38
338.194	758.38
338.422	718.38
338.65	726.38
338.878	709.38
339.106	713.38
339.334	702.38
339.562	714.38
339.79	682.38
340.018	695.38
340.246	688.38
340.474	694.38
340.702	704.38
340.93	692.38
341.158	690.38
341.386	704.38
341.614	691.38
341.842	690.38
342.07	704.38
342.298	695.38
342.526	650.38
342.754	676.38
342.981	665.38
343.209	711.38
343.437	729.38
343.665	747.38
343.893	822.38
344.12	851.38
344.348	816.38
344.576	762.38
344.804	764.38
345.031	718.38
345.259	699.38
345.487	690.38
345.714	662.38
345.942	705.38
346.17	676.38
346.397	685.38
346.625	645.38
346.853	647.38
347.08	674.38
347.308	644.38
347.535	690.38
347.763	686.38
347.99	652.38
348.218	662.38
348.445	680.38
348.673	660.38
348.9	685.38
349.128	661.38
349.355	682.38
349.583	669.38
349.81	665.38
350.037	665.38
350.265	646.38
350.492	641.38
350.72	632.38
350.947	636.38
351.174	640.38
351.402	640.38
351.629	639.38
351.856	641.38
352.083	645.38
352.311	625.38
352.538	640.38
352.765	652.38
352.992	649.38
353.22	632.38
353.447	618.38
353.674	640.38
353.901	626.38
354.128	622.38
354.355	624.38
354.583	628.38
354.81	619.38
355.037	633.38
355.264	648.38
355.491	654.38
355.718	647.38
355.945	648.38
356.172	659.38
356.399	646.38
356.626	657.38
356.853	649.38
357.08	644.38
357.307	644.38
357.534	640.38
357.761	639.38
357.988	640.38
358.215	631.38
358.441	652.38
358.668	629.38
358.895	642.38
359.122	628.38
359.349	641.38
359.576	631.38
359.802	632.38
360.029	643.38
360.256	650.38
360.483	650.38
360.709	630.38
360.936	636.38
361.163	648.38
361.39	632.38
361.616	637.38
361.843	649.38
362.07	650.38
362.296	652.38
362.523	635.38
362.749	653.38
362.976	630.38
363.203	640.38
363.429	646.38
363.656	642.38
363.882	632.38
364.109	640.38
364.335	619.38
364.562	651.38
364.788	630.38
365.015	638.38
365.241	642.38
365.468	649.38
365.694	653.38
365.92	637.38
366.147	641.38
366.373	648.38
366.599	663.38
366.826	622.38
367.052	652.38
367.278	660.38
367.505	646.38
367.731	660.38
367.957	648.38
368.184	643.38
368.41	660.38
368.636	637.38
368.862	659.38
369.089	661.38
369.315	664.38
369.541	652.38
369.767	661.38
369.993	672.38
370.219	681.38
370.445	668.38
370.672	675.38
370.898	699.38
371.124	701.38
371.35	710.38
371.576	678.38
371.802	661.38
372.028	698.38
372.254	677.38
372.48	712.38
372.706	697.38
372.932	737.38
373.158	716.38
373.384	711.38
373.61	735.38
373.835	711.38
374.061	673.38
374.287	708.38
374.513	702.38
374.739	741.38
374.965	779.38
375.191	760.38
375.416	788.38
375.642	768.38
375.868	749.38
376.094	696.38
376.319	707.38
376.545	705.38
376.771	713.38
376.997	675.38
377.222	715.38
377.448	709.38
377.674	711.38
377.899	692.38
378.125	688.38
378.35	708.38
378.576	682.38
378.802	697.38
379.027	714.38
379.253	705.38
379.478	695.38
379.704	695.38
379.929	685.38
380.155	697.38
380.38	687.38
380.606	676.38
380.831	675.38
381.057	718.38
381.282	691.38
381.507	702.38
381.733	706.38
381.958	724.38
382.184	733.38
382.409	709.38
382.634	726.38
382.86	736.38
383.085	788.38
383.31	782.38
383.535	753.38
383.761	788.38
383.986	799.38
384.211	793.38
384.436	785.38
384.662	804.38
384.887	839.38
385.112	836.38
385.337	837.38
385.562	837.38
385.787	845.38
386.013	855.38
386.238	837.38
386.463	844.38
386.688	866.38
386.913	832.38
387.138	807.38
387.363	825.38
387.588	839.38
387.813	846.38
388.038	840.38
388.263	828.38
388.488	817.38
388.713	836.38
388.938	826.38
389.163	818.38
389.387	828.38
389.612	823.38
389.837	810.38
390.062	804.38
390.287	809.38
390.512	804.38
390.736	847.38
390.961	850.38
391.186	860.38
391.411	894.38
391.636	889.38
391.86	941.38
392.085	932.38
392.31	939.38
392.534	914.38
392.759	892.38
392.984	888.38
393.208	879.38
393.433	876.38
393.658	879.38
393.882	882.38
394.107	871.38
394.331	916.38
394.556	918.38
394.78	895.38
395.005	887.38
395.229	907.38
395.454	931.38
395.678	955.38
395.903	946.38
396.127	932.38
396.352	912.38
396.576	878.38
396.801	863.38
397.025	906.38
397.249	924.38
397.474	942.38
397.698	955.38
397.922	924.38
398.147	944.38
398.371	973.38
398.595	994.38
398.82	1039.38
399.044	1113.38
399.268	1218.38
399.492	1405.38
399.717	1568.38
399.941	1538.38
400.165	1406.38
400.389	1242.38
400.613	1177.38
400.837	1106.38
401.062	1077.38
401.286	1060.38
401.51	1051.38
401.734	1049.38
401.958	1065.38
402.182	1058.38
402.406	1086.38
402.63	1099.38
402.854	1126.38
403.078	1152.38
403.302	1166.38
403.526	1187.38
403.75	1187.38
403.974	1216.38
404.198	1180.38
404.422	1206.38
404.645	1219.38
404.869	1202.38
405.093	1177.38
405.317	1159.38
405.541	1167.38
405.765	1153.38
405.988	1156.38
406.212	1147.38
406.436	1130.38
406.66	1160.38
406.883	1178.38
407.107	1286.38
407.331	1295.38
407.555	1329.38
407.778	1359.38
408.002	1321.38
408.226	1274.38
408.449	1270.38
408.673	1195.38
408.896	1172.38
409.12	1172.38
409.344	1189.38
409.567	1191.38
409.791	1205.38
410.014	1164.38
410.238	1172.38
410.461	1140.38
410.685	1146.38
410.908	1113.38
411.132	1111.38
411.355	1104.38
411.578	1117.38
411.802	1079.38
412.025	1094.38
412.249	1108.38
412.472	1134.38
412.695	1097.38
412.919	1056.38
413.142	1036.38
413.365	1056.38
413.589	1048.38
413.812	1033.38
414.035	1028.38
414.258	1039.38
414.482	1073.38
414.705	1074.38
414.928	1077.38
415.151	1077.38
415.374	1023.38
415.597	1063.38
415.821	1019.38
416.044	1002.38
416.267	1032.38
416.49	1019.38
416.713	1029.38
416.936	1033.38
417.159	1024.38
417.382	1009.38
417.605	1003.38
417.828	1015.38
418.051	1050.38
418.274	1048.38
418.497	1055.38
418.72	1059.38
418.943	1052.38
419.166	1121.38
419.389	1185.38
419.611	1164.38
419.834	1109.38
420.057	1075.38
420.28	1051.38
420.503	1043.38
420.726	1016.38
420.948	1000.38
421.171	1034.38
421.394	1003.38
421.617	992.38
421.839	1061.38
422.062	1048.38
422.285	1019.38
422.507	1046.38
422.73	1040.38
422.953	1055.38
423.175	1068.38
423.398	1073.38
423.621	1078.38
423.843	1095.38
424.066	1116.38
424.288	1074.38
424.511	1102.38
424.733	1088.38
424.956	1030.38
425.178	1072.38
425.401	1037.38
425.623	1013.38
425.846	1020.38
426.068	1022.38
426.291	980.38
426.513	966.38
426.735	971.38
426.958	962.38
427.18	949.38
427.402	953.38
427.625	961.38
427.847	940.38
428.069	922.38
428.292	933.38
428.514	901.38
428.736	937.38
428.958	926.38
429.181	919.38
429.403	921.38
429.625	905.38
429.847	908.38
430.069	877.38
430.292	896.38
430.514	888.38
430.736	901.38
430.958	906.38
431.18	893.38
431.402	898.38
431.624	900.38
431.846	905.38
432.068	937.38
432.29	971.38
432.512	911.38
432.734	904.38
432.956	894.38
433.178	916.38
433.4	921.38
433.622	935.38
433.844	924.38
434.066	928.38
434.287	934.38
434.509	966.38
434.731	1006.38
434.953	1040.38
435.175	1022.38
435.397	1009.38
435.618	984.38
435.84	952.38
436.062	922.38
436.284	883.38
436.505	914.38
436.727	884.38
436.949	905.38
437.17	906.38
437.392	916.38
437.614	882.38
437.835	881.38
438.057	880.38
438.278	868.38
438.5	889.38
438.721	879.38
438.943	856.38
439.165	882.38
439.386	886.38
439.608	935.38
439.829	899.38
440.05	918.38
440.272	922.38
440.493	970.38
440.715	930.38
440.936	929.38
441.158	925.38
441.379	993.38
441.6	1014.38
441.822	1066.38
442.043	1027.38
442.264	1011.38
442.486	1001.38
442.707	982.38
442.928	1009.38
443.149	1001.38
443.371	998.38
443.592	1032.38
443.813	1035.38
444.034	1022.38
444.255	1067.38
444.476	1102.38
444.698	1168.38
444.919	1194.38
445.14	1270.38
445.361	1136.38
445.582	1036.38
445.803	987.38
446.024	973.38
446.245	972.38
446.466	952.38
446.687	925.38
446.908	930.38
447.129	919.38
447.35	896.38
447.571	893.38
447.792	868.38
448.013	868.38
448.234	869.38
448.455	858.38
448.675	838.38
448.896	830.38
449.117	839.38
449.338	828.38
449.559	820.38
449.779	837.38
450	824.38
450.221	839.38
450.442	821.38
450.662	848.38
450.883	858.38
451.104	844.38
451.324	877.38
451.545	856.38
451.766	853.38
451.986	842.38
452.207	816.38
452.428	862.38
452.648	846.38
452.869	809.38
453.089	829.38
453.31	847.38
453.53	804.38
453.751	788.38
453.971	814.38
454.192	826.38
454.412	783.38
454.633	790.38
454.853	807.38
455.073	790.38
455.294	786.38
455.514	791.38
455.734	771.38
455.955	787.38
456.175	774.38
456.395	775.38
456.616	770.38
456.836	797.38
457.056	794.38
457.276	759.38
457.497	761.38
457.717	773.38
457.937	793.38
458.157	790.38
458.377	813.38
458.598	848.38
458.818	831.38
459.038	887.38
459.258	916.38
459.478	893.38
459.698	952.38
459.918	947.38
460.138	983.38
460.358	1061.38
460.578	1099.38
460.798	1102.38
461.018	1091.38
461.238	1060.38
461.458	1039.38
461.678	1083.38
461.898	1111.38
462.118	1087.38
462.338	1157.38
462.558	1200.38
462.777	1238.38
462.997	1313.38
463.217	1412.38
463.437	1460.38
463.657	1313.38
463.876	1277.38
464.096	1200.38
464.316	1237.38
464.536	1253.38
464.755	1249.38
464.975	1127.38
465.195	1115.38
465.414	1048.38
465.634	1017.38
465.854	948.38
466.073	970.38
466.293	950.38
466.512	903.38
466.732	895.38
466.951	900.38
467.171	898.38
467.391	931.38
467.61	877.38
467.829	880.38
468.049	881.38
468.268	832.38
468.488	805.38
468.707	852.38
468.927	840.38
469.146	830.38
469.365	867.38
469.585	844.38
469.804	860.38
470.023	889.38
470.243	918.38
470.462	921.38
470.681	930.38
470.901	904.38
471.12	909.38
471.339	885.38
471.558	856.38
471.777	866.38
471.997	845.38
472.216	855.38
472.435	853.38
472.654	794.38
472.873	832.38
473.092	812.38
473.311	830.38
473.53	825.38
473.749	838.38
473.968	854.38
474.187	849.38
474.406	821.38
474.625	837.38
474.844	810.38
475.063	838.38
475.282	836.38
475.501	841.38
475.72	838.38
475.939	824.38
476.158	843.38
476.377	873.38
476.596	861.38
476.814	898.38
477.033	874.38
477.252	935.38
477.471	901.38
477.69	923.38
477.908	954.38
478.127	965.38
478.346	992.38
478.564	1000.38
478.783	1004.38
479.002	1035.38
479.22	1026.38
479.439	998.38
479.658	1019.38
479.876	1037.38
480.095	1043.38
480.313	1090.38
480.532	1096.38
480.751	1108.38
480.969	1052.38
481.188	1036.38
481.406	1030.38
481.624	996.38
481.843	973.38
482.061	955.38
482.28	961.38
482.498	916.38
482.717	920.38
482.935	947.38
483.153	960.38
483.372	930.38
483.59	963.38
483.808	968.38
484.027	947.38
484.245	968.38
484.463	980.38
484.681	994.38
484.9	968.38
485.118	989.38
485.336	986.38
485.554	967.38
485.772	998.38
485.99	1002.38
486.209	1034.38
486.427	1018.38
486.645	1033.38
486.863	989.38
487.081	983.38
487.299	1016.38
487.517	1019.38
487.735	1003.38
487.953	976.38
488.171	1008.38
488.389	985.38
488.607	993.38
488.825	979.38
489.043	974.38
489.261	975.38
489.479	970.38
489.696	1002.38
489.914	1000.38
490.132	1017.38
490.35	1041.38
490.568	1003.38
490.786	1013.38
491.003	1023.38
491.221	999.38
491.439	1024.38
491.657	1019.38
491.874	1036.38
492.092	1019.38
492.31	1028.38
492.527	1027.38
492.745	1031.38
492.963	1025.38
493.18	1025.38
493.398	1039.38
493.615	1065.38
493.833	1053.38
494.05	1048.38
494.268	1066.38
494.485	1043.38
494.703	1046.38
494.92	1065.38
495.138	1052.38
495.355	1050.38
495.573	1074.38
495.79	1080.38
496.008	1088.38
496.225	1111.38
496.442	1096.38
496.66	1103.38
496.877	1104.38
497.094	1140.38
497.312	1163.38
497.529	1209.38
497.746	1185.38
497.963	1280.38
498.181	1287.38
498.398	1344.38
498.615	1418.38
498.832	1504.38
499.049	1640.38
499.267	1753.38
499.484	1920.38
499.701	2131.38
499.918	2396.38
500.135	2621.38
500.352	2956.38
500.569	3147.38
500.786	3084.38
501.003	2884.38
501.22	2563.38
501.437	2296.38
501.654	2021.38
501.871	1888.38
502.088	1755.38
502.305	1576.38
502.522	1523.38
502.739	1484.38
502.956	1399.38
503.172	1323.38
503.389	1290.38
503.606	1277.38
503.823	1200.38
504.04	1195.38
504.256	1215.38
504.473	1262.38
504.69	1265.38
504.907	1224.38
505.123	1167.38
505.34	1107.38
505.557	1070.38
505.773	1028.38
505.99	1025.38
506.207	1008.38
506.423	986.38
506.64	977.38
506.856	959.38
507.073	962.38
507.289	958.38
507.506	934.38
507.722	948.38
507.939	938.38
508.155	920.38
508.372	929.38
508.588	910.38
508.805	916.38
509.021	890.38
509.238	887.38
509.454	879.38
509.67	874.38
509.887	854.38
510.103	867.38
510.319	880.38
510.536	875.38
510.752	856.38
510.968	868.38
511.184	832.38
511.401	854.38
511.617	854.38
511.833	882.38
512.049	855.38
512.265	840.38
512.481	869.38
512.698	886.38
512.914	859.38
513.13	845.38
513.346	843.38
513.562	858.38
513.778	854.38
513.994	869.38
514.21	908.38
514.426	868.38
514.642	890.38
514.858	882.38
515.074	854.38
515.29	894.38
515.506	899.38
515.721	911.38
515.937	929.38
516.153	932.38
516.369	982.38
516.585	970.38
516.801	996.38
517.016	1050.38
517.232	1123.38
517.448	1148.38
517.664	1152.38
517.879	1180.38
518.095	1208.38
518.311	1165.38
518.527	1108.38
518.742	1065.38
518.958	1024.38
519.173	979.38
519.389	966.38
519.605	946.38
519.82	920.38
520.036	917.38
520.251	876.38
520.467	914.38
520.682	890.38
520.898	870.38
521.113	855.38
521.329	838.38
521.544	839.38
521.76	844.38
521.975	849.38
522.19	813.38
522.406	826.38
522.621	804.38
522.836	800.38
523.052	836.38
523.267	791.38
523.482	794.38
523.698	820.38
523.913	794.38
524.128	811.38
524.343	800.38
524.559	802.38
524.774	787.38
524.989	792.38
525.204	785.38
525.419	789.38
525.634	760.38
525.849	789.38
526.064	787.38
526.28	786.38
526.495	773.38
526.71	766.38
526.925	787.38
527.14	765.38
527.355	764.38
527.57	762.38
527.785	785.38
527.999	741.38
528.214	773.38
528.429	787.38
528.644	791.38
528.859	774.38
529.074	773.38
529.289	792.38
529.503	778.38
529.718	765.38
529.933	755.38
530.148	756.38
530.363	767.38
530.577	760.38
530.792	787.38
531.007	784.38
531.221	766.38
531.436	798.38
531.651	768.38
531.865	765.38
532.08	758.38
532.295	763.38
532.509	793.38
532.724	752.38
532.938	772.38
533.153	751.38
533.367	743.38
533.582	761.38
533.796	776.38
534.011	759.38
534.225	768.38
534.44	757.38
534.654	764.38
534.868	761.38
535.083	752.38
535.297	769.38
535.511	736.38
535.726	693.38
535.94	732.38
536.154	741.38
536.369	737.38
536.583	730.38
536.797	738.38
537.011	719.38
537.225	709.38
537.44	717.38
537.654	711.38
537.868	708.38
538.082	716.38
538.296	715.38
538.51	706.38
538.724	708.38
538.938	700.38
539.153	707.38
539.367	696.38
539.581	684.38
539.795	692.38
540.009	673.38
540.222	679.38
540.436	657.38
540.65	692.38
540.864	684.38
541.078	677.38
541.292	714.38
541.506	693.38
541.72	693.38
541.934	677.38
542.147	681.38
542.361	688.38
542.575	686.38
542.789	672.38
543.002	696.38
543.216	662.38
543.43	673.38
543.644	677.38
543.857	683.38
544.071	680.38
544.285	707.38
544.498	691.38
544.712	689.38
544.925	681.38
545.139	717.38
545.352	733.38
545.566	686.38
545.779	721.38
545.993	699.38
546.206	719.38
546.42	709.38
546.633	697.38
546.847	696.38
547.06	700.38
547.274	717.38
547.487	716.38
547.7	708.38
547.914	702.38
548.127	729.38
548.34	714.38
548.554	692.38
548.767	697.38
548.98	693.38
549.193	714.38
549.407	735.38
549.62	732.38
549.833	740.38
550.046	731.38
550.259	709.38
550.473	697.38
550.686	666.38
550.899	693.38
551.112	683.38
551.325	699.38
551.538	680.38
551.751	688.38
551.964	675.38
552.177	693.38
552.39	726.38
552.603	725.38
552.816	742.38
553.029	748.38
553.242	761.38
553.455	778.38
553.667	784.38
553.88	768.38
554.093	724.38
554.306	730.38
554.519	724.38
554.732	699.38
554.944	691.38
555.157	674.38
555.37	671.38
555.583	659.38
555.795	647.38
556.008	650.38
556.221	615.38
556.433	621.38
556.646	616.38
556.859	636.38
557.071	610.38
557.284	602.38
557.496	615.38
557.709	603.38
557.921	610.38
558.134	607.38
558.346	600.38
558.559	605.38
558.771	580.38
558.984	605.38
559.196	586.38
559.409	596.38
559.621	605.38
559.833	573.38
560.046	600.38
560.258	581.38
560.47	579.38
560.683	592.38
560.895	578.38
561.107	576.38
561.32	588.38
561.532	588.38
561.744	583.38
561.956	604.38
562.168	567.38
562.381	595.38
562.593	590.38
562.805	599.38
563.017	578.38
563.229	583.38
563.441	586.38
563.653	607.38
563.865	592.38
564.077	624.38
564.289	621.38
564.501	602.38
564.713	633.38
564.925	631.38
565.137	626.38
565.349	651.38
565.561	665.38
565.773	688.38
565.985	740.38
566.197	752.38
566.408	823.38
566.62	857.38
566.832	904.38
567.044	930.38
567.255	937.38
567.467	963.38
567.679	1013.38
567.891	1072.38
568.102	1101.38
568.314	1063.38
568.526	916.38
568.737	857.38
568.949	800.38
569.161	754.38
569.372	711.38
569.584	688.38
569.795	660.38
570.007	641.38
570.218	610.38
570.43	605.38
570.641	588.38
570.853	595.38
571.064	614.38
571.276	625.38
571.487	590.38
571.698	570.38
571.91	553.38
572.121	543.38
572.333	517.38
572.544	496.38
572.755	511.38
572.966	505.38
573.178	500.38
573.389	476.38
573.6	495.38
573.811	490.38
574.023	492.38
574.234	485.38
574.445	468.38
574.656	473.38
574.867	468.38
575.078	500.38
575.289	482.38
575.501	489.38
575.712	465.38
575.923	469.38
576.134	464.38
576.345	433.38
576.556	442.38
576.767	459.38
576.978	444.38
577.188	435.38
577.399	437.38
577.61	446.38
577.821	421.38
578.032	437.38
578.243	438.38
578.454	429.38
578.665	438.38
578.875	424.38
579.086	404.38
579.297	419.38
579.508	440.38
579.718	422.38
579.929	440.38
580.14	408.38
580.35	409.38
580.561	433.38
580.772	410.38
580.982	384.38
581.193	419.38
581.403	421.38
581.614	401.38
581.825	395.38
582.035	407.38
582.246	418.38
582.456	409.38
582.667	390.38
582.877	403.38
583.087	402.38
583.298	411.38
583.508	381.38
583.719	407.38
583.929	401.38
584.139	366.38
584.35	390.38
584.56	417.38
584.77	397.38
584.981	396.38
585.191	392.38
585.401	390.38
585.611	386.38
585.821	408.38
586.032	399.38
586.242	391.38
586.452	381.38
586.662	392.38
586.872	383.38
587.082	366.38
587.292	386.38
587.502	358.38
587.713	365.38
587.923	378.38
588.133	388.38
588.343	394.38
588.553	379.38
588.762	393.38
588.972	374.38
589.182	381.38
589.392	381.38
589.602	404.38
589.812	399.38
590.022	378.38
590.232	396.38
590.441	404.38
590.651	381.38
590.861	410.38
591.071	379.38
591.281	384.38
591.49	411.38
591.7	414.38
591.91	413.38
592.119	425.38
592.329	426.38
592.539	429.38
592.748	441.38
592.958	457.38
593.167	465.38
593.377	480.38
593.587	480.38
593.796	498.38
594.006	468.38
594.215	517.38
594.424	510.38
594.634	483.38
594.843	448.38
595.053	459.38
595.262	429.38
595.472	418.38
595.681	415.38
595.89	387.38
596.1	402.38
596.309	388.38
596.518	371.38
596.727	358.38
596.937	358.38
597.146	372.38
597.355	358.38
597.564	357.38
597.774	351.38
597.983	345.38
598.192	339.38
598.401	353.38
598.61	340.38
598.819	342.38
599.028	336.38
599.237	314.38
599.446	326.38
599.655	345.38
599.864	325.38
600.073	313.38
600.282	325.38
600.491	317.38
600.7	329.38
600.909	314.38
601.118	315.38
601.327	323.38
601.536	330.38
601.745	328.38
601.953	327.38
602.162	320.38
602.371	314.38
602.58	330.38
602.789	314.38
602.997	310.38
603.206	307.38
603.415	293.38
603.623	326.38
603.832	312.38
604.041	314.38
604.249	298.38
604.458	285.38
604.666	304.38
604.875	306.38
605.084	311.38
605.292	318.38
605.501	318.38
605.709	298.38
605.918	281.38
606.126	278.38
606.334	313.38
606.543	298.38
606.751	287.38
606.96	291.38
607.168	294.38
607.376	280.38
607.585	297.38
607.793	289.38
608.001	287.38
608.21	297.38
608.418	297.38
608.626	306.38
608.834	272.38
609.043	299.38
609.251	301.38
609.459	275.38
609.667	305.38
609.875	306.38
610.083	289.38
610.291	288.38
610.499	293.38
610.707	284.38
610.916	273.38
611.124	285.38
611.332	302.38
611.54	291.38
611.748	297.38
611.955	283.38
612.163	298.38
612.371	282.38
612.579	307.38
612.787	286.38
612.995	281.38
613.203	273.38
613.411	271.38
613.618	296.38
613.826	301.38
614.034	277.38
614.242	281.38
614.449	275.38
614.657	261.38
614.865	275.38
615.072	300.38
615.28	288.38
615.488	288.38
615.695	286.38
615.903	261.38
616.111	291.38
616.318	287.38
616.526	277.38
616.733	270.38
616.941	267.38
617.148	263.38
617.356	279.38
617.563	270.38
617.771	267.38
617.978	279.38
618.185	284.38
618.393	273.38
618.6	273.38
618.807	284.38
619.015	281.38
619.222	306.38
619.429	277.38
619.637	250.38
619.844	267.38
620.051	275.38
620.258	272.38
620.466	268.38
620.673	264.38
620.88	262.38
621.087	255.38
621.294	261.38
621.501	275.38
621.708	254.38
621.915	253.38
622.122	234.38
622.329	250.38
622.536	246.38
622.743	250.38
622.95	261.38
623.157	272.38
623.364	245.38
623.571	263.38
623.778	243.38
623.985	265.38
624.192	241.38
624.399	244.38
624.606	257.38
624.812	246.38
625.019	233.38
625.226	232.38
625.433	256.38
625.639	242.38
625.846	224.38
626.053	248.38
626.259	248.38
626.466	242.38
626.673	246.38
626.879	236.38
627.086	225.38
627.293	236.38
627.499	230.38
627.706	261.38
627.912	247.38
628.119	216.38
628.325	245.38
628.532	205.38
628.738	224.38
628.945	229.38
629.151	228.38
629.357	210.38
629.564	224.38
629.77	221.38
629.976	225.38
630.183	219.38
630.389	226.38
630.595	225.38
630.802	232.38
631.008	201.38
631.214	210.38
631.42	213.38
631.627	208.38
631.833	218.38
632.039	212.38
632.245	200.38
632.451	213.38
632.657	216.38
632.863	205.38
633.069	226.38
633.275	209.38
633.481	219.38
633.688	214.38
633.893	215.38
634.099	214.38
634.305	217.38
634.511	220.38
634.717	213.38
634.923	226.38
635.129	201.38
635.335	211.38
635.541	212.38
635.747	206.38
635.952	224.38
636.158	207.38
636.364	212.38
636.57	210.38
636.775	195.38
636.981	201.38
637.187	213.38
637.392	196.38
637.598	204.38
637.804	214.38
638.009	214.38
638.215	192.38
638.421	206.38
638.626	210.38
638.832	203.38
639.037	192.38
639.243	188.38
639.448	196.38
639.654	202.38
639.859	185.38
640.065	181.38
640.27	206.38
640.475	194.38
640.681	178.38
640.886	200.38
641.091	186.38
641.297	193.38
641.502	213.38
641.707	197.38
641.913	206.38
642.118	195.38
642.323	197.38
642.528	195.38
642.733	189.38
642.939	189.38
643.144	167.38
643.349	194.38
643.554	197.38
643.759	192.38
643.964	182.38
644.169	192.38
644.374	186.38
644.579	181.38
644.784	203.38
644.989	176.38
645.194	186.38
645.399	199.38
645.604	194.38
645.809	178.38
646.014	190.38
646.219	190.38
646.423	189.38
646.628	184.38
646.833	198.38
647.038	193.38
647.243	210.38
647.447	208.38
647.652	204.38
647.857	200.38
648.062	208.38
648.266	193.38
648.471	204.38
648.676	203.38
648.88	189.38
649.085	197.38
649.289	190.38
649.494	201.38
649.698	181.38
649.903	193.38
650.107	171.38
650.312	180.38
650.516	176.38
650.721	161.38
650.925	178.38
651.13	162.38
651.334	173.38
651.539	176.38
651.743	168.38
651.947	167.38
652.152	165.38
652.356	156.38
652.56	166.38
652.764	166.38
652.969	166.38
653.173	176.38
653.377	162.38
653.581	162.38
653.785	144.38
653.99	157.38
654.194	158.38
654.398	125.38
654.602	148.38
654.806	140.38
655.01	147.38
655.214	143.38
655.418	155.38
655.622	133.38
655.826	147.38
656.03	143.38
656.234	164.38
656.438	140.38
656.642	156.38
656.846	126.38
657.049	148.38
657.253	128.38
657.457	129.38
657.661	128.38
657.865	130.38
658.068	117.38
658.272	112.38
658.476	115.38
658.68	122.38
658.883	112.38
659.087	107.38
659.291	109.38
659.494	108.38
659.698	101.38
659.901	103.38
660.105	94.38
660.309	103.38
660.512	94.38
660.716	87.38
660.919	91.38
661.123	94.38
661.326	89.38
661.53	90.38
661.733	93.38
661.936	81.38
662.14	92.38
662.343	86.38
662.546	93.38
662.75	82.38
662.953	92.38
663.156	73.38
663.36	85.38
663.563	90.38
663.766	80.38
663.969	90.38
664.173	80.38
664.376	76.38
664.579	82.38
664.782	76.38
664.985	84.38
665.188	85.38
665.391	84.38
665.594	85.38
665.797	92.38
666	92.38
666.203	82.38
666.406	76.38
666.609	78.38
666.812	100.38
667.015	82.38
667.218	78.38
667.421	81.38
667.624	97.38
667.827	83.38
668.03	76.38
668.232	82.38
668.435	73.38
668.638	98.38
668.841	87.38
669.043	83.38
669.246	88.38
669.449	82.38
669.651	89.38
669.854	89.38
670.057	87.38
670.259	66.38
670.462	84.38
670.665	89.38
670.867	93.38
671.07	79.38
671.272	93.38
671.475	83.38
671.677	77.38
671.88	84.38
672.082	71.38
672.284	90.38
672.487	74.38
672.689	72.38
672.892	81.38
