Data from NiCl2@0.0625M.TitratingCurve.Agarose3%dH2O.NegLispCup.LampEnergy10.LIBS07252019_HRD10591_18-33-45-576.txt Node
Date: Thu Jul 25 18:33:45 EDT 2019
User: cochatt
Spectrometer: HR+D1059
Trigger mode: 1
Integration Time (sec): 1.000000E-1
Scans to average: 1
Electric dark correction enabled: true
Nonlinearity correction enabled: false
Boxcar width: 0
XAxis mode: Wavelengths
Number of Pixels in Spectrum: 2048
>>>>>Begin Spectral Data<<<<<
223.165	-10.19
223.4	-10.19
223.635	-10.19
223.869	-25.19
224.104	-26.19
224.338	-16.19
224.573	-13.19
224.808	-1.19
225.042	-21.19
225.277	-7.19
225.511	-4.19
225.746	12.81
225.98	7.81
226.215	10.81
226.449	15.81
226.683	20.81
226.918	28.81
227.152	27.81
227.387	49.81
227.621	47.81
227.856	35.81
228.09	42.81
228.324	57.81
228.559	51.81
228.793	72.81
229.027	145.81
229.262	173.81
229.496	160.81
229.73	160.81
229.964	178.81
230.199	177.81
230.433	168.81
230.667	177.81
230.901	181.81
231.136	196.81
231.37	206.81
231.604	187.81
231.838	210.81
232.072	218.81
232.306	196.81
232.541	191.81
232.775	209.81
233.009	214.81
233.243	214.81
233.477	215.81
233.711	226.81
233.945	215.81
234.179	213.81
234.413	233.81
234.647	245.81
234.881	227.81
235.115	228.81
235.349	237.81
235.583	247.81
235.817	221.81
236.051	239.81
236.285	246.81
236.519	252.81
236.753	256.81
236.987	232.81
237.221	239.81
237.455	246.81
237.689	261.81
237.922	275.81
238.156	259.81
238.39	248.81
238.624	260.81
238.858	247.81
239.091	266.81
239.325	263.81
239.559	276.81
239.793	282.81
240.027	279.81
240.26	299.81
240.494	295.81
240.728	303.81
240.961	286.81
241.195	307.81
241.429	311.81
241.662	316.81
241.896	307.81
242.13	323.81
242.363	310.81
242.597	320.81
242.83	332.81
243.064	319.81
243.298	327.81
243.531	311.81
243.765	346.81
243.998	344.81
244.232	355.81
244.465	329.81
244.699	340.81
244.932	360.81
245.166	362.81
245.399	356.81
245.633	359.81
245.866	371.81
246.099	356.81
246.333	362.81
246.566	368.81
246.8	380.81
247.033	367.81
247.266	364.81
247.5	387.81
247.733	367.81
247.966	387.81
248.2	409.81
248.433	417.81
248.666	407.81
248.899	415.81
249.133	415.81
249.366	412.81
249.599	429.81
249.832	410.81
250.066	421.81
250.299	442.81
250.532	434.81
250.765	421.81
250.998	435.81
251.231	449.81
251.465	468.81
251.698	451.81
251.931	458.81
252.164	462.81
252.397	470.81
252.63	450.81
252.863	449.81
253.096	463.81
253.329	473.81
253.562	474.81
253.795	470.81
254.028	500.81
254.261	483.81
254.494	483.81
254.727	487.81
254.96	481.81
255.193	488.81
255.426	488.81
255.659	480.81
255.892	502.81
256.124	484.81
256.357	515.81
256.59	500.81
256.823	535.81
257.056	513.81
257.289	497.81
257.521	543.81
257.754	545.81
257.987	523.81
258.22	548.81
258.452	537.81
258.685	525.81
258.918	549.81
259.151	540.81
259.383	554.81
259.616	538.81
259.849	548.81
260.081	532.81
260.314	554.81
260.547	561.81
260.779	573.81
261.012	573.81
261.244	570.81
261.477	576.81
261.71	572.81
261.942	582.81
262.175	566.81
262.407	603.81
262.64	576.81
262.872	606.81
263.105	595.81
263.337	601.81
263.57	589.81
263.802	603.81
264.035	593.81
264.267	614.81
264.499	617.81
264.732	637.81
264.964	637.81
265.197	646.81
265.429	629.81
265.661	643.81
265.894	621.81
266.126	635.81
266.358	637.81
266.591	656.81
266.823	613.81
267.055	649.81
267.287	638.81
267.52	659.81
267.752	648.81
267.984	653.81
268.216	642.81
268.448	660.81
268.681	672.81
268.913	666.81
269.145	688.81
269.377	659.81
269.609	676.81
269.841	676.81
270.073	675.81
270.306	689.81
270.538	713.81
270.77	681.81
271.002	658.81
271.234	695.81
271.466	715.81
271.698	688.81
271.93	689.81
272.162	721.81
272.394	721.81
272.626	699.81
272.858	714.81
273.09	711.81
273.322	716.81
273.553	728.81
273.785	742.81
274.017	724.81
274.249	719.81
274.481	754.81
274.713	753.81
274.945	745.81
275.176	754.81
275.408	757.81
275.64	796.81
275.872	771.81
276.104	773.81
276.335	768.81
276.567	777.81
276.799	764.81
277.031	792.81
277.262	807.81
277.494	775.81
277.726	782.81
277.957	797.81
278.189	779.81
278.421	797.81
278.652	800.81
278.884	796.81
279.115	807.81
279.347	821.81
279.579	841.81
279.81	838.81
280.042	817.81
280.273	841.81
280.505	829.81
280.736	835.81
280.968	831.81
281.199	827.81
281.431	849.81
281.662	860.81
281.894	868.81
282.125	849.81
282.356	879.81
282.588	835.81
282.819	886.81
283.051	879.81
283.282	863.81
283.513	889.81
283.745	874.81
283.976	885.81
284.207	905.81
284.439	883.81
284.67	922.81
284.901	921.81
285.132	883.81
285.364	862.81
285.595	906.81
285.826	893.81
286.057	917.81
286.288	905.81
286.52	905.81
286.751	931.81
286.982	925.81
287.213	915.81
287.444	904.81
287.675	919.81
287.906	956.81
288.138	949.81
288.369	923.81
288.6	957.81
288.831	940.81
289.062	947.81
289.293	936.81
289.524	966.81
289.755	960.81
289.986	949.81
290.217	934.81
290.448	975.81
290.679	962.81
290.91	958.81
291.141	936.81
291.371	981.81
291.602	950.81
291.833	959.81
292.064	984.81
292.295	961.81
292.526	961.81
292.757	957.81
292.987	1005.81
293.218	965.81
293.449	984.81
293.68	975.81
293.91	974.81
294.141	947.81
294.372	968.81
294.603	984.81
294.833	971.81
295.064	977.81
295.295	992.81
295.525	986.81
295.756	1006.81
295.987	1005.81
296.217	979.81
296.448	972.81
296.679	1012.81
296.909	993.81
297.14	999.81
297.37	1041.81
297.601	1041.81
297.831	1069.81
298.062	1031.81
298.292	1030.81
298.523	1058.81
298.753	1051.81
298.984	1044.81
299.214	1028.81
299.445	1034.81
299.675	1049.81
299.905	1052.81
300.136	1057.81
300.366	1048.81
300.597	1083.81
300.827	1097.81
301.057	1105.81
301.288	1109.81
301.518	1080.81
301.748	1093.81
301.979	1130.81
302.209	1102.81
302.439	1094.81
302.669	1097.81
302.9	1119.81
303.13	1087.81
303.36	1110.81
303.59	1085.81
303.82	1112.81
304.051	1107.81
304.281	1103.81
304.511	1091.81
304.741	1111.81
304.971	1125.81
305.201	1110.81
305.431	1128.81
305.661	1112.81
305.891	1073.81
306.121	1074.81
306.352	1083.81
306.582	1077.81
306.812	1082.81
307.042	1092.81
307.272	1100.81
307.502	1065.81
307.731	1095.81
307.961	1089.81
308.191	1077.81
308.421	1071.81
308.651	1075.81
308.881	1088.81
309.111	1097.81
309.341	1102.81
309.571	1073.81
309.8	1107.81
310.03	1122.81
310.26	1090.81
310.49	1129.81
310.72	1095.81
310.949	1098.81
311.179	1088.81
311.409	1127.81
311.639	1127.81
311.868	1124.81
312.098	1119.81
312.328	1123.81
312.557	1143.81
312.787	1151.81
313.017	1144.81
313.246	1178.81
313.476	1161.81
313.706	1171.81
313.935	1147.81
314.165	1141.81
314.394	1158.81
314.624	1187.81
314.853	1193.81
315.083	1187.81
315.312	1186.81
315.542	1175.81
315.771	1171.81
316.001	1165.81
316.23	1196.81
316.46	1193.81
316.689	1157.81
316.919	1183.81
317.148	1159.81
317.377	1148.81
317.607	1187.81
317.836	1147.81
318.065	1163.81
318.295	1178.81
318.524	1178.81
318.753	1153.81
318.983	1143.81
319.212	1159.81
319.441	1151.81
319.67	1171.81
319.9	1157.81
320.129	1198.81
320.358	1183.81
320.587	1180.81
320.816	1161.81
321.046	1183.81
321.275	1177.81
321.504	1178.81
321.733	1174.81
321.962	1191.81
322.191	1204.81
322.42	1203.81
322.649	1169.81
322.878	1207.81
323.108	1207.81
323.337	1242.81
323.566	1220.81
323.795	1216.81
324.024	1202.81
324.253	1212.81
324.482	1205.81
324.71	1218.81
324.939	1219.81
325.168	1208.81
325.397	1252.81
325.626	1239.81
325.855	1253.81
326.084	1268.81
326.313	1297.81
326.542	1288.81
326.77	1292.81
326.999	1258.81
327.228	1240.81
327.457	1258.81
327.686	1243.81
327.914	1305.81
328.143	1279.81
328.372	1285.81
328.6	1284.81
328.829	1264.81
329.058	1281.81
329.287	1283.81
329.515	1322.81
329.744	1286.81
329.972	1282.81
330.201	1291.81
330.43	1329.81
330.658	1334.81
330.887	1335.81
331.115	1318.81
331.344	1348.81
331.572	1359.81
331.801	1361.81
332.03	1413.81
332.258	1435.81
332.486	1457.81
332.715	1476.81
332.943	1526.81
333.172	1544.81
333.4	1604.81
333.629	1653.81
333.857	1653.81
334.085	1663.81
334.314	1682.81
334.542	1627.81
334.771	1580.81
334.999	1608.81
335.227	1603.81
335.455	1611.81
335.684	1587.81
335.912	1597.81
336.14	1572.81
336.369	1554.81
336.597	1531.81
336.825	1540.81
337.053	1500.81
337.281	1482.81
337.51	1500.81
337.738	1437.81
337.966	1457.81
338.194	1422.81
338.422	1427.81
338.65	1405.81
338.878	1426.81
339.106	1421.81
339.334	1397.81
339.562	1389.81
339.79	1347.81
340.018	1375.81
340.246	1307.81
340.474	1373.81
340.702	1350.81
340.93	1389.81
341.158	1349.81
341.386	1340.81
341.614	1356.81
341.842	1344.81
342.07	1342.81
342.298	1346.81
342.526	1375.81
342.754	1347.81
342.981	1353.81
343.209	1382.81
343.437	1441.81
343.665	1469.81
343.893	1540.81
344.12	1591.81
344.348	1565.81
344.576	1516.81
344.804	1490.81
345.031	1417.81
345.259	1403.81
345.487	1334.81
345.714	1338.81
345.942	1322.81
346.17	1335.81
346.397	1319.81
346.625	1341.81
346.853	1315.81
347.08	1294.81
347.308	1288.81
347.535	1299.81
347.763	1299.81
347.99	1303.81
348.218	1306.81
348.445	1246.81
348.673	1261.81
348.9	1275.81
349.128	1323.81
349.355	1281.81
349.583	1263.81
349.81	1299.81
350.037	1264.81
350.265	1245.81
350.492	1247.81
350.72	1220.81
350.947	1239.81
351.174	1244.81
351.402	1266.81
351.629	1227.81
351.856	1261.81
352.083	1263.81
352.311	1250.81
352.538	1212.81
352.765	1258.81
352.992	1239.81
353.22	1255.81
353.447	1220.81
353.674	1226.81
353.901	1275.81
354.128	1184.81
354.355	1235.81
354.583	1229.81
354.81	1223.81
355.037	1223.81
355.264	1257.81
355.491	1257.81
355.718	1238.81
355.945	1243.81
356.172	1240.81
356.399	1258.81
356.626	1260.81
356.853	1260.81
357.08	1253.81
357.307	1268.81
357.534	1241.81
357.761	1242.81
357.988	1244.81
358.215	1248.81
358.441	1235.81
358.668	1222.81
358.895	1225.81
359.122	1247.81
359.349	1239.81
359.576	1251.81
359.802	1235.81
360.029	1243.81
360.256	1284.81
360.483	1224.81
360.709	1250.81
360.936	1262.81
361.163	1269.81
361.39	1250.81
361.616	1268.81
361.843	1263.81
362.07	1272.81
362.296	1253.81
362.523	1218.81
362.749	1253.81
362.976	1242.81
363.203	1248.81
363.429	1234.81
363.656	1284.81
363.882	1286.81
364.109	1274.81
364.335	1241.81
364.562	1229.81
364.788	1236.81
365.015	1250.81
365.241	1225.81
365.468	1271.81
365.694	1270.81
365.92	1238.81
366.147	1251.81
366.373	1209.81
366.599	1252.81
366.826	1236.81
367.052	1269.81
367.278	1250.81
367.505	1244.81
367.731	1261.81
367.957	1260.81
368.184	1253.81
368.41	1278.81
368.636	1260.81
368.862	1303.81
369.089	1273.81
369.315	1248.81
369.541	1279.81
369.767	1322.81
369.993	1334.81
370.219	1311.81
370.445	1315.81
370.672	1336.81
370.898	1323.81
371.124	1343.81
371.35	1345.81
371.576	1320.81
371.802	1325.81
372.028	1342.81
372.254	1379.81
372.48	1358.81
372.706	1362.81
372.932	1408.81
373.158	1403.81
373.384	1365.81
373.61	1379.81
373.835	1387.81
374.061	1382.81
374.287	1338.81
374.513	1426.81
374.739	1436.81
374.965	1444.81
375.191	1484.81
375.416	1446.81
375.642	1421.81
375.868	1423.81
376.094	1419.81
376.319	1380.81
376.545	1382.81
376.771	1368.81
376.997	1360.81
377.222	1363.81
377.448	1355.81
377.674	1354.81
377.899	1351.81
378.125	1347.81
378.35	1351.81
378.576	1314.81
378.802	1289.81
379.027	1331.81
379.253	1357.81
379.478	1316.81
379.704	1311.81
379.929	1347.81
380.155	1362.81
380.38	1340.81
380.606	1341.81
380.831	1333.81
381.057	1349.81
381.282	1348.81
381.507	1327.81
381.733	1367.81
381.958	1386.81
382.184	1392.81
382.409	1395.81
382.634	1414.81
382.86	1416.81
383.085	1443.81
383.31	1437.81
383.535	1471.81
383.761	1490.81
383.986	1525.81
384.211	1521.81
384.436	1504.81
384.662	1557.81
384.887	1587.81
385.112	1579.81
385.337	1626.81
385.562	1593.81
385.787	1588.81
386.013	1621.81
386.238	1638.81
386.463	1635.81
386.688	1628.81
386.913	1650.81
387.138	1616.81
387.363	1628.81
387.588	1618.81
387.813	1612.81
388.038	1619.81
388.263	1621.81
388.488	1642.81
388.713	1621.81
388.938	1603.81
389.163	1599.81
389.387	1636.81
389.612	1609.81
389.837	1591.81
390.062	1599.81
390.287	1597.81
390.512	1618.81
390.736	1645.81
390.961	1635.81
391.186	1657.81
391.411	1713.81
391.636	1720.81
391.86	1758.81
392.085	1804.81
392.31	1778.81
392.534	1748.81
392.759	1738.81
392.984	1696.81
393.208	1726.81
393.433	1756.81
393.658	1748.81
393.882	1695.81
394.107	1673.81
394.331	1722.81
394.556	1723.81
394.78	1714.81
395.005	1748.81
395.229	1756.81
395.454	1735.81
395.678	1840.81
395.903	1808.81
396.127	1804.81
396.352	1765.81
396.576	1751.81
396.801	1723.81
397.025	1748.81
397.249	1774.81
397.474	1779.81
397.698	1845.81
397.922	1841.81
398.147	1818.81
398.371	1880.81
398.595	1898.81
398.82	1997.81
399.044	2138.81
399.268	2297.81
399.492	2554.81
399.717	2817.81
399.941	2817.81
400.165	2578.81
400.389	2388.81
400.613	2231.81
400.837	2134.81
401.062	2027.81
401.286	2073.81
401.51	2054.81
401.734	2023.81
401.958	2026.81
402.182	2011.81
402.406	2057.81
402.63	2028.81
402.854	2104.81
403.078	2107.81
403.302	2156.81
403.526	2158.81
403.75	2170.81
403.974	2183.81
404.198	2194.81
404.422	2213.81
404.645	2227.81
404.869	2156.81
405.093	2149.81
405.317	2146.81
405.541	2153.81
405.765	2120.81
405.988	2163.81
406.212	2193.81
406.436	2217.81
406.66	2255.81
406.883	2274.81
407.107	2432.81
407.331	2454.81
407.555	2540.81
407.778	2511.81
408.002	2472.81
408.226	2431.81
408.449	2380.81
408.673	2309.81
408.896	2261.81
409.12	2279.81
409.344	2277.81
409.567	2207.81
409.791	2282.81
410.014	2215.81
410.238	2231.81
410.461	2179.81
410.685	2186.81
410.908	2163.81
411.132	2139.81
411.355	2108.81
411.578	2100.81
411.802	2067.81
412.025	2071.81
412.249	2117.81
412.472	2124.81
412.695	2053.81
412.919	2030.81
413.142	2004.81
413.365	1976.81
413.589	2036.81
413.812	1996.81
414.035	1977.81
414.258	2020.81
414.482	2018.81
414.705	2024.81
414.928	2044.81
415.151	2033.81
415.374	1991.81
415.597	2036.81
415.821	1967.81
416.044	1907.81
416.267	1905.81
416.49	1923.81
416.713	1896.81
416.936	1962.81
417.159	1938.81
417.382	1897.81
417.605	1920.81
417.828	1932.81
418.051	1946.81
418.274	1961.81
418.497	1943.81
418.72	2003.81
418.943	1953.81
419.166	2061.81
419.389	2184.81
419.611	2166.81
419.834	2085.81
420.057	2009.81
420.28	1985.81
420.503	1929.81
420.726	1906.81
420.948	1945.81
421.171	1947.81
421.394	1919.81
421.617	1862.81
421.839	1924.81
422.062	1952.81
422.285	1877.81
422.507	1959.81
422.73	1989.81
422.953	1947.81
423.175	1956.81
423.398	1957.81
423.621	1973.81
423.843	1975.81
424.066	2011.81
424.288	2000.81
424.511	1979.81
424.733	1968.81
424.956	1952.81
425.178	1954.81
425.401	1923.81
425.623	1928.81
425.846	1872.81
426.068	1848.81
426.291	1872.81
426.513	1843.81
426.735	1827.81
426.958	1869.81
427.18	1789.81
427.402	1811.81
427.625	1795.81
427.847	1783.81
428.069	1731.81
428.292	1793.81
428.514	1763.81
428.736	1804.81
428.958	1771.81
429.181	1697.81
429.403	1752.81
429.625	1729.81
429.847	1711.81
430.069	1701.81
430.292	1740.81
430.514	1709.81
430.736	1727.81
430.958	1777.81
431.18	1740.81
431.402	1724.81
431.624	1717.81
431.846	1772.81
432.068	1793.81
432.29	1800.81
432.512	1773.81
432.734	1771.81
432.956	1748.81
433.178	1805.81
433.4	1815.81
433.622	1804.81
433.844	1823.81
434.066	1809.81
434.287	1808.81
434.509	1889.81
434.731	1945.81
434.953	1901.81
435.175	1964.81
435.397	1928.81
435.618	1892.81
435.84	1834.81
436.062	1813.81
436.284	1764.81
436.505	1761.81
436.727	1802.81
436.949	1765.81
437.17	1768.81
437.392	1737.81
437.614	1720.81
437.835	1662.81
438.057	1695.81
438.278	1659.81
438.5	1688.81
438.721	1691.81
438.943	1683.81
439.165	1673.81
439.386	1711.81
439.608	1732.81
439.829	1711.81
440.05	1712.81
440.272	1731.81
440.493	1711.81
440.715	1772.81
440.936	1767.81
441.158	1787.81
441.379	1841.81
441.6	1869.81
441.822	1895.81
442.043	1955.81
442.264	1917.81
442.486	1855.81
442.707	1887.81
442.928	1903.81
443.149	1890.81
443.371	1836.81
443.592	1854.81
443.813	1915.81
444.034	1929.81
444.255	1957.81
444.476	2012.81
444.698	2117.81
444.919	2173.81
445.14	2262.81
445.361	2088.81
445.582	1962.81
445.803	1915.81
446.024	1838.81
446.245	1815.81
446.466	1801.81
446.687	1739.81
446.908	1734.81
447.129	1677.81
447.35	1657.81
447.571	1680.81
447.792	1599.81
448.013	1618.81
448.234	1602.81
448.455	1592.81
448.675	1577.81
448.896	1574.81
449.117	1571.81
449.338	1600.81
449.559	1560.81
449.779	1501.81
450	1543.81
450.221	1560.81
450.442	1586.81
450.662	1562.81
450.883	1552.81
451.104	1599.81
451.324	1587.81
451.545	1559.81
451.766	1585.81
451.986	1591.81
452.207	1532.81
452.428	1523.81
452.648	1564.81
452.869	1493.81
453.089	1538.81
453.31	1543.81
453.53	1495.81
453.751	1504.81
453.971	1484.81
454.192	1543.81
454.412	1487.81
454.633	1452.81
454.853	1483.81
455.073	1429.81
455.294	1437.81
455.514	1456.81
455.734	1491.81
455.955	1450.81
456.175	1459.81
456.395	1496.81
456.616	1439.81
456.836	1460.81
457.056	1444.81
457.276	1410.81
457.497	1470.81
457.717	1493.81
457.937	1496.81
458.157	1514.81
458.377	1492.81
458.598	1559.81
458.818	1601.81
459.038	1633.81
459.258	1670.81
459.478	1717.81
459.698	1747.81
459.918	1788.81
460.138	1871.81
460.358	1911.81
460.578	1911.81
460.798	1974.81
461.018	1996.81
461.238	1971.81
461.458	1947.81
461.678	1971.81
461.898	1996.81
462.118	2015.81
462.338	2072.81
462.558	2169.81
462.777	2258.81
462.997	2387.81
463.217	2514.81
463.437	2516.81
463.657	2361.81
463.876	2262.81
464.096	2272.81
464.316	2244.81
464.536	2276.81
464.755	2185.81
464.975	2139.81
465.195	2031.81
465.414	1962.81
465.634	1818.81
465.854	1772.81
466.073	1740.81
466.293	1685.81
466.512	1704.81
466.732	1643.81
466.951	1708.81
467.171	1658.81
467.391	1661.81
467.61	1631.81
467.829	1624.81
468.049	1625.81
468.268	1587.81
468.488	1602.81
468.707	1595.81
468.927	1613.81
469.146	1605.81
469.365	1596.81
469.585	1624.81
469.804	1658.81
470.023	1663.81
470.243	1652.81
470.462	1651.81
470.681	1687.81
470.901	1717.81
471.12	1671.81
471.339	1655.81
471.558	1631.81
471.777	1619.81
471.997	1578.81
472.216	1604.81
472.435	1578.81
472.654	1573.81
472.873	1596.81
473.092	1583.81
473.311	1522.81
473.53	1569.81
473.749	1562.81
473.968	1562.81
474.187	1586.81
474.406	1519.81
474.625	1574.81
474.844	1606.81
475.063	1585.81
475.282	1583.81
475.501	1600.81
475.72	1617.81
475.939	1608.81
476.158	1640.81
476.377	1679.81
476.596	1665.81
476.814	1698.81
477.033	1697.81
477.252	1697.81
477.471	1723.81
477.69	1802.81
477.908	1811.81
478.127	1880.81
478.346	1861.81
478.564	1900.81
478.783	1919.81
479.002	1974.81
479.22	1972.81
479.439	1979.81
479.658	1955.81
479.876	1987.81
480.095	2019.81
480.313	2074.81
480.532	2099.81
480.751	2103.81
480.969	2057.81
481.188	1992.81
481.406	1952.81
481.624	1932.81
481.843	1908.81
482.061	1907.81
482.28	1919.81
482.498	1895.81
482.717	1911.81
482.935	1931.81
483.153	1948.81
483.372	1922.81
483.59	1950.81
483.808	1959.81
484.027	1928.81
484.245	1962.81
484.463	1992.81
484.681	2004.81
484.9	2090.81
485.118	2082.81
485.336	2052.81
485.554	2104.81
485.772	2160.81
485.99	2136.81
486.209	2124.81
486.427	2133.81
486.645	2120.81
486.863	2101.81
487.081	2089.81
487.299	2067.81
487.517	2079.81
487.735	2064.81
487.953	2098.81
488.171	2044.81
488.389	2070.81
488.607	2028.81
488.825	2015.81
489.043	2010.81
489.261	2021.81
489.479	1958.81
489.696	1998.81
489.914	1997.81
490.132	1929.81
490.35	2005.81
490.568	2006.81
490.786	2012.81
491.003	1995.81
491.221	1990.81
491.439	1980.81
491.657	1986.81
491.874	1987.81
492.092	1992.81
492.31	1955.81
492.527	1955.81
492.745	1957.81
492.963	1963.81
493.18	1983.81
493.398	1963.81
493.615	2036.81
493.833	2006.81
494.05	2050.81
494.268	2015.81
494.485	1996.81
494.703	2009.81
494.92	2016.81
495.138	1997.81
495.355	2019.81
495.573	2020.81
495.79	2053.81
496.008	2080.81
496.225	2097.81
496.442	2068.81
496.66	2102.81
496.877	2151.81
497.094	2116.81
497.312	2232.81
497.529	2239.81
497.746	2301.81
497.963	2326.81
498.181	2445.81
498.398	2520.81
498.615	2668.81
498.832	2825.81
499.049	2965.81
499.267	3235.81
499.484	3469.81
499.701	3707.81
499.918	4136.81
500.135	4519.81
500.352	4924.81
500.569	5161.81
500.786	5052.81
501.003	4843.81
501.22	4437.81
501.437	4079.81
501.654	3669.81
501.871	3375.81
502.088	3143.81
502.305	2939.81
502.522	2848.81
502.739	2735.81
502.956	2510.81
503.172	2472.81
503.389	2417.81
503.606	2323.81
503.823	2252.81
504.04	2261.81
504.256	2275.81
504.473	2313.81
504.69	2291.81
504.907	2224.81
505.123	2115.81
505.34	2043.81
505.557	1964.81
505.773	1919.81
505.99	1898.81
506.207	1859.81
506.423	1836.81
506.64	1820.81
506.856	1726.81
507.073	1766.81
507.289	1761.81
507.506	1718.81
507.722	1697.81
507.939	1702.81
508.155	1695.81
508.372	1694.81
508.588	1661.81
508.805	1631.81
509.021	1642.81
509.238	1639.81
509.454	1635.81
509.67	1610.81
509.887	1616.81
510.103	1572.81
510.319	1593.81
510.536	1587.81
510.752	1555.81
510.968	1596.81
511.184	1555.81
511.401	1571.81
511.617	1570.81
511.833	1627.81
512.049	1563.81
512.265	1581.81
512.481	1562.81
512.698	1550.81
512.914	1541.81
513.13	1556.81
513.346	1557.81
513.562	1568.81
513.778	1621.81
513.994	1588.81
514.21	1573.81
514.426	1567.81
514.642	1608.81
514.858	1581.81
515.074	1583.81
515.29	1629.81
515.506	1612.81
515.721	1655.81
515.937	1663.81
516.153	1688.81
516.369	1721.81
516.585	1801.81
516.801	1835.81
517.016	1895.81
517.232	1996.81
517.448	1984.81
517.664	2069.81
517.879	2050.81
518.095	2071.81
518.311	2044.81
518.527	1956.81
518.742	1912.81
518.958	1862.81
519.173	1819.81
519.389	1763.81
519.605	1719.81
519.82	1653.81
520.036	1655.81
520.251	1619.81
520.467	1583.81
520.682	1572.81
520.898	1548.81
521.113	1535.81
521.329	1517.81
521.544	1489.81
521.76	1497.81
521.975	1483.81
522.19	1489.81
522.406	1473.81
522.621	1462.81
522.836	1474.81
523.052	1455.81
523.267	1450.81
523.482	1426.81
523.698	1472.81
523.913	1429.81
524.128	1459.81
524.343	1417.81
524.559	1405.81
524.774	1430.81
524.989	1407.81
525.204	1422.81
525.419	1415.81
525.634	1403.81
525.849	1378.81
526.064	1403.81
526.28	1415.81
526.495	1388.81
526.71	1381.81
526.925	1424.81
527.14	1370.81
527.355	1385.81
527.57	1380.81
527.785	1392.81
527.999	1403.81
528.214	1388.81
528.429	1391.81
528.644	1384.81
528.859	1392.81
529.074	1357.81
529.289	1353.81
529.503	1386.81
529.718	1411.81
529.933	1355.81
530.148	1344.81
530.363	1339.81
530.577	1377.81
530.792	1371.81
531.007	1331.81
531.221	1352.81
531.436	1359.81
531.651	1365.81
531.865	1383.81
532.08	1388.81
532.295	1393.81
532.509	1407.81
532.724	1389.81
532.938	1384.81
533.153	1373.81
533.367	1377.81
533.582	1391.81
533.796	1370.81
534.011	1337.81
534.225	1380.81
534.44	1347.81
534.654	1332.81
534.868	1339.81
535.083	1315.81
535.297	1322.81
535.511	1330.81
535.726	1299.81
535.94	1304.81
536.154	1313.81
536.369	1269.81
536.583	1277.81
536.797	1270.81
537.011	1276.81
537.225	1255.81
537.44	1244.81
537.654	1292.81
537.868	1254.81
538.082	1257.81
538.296	1256.81
538.51	1254.81
538.724	1285.81
538.938	1257.81
539.153	1224.81
539.367	1229.81
539.581	1231.81
539.795	1220.81
540.009	1227.81
540.222	1211.81
540.436	1225.81
540.65	1202.81
540.864	1206.81
541.078	1238.81
541.292	1211.81
541.506	1207.81
541.72	1186.81
541.934	1185.81
542.147	1201.81
542.361	1204.81
542.575	1192.81
542.789	1218.81
543.002	1166.81
543.216	1208.81
543.43	1173.81
543.644	1193.81
543.857	1177.81
544.071	1194.81
544.285	1223.81
544.498	1186.81
544.712	1186.81
544.925	1224.81
545.139	1238.81
545.352	1205.81
545.566	1217.81
545.779	1228.81
545.993	1211.81
546.206	1191.81
546.42	1243.81
546.633	1210.81
546.847	1227.81
547.06	1219.81
547.274	1229.81
547.487	1224.81
547.7	1196.81
547.914	1229.81
548.127	1233.81
548.34	1236.81
548.554	1247.81
548.767	1245.81
548.98	1248.81
549.193	1228.81
549.407	1243.81
549.62	1275.81
549.833	1260.81
550.046	1251.81
550.259	1218.81
550.473	1213.81
550.686	1192.81
550.899	1217.81
551.112	1233.81
551.325	1201.81
551.538	1201.81
551.751	1188.81
551.964	1247.81
552.177	1227.81
552.39	1219.81
552.603	1247.81
552.816	1305.81
553.029	1307.81
553.242	1288.81
553.455	1329.81
553.667	1334.81
553.88	1332.81
554.093	1279.81
554.306	1243.81
554.519	1231.81
554.732	1192.81
554.944	1175.81
555.157	1185.81
555.37	1145.81
555.583	1142.81
555.795	1142.81
556.008	1092.81
556.221	1091.81
556.433	1087.81
556.646	1052.81
556.859	1101.81
557.071	1064.81
557.284	1072.81
557.496	1069.81
557.709	1057.81
557.921	1049.81
558.134	1053.81
558.346	1010.81
558.559	1049.81
558.771	1015.81
558.984	1004.81
559.196	1012.81
559.409	1011.81
559.621	1028.81
559.833	1027.81
560.046	989.81
560.258	980.81
560.47	1002.81
560.683	986.81
560.895	1036.81
561.107	1025.81
561.32	988.81
561.532	1015.81
561.744	1015.81
561.956	969.81
562.168	1013.81
562.381	988.81
562.593	980.81
562.805	1024.81
563.017	1037.81
563.229	1043.81
563.441	1041.81
563.653	1058.81
563.865	1057.81
564.077	1052.81
564.289	1056.81
564.501	1075.81
564.713	1083.81
564.925	1091.81
565.137	1112.81
565.349	1104.81
565.561	1159.81
565.773	1191.81
565.985	1241.81
566.197	1272.81
566.408	1378.81
566.62	1443.81
566.832	1539.81
567.044	1559.81
567.255	1605.81
567.467	1583.81
567.679	1680.81
567.891	1735.81
568.102	1771.81
568.314	1718.81
568.526	1588.81
568.737	1451.81
568.949	1354.81
569.161	1251.81
569.372	1204.81
569.584	1169.81
569.795	1114.81
570.007	1039.81
570.218	1046.81
570.43	1050.81
570.641	1047.81
570.853	1023.81
571.064	1023.81
571.276	1044.81
571.487	1017.81
571.698	962.81
571.91	961.81
572.121	929.81
572.333	914.81
572.544	896.81
572.755	872.81
572.966	847.81
573.178	876.81
573.389	877.81
573.6	844.81
573.811	845.81
574.023	824.81
574.234	828.81
574.445	842.81
574.656	842.81
574.867	817.81
575.078	813.81
575.289	805.81
575.501	791.81
575.712	801.81
575.923	788.81
576.134	801.81
576.345	779.81
576.556	746.81
576.767	750.81
576.978	783.81
577.188	756.81
577.399	746.81
577.61	763.81
577.821	752.81
578.032	775.81
578.243	753.81
578.454	740.81
578.665	755.81
578.875	739.81
579.086	721.81
579.297	731.81
579.508	729.81
579.718	716.81
579.929	722.81
580.14	679.81
580.35	719.81
580.561	703.81
580.772	714.81
580.982	709.81
581.193	689.81
581.403	693.81
581.614	680.81
581.825	693.81
582.035	677.81
582.246	693.81
582.456	682.81
582.667	683.81
582.877	682.81
583.087	668.81
583.298	680.81
583.508	688.81
583.719	674.81
583.929	702.81
584.139	664.81
584.35	657.81
584.56	685.81
584.77	653.81
584.981	658.81
585.191	681.81
585.401	652.81
585.611	645.81
585.821	649.81
586.032	637.81
586.242	655.81
586.452	641.81
586.662	644.81
586.872	644.81
587.082	636.81
587.292	651.81
587.502	637.81
587.713	646.81
587.923	639.81
588.133	647.81
588.343	685.81
588.553	635.81
588.762	635.81
588.972	652.81
589.182	650.81
589.392	675.81
589.602	655.81
589.812	643.81
590.022	663.81
590.232	641.81
590.441	687.81
590.651	647.81
590.861	641.81
591.071	647.81
591.281	666.81
591.49	684.81
591.7	685.81
591.91	684.81
592.119	685.81
592.329	707.81
592.539	725.81
592.748	724.81
592.958	747.81
593.167	747.81
593.377	766.81
593.587	783.81
593.796	790.81
594.006	825.81
594.215	829.81
594.424	799.81
594.634	785.81
594.843	768.81
595.053	726.81
595.262	722.81
595.472	692.81
595.681	662.81
595.89	681.81
596.1	651.81
596.309	635.81
596.518	629.81
596.727	627.81
596.937	620.81
597.146	577.81
597.355	579.81
597.564	577.81
597.774	599.81
597.983	584.81
598.192	571.81
598.401	552.81
598.61	581.81
598.819	563.81
599.028	576.81
599.237	545.81
599.446	543.81
599.655	558.81
599.864	537.81
600.073	554.81
600.282	550.81
600.491	535.81
600.7	550.81
600.909	547.81
601.118	542.81
601.327	536.81
601.536	500.81
601.745	525.81
601.953	511.81
602.162	535.81
602.371	518.81
602.58	525.81
602.789	517.81
602.997	503.81
603.206	492.81
603.415	515.81
603.623	519.81
603.832	499.81
604.041	506.81
604.249	509.81
604.458	481.81
604.666	488.81
604.875	496.81
605.084	494.81
605.292	514.81
605.501	512.81
605.709	496.81
605.918	475.81
606.126	482.81
606.334	495.81
606.543	469.81
606.751	477.81
606.96	480.81
607.168	468.81
607.376	494.81
607.585	484.81
607.793	479.81
608.001	479.81
608.21	457.81
608.418	475.81
608.626	482.81
608.834	482.81
609.043	464.81
609.251	491.81
609.459	488.81
609.667	479.81
609.875	451.81
610.083	464.81
610.291	469.81
610.499	488.81
610.707	474.81
610.916	467.81
611.124	467.81
611.332	458.81
611.54	471.81
611.748	465.81
611.955	434.81
612.163	445.81
612.371	472.81
612.579	457.81
612.787	444.81
612.995	462.81
613.203	465.81
613.411	442.81
613.618	427.81
613.826	456.81
614.034	447.81
614.242	457.81
614.449	447.81
614.657	451.81
614.865	466.81
615.072	437.81
615.28	442.81
615.488	454.81
615.695	446.81
615.903	461.81
616.111	457.81
616.318	443.81
616.526	439.81
616.733	444.81
616.941	460.81
617.148	465.81
617.356	463.81
617.563	435.81
617.771	451.81
617.978	436.81
618.185	461.81
618.393	447.81
618.6	452.81
618.807	449.81
619.015	443.81
619.222	442.81
619.429	442.81
619.637	437.81
619.844	450.81
620.051	426.81
620.258	426.81
620.466	426.81
620.673	411.81
620.88	403.81
621.087	412.81
621.294	412.81
621.501	427.81
621.708	416.81
621.915	423.81
622.122	417.81
622.329	414.81
622.536	426.81
622.743	402.81
622.95	402.81
623.157	407.81
623.364	393.81
623.571	395.81
623.778	397.81
623.985	401.81
624.192	381.81
624.399	403.81
624.606	393.81
624.812	386.81
625.019	395.81
625.226	391.81
625.433	377.81
625.639	361.81
625.846	379.81
626.053	379.81
626.259	379.81
626.466	377.81
626.673	385.81
626.879	379.81
627.086	376.81
627.293	378.81
627.499	382.81
627.706	375.81
627.912	367.81
628.119	363.81
628.325	365.81
628.532	359.81
628.738	370.81
628.945	367.81
629.151	373.81
629.357	345.81
629.564	360.81
629.77	346.81
629.976	352.81
630.183	357.81
630.389	341.81
630.595	360.81
630.802	360.81
631.008	355.81
631.214	358.81
631.42	339.81
631.627	343.81
631.833	331.81
632.039	334.81
632.245	338.81
632.451	366.81
632.657	343.81
632.863	329.81
633.069	339.81
633.275	330.81
633.481	327.81
633.688	331.81
633.893	339.81
634.099	330.81
634.305	322.81
634.511	304.81
634.717	323.81
634.923	333.81
635.129	320.81
635.335	313.81
635.541	309.81
635.747	324.81
635.952	321.81
636.158	315.81
636.364	318.81
636.57	328.81
636.775	309.81
636.981	330.81
637.187	305.81
637.392	329.81
637.598	312.81
637.804	293.81
638.009	329.81
638.215	337.81
638.421	325.81
638.626	300.81
638.832	314.81
639.037	299.81
639.243	310.81
639.448	299.81
639.654	291.81
639.859	299.81
640.065	315.81
640.27	287.81
640.475	298.81
640.681	303.81
640.886	307.81
641.091	318.81
641.297	306.81
641.502	311.81
641.707	296.81
641.913	292.81
642.118	307.81
642.323	299.81
642.528	291.81
642.733	276.81
642.939	290.81
643.144	296.81
643.349	299.81
643.554	284.81
643.759	295.81
643.964	307.81
644.169	312.81
644.374	305.81
644.579	288.81
644.784	291.81
644.989	300.81
645.194	281.81
645.399	314.81
645.604	283.81
645.809	306.81
646.014	317.81
646.219	301.81
646.423	289.81
646.628	292.81
646.833	302.81
647.038	313.81
647.243	319.81
647.447	323.81
647.652	295.81
647.857	325.81
648.062	340.81
648.266	325.81
648.471	316.81
648.676	329.81
648.88	314.81
649.085	323.81
649.289	323.81
649.494	317.81
649.698	313.81
649.903	290.81
650.107	314.81
650.312	324.81
650.516	304.81
650.721	294.81
650.925	321.81
651.13	283.81
651.334	293.81
651.539	290.81
651.743	296.81
651.947	307.81
652.152	283.81
652.356	283.81
652.56	284.81
652.764	269.81
652.969	297.81
653.173	296.81
653.377	290.81
653.581	279.81
653.785	293.81
653.99	295.81
654.194	287.81
654.398	307.81
654.602	316.81
654.806	310.81
655.01	305.81
655.214	307.81
655.418	325.81
655.622	331.81
655.826	365.81
656.03	352.81
656.234	406.81
656.438	412.81
656.642	439.81
656.846	403.81
657.049	367.81
657.253	322.81
657.457	293.81
657.661	249.81
657.865	255.81
658.068	217.81
658.272	220.81
658.476	202.81
658.68	202.81
658.883	167.81
659.087	171.81
659.291	152.81
659.494	153.81
659.698	141.81
659.901	141.81
660.105	126.81
660.309	130.81
660.512	127.81
660.716	111.81
660.919	117.81
661.123	104.81
661.326	107.81
661.53	91.81
661.733	104.81
661.936	99.81
662.14	106.81
662.343	103.81
662.546	89.81
662.75	88.81
662.953	85.81
663.156	82.81
663.36	89.81
663.563	91.81
663.766	84.81
663.969	78.81
664.173	95.81
664.376	70.81
664.579	72.81
664.782	80.81
664.985	98.81
665.188	84.81
665.391	76.81
665.594	80.81
665.797	85.81
666	83.81
666.203	67.81
666.406	84.81
666.609	80.81
666.812	90.81
667.015	80.81
667.218	84.81
667.421	80.81
667.624	79.81
667.827	92.81
668.03	85.81
668.232	89.81
668.435	75.81
668.638	67.81
668.841	70.81
669.043	77.81
669.246	96.81
669.449	96.81
669.651	75.81
669.854	76.81
670.057	69.81
670.259	73.81
670.462	85.81
670.665	73.81
670.867	81.81
671.07	75.81
671.272	92.81
671.475	80.81
671.677	89.81
671.88	78.81
672.082	78.81
672.284	77.81
672.487	84.81
672.689	91.81
672.892	84.81
