Data from NiCl2@0.5M.TitratingCurve.Agarose3%dH2O.NegLispCup.LampEnergy10.LIBS07252019_HRD10591_18-20-37-571.txt Node
Date: Thu Jul 25 18:20:37 EDT 2019
User: cochatt
Spectrometer: HR+D1059
Trigger mode: 1
Integration Time (sec): 1.000000E-1
Scans to average: 1
Electric dark correction enabled: true
Nonlinearity correction enabled: false
Boxcar width: 0
XAxis mode: Wavelengths
Number of Pixels in Spectrum: 2048
>>>>>Begin Spectral Data<<<<<
223.165	-2.88
223.4	-2.88
223.635	-2.88
223.869	-8.88
224.104	-14.88
224.338	-5.88
224.573	-17.88
224.808	-18.88
225.042	-2.88
225.277	3.12
225.511	-11.88
225.746	1.12
225.98	-1.88
226.215	3.12
226.449	9.12
226.683	6.12
226.918	29.12
227.152	34.12
227.387	39.12
227.621	43.12
227.856	46.12
228.09	54.12
228.324	53.12
228.559	37.12
228.793	69.12
229.027	88.12
229.262	101.12
229.496	110.12
229.73	109.12
229.964	110.12
230.199	121.12
230.433	106.12
230.667	123.12
230.901	132.12
231.136	133.12
231.37	143.12
231.604	127.12
231.838	135.12
232.072	122.12
232.306	141.12
232.541	146.12
232.775	121.12
233.009	138.12
233.243	130.12
233.477	139.12
233.711	133.12
233.945	129.12
234.179	123.12
234.413	130.12
234.647	131.12
234.881	133.12
235.115	141.12
235.349	143.12
235.583	129.12
235.817	131.12
236.051	139.12
236.285	143.12
236.519	149.12
236.753	144.12
236.987	130.12
237.221	150.12
237.455	142.12
237.689	149.12
237.922	151.12
238.156	159.12
238.39	135.12
238.624	149.12
238.858	143.12
239.091	149.12
239.325	158.12
239.559	147.12
239.793	143.12
240.027	161.12
240.26	170.12
240.494	164.12
240.728	165.12
240.961	169.12
241.195	159.12
241.429	158.12
241.662	164.12
241.896	171.12
242.13	174.12
242.363	174.12
242.597	161.12
242.83	175.12
243.064	167.12
243.298	164.12
243.531	190.12
243.765	183.12
243.998	173.12
244.232	188.12
244.465	188.12
244.699	178.12
244.932	183.12
245.166	173.12
245.399	177.12
245.633	193.12
245.866	196.12
246.099	200.12
246.333	194.12
246.566	191.12
246.8	190.12
247.033	194.12
247.266	195.12
247.5	201.12
247.733	208.12
247.966	199.12
248.2	201.12
248.433	215.12
248.666	212.12
248.899	205.12
249.133	204.12
249.366	214.12
249.599	213.12
249.832	216.12
250.066	205.12
250.299	222.12
250.532	224.12
250.765	220.12
250.998	224.12
251.231	226.12
251.465	244.12
251.698	241.12
251.931	231.12
252.164	224.12
252.397	228.12
252.63	228.12
252.863	219.12
253.096	238.12
253.329	247.12
253.562	249.12
253.795	254.12
254.028	246.12
254.261	225.12
254.494	250.12
254.727	257.12
254.96	246.12
255.193	247.12
255.426	237.12
255.659	258.12
255.892	232.12
256.124	244.12
256.357	262.12
256.59	264.12
256.823	258.12
257.056	266.12
257.289	238.12
257.521	255.12
257.754	267.12
257.987	257.12
258.22	283.12
258.452	283.12
258.685	265.12
258.918	264.12
259.151	294.12
259.383	249.12
259.616	269.12
259.849	266.12
260.081	285.12
260.314	284.12
260.547	271.12
260.779	277.12
261.012	280.12
261.244	293.12
261.477	264.12
261.71	278.12
261.942	281.12
262.175	285.12
262.407	268.12
262.64	281.12
262.872	285.12
263.105	289.12
263.337	293.12
263.57	301.12
263.802	257.12
264.035	305.12
264.267	283.12
264.499	297.12
264.732	287.12
264.964	306.12
265.197	307.12
265.429	307.12
265.661	296.12
265.894	307.12
266.126	332.12
266.358	283.12
266.591	305.12
266.823	313.12
267.055	322.12
267.287	315.12
267.52	324.12
267.752	291.12
267.984	319.12
268.216	324.12
268.448	312.12
268.681	318.12
268.913	320.12
269.145	329.12
269.377	315.12
269.609	327.12
269.841	332.12
270.073	331.12
270.306	327.12
270.538	321.12
270.77	309.12
271.002	330.12
271.234	351.12
271.466	333.12
271.698	339.12
271.93	331.12
272.162	327.12
272.394	347.12
272.626	337.12
272.858	349.12
273.09	351.12
273.322	345.12
273.553	348.12
273.785	362.12
274.017	363.12
274.249	356.12
274.481	364.12
274.713	345.12
274.945	371.12
275.176	358.12
275.408	346.12
275.64	350.12
275.872	348.12
276.104	367.12
276.335	375.12
276.567	349.12
276.799	358.12
277.031	376.12
277.262	387.12
277.494	364.12
277.726	381.12
277.957	399.12
278.189	382.12
278.421	373.12
278.652	374.12
278.884	370.12
279.115	385.12
279.347	376.12
279.579	379.12
279.81	395.12
280.042	400.12
280.273	391.12
280.505	378.12
280.736	399.12
280.968	397.12
281.199	406.12
281.431	412.12
281.662	389.12
281.894	404.12
282.125	412.12
282.356	391.12
282.588	408.12
282.819	426.12
283.051	403.12
283.282	416.12
283.513	426.12
283.745	413.12
283.976	411.12
284.207	393.12
284.439	405.12
284.67	393.12
284.901	438.12
285.132	435.12
285.364	442.12
285.595	429.12
285.826	418.12
286.057	420.12
286.288	435.12
286.52	419.12
286.751	427.12
286.982	438.12
287.213	437.12
287.444	446.12
287.675	444.12
287.906	434.12
288.138	429.12
288.369	449.12
288.6	451.12
288.831	436.12
289.062	435.12
289.293	456.12
289.524	455.12
289.755	460.12
289.986	435.12
290.217	461.12
290.448	447.12
290.679	442.12
290.91	446.12
291.141	456.12
291.371	461.12
291.602	463.12
291.833	448.12
292.064	471.12
292.295	450.12
292.526	449.12
292.757	451.12
292.987	442.12
293.218	455.12
293.449	455.12
293.68	450.12
293.91	470.12
294.141	484.12
294.372	451.12
294.603	455.12
294.833	471.12
295.064	456.12
295.295	473.12
295.525	433.12
295.756	486.12
295.987	445.12
296.217	475.12
296.448	462.12
296.679	467.12
296.909	509.12
297.14	470.12
297.37	497.12
297.601	484.12
297.831	497.12
298.062	487.12
298.292	498.12
298.523	486.12
298.753	487.12
298.984	501.12
299.214	490.12
299.445	502.12
299.675	493.12
299.905	503.12
300.136	513.12
300.366	515.12
300.597	530.12
300.827	526.12
301.057	519.12
301.288	531.12
301.518	524.12
301.748	525.12
301.979	512.12
302.209	529.12
302.439	539.12
302.669	519.12
302.9	509.12
303.13	545.12
303.36	533.12
303.59	531.12
303.82	552.12
304.051	539.12
304.281	513.12
304.511	526.12
304.741	523.12
304.971	533.12
305.201	539.12
305.431	530.12
305.661	523.12
305.891	521.12
306.121	517.12
306.352	524.12
306.582	531.12
306.812	513.12
307.042	519.12
307.272	528.12
307.502	522.12
307.731	497.12
307.961	522.12
308.191	533.12
308.421	537.12
308.651	517.12
308.881	508.12
309.111	522.12
309.341	519.12
309.571	518.12
309.8	555.12
310.03	506.12
310.26	565.12
310.49	547.12
310.72	519.12
310.949	550.12
311.179	514.12
311.409	523.12
311.639	537.12
311.868	535.12
312.098	559.12
312.328	561.12
312.557	549.12
312.787	549.12
313.017	580.12
313.246	565.12
313.476	563.12
313.706	546.12
313.935	565.12
314.165	553.12
314.394	569.12
314.624	584.12
314.853	579.12
315.083	546.12
315.312	559.12
315.542	573.12
315.771	550.12
316.001	545.12
316.23	550.12
316.46	550.12
316.689	551.12
316.919	554.12
317.148	551.12
317.377	565.12
317.607	578.12
317.836	557.12
318.065	544.12
318.295	588.12
318.524	546.12
318.753	553.12
318.983	551.12
319.212	552.12
319.441	552.12
319.67	554.12
319.9	538.12
320.129	557.12
320.358	565.12
320.587	570.12
320.816	556.12
321.046	563.12
321.275	574.12
321.504	571.12
321.733	551.12
321.962	558.12
322.191	575.12
322.42	590.12
322.649	585.12
322.878	587.12
323.108	574.12
323.337	581.12
323.566	557.12
323.795	577.12
324.024	586.12
324.253	588.12
324.482	587.12
324.71	560.12
324.939	605.12
325.168	610.12
325.397	568.12
325.626	597.12
325.855	604.12
326.084	613.12
326.313	598.12
326.542	615.12
326.77	610.12
326.999	605.12
327.228	591.12
327.457	589.12
327.686	581.12
327.914	580.12
328.143	637.12
328.372	618.12
328.6	604.12
328.829	590.12
329.058	576.12
329.287	615.12
329.515	614.12
329.744	645.12
329.972	601.12
330.201	618.12
330.43	605.12
330.658	614.12
330.887	639.12
331.115	624.12
331.344	637.12
331.572	645.12
331.801	672.12
332.03	669.12
332.258	680.12
332.486	687.12
332.715	690.12
332.943	707.12
333.172	714.12
333.4	746.12
333.629	772.12
333.857	791.12
334.085	759.12
334.314	762.12
334.542	748.12
334.771	733.12
334.999	735.12
335.227	731.12
335.455	771.12
335.684	731.12
335.912	746.12
336.14	715.12
336.369	769.12
336.597	758.12
336.825	730.12
337.053	740.12
337.281	735.12
337.51	705.12
337.738	702.12
337.966	691.12
338.194	684.12
338.422	690.12
338.65	665.12
338.878	681.12
339.106	665.12
339.334	688.12
339.562	661.12
339.79	648.12
340.018	643.12
340.246	646.12
340.474	648.12
340.702	656.12
340.93	659.12
341.158	633.12
341.386	659.12
341.614	652.12
341.842	657.12
342.07	651.12
342.298	649.12
342.526	646.12
342.754	656.12
342.981	649.12
343.209	669.12
343.437	673.12
343.665	722.12
343.893	724.12
344.12	717.12
344.348	738.12
344.576	701.12
344.804	692.12
345.031	676.12
345.259	680.12
345.487	649.12
345.714	668.12
345.942	644.12
346.17	673.12
346.397	662.12
346.625	632.12
346.853	644.12
347.08	621.12
347.308	607.12
347.535	618.12
347.763	613.12
347.99	618.12
348.218	637.12
348.445	619.12
348.673	602.12
348.9	633.12
349.128	631.12
349.355	625.12
349.583	636.12
349.81	610.12
350.037	611.12
350.265	588.12
350.492	585.12
350.72	613.12
350.947	593.12
351.174	601.12
351.402	600.12
351.629	641.12
351.856	618.12
352.083	597.12
352.311	612.12
352.538	601.12
352.765	637.12
352.992	610.12
353.22	599.12
353.447	578.12
353.674	567.12
353.901	579.12
354.128	573.12
354.355	587.12
354.583	603.12
354.81	593.12
355.037	586.12
355.264	571.12
355.491	596.12
355.718	579.12
355.945	583.12
356.172	603.12
356.399	605.12
356.626	602.12
356.853	619.12
357.08	594.12
357.307	597.12
357.534	581.12
357.761	581.12
357.988	585.12
358.215	584.12
358.441	586.12
358.668	577.12
358.895	607.12
359.122	590.12
359.349	590.12
359.576	604.12
359.802	586.12
360.029	593.12
360.256	590.12
360.483	596.12
360.709	585.12
360.936	606.12
361.163	601.12
361.39	591.12
361.616	613.12
361.843	581.12
362.07	612.12
362.296	614.12
362.523	611.12
362.749	581.12
362.976	603.12
363.203	579.12
363.429	570.12
363.656	588.12
363.882	577.12
364.109	582.12
364.335	584.12
364.562	576.12
364.788	583.12
365.015	573.12
365.241	588.12
365.468	582.12
365.694	579.12
365.92	551.12
366.147	565.12
366.373	588.12
366.599	579.12
366.826	580.12
367.052	617.12
367.278	596.12
367.505	592.12
367.731	602.12
367.957	597.12
368.184	623.12
368.41	605.12
368.636	583.12
368.862	607.12
369.089	605.12
369.315	606.12
369.541	581.12
369.767	603.12
369.993	592.12
370.219	616.12
370.445	611.12
370.672	615.12
370.898	604.12
371.124	633.12
371.35	620.12
371.576	607.12
371.802	623.12
372.028	637.12
372.254	612.12
372.48	621.12
372.706	621.12
372.932	621.12
373.158	643.12
373.384	635.12
373.61	621.12
373.835	625.12
374.061	641.12
374.287	643.12
374.513	639.12
374.739	649.12
374.965	701.12
375.191	672.12
375.416	676.12
375.642	651.12
375.868	645.12
376.094	631.12
376.319	614.12
376.545	635.12
376.771	639.12
376.997	622.12
377.222	637.12
377.448	637.12
377.674	602.12
377.899	606.12
378.125	622.12
378.35	606.12
378.576	630.12
378.802	603.12
379.027	615.12
379.253	624.12
379.478	599.12
379.704	601.12
379.929	616.12
380.155	605.12
380.38	603.12
380.606	621.12
380.831	628.12
381.057	622.12
381.282	629.12
381.507	611.12
381.733	608.12
381.958	642.12
382.184	637.12
382.409	639.12
382.634	637.12
382.86	658.12
383.085	649.12
383.31	649.12
383.535	665.12
383.761	655.12
383.986	682.12
384.211	682.12
384.436	682.12
384.662	710.12
384.887	719.12
385.112	741.12
385.337	726.12
385.562	731.12
385.787	757.12
386.013	737.12
386.238	718.12
386.463	729.12
386.688	713.12
386.913	716.12
387.138	722.12
387.363	713.12
387.588	711.12
387.813	729.12
388.038	712.12
388.263	721.12
388.488	719.12
388.713	743.12
388.938	719.12
389.163	713.12
389.387	703.12
389.612	708.12
389.837	746.12
390.062	699.12
390.287	707.12
390.512	711.12
390.736	757.12
390.961	758.12
391.186	777.12
391.411	762.12
391.636	778.12
391.86	763.12
392.085	783.12
392.31	784.12
392.534	773.12
392.759	764.12
392.984	777.12
393.208	769.12
393.433	746.12
393.658	739.12
393.882	734.12
394.107	734.12
394.331	789.12
394.556	785.12
394.78	772.12
395.005	781.12
395.229	790.12
395.454	822.12
395.678	802.12
395.903	799.12
396.127	819.12
396.352	778.12
396.576	748.12
396.801	769.12
397.025	776.12
397.249	790.12
397.474	807.12
397.698	803.12
397.922	798.12
398.147	823.12
398.371	837.12
398.595	870.12
398.82	877.12
399.044	939.12
399.268	997.12
399.492	1133.12
399.717	1221.12
399.941	1173.12
400.165	1111.12
400.389	1041.12
400.613	972.12
400.837	922.12
401.062	909.12
401.286	894.12
401.51	888.12
401.734	886.12
401.958	899.12
402.182	891.12
402.406	914.12
402.63	902.12
402.854	924.12
403.078	944.12
403.302	954.12
403.526	953.12
403.75	965.12
403.974	998.12
404.198	989.12
404.422	966.12
404.645	996.12
404.869	961.12
405.093	983.12
405.317	941.12
405.541	969.12
405.765	957.12
405.988	951.12
406.212	966.12
406.436	962.12
406.66	980.12
406.883	996.12
407.107	1048.12
407.331	1063.12
407.555	1112.12
407.778	1105.12
408.002	1085.12
408.226	1073.12
408.449	1050.12
408.673	1045.12
408.896	1016.12
409.12	1007.12
409.344	1017.12
409.567	1024.12
409.791	1013.12
410.014	1018.12
410.238	986.12
410.461	952.12
410.685	996.12
410.908	974.12
411.132	957.12
411.355	957.12
411.578	943.12
411.802	930.12
412.025	923.12
412.249	964.12
412.472	959.12
412.695	906.12
412.919	893.12
413.142	935.12
413.365	917.12
413.589	908.12
413.812	890.12
414.035	913.12
414.258	930.12
414.482	913.12
414.705	922.12
414.928	915.12
415.151	917.12
415.374	938.12
415.597	927.12
415.821	887.12
416.044	881.12
416.267	890.12
416.49	887.12
416.713	886.12
416.936	889.12
417.159	874.12
417.382	875.12
417.605	873.12
417.828	875.12
418.051	890.12
418.274	895.12
418.497	890.12
418.72	914.12
418.943	892.12
419.166	946.12
419.389	1004.12
419.611	983.12
419.834	969.12
420.057	932.12
420.28	886.12
420.503	893.12
420.726	907.12
420.948	887.12
421.171	873.12
421.394	897.12
421.617	905.12
421.839	910.12
422.062	864.12
422.285	871.12
422.507	892.12
422.73	903.12
422.953	905.12
423.175	933.12
423.398	897.12
423.621	911.12
423.843	912.12
424.066	916.12
424.288	931.12
424.511	930.12
424.733	900.12
424.956	913.12
425.178	895.12
425.401	883.12
425.623	899.12
425.846	889.12
426.068	877.12
426.291	866.12
426.513	867.12
426.735	846.12
426.958	856.12
427.18	846.12
427.402	841.12
427.625	854.12
427.847	823.12
428.069	839.12
428.292	829.12
428.514	807.12
428.736	812.12
428.958	854.12
429.181	802.12
429.403	821.12
429.625	799.12
429.847	794.12
430.069	824.12
430.292	811.12
430.514	775.12
430.736	805.12
430.958	823.12
431.18	829.12
431.402	826.12
431.624	824.12
431.846	827.12
432.068	811.12
432.29	835.12
432.512	812.12
432.734	817.12
432.956	805.12
433.178	825.12
433.4	851.12
433.622	867.12
433.844	842.12
434.066	850.12
434.287	856.12
434.509	862.12
434.731	897.12
434.953	907.12
435.175	914.12
435.397	897.12
435.618	885.12
435.84	869.12
436.062	859.12
436.284	839.12
436.505	854.12
436.727	818.12
436.949	821.12
437.17	868.12
437.392	834.12
437.614	828.12
437.835	771.12
438.057	810.12
438.278	818.12
438.5	840.12
438.721	828.12
438.943	815.12
439.165	818.12
439.386	811.12
439.608	838.12
439.829	817.12
440.05	824.12
440.272	839.12
440.493	847.12
440.715	851.12
440.936	852.12
441.158	881.12
441.379	913.12
441.6	906.12
441.822	917.12
442.043	897.12
442.264	899.12
442.486	871.12
442.707	913.12
442.928	901.12
443.149	907.12
443.371	908.12
443.592	908.12
443.813	959.12
444.034	914.12
444.255	951.12
444.476	972.12
444.698	996.12
444.919	1010.12
445.14	1085.12
445.361	987.12
445.582	941.12
445.803	901.12
446.024	897.12
446.245	886.12
446.466	881.12
446.687	873.12
446.908	870.12
447.129	825.12
447.35	817.12
447.571	826.12
447.792	795.12
448.013	798.12
448.234	803.12
448.455	763.12
448.675	791.12
448.896	775.12
449.117	762.12
449.338	769.12
449.559	792.12
449.779	790.12
450	772.12
450.221	737.12
450.442	765.12
450.662	773.12
450.883	808.12
451.104	802.12
451.324	802.12
451.545	773.12
451.766	781.12
451.986	768.12
452.207	788.12
452.428	776.12
452.648	781.12
452.869	754.12
453.089	759.12
453.31	779.12
453.53	749.12
453.751	746.12
453.971	756.12
454.192	741.12
454.412	731.12
454.633	749.12
454.853	775.12
455.073	721.12
455.294	729.12
455.514	736.12
455.734	766.12
455.955	713.12
456.175	723.12
456.395	720.12
456.616	732.12
456.836	753.12
457.056	739.12
457.276	719.12
457.497	733.12
457.717	744.12
457.937	745.12
458.157	772.12
458.377	731.12
458.598	775.12
458.818	801.12
459.038	797.12
459.258	810.12
459.478	834.12
459.698	862.12
459.918	902.12
460.138	903.12
460.358	953.12
460.578	920.12
460.798	989.12
461.018	952.12
461.238	966.12
461.458	1000.12
461.678	958.12
461.898	987.12
462.118	995.12
462.338	1001.12
462.558	1048.12
462.777	1099.12
462.997	1157.12
463.217	1185.12
463.437	1194.12
463.657	1156.12
463.876	1141.12
464.096	1133.12
464.316	1117.12
464.536	1079.12
464.755	1090.12
464.975	1025.12
465.195	997.12
465.414	963.12
465.634	893.12
465.854	911.12
466.073	906.12
466.293	842.12
466.512	836.12
466.732	820.12
466.951	854.12
467.171	814.12
467.391	803.12
467.61	805.12
467.829	823.12
468.049	805.12
468.268	787.12
468.488	798.12
468.707	811.12
468.927	814.12
469.146	811.12
469.365	837.12
469.585	801.12
469.804	809.12
470.023	846.12
470.243	839.12
470.462	847.12
470.681	848.12
470.901	853.12
471.12	855.12
471.339	831.12
471.558	823.12
471.777	843.12
471.997	822.12
472.216	795.12
472.435	824.12
472.654	786.12
472.873	806.12
473.092	790.12
473.311	802.12
473.53	793.12
473.749	780.12
473.968	796.12
474.187	784.12
474.406	774.12
474.625	779.12
474.844	787.12
475.063	794.12
475.282	813.12
475.501	781.12
475.72	812.12
475.939	794.12
476.158	818.12
476.377	837.12
476.596	800.12
476.814	839.12
477.033	804.12
477.252	854.12
477.471	862.12
477.69	890.12
477.908	897.12
478.127	915.12
478.346	923.12
478.564	920.12
478.783	932.12
479.002	962.12
479.22	979.12
479.439	968.12
479.658	989.12
479.876	953.12
480.095	953.12
480.313	978.12
480.532	1003.12
480.751	993.12
480.969	957.12
481.188	949.12
481.406	914.12
481.624	941.12
481.843	903.12
482.061	911.12
482.28	942.12
482.498	896.12
482.717	903.12
482.935	908.12
483.153	931.12
483.372	925.12
483.59	931.12
483.808	930.12
484.027	909.12
484.245	933.12
484.463	926.12
484.681	953.12
484.9	938.12
485.118	937.12
485.336	965.12
485.554	909.12
485.772	935.12
485.99	973.12
486.209	951.12
486.427	949.12
486.645	967.12
486.863	974.12
487.081	964.12
487.299	941.12
487.517	979.12
487.735	965.12
487.953	952.12
488.171	949.12
488.389	906.12
488.607	923.12
488.825	964.12
489.043	941.12
489.261	951.12
489.479	949.12
489.696	936.12
489.914	917.12
490.132	963.12
490.35	983.12
490.568	965.12
490.786	976.12
491.003	956.12
491.221	966.12
491.439	975.12
491.657	1009.12
491.874	975.12
492.092	974.12
492.31	996.12
492.527	994.12
492.745	1023.12
492.963	1009.12
493.18	992.12
493.398	990.12
493.615	1009.12
493.833	1020.12
494.05	1011.12
494.268	1016.12
494.485	1041.12
494.703	1023.12
494.92	997.12
495.138	1029.12
495.355	1023.12
495.573	1034.12
495.79	1020.12
496.008	1049.12
496.225	1044.12
496.442	1059.12
496.66	1089.12
496.877	1076.12
497.094	1083.12
497.312	1131.12
497.529	1131.12
497.746	1182.12
497.963	1185.12
498.181	1226.12
498.398	1303.12
498.615	1303.12
498.832	1387.12
499.049	1475.12
499.267	1531.12
499.484	1691.12
499.701	1804.12
499.918	1934.12
500.135	2203.12
500.352	2361.12
500.569	2456.12
500.786	2413.12
501.003	2287.12
501.22	2119.12
501.437	1924.12
501.654	1758.12
501.871	1625.12
502.088	1549.12
502.305	1460.12
502.522	1430.12
502.739	1339.12
502.956	1281.12
503.172	1225.12
503.389	1213.12
503.606	1144.12
503.823	1157.12
504.04	1111.12
504.256	1129.12
504.473	1121.12
504.69	1148.12
504.907	1149.12
505.123	1061.12
505.34	1012.12
505.557	991.12
505.773	965.12
505.99	969.12
506.207	966.12
506.423	917.12
506.64	938.12
506.856	922.12
507.073	905.12
507.289	903.12
507.506	879.12
507.722	892.12
507.939	881.12
508.155	875.12
508.372	862.12
508.588	874.12
508.805	869.12
509.021	837.12
509.238	827.12
509.454	833.12
509.67	822.12
509.887	830.12
510.103	837.12
510.319	824.12
510.536	807.12
510.752	814.12
510.968	806.12
511.184	799.12
511.401	792.12
511.617	810.12
511.833	806.12
512.049	838.12
512.265	807.12
512.481	805.12
512.698	808.12
512.914	793.12
513.13	799.12
513.346	805.12
513.562	810.12
513.778	821.12
513.994	821.12
514.21	819.12
514.426	803.12
514.642	841.12
514.858	844.12
515.074	837.12
515.29	847.12
515.506	813.12
515.721	852.12
515.937	872.12
516.153	856.12
516.369	894.12
516.585	893.12
516.801	913.12
517.016	945.12
517.232	959.12
517.448	985.12
517.664	1053.12
517.879	1040.12
518.095	1039.12
518.311	1028.12
518.527	997.12
518.742	947.12
518.958	911.12
519.173	902.12
519.389	878.12
519.605	870.12
519.82	855.12
520.036	835.12
520.251	817.12
520.467	841.12
520.682	835.12
520.898	817.12
521.113	807.12
521.329	769.12
521.544	805.12
521.76	777.12
521.975	786.12
522.19	794.12
522.406	762.12
522.621	757.12
522.836	725.12
523.052	756.12
523.267	753.12
523.482	749.12
523.698	762.12
523.913	756.12
524.128	744.12
524.343	767.12
524.559	726.12
524.774	735.12
524.989	733.12
525.204	738.12
525.419	735.12
525.634	742.12
525.849	745.12
526.064	734.12
526.28	733.12
526.495	731.12
526.71	725.12
526.925	726.12
527.14	710.12
527.355	694.12
527.57	745.12
527.785	747.12
527.999	709.12
528.214	706.12
528.429	742.12
528.644	707.12
528.859	710.12
529.074	735.12
529.289	734.12
529.503	714.12
529.718	725.12
529.933	716.12
530.148	714.12
530.363	728.12
530.577	729.12
530.792	712.12
531.007	717.12
531.221	717.12
531.436	718.12
531.651	714.12
531.865	707.12
532.08	691.12
532.295	739.12
532.509	713.12
532.724	710.12
532.938	722.12
533.153	716.12
533.367	686.12
533.582	693.12
533.796	713.12
534.011	727.12
534.225	719.12
534.44	713.12
534.654	701.12
534.868	702.12
535.083	709.12
535.297	695.12
535.511	722.12
535.726	670.12
535.94	715.12
536.154	707.12
536.369	703.12
536.583	665.12
536.797	669.12
537.011	668.12
537.225	665.12
537.44	673.12
537.654	650.12
537.868	665.12
538.082	664.12
538.296	683.12
538.51	656.12
538.724	641.12
538.938	654.12
539.153	635.12
539.367	665.12
539.581	640.12
539.795	642.12
540.009	644.12
540.222	639.12
540.436	654.12
540.65	629.12
540.864	635.12
541.078	643.12
541.292	668.12
541.506	659.12
541.72	677.12
541.934	690.12
542.147	675.12
542.361	669.12
542.575	654.12
542.789	648.12
543.002	630.12
543.216	633.12
543.43	649.12
543.644	634.12
543.857	651.12
544.071	647.12
544.285	668.12
544.498	649.12
544.712	643.12
544.925	659.12
545.139	667.12
545.352	670.12
545.566	661.12
545.779	653.12
545.993	658.12
546.206	659.12
546.42	658.12
546.633	670.12
546.847	700.12
547.06	685.12
547.274	653.12
547.487	651.12
547.7	684.12
547.914	676.12
548.127	681.12
548.34	676.12
548.554	657.12
548.767	648.12
548.98	678.12
549.193	686.12
549.407	651.12
549.62	699.12
549.833	659.12
550.046	673.12
550.259	633.12
550.473	626.12
550.686	655.12
550.899	654.12
551.112	658.12
551.325	650.12
551.538	663.12
551.751	674.12
551.964	665.12
552.177	657.12
552.39	663.12
552.603	682.12
552.816	695.12
553.029	686.12
553.242	692.12
553.455	678.12
553.667	685.12
553.88	685.12
554.093	653.12
554.306	662.12
554.519	632.12
554.732	669.12
554.944	638.12
555.157	635.12
555.37	624.12
555.583	630.12
555.795	622.12
556.008	587.12
556.221	606.12
556.433	616.12
556.646	598.12
556.859	595.12
557.071	566.12
557.284	581.12
557.496	572.12
557.709	565.12
557.921	586.12
558.134	537.12
558.346	551.12
558.559	572.12
558.771	574.12
558.984	546.12
559.196	554.12
559.409	550.12
559.621	581.12
559.833	541.12
560.046	564.12
560.258	550.12
560.47	537.12
560.683	559.12
560.895	536.12
561.107	522.12
561.32	561.12
561.532	551.12
561.744	542.12
561.956	565.12
562.168	547.12
562.381	580.12
562.593	563.12
562.805	540.12
563.017	545.12
563.229	545.12
563.441	554.12
563.653	538.12
563.865	549.12
564.077	561.12
564.289	580.12
564.501	586.12
564.713	598.12
564.925	578.12
565.137	596.12
565.349	609.12
565.561	618.12
565.773	649.12
565.985	663.12
566.197	701.12
566.408	727.12
566.62	745.12
566.832	787.12
567.044	805.12
567.255	797.12
567.467	798.12
567.679	845.12
567.891	876.12
568.102	874.12
568.314	851.12
568.526	777.12
568.737	741.12
568.949	704.12
569.161	667.12
569.372	627.12
569.584	607.12
569.795	597.12
570.007	569.12
570.218	547.12
570.43	553.12
570.641	557.12
570.853	562.12
571.064	571.12
571.276	561.12
571.487	547.12
571.698	517.12
571.91	542.12
572.121	496.12
572.333	494.12
572.544	459.12
572.755	493.12
572.966	483.12
573.178	467.12
573.389	456.12
573.6	461.12
573.811	459.12
574.023	462.12
574.234	455.12
574.445	465.12
574.656	475.12
574.867	429.12
575.078	459.12
575.289	437.12
575.501	449.12
575.712	426.12
575.923	417.12
576.134	427.12
576.345	437.12
576.556	415.12
576.767	407.12
576.978	419.12
577.188	423.12
577.399	420.12
577.61	425.12
577.821	427.12
578.032	405.12
578.243	389.12
578.454	421.12
578.665	413.12
578.875	424.12
579.086	399.12
579.297	395.12
579.508	382.12
579.718	381.12
579.929	389.12
580.14	379.12
580.35	391.12
580.561	398.12
580.772	402.12
580.982	380.12
581.193	385.12
581.403	381.12
581.614	381.12
581.825	377.12
582.035	371.12
582.246	362.12
582.456	387.12
582.667	383.12
582.877	372.12
583.087	373.12
583.298	383.12
583.508	370.12
583.719	377.12
583.929	385.12
584.139	384.12
584.35	367.12
584.56	356.12
584.77	374.12
584.981	371.12
585.191	370.12
585.401	351.12
585.611	358.12
585.821	354.12
586.032	375.12
586.242	369.12
586.452	361.12
586.662	350.12
586.872	367.12
587.082	348.12
587.292	352.12
587.502	370.12
587.713	362.12
587.923	353.12
588.133	368.12
588.343	350.12
588.553	369.12
588.762	381.12
588.972	388.12
589.182	404.12
589.392	395.12
589.602	374.12
589.812	391.12
590.022	385.12
590.232	359.12
590.441	361.12
590.651	365.12
590.861	356.12
591.071	362.12
591.281	364.12
591.49	386.12
591.7	353.12
591.91	371.12
592.119	389.12
592.329	391.12
592.539	375.12
592.748	398.12
592.958	413.12
593.167	415.12
593.377	419.12
593.587	420.12
593.796	438.12
594.006	443.12
594.215	440.12
594.424	418.12
594.634	419.12
594.843	410.12
595.053	397.12
595.262	393.12
595.472	376.12
595.681	366.12
595.89	383.12
596.1	366.12
596.309	368.12
596.518	351.12
596.727	344.12
596.937	344.12
597.146	328.12
597.355	331.12
597.564	334.12
597.774	339.12
597.983	304.12
598.192	330.12
598.401	308.12
598.61	333.12
598.819	322.12
599.028	299.12
599.237	339.12
599.446	314.12
599.655	307.12
599.864	333.12
600.073	302.12
600.282	317.12
600.491	309.12
600.7	305.12
600.909	299.12
601.118	302.12
601.327	303.12
601.536	308.12
601.745	305.12
601.953	307.12
602.162	301.12
602.371	293.12
602.58	300.12
602.789	305.12
602.997	297.12
603.206	309.12
603.415	285.12
603.623	302.12
603.832	289.12
604.041	285.12
604.249	297.12
604.458	290.12
604.666	301.12
604.875	310.12
605.084	284.12
605.292	283.12
605.501	286.12
605.709	279.12
605.918	284.12
606.126	271.12
606.334	274.12
606.543	283.12
606.751	271.12
606.96	289.12
607.168	292.12
607.376	277.12
607.585	284.12
607.793	274.12
608.001	279.12
608.21	276.12
608.418	273.12
608.626	276.12
608.834	277.12
609.043	283.12
609.251	289.12
609.459	272.12
609.667	277.12
609.875	268.12
610.083	284.12
610.291	295.12
610.499	280.12
610.707	268.12
610.916	266.12
611.124	270.12
611.332	263.12
611.54	260.12
611.748	277.12
611.955	272.12
612.163	267.12
612.371	271.12
612.579	264.12
612.787	255.12
612.995	271.12
613.203	288.12
613.411	270.12
613.618	257.12
613.826	276.12
614.034	263.12
614.242	251.12
614.449	275.12
614.657	261.12
614.865	268.12
615.072	266.12
615.28	249.12
615.488	259.12
615.695	270.12
615.903	277.12
616.111	269.12
616.318	273.12
616.526	293.12
616.733	275.12
616.941	257.12
617.148	249.12
617.356	267.12
617.563	286.12
617.771	257.12
617.978	259.12
618.185	255.12
618.393	245.12
618.6	253.12
618.807	249.12
619.015	252.12
619.222	250.12
619.429	263.12
619.637	257.12
619.844	253.12
620.051	247.12
620.258	249.12
620.466	238.12
620.673	241.12
620.88	241.12
621.087	235.12
621.294	246.12
621.501	247.12
621.708	246.12
621.915	244.12
622.122	248.12
622.329	252.12
622.536	263.12
622.743	256.12
622.95	256.12
623.157	247.12
623.364	234.12
623.571	245.12
623.778	242.12
623.985	246.12
624.192	253.12
624.399	226.12
624.606	228.12
624.812	221.12
625.019	224.12
625.226	241.12
625.433	255.12
625.639	221.12
625.846	233.12
626.053	226.12
626.259	236.12
626.466	206.12
626.673	205.12
626.879	217.12
627.086	222.12
627.293	203.12
627.499	222.12
627.706	232.12
627.912	242.12
628.119	218.12
628.325	230.12
628.532	221.12
628.738	223.12
628.945	233.12
629.151	206.12
629.357	217.12
629.564	211.12
629.77	205.12
629.976	219.12
630.183	209.12
630.389	206.12
630.595	221.12
630.802	202.12
631.008	205.12
631.214	192.12
631.42	217.12
631.627	219.12
631.833	214.12
632.039	221.12
632.245	203.12
632.451	205.12
632.657	213.12
632.863	210.12
633.069	204.12
633.275	215.12
633.481	197.12
633.688	185.12
633.893	204.12
634.099	201.12
634.305	191.12
634.511	190.12
634.717	204.12
634.923	197.12
635.129	196.12
635.335	207.12
635.541	186.12
635.747	207.12
635.952	192.12
636.158	193.12
636.364	195.12
636.57	206.12
636.775	200.12
636.981	194.12
637.187	205.12
637.392	198.12
637.598	193.12
637.804	202.12
638.009	198.12
638.215	183.12
638.421	203.12
638.626	207.12
638.832	184.12
639.037	192.12
639.243	179.12
639.448	191.12
639.654	195.12
639.859	168.12
640.065	195.12
640.27	188.12
640.475	195.12
640.681	183.12
640.886	196.12
641.091	191.12
641.297	192.12
641.502	174.12
641.707	193.12
641.913	188.12
642.118	181.12
642.323	207.12
642.528	188.12
642.733	181.12
642.939	190.12
643.144	179.12
643.349	191.12
643.554	182.12
643.759	171.12
643.964	174.12
644.169	179.12
644.374	165.12
644.579	178.12
644.784	172.12
644.989	189.12
645.194	184.12
645.399	192.12
645.604	162.12
645.809	179.12
646.014	183.12
646.219	181.12
646.423	177.12
646.628	190.12
646.833	177.12
647.038	189.12
647.243	187.12
647.447	195.12
647.652	178.12
647.857	190.12
648.062	174.12
648.266	188.12
648.471	189.12
648.676	194.12
648.88	174.12
649.085	177.12
649.289	201.12
649.494	178.12
649.698	186.12
649.903	172.12
650.107	176.12
650.312	172.12
650.516	177.12
650.721	190.12
650.925	178.12
651.13	182.12
651.334	167.12
651.539	169.12
651.743	162.12
651.947	169.12
652.152	172.12
652.356	152.12
652.56	166.12
652.764	179.12
652.969	159.12
653.173	158.12
653.377	157.12
653.581	154.12
653.785	144.12
653.99	155.12
654.194	159.12
654.398	158.12
654.602	151.12
654.806	145.12
655.01	132.12
655.214	148.12
655.418	146.12
655.622	138.12
655.826	131.12
656.03	143.12
656.234	160.12
656.438	159.12
656.642	135.12
656.846	127.12
657.049	131.12
657.253	145.12
657.457	140.12
657.661	123.12
657.865	131.12
658.068	118.12
658.272	113.12
658.476	125.12
658.68	119.12
658.883	117.12
659.087	105.12
659.291	106.12
659.494	102.12
659.698	107.12
659.901	101.12
660.105	109.12
660.309	97.12
660.512	116.12
660.716	102.12
660.919	90.12
661.123	96.12
661.326	101.12
661.53	90.12
661.733	98.12
661.936	88.12
662.14	96.12
662.343	76.12
662.546	98.12
662.75	93.12
662.953	90.12
663.156	88.12
663.36	96.12
663.563	68.12
663.766	85.12
663.969	96.12
664.173	86.12
664.376	77.12
664.579	77.12
664.782	71.12
664.985	89.12
665.188	70.12
665.391	84.12
665.594	75.12
665.797	73.12
666	84.12
666.203	87.12
666.406	87.12
666.609	75.12
666.812	87.12
667.015	83.12
667.218	86.12
667.421	81.12
667.624	88.12
667.827	92.12
668.03	87.12
668.232	78.12
668.435	87.12
668.638	90.12
668.841	81.12
669.043	78.12
669.246	81.12
669.449	73.12
669.651	78.12
669.854	86.12
670.057	88.12
670.259	84.12
670.462	94.12
670.665	89.12
670.867	97.12
671.07	87.12
671.272	94.12
671.475	84.12
671.677	97.12
671.88	78.12
672.082	98.12
672.284	97.12
672.487	83.12
672.689	74.12
672.892	85.12
