Data from NiCl2@0.125M.TitratingCurve.Agarose3%dH2O.NegLispCup.LampEnergy10.LIBS07252019_HRD10591_18-29-50-575.txt Node
Date: Thu Jul 25 18:29:50 EDT 2019
User: cochatt
Spectrometer: HR+D1059
Trigger mode: 1
Integration Time (sec): 1.000000E-1
Scans to average: 1
Electric dark correction enabled: true
Nonlinearity correction enabled: false
Boxcar width: 0
XAxis mode: Wavelengths
Number of Pixels in Spectrum: 2048
>>>>>Begin Spectral Data<<<<<
223.165	-15.75
223.4	-15.75
223.635	-15.75
223.869	-14.75
224.104	-18.75
224.338	-12.75
224.573	-23.75
224.808	3.25
225.042	-18.75
225.277	-9.75
225.511	-10.75
225.746	7.25
225.98	10.25
226.215	18.25
226.449	9.25
226.683	28.25
226.918	23.25
227.152	25.25
227.387	27.25
227.621	32.25
227.856	36.25
228.09	42.25
228.324	50.25
228.559	50.25
228.793	66.25
229.027	111.25
229.262	124.25
229.496	118.25
229.73	120.25
229.964	125.25
230.199	123.25
230.433	125.25
230.667	130.25
230.901	127.25
231.136	110.25
231.37	145.25
231.604	149.25
231.838	152.25
232.072	134.25
232.306	140.25
232.541	155.25
232.775	139.25
233.009	164.25
233.243	157.25
233.477	157.25
233.711	153.25
233.945	161.25
234.179	150.25
234.413	157.25
234.647	149.25
234.881	165.25
235.115	154.25
235.349	145.25
235.583	139.25
235.817	150.25
236.051	170.25
236.285	155.25
236.519	143.25
236.753	157.25
236.987	164.25
237.221	162.25
237.455	167.25
237.689	167.25
237.922	161.25
238.156	181.25
238.39	163.25
238.624	181.25
238.858	185.25
239.091	164.25
239.325	174.25
239.559	183.25
239.793	182.25
240.027	174.25
240.26	162.25
240.494	178.25
240.728	184.25
240.961	188.25
241.195	179.25
241.429	197.25
241.662	203.25
241.896	198.25
242.13	194.25
242.363	203.25
242.597	208.25
242.83	204.25
243.064	213.25
243.298	201.25
243.531	202.25
243.765	221.25
243.998	225.25
244.232	213.25
244.465	197.25
244.699	223.25
244.932	224.25
245.166	231.25
245.399	224.25
245.633	202.25
245.866	228.25
246.099	210.25
246.333	210.25
246.566	242.25
246.8	225.25
247.033	234.25
247.266	218.25
247.5	233.25
247.733	226.25
247.966	247.25
248.2	231.25
248.433	254.25
248.666	238.25
248.899	242.25
249.133	251.25
249.366	254.25
249.599	266.25
249.832	243.25
250.066	267.25
250.299	253.25
250.532	268.25
250.765	276.25
250.998	278.25
251.231	262.25
251.465	284.25
251.698	269.25
251.931	265.25
252.164	269.25
252.397	272.25
252.63	287.25
252.863	293.25
253.096	285.25
253.329	297.25
253.562	275.25
253.795	278.25
254.028	280.25
254.261	294.25
254.494	307.25
254.727	289.25
254.96	291.25
255.193	288.25
255.426	303.25
255.659	271.25
255.892	305.25
256.124	301.25
256.357	316.25
256.59	313.25
256.823	295.25
257.056	305.25
257.289	314.25
257.521	318.25
257.754	304.25
257.987	321.25
258.22	295.25
258.452	302.25
258.685	326.25
258.918	326.25
259.151	312.25
259.383	329.25
259.616	321.25
259.849	327.25
260.081	328.25
260.314	317.25
260.547	319.25
260.779	340.25
261.012	316.25
261.244	329.25
261.477	324.25
261.71	324.25
261.942	323.25
262.175	338.25
262.407	326.25
262.64	330.25
262.872	354.25
263.105	339.25
263.337	350.25
263.57	337.25
263.802	356.25
264.035	345.25
264.267	362.25
264.499	374.25
264.732	362.25
264.964	353.25
265.197	373.25
265.429	371.25
265.661	357.25
265.894	361.25
266.126	381.25
266.358	375.25
266.591	362.25
266.823	389.25
267.055	368.25
267.287	373.25
267.52	381.25
267.752	396.25
267.984	392.25
268.216	383.25
268.448	385.25
268.681	390.25
268.913	375.25
269.145	371.25
269.377	379.25
269.609	391.25
269.841	379.25
270.073	392.25
270.306	376.25
270.538	393.25
270.77	401.25
271.002	409.25
271.234	401.25
271.466	402.25
271.698	391.25
271.93	403.25
272.162	381.25
272.394	404.25
272.626	424.25
272.858	417.25
273.09	407.25
273.322	415.25
273.553	422.25
273.785	437.25
274.017	420.25
274.249	415.25
274.481	423.25
274.713	425.25
274.945	409.25
275.176	447.25
275.408	437.25
275.64	425.25
275.872	433.25
276.104	435.25
276.335	442.25
276.567	442.25
276.799	448.25
277.031	458.25
277.262	441.25
277.494	454.25
277.726	456.25
277.957	449.25
278.189	434.25
278.421	421.25
278.652	426.25
278.884	449.25
279.115	446.25
279.347	457.25
279.579	448.25
279.81	445.25
280.042	470.25
280.273	461.25
280.505	451.25
280.736	459.25
280.968	463.25
281.199	456.25
281.431	479.25
281.662	482.25
281.894	466.25
282.125	487.25
282.356	464.25
282.588	485.25
282.819	469.25
283.051	496.25
283.282	482.25
283.513	507.25
283.745	505.25
283.976	496.25
284.207	490.25
284.439	516.25
284.67	493.25
284.901	483.25
285.132	497.25
285.364	530.25
285.595	503.25
285.826	497.25
286.057	521.25
286.288	522.25
286.52	522.25
286.751	516.25
286.982	535.25
287.213	539.25
287.444	527.25
287.675	520.25
287.906	541.25
288.138	540.25
288.369	545.25
288.6	532.25
288.831	522.25
289.062	536.25
289.293	539.25
289.524	541.25
289.755	530.25
289.986	538.25
290.217	546.25
290.448	563.25
290.679	553.25
290.91	534.25
291.141	551.25
291.371	562.25
291.602	551.25
291.833	539.25
292.064	553.25
292.295	550.25
292.526	542.25
292.757	539.25
292.987	560.25
293.218	545.25
293.449	557.25
293.68	565.25
293.91	547.25
294.141	552.25
294.372	565.25
294.603	551.25
294.833	555.25
295.064	546.25
295.295	547.25
295.525	527.25
295.756	543.25
295.987	556.25
296.217	551.25
296.448	571.25
296.679	559.25
296.909	563.25
297.14	571.25
297.37	565.25
297.601	601.25
297.831	598.25
298.062	561.25
298.292	599.25
298.523	637.25
298.753	628.25
298.984	601.25
299.214	622.25
299.445	613.25
299.675	584.25
299.905	620.25
300.136	600.25
300.366	609.25
300.597	617.25
300.827	600.25
301.057	635.25
301.288	623.25
301.518	631.25
301.748	644.25
301.979	625.25
302.209	637.25
302.439	610.25
302.669	648.25
302.9	605.25
303.13	599.25
303.36	598.25
303.59	617.25
303.82	651.25
304.051	627.25
304.281	629.25
304.511	624.25
304.741	611.25
304.971	621.25
305.201	639.25
305.431	627.25
305.661	615.25
305.891	618.25
306.121	617.25
306.352	593.25
306.582	623.25
306.812	608.25
307.042	583.25
307.272	633.25
307.502	609.25
307.731	595.25
307.961	591.25
308.191	607.25
308.421	612.25
308.651	608.25
308.881	596.25
309.111	590.25
309.341	597.25
309.571	608.25
309.8	618.25
310.03	625.25
310.26	603.25
310.49	602.25
310.72	614.25
310.949	617.25
311.179	610.25
311.409	622.25
311.639	629.25
311.868	622.25
312.098	627.25
312.328	642.25
312.557	648.25
312.787	639.25
313.017	643.25
313.246	652.25
313.476	646.25
313.706	659.25
313.935	671.25
314.165	657.25
314.394	657.25
314.624	675.25
314.853	657.25
315.083	678.25
315.312	631.25
315.542	650.25
315.771	646.25
316.001	642.25
316.23	627.25
316.46	642.25
316.689	631.25
316.919	635.25
317.148	647.25
317.377	634.25
317.607	643.25
317.836	643.25
318.065	637.25
318.295	627.25
318.524	637.25
318.753	655.25
318.983	638.25
319.212	626.25
319.441	659.25
319.67	634.25
319.9	643.25
320.129	647.25
320.358	653.25
320.587	641.25
320.816	652.25
321.046	634.25
321.275	643.25
321.504	641.25
321.733	651.25
321.962	648.25
322.191	636.25
322.42	645.25
322.649	642.25
322.878	646.25
323.108	651.25
323.337	681.25
323.566	672.25
323.795	649.25
324.024	697.25
324.253	675.25
324.482	655.25
324.71	645.25
324.939	683.25
325.168	665.25
325.397	664.25
325.626	693.25
325.855	681.25
326.084	708.25
326.313	697.25
326.542	700.25
326.77	733.25
326.999	731.25
327.228	696.25
327.457	709.25
327.686	702.25
327.914	712.25
328.143	697.25
328.372	727.25
328.6	705.25
328.829	699.25
329.058	698.25
329.287	708.25
329.515	721.25
329.744	714.25
329.972	726.25
330.201	709.25
330.43	718.25
330.658	731.25
330.887	727.25
331.115	723.25
331.344	729.25
331.572	739.25
331.801	742.25
332.03	794.25
332.258	795.25
332.486	813.25
332.715	855.25
332.943	880.25
333.172	930.25
333.4	985.25
333.629	954.25
333.857	986.25
334.085	963.25
334.314	946.25
334.542	960.25
334.771	914.25
334.999	886.25
335.227	870.25
335.455	871.25
335.684	875.25
335.912	859.25
336.14	855.25
336.369	858.25
336.597	843.25
336.825	837.25
337.053	846.25
337.281	874.25
337.51	809.25
337.738	821.25
337.966	778.25
338.194	758.25
338.422	796.25
338.65	763.25
338.878	740.25
339.106	763.25
339.334	780.25
339.562	753.25
339.79	743.25
340.018	741.25
340.246	713.25
340.474	729.25
340.702	762.25
340.93	755.25
341.158	739.25
341.386	721.25
341.614	736.25
341.842	726.25
342.07	710.25
342.298	753.25
342.526	734.25
342.754	740.25
342.981	746.25
343.209	770.25
343.437	768.25
343.665	864.25
343.893	882.25
344.12	943.25
344.348	895.25
344.576	838.25
344.804	772.25
345.031	756.25
345.259	787.25
345.487	752.25
345.714	733.25
345.942	720.25
346.17	728.25
346.397	726.25
346.625	707.25
346.853	720.25
347.08	717.25
347.308	724.25
347.535	702.25
347.763	735.25
347.99	723.25
348.218	711.25
348.445	728.25
348.673	705.25
348.9	711.25
349.128	702.25
349.355	737.25
349.583	711.25
349.81	687.25
350.037	679.25
350.265	684.25
350.492	695.25
350.72	693.25
350.947	694.25
351.174	696.25
351.402	688.25
351.629	665.25
351.856	678.25
352.083	674.25
352.311	673.25
352.538	697.25
352.765	688.25
352.992	681.25
353.22	666.25
353.447	655.25
353.674	675.25
353.901	691.25
354.128	689.25
354.355	672.25
354.583	674.25
354.81	681.25
355.037	680.25
355.264	687.25
355.491	689.25
355.718	692.25
355.945	688.25
356.172	703.25
356.399	690.25
356.626	677.25
356.853	701.25
357.08	666.25
357.307	694.25
357.534	694.25
357.761	692.25
357.988	701.25
358.215	695.25
358.441	699.25
358.668	707.25
358.895	709.25
359.122	673.25
359.349	717.25
359.576	697.25
359.802	722.25
360.029	703.25
360.256	681.25
360.483	687.25
360.709	711.25
360.936	698.25
361.163	668.25
361.39	691.25
361.616	698.25
361.843	678.25
362.07	691.25
362.296	709.25
362.523	678.25
362.749	721.25
362.976	694.25
363.203	670.25
363.429	691.25
363.656	697.25
363.882	688.25
364.109	681.25
364.335	697.25
364.562	692.25
364.788	680.25
365.015	676.25
365.241	680.25
365.468	692.25
365.694	697.25
365.92	699.25
366.147	700.25
366.373	673.25
366.599	675.25
366.826	679.25
367.052	678.25
367.278	704.25
367.505	693.25
367.731	667.25
367.957	703.25
368.184	678.25
368.41	715.25
368.636	720.25
368.862	714.25
369.089	702.25
369.315	701.25
369.541	700.25
369.767	733.25
369.993	693.25
370.219	732.25
370.445	746.25
370.672	727.25
370.898	721.25
371.124	718.25
371.35	730.25
371.576	746.25
371.802	741.25
372.028	742.25
372.254	764.25
372.48	789.25
372.706	771.25
372.932	797.25
373.158	771.25
373.384	751.25
373.61	774.25
373.835	777.25
374.061	729.25
374.287	767.25
374.513	785.25
374.739	795.25
374.965	844.25
375.191	859.25
375.416	819.25
375.642	835.25
375.868	805.25
376.094	771.25
376.319	777.25
376.545	765.25
376.771	775.25
376.997	742.25
377.222	773.25
377.448	753.25
377.674	770.25
377.899	765.25
378.125	750.25
378.35	772.25
378.576	759.25
378.802	734.25
379.027	735.25
379.253	749.25
379.478	738.25
379.704	725.25
379.929	732.25
380.155	759.25
380.38	755.25
380.606	755.25
380.831	752.25
381.057	757.25
381.282	749.25
381.507	779.25
381.733	755.25
381.958	773.25
382.184	749.25
382.409	798.25
382.634	793.25
382.86	782.25
383.085	779.25
383.31	842.25
383.535	844.25
383.761	852.25
383.986	875.25
384.211	862.25
384.436	897.25
384.662	901.25
384.887	912.25
385.112	915.25
385.337	934.25
385.562	900.25
385.787	932.25
386.013	931.25
386.238	893.25
386.463	907.25
386.688	905.25
386.913	893.25
387.138	898.25
387.363	909.25
387.588	903.25
387.813	891.25
388.038	877.25
388.263	880.25
388.488	887.25
388.713	877.25
388.938	882.25
389.163	889.25
389.387	896.25
389.612	879.25
389.837	861.25
390.062	888.25
390.287	883.25
390.512	867.25
390.736	900.25
390.961	937.25
391.186	943.25
391.411	973.25
391.636	982.25
391.86	1027.25
392.085	1051.25
392.31	1045.25
392.534	1008.25
392.759	979.25
392.984	941.25
393.208	961.25
393.433	990.25
393.658	980.25
393.882	953.25
394.107	970.25
394.331	989.25
394.556	984.25
394.78	979.25
395.005	998.25
395.229	1002.25
395.454	1022.25
395.678	1038.25
395.903	1052.25
396.127	987.25
396.352	995.25
396.576	965.25
396.801	944.25
397.025	938.25
397.249	986.25
397.474	1011.25
397.698	1015.25
397.922	1016.25
398.147	1012.25
398.371	1033.25
398.595	1082.25
398.82	1155.25
399.044	1211.25
399.268	1354.25
399.492	1565.25
399.717	1805.25
399.941	1779.25
400.165	1541.25
400.389	1403.25
400.613	1288.25
400.837	1183.25
401.062	1175.25
401.286	1152.25
401.51	1139.25
401.734	1143.25
401.958	1159.25
402.182	1170.25
402.406	1198.25
402.63	1233.25
402.854	1226.25
403.078	1237.25
403.302	1291.25
403.526	1340.25
403.75	1362.25
403.974	1355.25
404.198	1366.25
404.422	1357.25
404.645	1348.25
404.869	1296.25
405.093	1301.25
405.317	1303.25
405.541	1277.25
405.765	1255.25
405.988	1240.25
406.212	1233.25
406.436	1248.25
406.66	1278.25
406.883	1307.25
407.107	1427.25
407.331	1479.25
407.555	1493.25
407.778	1477.25
408.002	1420.25
408.226	1443.25
408.449	1393.25
408.673	1345.25
408.896	1273.25
409.12	1279.25
409.344	1262.25
409.567	1299.25
409.791	1337.25
410.014	1301.25
410.238	1319.25
410.461	1288.25
410.685	1302.25
410.908	1222.25
411.132	1243.25
411.355	1204.25
411.578	1187.25
411.802	1199.25
412.025	1184.25
412.249	1202.25
412.472	1222.25
412.695	1170.25
412.919	1130.25
413.142	1158.25
413.365	1167.25
413.589	1169.25
413.812	1144.25
414.035	1124.25
414.258	1146.25
414.482	1149.25
414.705	1161.25
414.928	1187.25
415.151	1159.25
415.374	1146.25
415.597	1143.25
415.821	1143.25
416.044	1129.25
416.267	1117.25
416.49	1124.25
416.713	1101.25
416.936	1125.25
417.159	1121.25
417.382	1121.25
417.605	1114.25
417.828	1098.25
418.051	1143.25
418.274	1150.25
418.497	1128.25
418.72	1145.25
418.943	1153.25
419.166	1252.25
419.389	1310.25
419.611	1289.25
419.834	1227.25
420.057	1204.25
420.28	1166.25
420.503	1125.25
420.726	1103.25
420.948	1134.25
421.171	1113.25
421.394	1143.25
421.617	1109.25
421.839	1161.25
422.062	1133.25
422.285	1125.25
422.507	1165.25
422.73	1167.25
422.953	1153.25
423.175	1183.25
423.398	1224.25
423.621	1249.25
423.843	1249.25
424.066	1224.25
424.288	1230.25
424.511	1190.25
424.733	1169.25
424.956	1163.25
425.178	1177.25
425.401	1140.25
425.623	1147.25
425.846	1096.25
426.068	1089.25
426.291	1084.25
426.513	1087.25
426.735	1049.25
426.958	1081.25
427.18	1045.25
427.402	1035.25
427.625	1044.25
427.847	991.25
428.069	992.25
428.292	1001.25
428.514	998.25
428.736	1016.25
428.958	997.25
429.181	987.25
429.403	955.25
429.625	1002.25
429.847	989.25
430.069	962.25
430.292	991.25
430.514	973.25
430.736	989.25
430.958	967.25
431.18	974.25
431.402	966.25
431.624	966.25
431.846	1015.25
432.068	980.25
432.29	1033.25
432.512	999.25
432.734	1011.25
432.956	1005.25
433.178	1009.25
433.4	1006.25
433.622	988.25
433.844	1013.25
434.066	1031.25
434.287	985.25
434.509	1047.25
434.731	1098.25
434.953	1134.25
435.175	1141.25
435.397	1134.25
435.618	1064.25
435.84	1041.25
436.062	1016.25
436.284	961.25
436.505	962.25
436.727	995.25
436.949	996.25
437.17	1002.25
437.392	985.25
437.614	976.25
437.835	964.25
438.057	976.25
438.278	941.25
438.5	954.25
438.721	967.25
438.943	1013.25
439.165	965.25
439.386	986.25
439.608	1006.25
439.829	985.25
440.05	1002.25
440.272	1030.25
440.493	1010.25
440.715	1009.25
440.936	1071.25
441.158	1069.25
441.379	1070.25
441.6	1128.25
441.822	1161.25
442.043	1124.25
442.264	1133.25
442.486	1128.25
442.707	1151.25
442.928	1109.25
443.149	1145.25
443.371	1133.25
443.592	1105.25
443.813	1147.25
444.034	1147.25
444.255	1179.25
444.476	1243.25
444.698	1328.25
444.919	1365.25
445.14	1473.25
445.361	1288.25
445.582	1207.25
445.803	1097.25
446.024	1041.25
446.245	1074.25
446.466	1034.25
446.687	1007.25
446.908	1023.25
447.129	984.25
447.35	981.25
447.571	970.25
447.792	943.25
448.013	947.25
448.234	927.25
448.455	944.25
448.675	922.25
448.896	944.25
449.117	885.25
449.338	893.25
449.559	894.25
449.779	921.25
450	919.25
450.221	901.25
450.442	918.25
450.662	935.25
450.883	943.25
451.104	970.25
451.324	935.25
451.545	950.25
451.766	941.25
451.986	915.25
452.207	955.25
452.428	953.25
452.648	915.25
452.869	897.25
453.089	909.25
453.31	913.25
453.53	923.25
453.751	885.25
453.971	893.25
454.192	900.25
454.412	854.25
454.633	890.25
454.853	881.25
455.073	863.25
455.294	864.25
455.514	865.25
455.734	879.25
455.955	851.25
456.175	865.25
456.395	839.25
456.616	867.25
456.836	859.25
457.056	857.25
457.276	815.25
457.497	880.25
457.717	865.25
457.937	868.25
458.157	871.25
458.377	902.25
458.598	907.25
458.818	929.25
459.038	934.25
459.258	993.25
459.478	1018.25
459.698	1030.25
459.918	1053.25
460.138	1104.25
460.358	1172.25
460.578	1193.25
460.798	1209.25
461.018	1210.25
461.238	1184.25
461.458	1207.25
461.678	1186.25
461.898	1189.25
462.118	1244.25
462.338	1311.25
462.558	1299.25
462.777	1374.25
462.997	1453.25
463.217	1633.25
463.437	1627.25
463.657	1507.25
463.876	1415.25
464.096	1391.25
464.316	1351.25
464.536	1397.25
464.755	1347.25
464.975	1311.25
465.195	1262.25
465.414	1138.25
465.634	1064.25
465.854	1047.25
466.073	1039.25
466.293	1011.25
466.512	973.25
466.732	972.25
466.951	962.25
467.171	959.25
467.391	989.25
467.61	1002.25
467.829	954.25
468.049	955.25
468.268	929.25
468.488	931.25
468.707	900.25
468.927	901.25
469.146	918.25
469.365	926.25
469.585	951.25
469.804	966.25
470.023	991.25
470.243	962.25
470.462	1031.25
470.681	984.25
470.901	963.25
471.12	978.25
471.339	985.25
471.558	970.25
471.777	962.25
471.997	930.25
472.216	925.25
472.435	926.25
472.654	922.25
472.873	893.25
473.092	877.25
473.311	906.25
473.53	884.25
473.749	880.25
473.968	889.25
474.187	910.25
474.406	877.25
474.625	874.25
474.844	846.25
475.063	911.25
475.282	869.25
475.501	913.25
475.72	905.25
475.939	947.25
476.158	888.25
476.377	917.25
476.596	927.25
476.814	951.25
477.033	957.25
477.252	957.25
477.471	966.25
477.69	988.25
477.908	1021.25
478.127	1063.25
478.346	1091.25
478.564	1109.25
478.783	1086.25
479.002	1130.25
479.22	1118.25
479.439	1090.25
479.658	1126.25
479.876	1081.25
480.095	1130.25
480.313	1170.25
480.532	1191.25
480.751	1202.25
480.969	1160.25
481.188	1089.25
481.406	1085.25
481.624	1049.25
481.843	1075.25
482.061	1019.25
482.28	1026.25
482.498	997.25
482.717	1018.25
482.935	1029.25
483.153	1018.25
483.372	1011.25
483.59	1035.25
483.808	1017.25
484.027	1008.25
484.245	1033.25
484.463	1012.25
484.681	1045.25
484.9	1027.25
485.118	1078.25
485.336	1039.25
485.554	1051.25
485.772	1058.25
485.99	1091.25
486.209	1102.25
486.427	1108.25
486.645	1081.25
486.863	1102.25
487.081	1078.25
487.299	1084.25
487.517	1046.25
487.735	1055.25
487.953	1083.25
488.171	1058.25
488.389	1032.25
488.607	1055.25
488.825	1040.25
489.043	1037.25
489.261	1042.25
489.479	1031.25
489.696	1052.25
489.914	1063.25
490.132	1069.25
490.35	1066.25
490.568	1031.25
490.786	1057.25
491.003	1095.25
491.221	1076.25
491.439	1075.25
491.657	1076.25
491.874	1086.25
492.092	1043.25
492.31	1052.25
492.527	1055.25
492.745	1070.25
492.963	1098.25
493.18	1098.25
493.398	1101.25
493.615	1118.25
493.833	1098.25
494.05	1136.25
494.268	1111.25
494.485	1114.25
494.703	1133.25
494.92	1126.25
495.138	1111.25
495.355	1141.25
495.573	1130.25
495.79	1139.25
496.008	1127.25
496.225	1147.25
496.442	1114.25
496.66	1137.25
496.877	1192.25
497.094	1213.25
497.312	1208.25
497.529	1261.25
497.746	1271.25
497.963	1327.25
498.181	1400.25
498.398	1463.25
498.615	1521.25
498.832	1647.25
499.049	1789.25
499.267	1895.25
499.484	2090.25
499.701	2315.25
499.918	2549.25
500.135	3003.25
500.352	3408.25
500.569	3633.25
500.786	3590.25
501.003	3329.25
501.22	2925.25
501.437	2563.25
501.654	2229.25
501.871	1990.25
502.088	1882.25
502.305	1693.25
502.522	1595.25
502.739	1581.25
502.956	1477.25
503.172	1382.25
503.389	1366.25
503.606	1318.25
503.823	1326.25
504.04	1263.25
504.256	1279.25
504.473	1331.25
504.69	1367.25
504.907	1349.25
505.123	1248.25
505.34	1223.25
505.557	1112.25
505.773	1106.25
505.99	1073.25
506.207	1048.25
506.423	1053.25
506.64	1035.25
506.856	1026.25
507.073	989.25
507.289	1017.25
507.506	997.25
507.722	952.25
507.939	974.25
508.155	938.25
508.372	966.25
508.588	952.25
508.805	972.25
509.021	951.25
509.238	954.25
509.454	926.25
509.67	924.25
509.887	918.25
510.103	908.25
510.319	919.25
510.536	910.25
510.752	918.25
510.968	922.25
511.184	887.25
511.401	915.25
511.617	870.25
511.833	922.25
512.049	906.25
512.265	910.25
512.481	890.25
512.698	915.25
512.914	911.25
513.13	909.25
513.346	888.25
513.562	891.25
513.778	921.25
513.994	912.25
514.21	915.25
514.426	937.25
514.642	936.25
514.858	937.25
515.074	951.25
515.29	925.25
515.506	950.25
515.721	985.25
515.937	1007.25
516.153	981.25
516.369	991.25
516.585	1050.25
516.801	1083.25
517.016	1088.25
517.232	1166.25
517.448	1244.25
517.664	1272.25
517.879	1291.25
518.095	1278.25
518.311	1294.25
518.527	1214.25
518.742	1157.25
518.958	1077.25
519.173	1041.25
519.389	1016.25
519.605	989.25
519.82	962.25
520.036	957.25
520.251	927.25
520.467	923.25
520.682	893.25
520.898	884.25
521.113	917.25
521.329	917.25
521.544	888.25
521.76	912.25
521.975	883.25
522.19	861.25
522.406	849.25
522.621	858.25
522.836	854.25
523.052	837.25
523.267	864.25
523.482	864.25
523.698	830.25
523.913	841.25
524.128	835.25
524.343	841.25
524.559	853.25
524.774	826.25
524.989	857.25
525.204	872.25
525.419	829.25
525.634	820.25
525.849	816.25
526.064	829.25
526.28	800.25
526.495	815.25
526.71	826.25
526.925	811.25
527.14	836.25
527.355	831.25
527.57	800.25
527.785	834.25
527.999	811.25
528.214	801.25
528.429	826.25
528.644	833.25
528.859	837.25
529.074	811.25
529.289	817.25
529.503	826.25
529.718	824.25
529.933	823.25
530.148	805.25
530.363	809.25
530.577	809.25
530.792	825.25
531.007	828.25
531.221	835.25
531.436	811.25
531.651	810.25
531.865	821.25
532.08	866.25
532.295	830.25
532.509	791.25
532.724	820.25
532.938	833.25
533.153	837.25
533.367	828.25
533.582	822.25
533.796	820.25
534.011	848.25
534.225	810.25
534.44	822.25
534.654	797.25
534.868	805.25
535.083	815.25
535.297	817.25
535.511	809.25
535.726	813.25
535.94	797.25
536.154	789.25
536.369	756.25
536.583	755.25
536.797	760.25
537.011	756.25
537.225	749.25
537.44	761.25
537.654	744.25
537.868	743.25
538.082	746.25
538.296	745.25
538.51	750.25
538.724	763.25
538.938	729.25
539.153	712.25
539.367	744.25
539.581	722.25
539.795	742.25
540.009	727.25
540.222	746.25
540.436	740.25
540.65	744.25
540.864	709.25
541.078	736.25
541.292	712.25
541.506	736.25
541.72	744.25
541.934	721.25
542.147	722.25
542.361	719.25
542.575	733.25
542.789	708.25
543.002	686.25
543.216	707.25
543.43	685.25
543.644	728.25
543.857	701.25
544.071	727.25
544.285	726.25
544.498	719.25
544.712	728.25
544.925	754.25
545.139	738.25
545.352	729.25
545.566	741.25
545.779	747.25
545.993	736.25
546.206	725.25
546.42	751.25
546.633	738.25
546.847	741.25
547.06	747.25
547.274	734.25
547.487	727.25
547.7	736.25
547.914	738.25
548.127	767.25
548.34	749.25
548.554	768.25
548.767	763.25
548.98	725.25
549.193	720.25
549.407	756.25
549.62	753.25
549.833	771.25
550.046	759.25
550.259	774.25
550.473	746.25
550.686	707.25
550.899	741.25
551.112	728.25
551.325	712.25
551.538	726.25
551.751	712.25
551.964	710.25
552.177	773.25
552.39	755.25
552.603	782.25
552.816	826.25
553.029	817.25
553.242	819.25
553.455	814.25
553.667	859.25
553.88	805.25
554.093	785.25
554.306	777.25
554.519	767.25
554.732	755.25
554.944	735.25
555.157	726.25
555.37	720.25
555.583	678.25
555.795	667.25
556.008	675.25
556.221	649.25
556.433	671.25
556.646	663.25
556.859	642.25
557.071	651.25
557.284	645.25
557.496	628.25
557.709	673.25
557.921	649.25
558.134	662.25
558.346	625.25
558.559	641.25
558.771	644.25
558.984	624.25
559.196	625.25
559.409	604.25
559.621	623.25
559.833	631.25
560.046	612.25
560.258	605.25
560.47	604.25
560.683	623.25
560.895	625.25
561.107	613.25
561.32	602.25
561.532	604.25
561.744	632.25
561.956	630.25
562.168	621.25
562.381	621.25
562.593	621.25
562.805	599.25
563.017	633.25
563.229	628.25
563.441	609.25
563.653	645.25
563.865	624.25
564.077	640.25
564.289	640.25
564.501	639.25
564.713	655.25
564.925	658.25
565.137	657.25
565.349	666.25
565.561	715.25
565.773	742.25
565.985	767.25
566.197	787.25
566.408	867.25
566.62	960.25
566.832	1038.25
567.044	1058.25
567.255	1026.25
567.467	1058.25
567.679	1123.25
567.891	1247.25
568.102	1263.25
568.314	1194.25
568.526	1064.25
568.737	939.25
568.949	854.25
569.161	779.25
569.372	763.25
569.584	708.25
569.795	687.25
570.007	656.25
570.218	646.25
570.43	637.25
570.641	659.25
570.853	631.25
571.064	634.25
571.276	654.25
571.487	641.25
571.698	611.25
571.91	582.25
572.121	574.25
572.333	569.25
572.544	551.25
572.755	540.25
572.966	560.25
573.178	539.25
573.389	546.25
573.6	519.25
573.811	518.25
574.023	522.25
574.234	515.25
574.445	500.25
574.656	517.25
574.867	517.25
575.078	514.25
575.289	509.25
575.501	493.25
575.712	486.25
575.923	478.25
576.134	471.25
576.345	482.25
576.556	505.25
576.767	488.25
576.978	495.25
577.188	513.25
577.399	470.25
577.61	454.25
577.821	491.25
578.032	478.25
578.243	465.25
578.454	459.25
578.665	455.25
578.875	442.25
579.086	458.25
579.297	455.25
579.508	450.25
579.718	449.25
579.929	435.25
580.14	445.25
580.35	429.25
580.561	454.25
580.772	446.25
580.982	450.25
581.193	418.25
581.403	437.25
581.614	429.25
581.825	415.25
582.035	435.25
582.246	415.25
582.456	451.25
582.667	442.25
582.877	408.25
583.087	442.25
583.298	423.25
583.508	433.25
583.719	422.25
583.929	426.25
584.139	437.25
584.35	422.25
584.56	441.25
584.77	407.25
584.981	415.25
585.191	431.25
585.401	418.25
585.611	410.25
585.821	426.25
586.032	404.25
586.242	402.25
586.452	421.25
586.662	406.25
586.872	403.25
587.082	415.25
587.292	415.25
587.502	420.25
587.713	387.25
587.923	405.25
588.133	395.25
588.343	418.25
588.553	415.25
588.762	422.25
588.972	406.25
589.182	419.25
589.392	411.25
589.602	414.25
589.812	408.25
590.022	412.25
590.232	410.25
590.441	409.25
590.651	412.25
590.861	409.25
591.071	438.25
591.281	413.25
591.49	418.25
591.7	435.25
591.91	447.25
592.119	462.25
592.329	462.25
592.539	471.25
592.748	493.25
592.958	495.25
593.167	523.25
593.377	513.25
593.587	519.25
593.796	511.25
594.006	530.25
594.215	529.25
594.424	544.25
594.634	532.25
594.843	507.25
595.053	483.25
595.262	468.25
595.472	477.25
595.681	449.25
595.89	423.25
596.1	411.25
596.309	417.25
596.518	411.25
596.727	380.25
596.937	385.25
597.146	380.25
597.355	403.25
597.564	359.25
597.774	362.25
597.983	382.25
598.192	384.25
598.401	370.25
598.61	347.25
598.819	355.25
599.028	356.25
599.237	366.25
599.446	333.25
599.655	330.25
599.864	346.25
600.073	335.25
600.282	350.25
600.491	338.25
600.7	335.25
600.909	341.25
601.118	338.25
601.327	341.25
601.536	337.25
601.745	331.25
601.953	342.25
602.162	352.25
602.371	342.25
602.58	352.25
602.789	319.25
602.997	344.25
603.206	321.25
603.415	340.25
603.623	330.25
603.832	338.25
604.041	332.25
604.249	326.25
604.458	329.25
604.666	333.25
604.875	316.25
605.084	326.25
605.292	320.25
605.501	318.25
605.709	310.25
605.918	316.25
606.126	312.25
606.334	329.25
606.543	319.25
606.751	297.25
606.96	310.25
607.168	303.25
607.376	303.25
607.585	306.25
607.793	289.25
608.001	308.25
608.21	314.25
608.418	305.25
608.626	321.25
608.834	290.25
609.043	305.25
609.251	333.25
609.459	305.25
609.667	308.25
609.875	307.25
610.083	286.25
610.291	317.25
610.499	325.25
610.707	313.25
610.916	310.25
611.124	301.25
611.332	306.25
611.54	295.25
611.748	312.25
611.955	283.25
612.163	291.25
612.371	313.25
612.579	306.25
612.787	303.25
612.995	293.25
613.203	278.25
613.411	283.25
613.618	301.25
613.826	301.25
614.034	294.25
614.242	289.25
614.449	283.25
614.657	282.25
614.865	290.25
615.072	294.25
615.28	291.25
615.488	288.25
615.695	302.25
615.903	292.25
616.111	321.25
616.318	306.25
616.526	306.25
616.733	306.25
616.941	297.25
617.148	296.25
617.356	307.25
617.563	298.25
617.771	290.25
617.978	296.25
618.185	311.25
618.393	307.25
618.6	308.25
618.807	304.25
619.015	301.25
619.222	281.25
619.429	288.25
619.637	292.25
619.844	293.25
620.051	293.25
620.258	276.25
620.466	277.25
620.673	287.25
620.88	264.25
621.087	262.25
621.294	281.25
621.501	272.25
621.708	292.25
621.915	287.25
622.122	274.25
622.329	271.25
622.536	270.25
622.743	271.25
622.95	271.25
623.157	251.25
623.364	245.25
623.571	247.25
623.778	263.25
623.985	258.25
624.192	268.25
624.399	249.25
624.606	271.25
624.812	272.25
625.019	263.25
625.226	266.25
625.433	269.25
625.639	257.25
625.846	259.25
626.053	243.25
626.259	263.25
626.466	242.25
626.673	261.25
626.879	246.25
627.086	262.25
627.293	258.25
627.499	255.25
627.706	250.25
627.912	255.25
628.119	264.25
628.325	258.25
628.532	254.25
628.738	243.25
628.945	227.25
629.151	246.25
629.357	233.25
629.564	238.25
629.77	241.25
629.976	227.25
630.183	240.25
630.389	231.25
630.595	243.25
630.802	240.25
631.008	231.25
631.214	213.25
631.42	219.25
631.627	226.25
631.833	221.25
632.039	214.25
632.245	224.25
632.451	238.25
632.657	234.25
632.863	243.25
633.069	224.25
633.275	219.25
633.481	224.25
633.688	229.25
633.893	221.25
634.099	226.25
634.305	232.25
634.511	214.25
634.717	234.25
634.923	230.25
635.129	208.25
635.335	202.25
635.541	212.25
635.747	203.25
635.952	217.25
636.158	204.25
636.364	205.25
636.57	208.25
636.775	209.25
636.981	217.25
637.187	227.25
637.392	216.25
637.598	207.25
637.804	225.25
638.009	204.25
638.215	202.25
638.421	218.25
638.626	206.25
638.832	203.25
639.037	211.25
639.243	199.25
639.448	203.25
639.654	195.25
639.859	210.25
640.065	200.25
640.27	218.25
640.475	194.25
640.681	209.25
640.886	191.25
641.091	209.25
641.297	223.25
641.502	197.25
641.707	200.25
641.913	201.25
642.118	193.25
642.323	187.25
642.528	200.25
642.733	186.25
642.939	187.25
643.144	197.25
643.349	194.25
643.554	196.25
643.759	190.25
643.964	184.25
644.169	182.25
644.374	212.25
644.579	198.25
644.784	195.25
644.989	200.25
645.194	202.25
645.399	214.25
645.604	192.25
645.809	198.25
646.014	196.25
646.219	197.25
646.423	199.25
646.628	197.25
646.833	196.25
647.038	191.25
647.243	221.25
647.447	208.25
647.652	195.25
647.857	195.25
648.062	217.25
648.266	203.25
648.471	193.25
648.676	198.25
648.88	188.25
649.085	203.25
649.289	199.25
649.494	193.25
649.698	201.25
649.903	188.25
650.107	186.25
650.312	184.25
650.516	189.25
650.721	187.25
650.925	177.25
651.13	179.25
651.334	170.25
651.539	160.25
651.743	181.25
651.947	147.25
652.152	169.25
652.356	163.25
652.56	157.25
652.764	168.25
652.969	162.25
653.173	159.25
653.377	177.25
653.581	152.25
653.785	168.25
653.99	152.25
654.194	154.25
654.398	142.25
654.602	134.25
654.806	157.25
655.01	151.25
655.214	147.25
655.418	148.25
655.622	134.25
655.826	146.25
656.03	147.25
656.234	135.25
656.438	122.25
656.642	133.25
656.846	149.25
657.049	137.25
657.253	125.25
657.457	133.25
657.661	119.25
657.865	132.25
658.068	125.25
658.272	125.25
658.476	109.25
658.68	103.25
658.883	107.25
659.087	99.25
659.291	111.25
659.494	104.25
659.698	109.25
659.901	121.25
660.105	89.25
660.309	98.25
660.512	104.25
660.716	95.25
660.919	90.25
661.123	89.25
661.326	95.25
661.53	85.25
661.733	74.25
661.936	80.25
662.14	97.25
662.343	86.25
662.546	88.25
662.75	82.25
662.953	90.25
663.156	85.25
663.36	79.25
663.563	89.25
663.766	79.25
663.969	77.25
664.173	73.25
664.376	81.25
664.579	76.25
664.782	88.25
664.985	64.25
665.188	86.25
665.391	66.25
665.594	72.25
665.797	73.25
666	73.25
666.203	76.25
666.406	88.25
666.609	82.25
666.812	93.25
667.015	75.25
667.218	81.25
667.421	77.25
667.624	71.25
667.827	82.25
668.03	71.25
668.232	79.25
668.435	80.25
668.638	85.25
668.841	85.25
669.043	87.25
669.246	81.25
669.449	83.25
669.651	83.25
669.854	89.25
670.057	74.25
670.259	79.25
670.462	88.25
670.665	86.25
670.867	75.25
671.07	75.25
671.272	84.25
671.475	83.25
671.677	87.25
671.88	84.25
672.082	79.25
672.284	82.25
672.487	80.25
672.689	75.25
672.892	72.25
