Data from NiCl2@0.5M.TitratingCurve.Agarose3%dH2O.NegLispCup.LampEnergy10.LIBS07252019_HRD10591_18-21-38-571.txt Node
Date: Thu Jul 25 18:21:38 EDT 2019
User: cochatt
Spectrometer: HR+D1059
Trigger mode: 1
Integration Time (sec): 1.000000E-1
Scans to average: 1
Electric dark correction enabled: true
Nonlinearity correction enabled: false
Boxcar width: 0
XAxis mode: Wavelengths
Number of Pixels in Spectrum: 2048
>>>>>Begin Spectral Data<<<<<
223.165	-18.94
223.4	-18.94
223.635	-18.94
223.869	-28.94
224.104	-27.94
224.338	-17.94
224.573	0.06
224.808	-12.94
225.042	-6.94
225.277	-15.94
225.511	17.06
225.746	0.06
225.98	14.06
226.215	16.06
226.449	14.06
226.683	20.06
226.918	28.06
227.152	20.06
227.387	38.06
227.621	35.06
227.856	39.06
228.09	45.06
228.324	46.06
228.559	56.06
228.793	66.06
229.027	98.06
229.262	107.06
229.496	104.06
229.73	116.06
229.964	104.06
230.199	113.06
230.433	107.06
230.667	108.06
230.901	126.06
231.136	128.06
231.37	151.06
231.604	131.06
231.838	118.06
232.072	130.06
232.306	136.06
232.541	120.06
232.775	146.06
233.009	136.06
233.243	135.06
233.477	137.06
233.711	120.06
233.945	128.06
234.179	130.06
234.413	123.06
234.647	138.06
234.881	123.06
235.115	123.06
235.349	151.06
235.583	129.06
235.817	154.06
236.051	157.06
236.285	129.06
236.519	156.06
236.753	130.06
236.987	143.06
237.221	135.06
237.455	152.06
237.689	133.06
237.922	146.06
238.156	149.06
238.39	148.06
238.624	132.06
238.858	135.06
239.091	158.06
239.325	154.06
239.559	163.06
239.793	156.06
240.027	179.06
240.26	154.06
240.494	160.06
240.728	158.06
240.961	158.06
241.195	170.06
241.429	178.06
241.662	154.06
241.896	174.06
242.13	172.06
242.363	165.06
242.597	175.06
242.83	171.06
243.064	186.06
243.298	179.06
243.531	184.06
243.765	168.06
243.998	173.06
244.232	184.06
244.465	181.06
244.699	185.06
244.932	184.06
245.166	191.06
245.399	171.06
245.633	192.06
245.866	185.06
246.099	183.06
246.333	196.06
246.566	182.06
246.8	187.06
247.033	194.06
247.266	194.06
247.5	186.06
247.733	205.06
247.966	204.06
248.2	198.06
248.433	204.06
248.666	206.06
248.899	199.06
249.133	206.06
249.366	206.06
249.599	203.06
249.832	212.06
250.066	212.06
250.299	200.06
250.532	203.06
250.765	211.06
250.998	201.06
251.231	203.06
251.465	219.06
251.698	231.06
251.931	222.06
252.164	219.06
252.397	221.06
252.63	230.06
252.863	224.06
253.096	232.06
253.329	238.06
253.562	237.06
253.795	231.06
254.028	241.06
254.261	227.06
254.494	227.06
254.727	244.06
254.96	229.06
255.193	217.06
255.426	222.06
255.659	247.06
255.892	243.06
256.124	250.06
256.357	261.06
256.59	230.06
256.823	232.06
257.056	224.06
257.289	254.06
257.521	247.06
257.754	251.06
257.987	249.06
258.22	261.06
258.452	250.06
258.685	265.06
258.918	262.06
259.151	265.06
259.383	257.06
259.616	276.06
259.849	282.06
260.081	259.06
260.314	276.06
260.547	285.06
260.779	286.06
261.012	280.06
261.244	270.06
261.477	284.06
261.71	261.06
261.942	274.06
262.175	264.06
262.407	279.06
262.64	268.06
262.872	271.06
263.105	278.06
263.337	269.06
263.57	273.06
263.802	286.06
264.035	277.06
264.267	280.06
264.499	281.06
264.732	288.06
264.964	299.06
265.197	302.06
265.429	305.06
265.661	285.06
265.894	292.06
266.126	314.06
266.358	294.06
266.591	292.06
266.823	303.06
267.055	287.06
267.287	287.06
267.52	286.06
267.752	312.06
267.984	306.06
268.216	318.06
268.448	312.06
268.681	328.06
268.913	318.06
269.145	289.06
269.377	324.06
269.609	318.06
269.841	291.06
270.073	296.06
270.306	318.06
270.538	314.06
270.77	332.06
271.002	318.06
271.234	338.06
271.466	308.06
271.698	314.06
271.93	322.06
272.162	316.06
272.394	326.06
272.626	334.06
272.858	342.06
273.09	333.06
273.322	352.06
273.553	330.06
273.785	342.06
274.017	343.06
274.249	331.06
274.481	333.06
274.713	336.06
274.945	355.06
275.176	353.06
275.408	364.06
275.64	352.06
275.872	357.06
276.104	339.06
276.335	339.06
276.567	345.06
276.799	374.06
277.031	360.06
277.262	343.06
277.494	365.06
277.726	360.06
277.957	353.06
278.189	357.06
278.421	358.06
278.652	379.06
278.884	363.06
279.115	384.06
279.347	364.06
279.579	380.06
279.81	376.06
280.042	375.06
280.273	370.06
280.505	379.06
280.736	364.06
280.968	380.06
281.199	396.06
281.431	402.06
281.662	391.06
281.894	385.06
282.125	384.06
282.356	391.06
282.588	393.06
282.819	385.06
283.051	392.06
283.282	386.06
283.513	406.06
283.745	404.06
283.976	389.06
284.207	406.06
284.439	399.06
284.67	413.06
284.901	394.06
285.132	423.06
285.364	423.06
285.595	414.06
285.826	413.06
286.057	411.06
286.288	403.06
286.52	420.06
286.751	441.06
286.982	402.06
287.213	430.06
287.444	410.06
287.675	443.06
287.906	425.06
288.138	436.06
288.369	425.06
288.6	461.06
288.831	448.06
289.062	419.06
289.293	428.06
289.524	433.06
289.755	442.06
289.986	429.06
290.217	444.06
290.448	421.06
290.679	452.06
290.91	436.06
291.141	440.06
291.371	432.06
291.602	435.06
291.833	453.06
292.064	440.06
292.295	458.06
292.526	437.06
292.757	467.06
292.987	428.06
293.218	437.06
293.449	455.06
293.68	469.06
293.91	453.06
294.141	439.06
294.372	452.06
294.603	457.06
294.833	443.06
295.064	453.06
295.295	445.06
295.525	463.06
295.756	451.06
295.987	447.06
296.217	454.06
296.448	458.06
296.679	469.06
296.909	468.06
297.14	458.06
297.37	460.06
297.601	486.06
297.831	466.06
298.062	485.06
298.292	475.06
298.523	504.06
298.753	493.06
298.984	480.06
299.214	466.06
299.445	471.06
299.675	477.06
299.905	484.06
300.136	494.06
300.366	481.06
300.597	491.06
300.827	488.06
301.057	509.06
301.288	500.06
301.518	492.06
301.748	517.06
301.979	541.06
302.209	514.06
302.439	494.06
302.669	504.06
302.9	501.06
303.13	512.06
303.36	510.06
303.59	477.06
303.82	497.06
304.051	507.06
304.281	499.06
304.511	502.06
304.741	486.06
304.971	490.06
305.201	510.06
305.431	525.06
305.661	519.06
305.891	492.06
306.121	498.06
306.352	495.06
306.582	482.06
306.812	512.06
307.042	507.06
307.272	493.06
307.502	498.06
307.731	509.06
307.961	515.06
308.191	513.06
308.421	489.06
308.651	512.06
308.881	488.06
309.111	493.06
309.341	492.06
309.571	500.06
309.8	490.06
310.03	510.06
310.26	501.06
310.49	514.06
310.72	486.06
310.949	499.06
311.179	498.06
311.409	491.06
311.639	512.06
311.868	531.06
312.098	508.06
312.328	521.06
312.557	516.06
312.787	527.06
313.017	516.06
313.246	536.06
313.476	520.06
313.706	542.06
313.935	548.06
314.165	545.06
314.394	571.06
314.624	546.06
314.853	528.06
315.083	553.06
315.312	537.06
315.542	576.06
315.771	554.06
316.001	532.06
316.23	522.06
316.46	512.06
316.689	527.06
316.919	535.06
317.148	521.06
317.377	509.06
317.607	510.06
317.836	513.06
318.065	531.06
318.295	527.06
318.524	548.06
318.753	523.06
318.983	532.06
319.212	522.06
319.441	530.06
319.67	526.06
319.9	545.06
320.129	539.06
320.358	530.06
320.587	540.06
320.816	531.06
321.046	523.06
321.275	558.06
321.504	529.06
321.733	513.06
321.962	545.06
322.191	521.06
322.42	542.06
322.649	562.06
322.878	560.06
323.108	541.06
323.337	533.06
323.566	541.06
323.795	549.06
324.024	553.06
324.253	545.06
324.482	549.06
324.71	561.06
324.939	546.06
325.168	529.06
325.397	552.06
325.626	568.06
325.855	578.06
326.084	577.06
326.313	579.06
326.542	580.06
326.77	580.06
326.999	587.06
327.228	578.06
327.457	580.06
327.686	565.06
327.914	586.06
328.143	567.06
328.372	588.06
328.6	581.06
328.829	568.06
329.058	558.06
329.287	581.06
329.515	574.06
329.744	582.06
329.972	576.06
330.201	585.06
330.43	600.06
330.658	582.06
330.887	603.06
331.115	596.06
331.344	602.06
331.572	616.06
331.801	612.06
332.03	638.06
332.258	648.06
332.486	677.06
332.715	694.06
332.943	668.06
333.172	756.06
333.4	749.06
333.629	777.06
333.857	773.06
334.085	763.06
334.314	739.06
334.542	755.06
334.771	749.06
334.999	717.06
335.227	716.06
335.455	724.06
335.684	706.06
335.912	676.06
336.14	701.06
336.369	718.06
336.597	725.06
336.825	705.06
337.053	694.06
337.281	681.06
337.51	685.06
337.738	667.06
337.966	668.06
338.194	633.06
338.422	648.06
338.65	650.06
338.878	646.06
339.106	626.06
339.334	644.06
339.562	616.06
339.79	609.06
340.018	589.06
340.246	610.06
340.474	618.06
340.702	586.06
340.93	607.06
341.158	597.06
341.386	630.06
341.614	625.06
341.842	610.06
342.07	588.06
342.298	598.06
342.526	580.06
342.754	598.06
342.981	601.06
343.209	618.06
343.437	649.06
343.665	682.06
343.893	736.06
344.12	744.06
344.348	700.06
344.576	675.06
344.804	658.06
345.031	643.06
345.259	618.06
345.487	612.06
345.714	626.06
345.942	614.06
346.17	627.06
346.397	582.06
346.625	576.06
346.853	590.06
347.08	587.06
347.308	578.06
347.535	591.06
347.763	583.06
347.99	589.06
348.218	595.06
348.445	584.06
348.673	568.06
348.9	564.06
349.128	576.06
349.355	569.06
349.583	576.06
349.81	573.06
350.037	568.06
350.265	564.06
350.492	556.06
350.72	536.06
350.947	572.06
351.174	564.06
351.402	581.06
351.629	568.06
351.856	584.06
352.083	561.06
352.311	568.06
352.538	540.06
352.765	548.06
352.992	564.06
353.22	526.06
353.447	547.06
353.674	547.06
353.901	546.06
354.128	542.06
354.355	554.06
354.583	549.06
354.81	557.06
355.037	556.06
355.264	550.06
355.491	560.06
355.718	565.06
355.945	572.06
356.172	566.06
356.399	580.06
356.626	564.06
356.853	567.06
357.08	565.06
357.307	532.06
357.534	571.06
357.761	573.06
357.988	560.06
358.215	552.06
358.441	572.06
358.668	564.06
358.895	553.06
359.122	533.06
359.349	558.06
359.576	560.06
359.802	554.06
360.029	550.06
360.256	566.06
360.483	572.06
360.709	549.06
360.936	561.06
361.163	571.06
361.39	560.06
361.616	562.06
361.843	578.06
362.07	566.06
362.296	569.06
362.523	566.06
362.749	564.06
362.976	540.06
363.203	551.06
363.429	534.06
363.656	558.06
363.882	543.06
364.109	550.06
364.335	570.06
364.562	546.06
364.788	570.06
365.015	549.06
365.241	544.06
365.468	539.06
365.694	532.06
365.92	548.06
366.147	553.06
366.373	548.06
366.599	553.06
366.826	531.06
367.052	543.06
367.278	547.06
367.505	544.06
367.731	546.06
367.957	564.06
368.184	549.06
368.41	547.06
368.636	542.06
368.862	566.06
369.089	566.06
369.315	578.06
369.541	587.06
369.767	554.06
369.993	558.06
370.219	590.06
370.445	564.06
370.672	617.06
370.898	610.06
371.124	572.06
371.35	580.06
371.576	600.06
371.802	596.06
372.028	619.06
372.254	573.06
372.48	576.06
372.706	588.06
372.932	614.06
373.158	619.06
373.384	601.06
373.61	596.06
373.835	610.06
374.061	594.06
374.287	628.06
374.513	616.06
374.739	620.06
374.965	637.06
375.191	661.06
375.416	674.06
375.642	624.06
375.868	655.06
376.094	619.06
376.319	624.06
376.545	598.06
376.771	620.06
376.997	597.06
377.222	592.06
377.448	575.06
377.674	604.06
377.899	583.06
378.125	582.06
378.35	599.06
378.576	577.06
378.802	600.06
379.027	626.06
379.253	599.06
379.478	578.06
379.704	605.06
379.929	594.06
380.155	586.06
380.38	579.06
380.606	591.06
380.831	586.06
381.057	602.06
381.282	605.06
381.507	588.06
381.733	610.06
381.958	583.06
382.184	594.06
382.409	600.06
382.634	627.06
382.86	638.06
383.085	636.06
383.31	628.06
383.535	652.06
383.761	654.06
383.986	671.06
384.211	697.06
384.436	724.06
384.662	683.06
384.887	713.06
385.112	709.06
385.337	706.06
385.562	678.06
385.787	697.06
386.013	722.06
386.238	723.06
386.463	705.06
386.688	724.06
386.913	713.06
387.138	709.06
387.363	702.06
387.588	691.06
387.813	688.06
388.038	714.06
388.263	716.06
388.488	688.06
388.713	694.06
388.938	697.06
389.163	682.06
389.387	705.06
389.612	698.06
389.837	661.06
390.062	681.06
390.287	686.06
390.512	684.06
390.736	708.06
390.961	725.06
391.186	730.06
391.411	733.06
391.636	780.06
391.86	788.06
392.085	779.06
392.31	797.06
392.534	763.06
392.759	796.06
392.984	766.06
393.208	768.06
393.433	728.06
393.658	728.06
393.882	746.06
394.107	754.06
394.331	790.06
394.556	768.06
394.78	770.06
395.005	786.06
395.229	795.06
395.454	772.06
395.678	780.06
395.903	812.06
396.127	813.06
396.352	773.06
396.576	782.06
396.801	756.06
397.025	777.06
397.249	792.06
397.474	792.06
397.698	797.06
397.922	812.06
398.147	834.06
398.371	804.06
398.595	850.06
398.82	905.06
399.044	953.06
399.268	1069.06
399.492	1212.06
399.717	1334.06
399.941	1332.06
400.165	1178.06
400.389	1084.06
400.613	1006.06
400.837	944.06
401.062	916.06
401.286	913.06
401.51	897.06
401.734	906.06
401.958	926.06
402.182	921.06
402.406	940.06
402.63	932.06
402.854	973.06
403.078	958.06
403.302	1021.06
403.526	1002.06
403.75	1024.06
403.974	1041.06
404.198	1019.06
404.422	1049.06
404.645	1051.06
404.869	1066.06
405.093	995.06
405.317	978.06
405.541	1000.06
405.765	995.06
405.988	1003.06
406.212	967.06
406.436	986.06
406.66	1007.06
406.883	1009.06
407.107	1089.06
407.331	1138.06
407.555	1163.06
407.778	1166.06
408.002	1143.06
408.226	1107.06
408.449	1081.06
408.673	1036.06
408.896	1019.06
409.12	1013.06
409.344	1035.06
409.567	1029.06
409.791	1008.06
410.014	1000.06
410.238	984.06
410.461	973.06
410.685	981.06
410.908	969.06
411.132	944.06
411.355	910.06
411.578	922.06
411.802	929.06
412.025	924.06
412.249	939.06
412.472	956.06
412.695	924.06
412.919	918.06
413.142	924.06
413.365	918.06
413.589	927.06
413.812	901.06
414.035	889.06
414.258	919.06
414.482	927.06
414.705	920.06
414.928	925.06
415.151	891.06
415.374	899.06
415.597	906.06
415.821	895.06
416.044	896.06
416.267	863.06
416.49	892.06
416.713	877.06
416.936	884.06
417.159	888.06
417.382	862.06
417.605	856.06
417.828	890.06
418.051	896.06
418.274	881.06
418.497	902.06
418.72	923.06
418.943	912.06
419.166	956.06
419.389	1005.06
419.611	995.06
419.834	988.06
420.057	956.06
420.28	913.06
420.503	902.06
420.726	880.06
420.948	899.06
421.171	898.06
421.394	900.06
421.617	889.06
421.839	896.06
422.062	898.06
422.285	866.06
422.507	907.06
422.73	901.06
422.953	913.06
423.175	955.06
423.398	944.06
423.621	948.06
423.843	989.06
424.066	969.06
424.288	947.06
424.511	926.06
424.733	926.06
424.956	902.06
425.178	905.06
425.401	896.06
425.623	874.06
425.846	866.06
426.068	866.06
426.291	868.06
426.513	860.06
426.735	859.06
426.958	859.06
427.18	813.06
427.402	813.06
427.625	818.06
427.847	792.06
428.069	795.06
428.292	842.06
428.514	765.06
428.736	779.06
428.958	804.06
429.181	778.06
429.403	761.06
429.625	773.06
429.847	803.06
430.069	771.06
430.292	796.06
430.514	779.06
430.736	768.06
430.958	790.06
431.18	767.06
431.402	774.06
431.624	794.06
431.846	832.06
432.068	824.06
432.29	832.06
432.512	823.06
432.734	826.06
432.956	825.06
433.178	804.06
433.4	820.06
433.622	822.06
433.844	818.06
434.066	828.06
434.287	832.06
434.509	840.06
434.731	861.06
434.953	907.06
435.175	912.06
435.397	900.06
435.618	850.06
435.84	853.06
436.062	810.06
436.284	808.06
436.505	804.06
436.727	802.06
436.949	808.06
437.17	786.06
437.392	778.06
437.614	774.06
437.835	776.06
438.057	773.06
438.278	764.06
438.5	778.06
438.721	752.06
438.943	788.06
439.165	765.06
439.386	800.06
439.608	830.06
439.829	794.06
440.05	806.06
440.272	823.06
440.493	822.06
440.715	830.06
440.936	829.06
441.158	846.06
441.379	873.06
441.6	895.06
441.822	908.06
442.043	907.06
442.264	900.06
442.486	863.06
442.707	880.06
442.928	907.06
443.149	908.06
443.371	879.06
443.592	875.06
443.813	896.06
444.034	904.06
444.255	940.06
444.476	989.06
444.698	1080.06
444.919	1086.06
445.14	1155.06
445.361	1049.06
445.582	945.06
445.803	902.06
446.024	872.06
446.245	854.06
446.466	856.06
446.687	826.06
446.908	816.06
447.129	806.06
447.35	809.06
447.571	784.06
447.792	750.06
448.013	778.06
448.234	744.06
448.455	750.06
448.675	766.06
448.896	764.06
449.117	744.06
449.338	732.06
449.559	739.06
449.779	756.06
450	746.06
450.221	742.06
450.442	730.06
450.662	713.06
450.883	776.06
451.104	749.06
451.324	762.06
451.545	763.06
451.766	772.06
451.986	738.06
452.207	745.06
452.428	733.06
452.648	736.06
452.869	742.06
453.089	734.06
453.31	738.06
453.53	720.06
453.751	738.06
453.971	710.06
454.192	731.06
454.412	706.06
454.633	688.06
454.853	710.06
455.073	725.06
455.294	714.06
455.514	706.06
455.734	703.06
455.955	687.06
456.175	699.06
456.395	710.06
456.616	700.06
456.836	682.06
457.056	704.06
457.276	681.06
457.497	694.06
457.717	697.06
457.937	723.06
458.157	722.06
458.377	728.06
458.598	726.06
458.818	757.06
459.038	758.06
459.258	790.06
459.478	820.06
459.698	856.06
459.918	867.06
460.138	896.06
460.358	948.06
460.578	950.06
460.798	978.06
461.018	997.06
461.238	973.06
461.458	969.06
461.678	964.06
461.898	969.06
462.118	960.06
462.338	1026.06
462.558	1057.06
462.777	1113.06
462.997	1178.06
463.217	1289.06
463.437	1288.06
463.657	1181.06
463.876	1117.06
464.096	1144.06
464.316	1096.06
464.536	1144.06
464.755	1097.06
464.975	1066.06
465.195	1002.06
465.414	970.06
465.634	894.06
465.854	853.06
466.073	842.06
466.293	832.06
466.512	830.06
466.732	788.06
466.951	778.06
467.171	784.06
467.391	790.06
467.61	783.06
467.829	784.06
468.049	762.06
468.268	749.06
468.488	714.06
468.707	738.06
468.927	754.06
469.146	771.06
469.365	786.06
469.585	775.06
469.804	798.06
470.023	822.06
470.243	794.06
470.462	833.06
470.681	800.06
470.901	818.06
471.12	801.06
471.339	800.06
471.558	766.06
471.777	767.06
471.997	769.06
472.216	758.06
472.435	762.06
472.654	739.06
472.873	723.06
473.092	729.06
473.311	742.06
473.53	731.06
473.749	728.06
473.968	742.06
474.187	740.06
474.406	744.06
474.625	738.06
474.844	741.06
475.063	749.06
475.282	759.06
475.501	770.06
475.72	732.06
475.939	748.06
476.158	757.06
476.377	772.06
476.596	770.06
476.814	786.06
477.033	761.06
477.252	794.06
477.471	806.06
477.69	841.06
477.908	867.06
478.127	867.06
478.346	870.06
478.564	913.06
478.783	895.06
479.002	900.06
479.22	932.06
479.439	940.06
479.658	910.06
479.876	921.06
480.095	934.06
480.313	963.06
480.532	988.06
480.751	988.06
480.969	967.06
481.188	898.06
481.406	873.06
481.624	841.06
481.843	850.06
482.061	845.06
482.28	852.06
482.498	827.06
482.717	834.06
482.935	854.06
483.153	844.06
483.372	823.06
483.59	861.06
483.808	843.06
484.027	839.06
484.245	867.06
484.463	885.06
484.681	873.06
484.9	862.06
485.118	861.06
485.336	876.06
485.554	852.06
485.772	853.06
485.99	890.06
486.209	877.06
486.427	873.06
486.645	869.06
486.863	866.06
487.081	884.06
487.299	890.06
487.517	905.06
487.735	877.06
487.953	872.06
488.171	865.06
488.389	892.06
488.607	883.06
488.825	873.06
489.043	843.06
489.261	864.06
489.479	873.06
489.696	878.06
489.914	850.06
490.132	904.06
490.35	877.06
490.568	872.06
490.786	896.06
491.003	876.06
491.221	906.06
491.439	898.06
491.657	887.06
491.874	929.06
492.092	894.06
492.31	911.06
492.527	923.06
492.745	910.06
492.963	939.06
493.18	931.06
493.398	896.06
493.615	923.06
493.833	932.06
494.05	927.06
494.268	957.06
494.485	944.06
494.703	954.06
494.92	954.06
495.138	956.06
495.355	959.06
495.573	943.06
495.79	924.06
496.008	932.06
496.225	947.06
496.442	994.06
496.66	982.06
496.877	973.06
497.094	1002.06
497.312	1043.06
497.529	1046.06
497.746	1073.06
497.963	1087.06
498.181	1140.06
498.398	1186.06
498.615	1238.06
498.832	1361.06
499.049	1411.06
499.267	1540.06
499.484	1733.06
499.701	1905.06
499.918	2082.06
500.135	2379.06
500.352	2698.06
500.569	2838.06
500.786	2775.06
501.003	2605.06
501.22	2318.06
501.437	2050.06
501.654	1778.06
501.871	1633.06
502.088	1522.06
502.305	1430.06
502.522	1347.06
502.739	1309.06
502.956	1215.06
503.172	1176.06
503.389	1140.06
503.606	1097.06
503.823	1056.06
504.04	1079.06
504.256	1074.06
504.473	1100.06
504.69	1144.06
504.907	1096.06
505.123	1028.06
505.34	965.06
505.557	951.06
505.773	906.06
505.99	905.06
506.207	876.06
506.423	858.06
506.64	842.06
506.856	852.06
507.073	852.06
507.289	795.06
507.506	819.06
507.722	821.06
507.939	778.06
508.155	795.06
508.372	786.06
508.588	781.06
508.805	782.06
509.021	779.06
509.238	773.06
509.454	752.06
509.67	768.06
509.887	755.06
510.103	745.06
510.319	752.06
510.536	762.06
510.752	749.06
510.968	736.06
511.184	725.06
511.401	729.06
511.617	737.06
511.833	786.06
512.049	742.06
512.265	721.06
512.481	726.06
512.698	733.06
512.914	766.06
513.13	744.06
513.346	736.06
513.562	733.06
513.778	756.06
513.994	738.06
514.21	762.06
514.426	786.06
514.642	774.06
514.858	749.06
515.074	760.06
515.29	764.06
515.506	755.06
515.721	781.06
515.937	795.06
516.153	802.06
516.369	846.06
516.585	860.06
516.801	882.06
517.016	893.06
517.232	950.06
517.448	1018.06
517.664	1020.06
517.879	1015.06
518.095	1050.06
518.311	1026.06
518.527	975.06
518.742	932.06
518.958	909.06
519.173	887.06
519.389	863.06
519.605	832.06
519.82	785.06
520.036	780.06
520.251	755.06
520.467	756.06
520.682	738.06
520.898	724.06
521.113	753.06
521.329	707.06
521.544	713.06
521.76	756.06
521.975	690.06
522.19	736.06
522.406	723.06
522.621	697.06
522.836	702.06
523.052	711.06
523.267	706.06
523.482	698.06
523.698	697.06
523.913	702.06
524.128	688.06
524.343	678.06
524.559	672.06
524.774	676.06
524.989	710.06
525.204	678.06
525.419	676.06
525.634	685.06
525.849	672.06
526.064	688.06
526.28	681.06
526.495	669.06
526.71	652.06
526.925	686.06
527.14	664.06
527.355	654.06
527.57	662.06
527.785	654.06
527.999	678.06
528.214	660.06
528.429	666.06
528.644	666.06
528.859	685.06
529.074	677.06
529.289	661.06
529.503	668.06
529.718	675.06
529.933	644.06
530.148	659.06
530.363	648.06
530.577	665.06
530.792	659.06
531.007	654.06
531.221	663.06
531.436	664.06
531.651	681.06
531.865	654.06
532.08	657.06
532.295	670.06
532.509	668.06
532.724	661.06
532.938	666.06
533.153	668.06
533.367	677.06
533.582	675.06
533.796	655.06
534.011	677.06
534.225	636.06
534.44	637.06
534.654	638.06
534.868	652.06
535.083	641.06
535.297	640.06
535.511	640.06
535.726	641.06
535.94	648.06
536.154	635.06
536.369	624.06
536.583	626.06
536.797	637.06
537.011	624.06
537.225	618.06
537.44	610.06
537.654	626.06
537.868	610.06
538.082	600.06
538.296	599.06
538.51	598.06
538.724	604.06
538.938	601.06
539.153	610.06
539.367	614.06
539.581	618.06
539.795	594.06
540.009	579.06
540.222	606.06
540.436	585.06
540.65	584.06
540.864	612.06
541.078	586.06
541.292	605.06
541.506	626.06
541.72	607.06
541.934	604.06
542.147	630.06
542.361	626.06
542.575	601.06
542.789	604.06
543.002	595.06
543.216	594.06
543.43	617.06
543.644	594.06
543.857	607.06
544.071	601.06
544.285	607.06
544.498	597.06
544.712	604.06
544.925	634.06
545.139	614.06
545.352	621.06
545.566	624.06
545.779	614.06
545.993	627.06
546.206	628.06
546.42	638.06
546.633	613.06
546.847	614.06
547.06	631.06
547.274	612.06
547.487	617.06
547.7	618.06
547.914	652.06
548.127	614.06
548.34	617.06
548.554	628.06
548.767	627.06
548.98	646.06
549.193	637.06
549.407	619.06
549.62	642.06
549.833	638.06
550.046	663.06
550.259	634.06
550.473	596.06
550.686	630.06
550.899	604.06
551.112	597.06
551.325	607.06
551.538	613.06
551.751	597.06
551.964	625.06
552.177	628.06
552.39	635.06
552.603	630.06
552.816	653.06
553.029	651.06
553.242	673.06
553.455	667.06
553.667	692.06
553.88	680.06
554.093	650.06
554.306	645.06
554.519	628.06
554.732	614.06
554.944	608.06
555.157	609.06
555.37	611.06
555.583	572.06
555.795	576.06
556.008	571.06
556.221	552.06
556.433	534.06
556.646	536.06
556.859	534.06
557.071	551.06
557.284	544.06
557.496	531.06
557.709	532.06
557.921	522.06
558.134	496.06
558.346	529.06
558.559	520.06
558.771	533.06
558.984	525.06
559.196	519.06
559.409	504.06
559.621	513.06
559.833	516.06
560.046	515.06
560.258	502.06
560.47	502.06
560.683	496.06
560.895	504.06
561.107	504.06
561.32	504.06
561.532	490.06
561.744	524.06
561.956	481.06
562.168	503.06
562.381	508.06
562.593	510.06
562.805	516.06
563.017	521.06
563.229	515.06
563.441	524.06
563.653	523.06
563.865	532.06
564.077	505.06
564.289	528.06
564.501	527.06
564.713	546.06
564.925	546.06
565.137	547.06
565.349	571.06
565.561	607.06
565.773	605.06
565.985	624.06
566.197	675.06
566.408	697.06
566.62	786.06
566.832	802.06
567.044	813.06
567.255	818.06
567.467	841.06
567.679	875.06
567.891	961.06
568.102	973.06
568.314	926.06
568.526	856.06
568.737	782.06
568.949	720.06
569.161	660.06
569.372	594.06
569.584	573.06
569.795	569.06
570.007	541.06
570.218	528.06
570.43	518.06
570.641	524.06
570.853	518.06
571.064	527.06
571.276	546.06
571.487	522.06
571.698	499.06
571.91	467.06
572.121	455.06
572.333	454.06
572.544	454.06
572.755	440.06
572.966	427.06
573.178	429.06
573.389	446.06
573.6	429.06
573.811	414.06
574.023	402.06
574.234	441.06
574.445	432.06
574.656	437.06
574.867	438.06
575.078	452.06
575.289	428.06
575.501	411.06
575.712	387.06
575.923	386.06
576.134	386.06
576.345	393.06
576.556	389.06
576.767	413.06
576.978	401.06
577.188	371.06
577.399	377.06
577.61	377.06
577.821	379.06
578.032	371.06
578.243	376.06
578.454	381.06
578.665	384.06
578.875	380.06
579.086	368.06
579.297	379.06
579.508	372.06
579.718	366.06
579.929	372.06
580.14	375.06
580.35	353.06
580.561	382.06
580.772	359.06
580.982	357.06
581.193	343.06
581.403	361.06
581.614	369.06
581.825	356.06
582.035	352.06
582.246	339.06
582.456	361.06
582.667	363.06
582.877	360.06
583.087	348.06
583.298	342.06
583.508	341.06
583.719	356.06
583.929	374.06
584.139	361.06
584.35	338.06
584.56	347.06
584.77	347.06
584.981	357.06
585.191	346.06
585.401	332.06
585.611	350.06
585.821	355.06
586.032	349.06
586.242	340.06
586.452	324.06
586.662	345.06
586.872	324.06
587.082	344.06
587.292	343.06
587.502	329.06
587.713	337.06
587.923	331.06
588.133	324.06
588.343	333.06
588.553	337.06
588.762	340.06
588.972	332.06
589.182	354.06
589.392	366.06
589.602	358.06
589.812	381.06
590.022	355.06
590.232	344.06
590.441	358.06
590.651	366.06
590.861	328.06
591.071	330.06
591.281	351.06
591.49	356.06
591.7	362.06
591.91	365.06
592.119	357.06
592.329	388.06
592.539	357.06
592.748	382.06
592.958	408.06
593.167	412.06
593.377	424.06
593.587	427.06
593.796	410.06
594.006	421.06
594.215	431.06
594.424	434.06
594.634	411.06
594.843	402.06
595.053	405.06
595.262	375.06
595.472	365.06
595.681	355.06
595.89	353.06
596.1	348.06
596.309	339.06
596.518	318.06
596.727	325.06
596.937	323.06
597.146	315.06
597.355	316.06
597.564	316.06
597.774	303.06
597.983	288.06
598.192	298.06
598.401	282.06
598.61	326.06
598.819	297.06
599.028	298.06
599.237	312.06
599.446	307.06
599.655	300.06
599.864	294.06
600.073	295.06
600.282	285.06
600.491	297.06
600.7	299.06
600.909	292.06
601.118	272.06
601.327	278.06
601.536	289.06
601.745	275.06
601.953	271.06
602.162	269.06
602.371	260.06
602.58	284.06
602.789	282.06
602.997	281.06
603.206	284.06
603.415	273.06
603.623	286.06
603.832	281.06
604.041	285.06
604.249	270.06
604.458	256.06
604.666	259.06
604.875	283.06
605.084	265.06
605.292	261.06
605.501	265.06
605.709	254.06
605.918	264.06
606.126	280.06
606.334	275.06
606.543	260.06
606.751	272.06
606.96	259.06
607.168	249.06
607.376	237.06
607.585	267.06
607.793	256.06
608.001	267.06
608.21	259.06
608.418	271.06
608.626	260.06
608.834	253.06
609.043	240.06
609.251	261.06
609.459	249.06
609.667	265.06
609.875	271.06
610.083	249.06
610.291	247.06
610.499	248.06
610.707	260.06
610.916	245.06
611.124	231.06
611.332	249.06
611.54	265.06
611.748	238.06
611.955	240.06
612.163	251.06
612.371	242.06
612.579	234.06
612.787	261.06
612.995	249.06
613.203	242.06
613.411	240.06
613.618	256.06
613.826	237.06
614.034	237.06
614.242	236.06
614.449	251.06
614.657	240.06
614.865	226.06
615.072	237.06
615.28	252.06
615.488	250.06
615.695	252.06
615.903	254.06
616.111	248.06
616.318	260.06
616.526	243.06
616.733	231.06
616.941	240.06
617.148	264.06
617.356	244.06
617.563	250.06
617.771	261.06
617.978	240.06
618.185	238.06
618.393	225.06
618.6	243.06
618.807	232.06
619.015	238.06
619.222	227.06
619.429	278.06
619.637	235.06
619.844	237.06
620.051	226.06
620.258	225.06
620.466	247.06
620.673	238.06
620.88	229.06
621.087	229.06
621.294	224.06
621.501	216.06
621.708	232.06
621.915	220.06
622.122	220.06
622.329	231.06
622.536	217.06
622.743	224.06
622.95	232.06
623.157	226.06
623.364	226.06
623.571	212.06
623.778	229.06
623.985	235.06
624.192	224.06
624.399	212.06
624.606	214.06
624.812	205.06
625.019	211.06
625.226	220.06
625.433	225.06
625.639	217.06
625.846	221.06
626.053	203.06
626.259	205.06
626.466	216.06
626.673	212.06
626.879	187.06
627.086	226.06
627.293	223.06
627.499	211.06
627.706	209.06
627.912	210.06
628.119	196.06
628.325	206.06
628.532	198.06
628.738	223.06
628.945	203.06
629.151	213.06
629.357	214.06
629.564	211.06
629.77	202.06
629.976	203.06
630.183	196.06
630.389	200.06
630.595	191.06
630.802	198.06
631.008	183.06
631.214	194.06
631.42	198.06
631.627	205.06
631.833	194.06
632.039	194.06
632.245	193.06
632.451	206.06
632.657	190.06
632.863	189.06
633.069	186.06
633.275	174.06
633.481	179.06
633.688	204.06
633.893	192.06
634.099	177.06
634.305	172.06
634.511	200.06
634.717	195.06
634.923	171.06
635.129	180.06
635.335	182.06
635.541	172.06
635.747	187.06
635.952	194.06
636.158	198.06
636.364	188.06
636.57	171.06
636.775	182.06
636.981	178.06
637.187	193.06
637.392	195.06
637.598	176.06
637.804	168.06
638.009	190.06
638.215	188.06
638.421	169.06
638.626	188.06
638.832	178.06
639.037	171.06
639.243	178.06
639.448	179.06
639.654	186.06
639.859	183.06
640.065	180.06
640.27	165.06
640.475	172.06
640.681	173.06
640.886	172.06
641.091	168.06
641.297	177.06
641.502	167.06
641.707	180.06
641.913	151.06
642.118	168.06
642.323	168.06
642.528	181.06
642.733	174.06
642.939	178.06
643.144	180.06
643.349	170.06
643.554	180.06
643.759	171.06
643.964	164.06
644.169	177.06
644.374	166.06
644.579	167.06
644.784	164.06
644.989	174.06
645.194	185.06
645.399	177.06
645.604	169.06
645.809	169.06
646.014	156.06
646.219	155.06
646.423	177.06
646.628	186.06
646.833	164.06
647.038	172.06
647.243	173.06
647.447	156.06
647.652	160.06
647.857	177.06
648.062	168.06
648.266	167.06
648.471	180.06
648.676	185.06
648.88	176.06
649.085	168.06
649.289	162.06
649.494	155.06
649.698	171.06
649.903	168.06
650.107	162.06
650.312	177.06
650.516	163.06
650.721	160.06
650.925	158.06
651.13	155.06
651.334	150.06
651.539	149.06
651.743	142.06
651.947	142.06
652.152	157.06
652.356	143.06
652.56	149.06
652.764	145.06
652.969	138.06
653.173	149.06
653.377	144.06
653.581	122.06
653.785	132.06
653.99	128.06
654.194	136.06
654.398	128.06
654.602	132.06
654.806	132.06
655.01	120.06
655.214	130.06
655.418	120.06
655.622	139.06
655.826	138.06
656.03	148.06
656.234	130.06
656.438	129.06
656.642	127.06
656.846	130.06
657.049	131.06
657.253	124.06
657.457	117.06
657.661	133.06
657.865	123.06
658.068	110.06
658.272	100.06
658.476	107.06
658.68	99.06
658.883	102.06
659.087	96.06
659.291	114.06
659.494	106.06
659.698	92.06
659.901	88.06
660.105	110.06
660.309	112.06
660.512	92.06
660.716	112.06
660.919	97.06
661.123	104.06
661.326	98.06
661.53	93.06
661.733	99.06
661.936	92.06
662.14	74.06
662.343	75.06
662.546	88.06
662.75	88.06
662.953	94.06
663.156	94.06
663.36	88.06
663.563	91.06
663.766	85.06
663.969	87.06
664.173	81.06
664.376	87.06
664.579	72.06
664.782	84.06
664.985	73.06
665.188	88.06
665.391	68.06
665.594	86.06
665.797	82.06
666	76.06
666.203	75.06
666.406	97.06
666.609	92.06
666.812	81.06
667.015	97.06
667.218	83.06
667.421	90.06
667.624	77.06
667.827	79.06
668.03	81.06
668.232	87.06
668.435	89.06
668.638	75.06
668.841	81.06
669.043	64.06
669.246	83.06
669.449	72.06
669.651	69.06
669.854	71.06
670.057	91.06
670.259	77.06
670.462	81.06
670.665	86.06
670.867	92.06
671.07	84.06
671.272	87.06
671.475	77.06
671.677	80.06
671.88	83.06
672.082	83.06
672.284	81.06
672.487	76.06
672.689	77.06
672.892	77.06
