Data from NiCl2@0.125M.TitratingCurve.Agarose3%dH2O.NegLispCup.LampEnergy10.LIBS07252019_HRD10591_18-28-03-575.txt Node
Date: Thu Jul 25 18:28:03 EDT 2019
User: cochatt
Spectrometer: HR+D1059
Trigger mode: 1
Integration Time (sec): 1.000000E-1
Scans to average: 1
Electric dark correction enabled: true
Nonlinearity correction enabled: false
Boxcar width: 0
XAxis mode: Wavelengths
Number of Pixels in Spectrum: 2048
>>>>>Begin Spectral Data<<<<<
223.165	-16.88
223.4	-16.88
223.635	-16.88
223.869	-17.88
224.104	-15.88
224.338	-27.88
224.573	-2.88
224.808	-4.88
225.042	0.12
225.277	-6.88
225.511	-12.88
225.746	-3.88
225.98	4.12
226.215	6.12
226.449	12.12
226.683	39.12
226.918	25.12
227.152	23.12
227.387	38.12
227.621	31.12
227.856	43.12
228.09	47.12
228.324	54.12
228.559	60.12
228.793	81.12
229.027	115.12
229.262	120.12
229.496	131.12
229.73	127.12
229.964	137.12
230.199	142.12
230.433	135.12
230.667	138.12
230.901	148.12
231.136	142.12
231.37	158.12
231.604	140.12
231.838	171.12
232.072	164.12
232.306	165.12
232.541	168.12
232.775	164.12
233.009	178.12
233.243	180.12
233.477	187.12
233.711	156.12
233.945	161.12
234.179	177.12
234.413	155.12
234.647	170.12
234.881	167.12
235.115	177.12
235.349	159.12
235.583	173.12
235.817	181.12
236.051	179.12
236.285	187.12
236.519	187.12
236.753	182.12
236.987	185.12
237.221	202.12
237.455	184.12
237.689	191.12
237.922	184.12
238.156	196.12
238.39	199.12
238.624	200.12
238.858	201.12
239.091	191.12
239.325	215.12
239.559	188.12
239.793	196.12
240.027	205.12
240.26	217.12
240.494	208.12
240.728	203.12
240.961	197.12
241.195	226.12
241.429	220.12
241.662	231.12
241.896	241.12
242.13	233.12
242.363	240.12
242.597	234.12
242.83	245.12
243.064	221.12
243.298	229.12
243.531	229.12
243.765	262.12
243.998	257.12
244.232	270.12
244.465	249.12
244.699	253.12
244.932	274.12
245.166	274.12
245.399	261.12
245.633	268.12
245.866	267.12
246.099	276.12
246.333	288.12
246.566	260.12
246.8	281.12
247.033	293.12
247.266	278.12
247.5	275.12
247.733	269.12
247.966	273.12
248.2	305.12
248.433	308.12
248.666	292.12
248.899	275.12
249.133	300.12
249.366	280.12
249.599	305.12
249.832	303.12
250.066	277.12
250.299	287.12
250.532	297.12
250.765	302.12
250.998	311.12
251.231	300.12
251.465	283.12
251.698	321.12
251.931	313.12
252.164	332.12
252.397	316.12
252.63	328.12
252.863	321.12
253.096	316.12
253.329	344.12
253.562	316.12
253.795	335.12
254.028	340.12
254.261	351.12
254.494	354.12
254.727	333.12
254.96	334.12
255.193	361.12
255.426	340.12
255.659	346.12
255.892	362.12
256.124	337.12
256.357	340.12
256.59	354.12
256.823	363.12
257.056	370.12
257.289	351.12
257.521	351.12
257.754	371.12
257.987	364.12
258.22	385.12
258.452	363.12
258.685	370.12
258.918	360.12
259.151	365.12
259.383	379.12
259.616	362.12
259.849	369.12
260.081	394.12
260.314	395.12
260.547	384.12
260.779	391.12
261.012	391.12
261.244	404.12
261.477	399.12
261.71	389.12
261.942	381.12
262.175	389.12
262.407	415.12
262.64	390.12
262.872	382.12
263.105	411.12
263.337	392.12
263.57	421.12
263.802	426.12
264.035	421.12
264.267	423.12
264.499	425.12
264.732	434.12
264.964	431.12
265.197	445.12
265.429	439.12
265.661	431.12
265.894	430.12
266.126	437.12
266.358	413.12
266.591	422.12
266.823	417.12
267.055	422.12
267.287	428.12
267.52	450.12
267.752	466.12
267.984	447.12
268.216	435.12
268.448	460.12
268.681	476.12
268.913	465.12
269.145	455.12
269.377	455.12
269.609	454.12
269.841	453.12
270.073	465.12
270.306	457.12
270.538	476.12
270.77	465.12
271.002	483.12
271.234	453.12
271.466	452.12
271.698	467.12
271.93	470.12
272.162	484.12
272.394	461.12
272.626	489.12
272.858	496.12
273.09	488.12
273.322	484.12
273.553	490.12
273.785	490.12
274.017	496.12
274.249	514.12
274.481	514.12
274.713	496.12
274.945	511.12
275.176	523.12
275.408	522.12
275.64	508.12
275.872	515.12
276.104	523.12
276.335	514.12
276.567	534.12
276.799	529.12
277.031	527.12
277.262	530.12
277.494	508.12
277.726	518.12
277.957	509.12
278.189	543.12
278.421	525.12
278.652	546.12
278.884	553.12
279.115	543.12
279.347	543.12
279.579	549.12
279.81	540.12
280.042	563.12
280.273	530.12
280.505	568.12
280.736	579.12
280.968	572.12
281.199	544.12
281.431	556.12
281.662	578.12
281.894	536.12
282.125	582.12
282.356	582.12
282.588	594.12
282.819	584.12
283.051	592.12
283.282	574.12
283.513	596.12
283.745	591.12
283.976	601.12
284.207	593.12
284.439	586.12
284.67	585.12
284.901	605.12
285.132	613.12
285.364	602.12
285.595	629.12
285.826	599.12
286.057	619.12
286.288	602.12
286.52	636.12
286.751	606.12
286.982	621.12
287.213	611.12
287.444	652.12
287.675	621.12
287.906	622.12
288.138	631.12
288.369	634.12
288.6	644.12
288.831	639.12
289.062	643.12
289.293	631.12
289.524	641.12
289.755	668.12
289.986	629.12
290.217	644.12
290.448	633.12
290.679	647.12
290.91	636.12
291.141	646.12
291.371	647.12
291.602	652.12
291.833	623.12
292.064	637.12
292.295	664.12
292.526	687.12
292.757	672.12
292.987	657.12
293.218	669.12
293.449	670.12
293.68	641.12
293.91	672.12
294.141	656.12
294.372	649.12
294.603	659.12
294.833	669.12
295.064	675.12
295.295	653.12
295.525	665.12
295.756	675.12
295.987	669.12
296.217	671.12
296.448	675.12
296.679	678.12
296.909	679.12
297.14	700.12
297.37	675.12
297.601	717.12
297.831	698.12
298.062	717.12
298.292	718.12
298.523	747.12
298.753	729.12
298.984	731.12
299.214	721.12
299.445	714.12
299.675	705.12
299.905	708.12
300.136	709.12
300.366	700.12
300.597	737.12
300.827	761.12
301.057	739.12
301.288	758.12
301.518	746.12
301.748	773.12
301.979	759.12
302.209	727.12
302.439	740.12
302.669	765.12
302.9	744.12
303.13	726.12
303.36	753.12
303.59	737.12
303.82	737.12
304.051	740.12
304.281	727.12
304.511	727.12
304.741	732.12
304.971	725.12
305.201	747.12
305.431	763.12
305.661	746.12
305.891	733.12
306.121	731.12
306.352	722.12
306.582	743.12
306.812	735.12
307.042	722.12
307.272	695.12
307.502	713.12
307.731	730.12
307.961	735.12
308.191	717.12
308.421	696.12
308.651	711.12
308.881	715.12
309.111	707.12
309.341	708.12
309.571	715.12
309.8	717.12
310.03	711.12
310.26	718.12
310.49	722.12
310.72	717.12
310.949	719.12
311.179	733.12
311.409	730.12
311.639	739.12
311.868	745.12
312.098	736.12
312.328	722.12
312.557	769.12
312.787	752.12
313.017	750.12
313.246	756.12
313.476	748.12
313.706	777.12
313.935	773.12
314.165	819.12
314.394	764.12
314.624	772.12
314.853	753.12
315.083	777.12
315.312	771.12
315.542	786.12
315.771	800.12
316.001	782.12
316.23	781.12
316.46	757.12
316.689	743.12
316.919	767.12
317.148	764.12
317.377	764.12
317.607	749.12
317.836	743.12
318.065	758.12
318.295	745.12
318.524	743.12
318.753	756.12
318.983	745.12
319.212	759.12
319.441	760.12
319.67	756.12
319.9	760.12
320.129	739.12
320.358	777.12
320.587	771.12
320.816	779.12
321.046	746.12
321.275	795.12
321.504	781.12
321.733	753.12
321.962	755.12
322.191	771.12
322.42	775.12
322.649	753.12
322.878	774.12
323.108	773.12
323.337	801.12
323.566	775.12
323.795	793.12
324.024	801.12
324.253	772.12
324.482	793.12
324.71	783.12
324.939	811.12
325.168	828.12
325.397	802.12
325.626	810.12
325.855	831.12
326.084	832.12
326.313	853.12
326.542	856.12
326.77	861.12
326.999	844.12
327.228	843.12
327.457	840.12
327.686	837.12
327.914	837.12
328.143	837.12
328.372	841.12
328.6	827.12
328.829	815.12
329.058	847.12
329.287	836.12
329.515	826.12
329.744	836.12
329.972	857.12
330.201	835.12
330.43	863.12
330.658	837.12
330.887	838.12
331.115	844.12
331.344	873.12
331.572	893.12
331.801	911.12
332.03	900.12
332.258	940.12
332.486	984.12
332.715	985.12
332.943	1057.12
333.172	1080.12
333.4	1145.12
333.629	1164.12
333.857	1177.12
334.085	1144.12
334.314	1121.12
334.542	1071.12
334.771	1083.12
334.999	1057.12
335.227	1063.12
335.455	1051.12
335.684	1040.12
335.912	1033.12
336.14	1033.12
336.369	987.12
336.597	1028.12
336.825	998.12
337.053	991.12
337.281	1010.12
337.51	961.12
337.738	969.12
337.966	915.12
338.194	960.12
338.422	929.12
338.65	893.12
338.878	903.12
339.106	927.12
339.334	928.12
339.562	876.12
339.79	855.12
340.018	883.12
340.246	855.12
340.474	890.12
340.702	866.12
340.93	909.12
341.158	871.12
341.386	870.12
341.614	880.12
341.842	881.12
342.07	862.12
342.298	872.12
342.526	881.12
342.754	869.12
342.981	827.12
343.209	902.12
343.437	929.12
343.665	990.12
343.893	1049.12
344.12	1100.12
344.348	1066.12
344.576	979.12
344.804	967.12
345.031	931.12
345.259	902.12
345.487	894.12
345.714	883.12
345.942	861.12
346.17	855.12
346.397	848.12
346.625	857.12
346.853	850.12
347.08	854.12
347.308	845.12
347.535	865.12
347.763	832.12
347.99	829.12
348.218	864.12
348.445	853.12
348.673	819.12
348.9	849.12
349.128	851.12
349.355	818.12
349.583	839.12
349.81	844.12
350.037	827.12
350.265	795.12
350.492	804.12
350.72	799.12
350.947	824.12
351.174	820.12
351.402	833.12
351.629	800.12
351.856	792.12
352.083	799.12
352.311	829.12
352.538	811.12
352.765	816.12
352.992	794.12
353.22	769.12
353.447	820.12
353.674	791.12
353.901	793.12
354.128	796.12
354.355	803.12
354.583	811.12
354.81	804.12
355.037	812.12
355.264	790.12
355.491	807.12
355.718	811.12
355.945	806.12
356.172	793.12
356.399	840.12
356.626	821.12
356.853	824.12
357.08	809.12
357.307	824.12
357.534	821.12
357.761	813.12
357.988	817.12
358.215	807.12
358.441	839.12
358.668	816.12
358.895	818.12
359.122	789.12
359.349	809.12
359.576	785.12
359.802	829.12
360.029	821.12
360.256	831.12
360.483	812.12
360.709	808.12
360.936	835.12
361.163	805.12
361.39	808.12
361.616	835.12
361.843	815.12
362.07	808.12
362.296	836.12
362.523	802.12
362.749	826.12
362.976	797.12
363.203	821.12
363.429	837.12
363.656	805.12
363.882	803.12
364.109	818.12
364.335	797.12
364.562	823.12
364.788	807.12
365.015	813.12
365.241	810.12
365.468	821.12
365.694	818.12
365.92	797.12
366.147	823.12
366.373	816.12
366.599	810.12
366.826	779.12
367.052	784.12
367.278	822.12
367.505	850.12
367.731	824.12
367.957	792.12
368.184	797.12
368.41	818.12
368.636	855.12
368.862	839.12
369.089	820.12
369.315	831.12
369.541	848.12
369.767	874.12
369.993	848.12
370.219	848.12
370.445	879.12
370.672	871.12
370.898	883.12
371.124	853.12
371.35	865.12
371.576	877.12
371.802	916.12
372.028	893.12
372.254	872.12
372.48	900.12
372.706	896.12
372.932	920.12
373.158	904.12
373.384	899.12
373.61	886.12
373.835	899.12
374.061	886.12
374.287	899.12
374.513	920.12
374.739	937.12
374.965	990.12
375.191	998.12
375.416	992.12
375.642	964.12
375.868	952.12
376.094	928.12
376.319	926.12
376.545	917.12
376.771	917.12
376.997	899.12
377.222	913.12
377.448	879.12
377.674	884.12
377.899	876.12
378.125	868.12
378.35	880.12
378.576	882.12
378.802	861.12
379.027	876.12
379.253	894.12
379.478	862.12
379.704	906.12
379.929	884.12
380.155	910.12
380.38	881.12
380.606	887.12
380.831	887.12
381.057	891.12
381.282	886.12
381.507	879.12
381.733	926.12
381.958	897.12
382.184	905.12
382.409	921.12
382.634	940.12
382.86	960.12
383.085	945.12
383.31	983.12
383.535	963.12
383.761	996.12
383.986	1029.12
384.211	1032.12
384.436	1059.12
384.662	1060.12
384.887	1083.12
385.112	1085.12
385.337	1085.12
385.562	1082.12
385.787	1084.12
386.013	1117.12
386.238	1092.12
386.463	1106.12
386.688	1092.12
386.913	1057.12
387.138	1056.12
387.363	1043.12
387.588	1057.12
387.813	1063.12
388.038	1067.12
388.263	1080.12
388.488	1076.12
388.713	1074.12
388.938	1050.12
389.163	1032.12
389.387	1058.12
389.612	1032.12
389.837	1058.12
390.062	1068.12
390.287	1069.12
390.512	1049.12
390.736	1055.12
390.961	1065.12
391.186	1138.12
391.411	1111.12
391.636	1143.12
391.86	1218.12
392.085	1243.12
392.31	1244.12
392.534	1201.12
392.759	1180.12
392.984	1153.12
393.208	1135.12
393.433	1155.12
393.658	1112.12
393.882	1140.12
394.107	1135.12
394.331	1157.12
394.556	1153.12
394.78	1147.12
395.005	1165.12
395.229	1187.12
395.454	1183.12
395.678	1184.12
395.903	1232.12
396.127	1213.12
396.352	1160.12
396.576	1145.12
396.801	1120.12
397.025	1159.12
397.249	1161.12
397.474	1234.12
397.698	1234.12
397.922	1222.12
398.147	1208.12
398.371	1227.12
398.595	1270.12
398.82	1321.12
399.044	1403.12
399.268	1557.12
399.492	1877.12
399.717	2113.12
399.941	2129.12
400.165	1830.12
400.389	1645.12
400.613	1519.12
400.837	1469.12
401.062	1405.12
401.286	1373.12
401.51	1351.12
401.734	1360.12
401.958	1369.12
402.182	1418.12
402.406	1415.12
402.63	1435.12
402.854	1409.12
403.078	1476.12
403.302	1499.12
403.526	1585.12
403.75	1587.12
403.974	1620.12
404.198	1604.12
404.422	1602.12
404.645	1595.12
404.869	1564.12
405.093	1525.12
405.317	1540.12
405.541	1511.12
405.765	1502.12
405.988	1488.12
406.212	1511.12
406.436	1499.12
406.66	1544.12
406.883	1535.12
407.107	1620.12
407.331	1735.12
407.555	1852.12
407.778	1811.12
408.002	1732.12
408.226	1681.12
408.449	1651.12
408.673	1571.12
408.896	1553.12
409.12	1554.12
409.344	1549.12
409.567	1558.12
409.791	1564.12
410.014	1514.12
410.238	1532.12
410.461	1549.12
410.685	1488.12
410.908	1461.12
411.132	1435.12
411.355	1416.12
411.578	1393.12
411.802	1429.12
412.025	1405.12
412.249	1482.12
412.472	1459.12
412.695	1401.12
412.919	1344.12
413.142	1368.12
413.365	1334.12
413.589	1384.12
413.812	1372.12
414.035	1343.12
414.258	1359.12
414.482	1349.12
414.705	1352.12
414.928	1357.12
415.151	1370.12
415.374	1352.12
415.597	1338.12
415.821	1310.12
416.044	1319.12
416.267	1301.12
416.49	1329.12
416.713	1311.12
416.936	1315.12
417.159	1338.12
417.382	1365.12
417.605	1358.12
417.828	1351.12
418.051	1400.12
418.274	1371.12
418.497	1311.12
418.72	1376.12
418.943	1418.12
419.166	1485.12
419.389	1587.12
419.611	1525.12
419.834	1477.12
420.057	1412.12
420.28	1350.12
420.503	1335.12
420.726	1359.12
420.948	1349.12
421.171	1337.12
421.394	1350.12
421.617	1354.12
421.839	1315.12
422.062	1382.12
422.285	1335.12
422.507	1370.12
422.73	1394.12
422.953	1399.12
423.175	1405.12
423.398	1439.12
423.621	1433.12
423.843	1449.12
424.066	1458.12
424.288	1444.12
424.511	1466.12
424.733	1414.12
424.956	1363.12
425.178	1393.12
425.401	1387.12
425.623	1350.12
425.846	1285.12
426.068	1313.12
426.291	1319.12
426.513	1263.12
426.735	1289.12
426.958	1256.12
427.18	1237.12
427.402	1226.12
427.625	1237.12
427.847	1209.12
428.069	1206.12
428.292	1223.12
428.514	1178.12
428.736	1186.12
428.958	1229.12
429.181	1163.12
429.403	1180.12
429.625	1171.12
429.847	1151.12
430.069	1173.12
430.292	1173.12
430.514	1160.12
430.736	1158.12
430.958	1179.12
431.18	1182.12
431.402	1183.12
431.624	1155.12
431.846	1195.12
432.068	1182.12
432.29	1217.12
432.512	1185.12
432.734	1184.12
432.956	1177.12
433.178	1213.12
433.4	1222.12
433.622	1197.12
433.844	1185.12
434.066	1204.12
434.287	1231.12
434.509	1228.12
434.731	1305.12
434.953	1355.12
435.175	1371.12
435.397	1357.12
435.618	1277.12
435.84	1221.12
436.062	1212.12
436.284	1209.12
436.505	1149.12
436.727	1177.12
436.949	1199.12
437.17	1204.12
437.392	1169.12
437.614	1172.12
437.835	1108.12
438.057	1145.12
438.278	1119.12
438.5	1147.12
438.721	1143.12
438.943	1146.12
439.165	1143.12
439.386	1174.12
439.608	1216.12
439.829	1189.12
440.05	1222.12
440.272	1203.12
440.493	1199.12
440.715	1233.12
440.936	1257.12
441.158	1286.12
441.379	1300.12
441.6	1354.12
441.822	1366.12
442.043	1393.12
442.264	1330.12
442.486	1314.12
442.707	1303.12
442.928	1295.12
443.149	1338.12
443.371	1344.12
443.592	1349.12
443.813	1355.12
444.034	1363.12
444.255	1399.12
444.476	1474.12
444.698	1607.12
444.919	1666.12
445.14	1736.12
445.361	1531.12
445.582	1369.12
445.803	1311.12
446.024	1302.12
446.245	1275.12
446.466	1233.12
446.687	1220.12
446.908	1231.12
447.129	1220.12
447.35	1179.12
447.571	1169.12
447.792	1140.12
448.013	1120.12
448.234	1113.12
448.455	1110.12
448.675	1111.12
448.896	1092.12
449.117	1121.12
449.338	1118.12
449.559	1090.12
449.779	1077.12
450	1087.12
450.221	1071.12
450.442	1122.12
450.662	1100.12
450.883	1125.12
451.104	1142.12
451.324	1095.12
451.545	1095.12
451.766	1092.12
451.986	1111.12
452.207	1079.12
452.428	1111.12
452.648	1128.12
452.869	1076.12
453.089	1064.12
453.31	1087.12
453.53	1091.12
453.751	1063.12
453.971	1027.12
454.192	1032.12
454.412	1024.12
454.633	1046.12
454.853	1064.12
455.073	1053.12
455.294	1044.12
455.514	1048.12
455.734	1038.12
455.955	1009.12
456.175	996.12
456.395	996.12
456.616	991.12
456.836	992.12
457.056	998.12
457.276	997.12
457.497	1004.12
457.717	1020.12
457.937	1013.12
458.157	1026.12
458.377	1038.12
458.598	1042.12
458.818	1083.12
459.038	1145.12
459.258	1173.12
459.478	1193.12
459.698	1244.12
459.918	1256.12
460.138	1311.12
460.358	1393.12
460.578	1420.12
460.798	1425.12
461.018	1459.12
461.238	1456.12
461.458	1391.12
461.678	1398.12
461.898	1422.12
462.118	1444.12
462.338	1521.12
462.558	1541.12
462.777	1649.12
462.997	1752.12
463.217	1947.12
463.437	1948.12
463.657	1796.12
463.876	1649.12
464.096	1651.12
464.316	1687.12
464.536	1681.12
464.755	1630.12
464.975	1583.12
465.195	1506.12
465.414	1400.12
465.634	1281.12
465.854	1247.12
466.073	1222.12
466.293	1220.12
466.512	1178.12
466.732	1146.12
466.951	1150.12
467.171	1145.12
467.391	1163.12
467.61	1142.12
467.829	1156.12
468.049	1140.12
468.268	1105.12
468.488	1103.12
468.707	1081.12
468.927	1119.12
469.146	1084.12
469.365	1084.12
469.585	1090.12
469.804	1136.12
470.023	1175.12
470.243	1180.12
470.462	1164.12
470.681	1191.12
470.901	1194.12
471.12	1175.12
471.339	1154.12
471.558	1128.12
471.777	1137.12
471.997	1137.12
472.216	1113.12
472.435	1074.12
472.654	1055.12
472.873	1032.12
473.092	1065.12
473.311	1068.12
473.53	1078.12
473.749	1075.12
473.968	1068.12
474.187	1056.12
474.406	1072.12
474.625	1052.12
474.844	1030.12
475.063	1093.12
475.282	1117.12
475.501	1090.12
475.72	1077.12
475.939	1088.12
476.158	1078.12
476.377	1117.12
476.596	1118.12
476.814	1088.12
477.033	1094.12
477.252	1134.12
477.471	1177.12
477.69	1206.12
477.908	1227.12
478.127	1243.12
478.346	1291.12
478.564	1287.12
478.783	1308.12
479.002	1333.12
479.22	1378.12
479.439	1331.12
479.658	1318.12
479.876	1310.12
480.095	1350.12
480.313	1411.12
480.532	1435.12
480.751	1451.12
480.969	1381.12
481.188	1304.12
481.406	1292.12
481.624	1239.12
481.843	1224.12
482.061	1195.12
482.28	1197.12
482.498	1210.12
482.717	1214.12
482.935	1201.12
483.153	1184.12
483.372	1199.12
483.59	1224.12
483.808	1185.12
484.027	1205.12
484.245	1237.12
484.463	1227.12
484.681	1243.12
484.9	1253.12
485.118	1223.12
485.336	1269.12
485.554	1257.12
485.772	1310.12
485.99	1293.12
486.209	1279.12
486.427	1299.12
486.645	1271.12
486.863	1297.12
487.081	1257.12
487.299	1269.12
487.517	1268.12
487.735	1260.12
487.953	1258.12
488.171	1253.12
488.389	1242.12
488.607	1247.12
488.825	1244.12
489.043	1214.12
489.261	1260.12
489.479	1261.12
489.696	1265.12
489.914	1283.12
490.132	1284.12
490.35	1288.12
490.568	1255.12
490.786	1305.12
491.003	1248.12
491.221	1276.12
491.439	1327.12
491.657	1285.12
491.874	1254.12
492.092	1289.12
492.31	1299.12
492.527	1301.12
492.745	1321.12
492.963	1319.12
493.18	1331.12
493.398	1307.12
493.615	1306.12
493.833	1318.12
494.05	1343.12
494.268	1366.12
494.485	1352.12
494.703	1358.12
494.92	1373.12
495.138	1350.12
495.355	1343.12
495.573	1368.12
495.79	1308.12
496.008	1364.12
496.225	1383.12
496.442	1360.12
496.66	1401.12
496.877	1425.12
497.094	1401.12
497.312	1474.12
497.529	1466.12
497.746	1521.12
497.963	1545.12
498.181	1632.12
498.398	1719.12
498.615	1845.12
498.832	1958.12
499.049	2107.12
499.267	2276.12
499.484	2461.12
499.701	2741.12
499.918	3122.12
500.135	3603.12
500.352	4118.12
500.569	4353.12
500.786	4295.12
501.003	3917.12
501.22	3489.12
501.437	3036.12
501.654	2720.12
501.871	2433.12
502.088	2245.12
502.305	2076.12
502.522	2020.12
502.739	1887.12
502.956	1794.12
503.172	1711.12
503.389	1624.12
503.606	1585.12
503.823	1551.12
504.04	1536.12
504.256	1564.12
504.473	1605.12
504.69	1643.12
504.907	1642.12
505.123	1519.12
505.34	1412.12
505.557	1360.12
505.773	1327.12
505.99	1304.12
506.207	1269.12
506.423	1257.12
506.64	1177.12
506.856	1206.12
507.073	1210.12
507.289	1163.12
507.506	1165.12
507.722	1187.12
507.939	1161.12
508.155	1132.12
508.372	1125.12
508.588	1130.12
508.805	1132.12
509.021	1137.12
509.238	1104.12
509.454	1102.12
509.67	1114.12
509.887	1093.12
510.103	1112.12
510.319	1100.12
510.536	1092.12
510.752	1062.12
510.968	1087.12
511.184	1075.12
511.401	1094.12
511.617	1080.12
511.833	1047.12
512.049	1061.12
512.265	1044.12
512.481	1071.12
512.698	1059.12
512.914	1058.12
513.13	1062.12
513.346	1072.12
513.562	1091.12
513.778	1053.12
513.994	1093.12
514.21	1095.12
514.426	1067.12
514.642	1096.12
514.858	1117.12
515.074	1087.12
515.29	1131.12
515.506	1151.12
515.721	1165.12
515.937	1156.12
516.153	1146.12
516.369	1195.12
516.585	1206.12
516.801	1287.12
517.016	1322.12
517.232	1385.12
517.448	1480.12
517.664	1497.12
517.879	1541.12
518.095	1551.12
518.311	1497.12
518.527	1430.12
518.742	1391.12
518.958	1331.12
519.173	1265.12
519.389	1262.12
519.605	1186.12
519.82	1177.12
520.036	1138.12
520.251	1096.12
520.467	1112.12
520.682	1091.12
520.898	1100.12
521.113	1064.12
521.329	1057.12
521.544	1046.12
521.76	1057.12
521.975	1031.12
522.19	1037.12
522.406	1051.12
522.621	1032.12
522.836	1007.12
523.052	1030.12
523.267	1033.12
523.482	973.12
523.698	998.12
523.913	989.12
524.128	1003.12
524.343	968.12
524.559	982.12
524.774	973.12
524.989	958.12
525.204	991.12
525.419	969.12
525.634	977.12
525.849	975.12
526.064	998.12
526.28	988.12
526.495	965.12
526.71	975.12
526.925	966.12
527.14	979.12
527.355	956.12
527.57	953.12
527.785	976.12
527.999	972.12
528.214	954.12
528.429	977.12
528.644	936.12
528.859	999.12
529.074	992.12
529.289	972.12
529.503	979.12
529.718	967.12
529.933	936.12
530.148	964.12
530.363	983.12
530.577	943.12
530.792	966.12
531.007	940.12
531.221	971.12
531.436	951.12
531.651	947.12
531.865	978.12
532.08	941.12
532.295	973.12
532.509	971.12
532.724	961.12
532.938	951.12
533.153	951.12
533.367	985.12
533.582	991.12
533.796	973.12
534.011	962.12
534.225	956.12
534.44	959.12
534.654	945.12
534.868	949.12
535.083	935.12
535.297	908.12
535.511	945.12
535.726	947.12
535.94	919.12
536.154	921.12
536.369	885.12
536.583	929.12
536.797	890.12
537.011	910.12
537.225	896.12
537.44	873.12
537.654	914.12
537.868	907.12
538.082	893.12
538.296	860.12
538.51	885.12
538.724	893.12
538.938	858.12
539.153	846.12
539.367	869.12
539.581	856.12
539.795	840.12
540.009	867.12
540.222	858.12
540.436	886.12
540.65	870.12
540.864	854.12
541.078	872.12
541.292	861.12
541.506	844.12
541.72	849.12
541.934	869.12
542.147	864.12
542.361	852.12
542.575	827.12
542.789	871.12
543.002	836.12
543.216	876.12
543.43	867.12
543.644	825.12
543.857	844.12
544.071	862.12
544.285	858.12
544.498	851.12
544.712	832.12
544.925	875.12
545.139	884.12
545.352	888.12
545.566	882.12
545.779	869.12
545.993	873.12
546.206	899.12
546.42	877.12
546.633	864.12
546.847	888.12
547.06	895.12
547.274	870.12
547.487	904.12
547.7	892.12
547.914	922.12
548.127	895.12
548.34	870.12
548.554	884.12
548.767	905.12
548.98	869.12
549.193	881.12
549.407	891.12
549.62	931.12
549.833	940.12
550.046	921.12
550.259	874.12
550.473	884.12
550.686	845.12
550.899	888.12
551.112	860.12
551.325	871.12
551.538	855.12
551.751	865.12
551.964	842.12
552.177	888.12
552.39	881.12
552.603	933.12
552.816	957.12
553.029	966.12
553.242	956.12
553.455	978.12
553.667	999.12
553.88	974.12
554.093	936.12
554.306	923.12
554.519	903.12
554.732	859.12
554.944	870.12
555.157	842.12
555.37	852.12
555.583	830.12
555.795	806.12
556.008	777.12
556.221	790.12
556.433	775.12
556.646	798.12
556.859	783.12
557.071	768.12
557.284	767.12
557.496	765.12
557.709	741.12
557.921	736.12
558.134	744.12
558.346	752.12
558.559	736.12
558.771	716.12
558.984	747.12
559.196	737.12
559.409	745.12
559.621	731.12
559.833	710.12
560.046	741.12
560.258	754.12
560.47	732.12
560.683	737.12
560.895	725.12
561.107	698.12
561.32	709.12
561.532	724.12
561.744	722.12
561.956	734.12
562.168	710.12
562.381	711.12
562.593	718.12
562.805	724.12
563.017	717.12
563.229	729.12
563.441	747.12
563.653	761.12
563.865	744.12
564.077	739.12
564.289	737.12
564.501	743.12
564.713	773.12
564.925	792.12
565.137	818.12
565.349	811.12
565.561	810.12
565.773	891.12
565.985	899.12
566.197	957.12
566.408	1033.12
566.62	1121.12
566.832	1226.12
567.044	1259.12
567.255	1227.12
567.467	1244.12
567.679	1332.12
567.891	1447.12
568.102	1527.12
568.314	1466.12
568.526	1260.12
568.737	1131.12
568.949	1023.12
569.161	947.12
569.372	872.12
569.584	845.12
569.795	816.12
570.007	785.12
570.218	773.12
570.43	746.12
570.641	723.12
570.853	765.12
571.064	775.12
571.276	785.12
571.487	738.12
571.698	709.12
571.91	678.12
572.121	648.12
572.333	653.12
572.544	612.12
572.755	643.12
572.966	620.12
573.178	617.12
573.389	616.12
573.6	615.12
573.811	608.12
574.023	607.12
574.234	580.12
574.445	596.12
574.656	602.12
574.867	612.12
575.078	640.12
575.289	594.12
575.501	589.12
575.712	559.12
575.923	568.12
576.134	568.12
576.345	572.12
576.556	581.12
576.767	562.12
576.978	563.12
577.188	569.12
577.399	543.12
577.61	551.12
577.821	548.12
578.032	533.12
578.243	529.12
578.454	552.12
578.665	535.12
578.875	515.12
579.086	531.12
579.297	530.12
579.508	527.12
579.718	529.12
579.929	519.12
580.14	518.12
580.35	512.12
580.561	501.12
580.772	524.12
580.982	513.12
581.193	490.12
581.403	493.12
581.614	509.12
581.825	523.12
582.035	516.12
582.246	496.12
582.456	520.12
582.667	502.12
582.877	496.12
583.087	490.12
583.298	517.12
583.508	480.12
583.719	503.12
583.929	496.12
584.139	488.12
584.35	475.12
584.56	497.12
584.77	477.12
584.981	475.12
585.191	485.12
585.401	484.12
585.611	484.12
585.821	496.12
586.032	485.12
586.242	497.12
586.452	460.12
586.662	465.12
586.872	480.12
587.082	488.12
587.292	471.12
587.502	489.12
587.713	479.12
587.923	483.12
588.133	469.12
588.343	464.12
588.553	482.12
588.762	472.12
588.972	476.12
589.182	472.12
589.392	486.12
589.602	474.12
589.812	465.12
590.022	491.12
590.232	465.12
590.441	497.12
590.651	488.12
590.861	489.12
591.071	493.12
591.281	486.12
591.49	506.12
591.7	498.12
591.91	521.12
592.119	503.12
592.329	535.12
592.539	542.12
592.748	552.12
592.958	597.12
593.167	607.12
593.377	596.12
593.587	635.12
593.796	631.12
594.006	612.12
594.215	653.12
594.424	632.12
594.634	605.12
594.843	602.12
595.053	580.12
595.262	561.12
595.472	530.12
595.681	509.12
595.89	491.12
596.1	492.12
596.309	465.12
596.518	455.12
596.727	459.12
596.937	455.12
597.146	449.12
597.355	426.12
597.564	425.12
597.774	433.12
597.983	421.12
598.192	419.12
598.401	421.12
598.61	415.12
598.819	426.12
599.028	409.12
599.237	391.12
599.446	388.12
599.655	408.12
599.864	403.12
600.073	407.12
600.282	397.12
600.491	386.12
600.7	402.12
600.909	399.12
601.118	411.12
601.327	405.12
601.536	390.12
601.745	415.12
601.953	383.12
602.162	387.12
602.371	391.12
602.58	391.12
602.789	380.12
602.997	400.12
603.206	381.12
603.415	379.12
603.623	390.12
603.832	384.12
604.041	383.12
604.249	357.12
604.458	369.12
604.666	379.12
604.875	373.12
605.084	382.12
605.292	378.12
605.501	365.12
605.709	361.12
605.918	364.12
606.126	378.12
606.334	367.12
606.543	377.12
606.751	360.12
606.96	363.12
607.168	372.12
607.376	337.12
607.585	375.12
607.793	375.12
608.001	351.12
608.21	362.12
608.418	343.12
608.626	330.12
608.834	342.12
609.043	352.12
609.251	354.12
609.459	360.12
609.667	335.12
609.875	352.12
610.083	368.12
610.291	354.12
610.499	346.12
610.707	348.12
610.916	345.12
611.124	350.12
611.332	346.12
611.54	357.12
611.748	346.12
611.955	353.12
612.163	341.12
612.371	339.12
612.579	341.12
612.787	345.12
612.995	344.12
613.203	326.12
613.411	337.12
613.618	346.12
613.826	340.12
614.034	341.12
614.242	332.12
614.449	347.12
614.657	331.12
614.865	341.12
615.072	363.12
615.28	356.12
615.488	352.12
615.695	324.12
615.903	340.12
616.111	323.12
616.318	360.12
616.526	354.12
616.733	330.12
616.941	320.12
617.148	348.12
617.356	341.12
617.563	334.12
617.771	343.12
617.978	336.12
618.185	341.12
618.393	338.12
618.6	344.12
618.807	344.12
619.015	355.12
619.222	346.12
619.429	328.12
619.637	342.12
619.844	349.12
620.051	329.12
620.258	334.12
620.466	337.12
620.673	316.12
620.88	303.12
621.087	315.12
621.294	323.12
621.501	328.12
621.708	305.12
621.915	306.12
622.122	315.12
622.329	328.12
622.536	322.12
622.743	320.12
622.95	278.12
623.157	311.12
623.364	303.12
623.571	303.12
623.778	330.12
623.985	308.12
624.192	315.12
624.399	289.12
624.606	303.12
624.812	309.12
625.019	305.12
625.226	287.12
625.433	296.12
625.639	294.12
625.846	289.12
626.053	274.12
626.259	298.12
626.466	299.12
626.673	297.12
626.879	310.12
627.086	295.12
627.293	278.12
627.499	280.12
627.706	291.12
627.912	284.12
628.119	277.12
628.325	283.12
628.532	270.12
628.738	288.12
628.945	279.12
629.151	269.12
629.357	274.12
629.564	261.12
629.77	295.12
629.976	272.12
630.183	277.12
630.389	278.12
630.595	265.12
630.802	275.12
631.008	280.12
631.214	276.12
631.42	266.12
631.627	268.12
631.833	263.12
632.039	233.12
632.245	255.12
632.451	281.12
632.657	279.12
632.863	274.12
633.069	254.12
633.275	266.12
633.481	245.12
633.688	242.12
633.893	243.12
634.099	240.12
634.305	268.12
634.511	257.12
634.717	241.12
634.923	229.12
635.129	236.12
635.335	260.12
635.541	277.12
635.747	257.12
635.952	241.12
636.158	258.12
636.364	262.12
636.57	224.12
636.775	241.12
636.981	226.12
637.187	235.12
637.392	246.12
637.598	237.12
637.804	259.12
638.009	234.12
638.215	233.12
638.421	225.12
638.626	215.12
638.832	248.12
639.037	236.12
639.243	228.12
639.448	231.12
639.654	228.12
639.859	218.12
640.065	225.12
640.27	224.12
640.475	219.12
640.681	239.12
640.886	241.12
641.091	225.12
641.297	238.12
641.502	220.12
641.707	211.12
641.913	210.12
642.118	222.12
642.323	213.12
642.528	230.12
642.733	215.12
642.939	220.12
643.144	216.12
643.349	219.12
643.554	212.12
643.759	220.12
643.964	215.12
644.169	215.12
644.374	216.12
644.579	196.12
644.784	212.12
644.989	213.12
645.194	216.12
645.399	215.12
645.604	224.12
645.809	212.12
646.014	200.12
646.219	209.12
646.423	220.12
646.628	201.12
646.833	206.12
647.038	193.12
647.243	226.12
647.447	219.12
647.652	225.12
647.857	219.12
648.062	216.12
648.266	214.12
648.471	229.12
648.676	243.12
648.88	222.12
649.085	234.12
649.289	235.12
649.494	234.12
649.698	208.12
649.903	220.12
650.107	205.12
650.312	215.12
650.516	198.12
650.721	193.12
650.925	187.12
651.13	196.12
651.334	199.12
651.539	186.12
651.743	187.12
651.947	200.12
652.152	184.12
652.356	187.12
652.56	195.12
652.764	187.12
652.969	163.12
653.173	160.12
653.377	176.12
653.581	173.12
653.785	171.12
653.99	180.12
654.194	169.12
654.398	166.12
654.602	166.12
654.806	158.12
655.01	151.12
655.214	165.12
655.418	147.12
655.622	158.12
655.826	151.12
656.03	147.12
656.234	151.12
656.438	139.12
656.642	155.12
656.846	160.12
657.049	131.12
657.253	155.12
657.457	136.12
657.661	130.12
657.865	123.12
658.068	128.12
658.272	125.12
658.476	121.12
658.68	118.12
658.883	118.12
659.087	95.12
659.291	101.12
659.494	118.12
659.698	95.12
659.901	107.12
660.105	106.12
660.309	87.12
660.512	95.12
660.716	105.12
660.919	99.12
661.123	96.12
661.326	98.12
661.53	95.12
661.733	80.12
661.936	92.12
662.14	84.12
662.343	103.12
662.546	92.12
662.75	76.12
662.953	76.12
663.156	80.12
663.36	91.12
663.563	90.12
663.766	84.12
663.969	75.12
664.173	78.12
664.376	81.12
664.579	87.12
664.782	78.12
664.985	81.12
665.188	73.12
665.391	80.12
665.594	77.12
665.797	77.12
666	83.12
666.203	79.12
666.406	75.12
666.609	86.12
666.812	76.12
667.015	77.12
667.218	83.12
667.421	90.12
667.624	95.12
667.827	78.12
668.03	80.12
668.232	77.12
668.435	84.12
668.638	78.12
668.841	94.12
669.043	84.12
669.246	84.12
669.449	93.12
669.651	85.12
669.854	76.12
670.057	71.12
670.259	77.12
670.462	68.12
670.665	76.12
670.867	82.12
671.07	79.12
671.272	80.12
671.475	82.12
671.677	81.12
671.88	82.12
672.082	85.12
672.284	80.12
672.487	84.12
672.689	78.12
672.892	81.12
