Data from NiCl2@0.125M.TitratingCurve.Agarose3%dH2O.NegLispCup.LampEnergy10.LIBS07252019_HRD10591_18-29-19-574.txt Node
Date: Thu Jul 25 18:29:19 EDT 2019
User: cochatt
Spectrometer: HR+D1059
Trigger mode: 1
Integration Time (sec): 1.000000E-1
Scans to average: 1
Electric dark correction enabled: true
Nonlinearity correction enabled: false
Boxcar width: 0
XAxis mode: Wavelengths
Number of Pixels in Spectrum: 2048
>>>>>Begin Spectral Data<<<<<
223.165	-15.31
223.4	-15.31
223.635	-15.31
223.869	-25.31
224.104	-11.31
224.338	-15.31
224.573	-14.31
224.808	-6.31
225.042	6.69
225.277	4.69
225.511	-4.31
225.746	8.69
225.98	-1.31
226.215	8.69
226.449	2.69
226.683	11.69
226.918	32.69
227.152	17.69
227.387	24.69
227.621	42.69
227.856	39.69
228.09	41.69
228.324	56.69
228.559	55.69
228.793	64.69
229.027	114.69
229.262	110.69
229.496	98.69
229.73	112.69
229.964	108.69
230.199	129.69
230.433	147.69
230.667	138.69
230.901	154.69
231.136	150.69
231.37	129.69
231.604	127.69
231.838	163.69
232.072	151.69
232.306	140.69
232.541	154.69
232.775	159.69
233.009	140.69
233.243	145.69
233.477	152.69
233.711	147.69
233.945	156.69
234.179	152.69
234.413	143.69
234.647	152.69
234.881	146.69
235.115	157.69
235.349	180.69
235.583	152.69
235.817	146.69
236.051	149.69
236.285	165.69
236.519	153.69
236.753	162.69
236.987	176.69
237.221	166.69
237.455	176.69
237.689	174.69
237.922	174.69
238.156	163.69
238.39	167.69
238.624	163.69
238.858	169.69
239.091	186.69
239.325	190.69
239.559	185.69
239.793	182.69
240.027	200.69
240.26	188.69
240.494	193.69
240.728	182.69
240.961	193.69
241.195	194.69
241.429	197.69
241.662	195.69
241.896	192.69
242.13	205.69
242.363	204.69
242.597	216.69
242.83	206.69
243.064	192.69
243.298	206.69
243.531	224.69
243.765	220.69
243.998	234.69
244.232	213.69
244.465	231.69
244.699	231.69
244.932	226.69
245.166	228.69
245.399	231.69
245.633	224.69
245.866	226.69
246.099	223.69
246.333	247.69
246.566	239.69
246.8	243.69
247.033	244.69
247.266	217.69
247.5	231.69
247.733	229.69
247.966	263.69
248.2	256.69
248.433	237.69
248.666	240.69
248.899	255.69
249.133	249.69
249.366	264.69
249.599	262.69
249.832	245.69
250.066	256.69
250.299	262.69
250.532	253.69
250.765	268.69
250.998	264.69
251.231	272.69
251.465	264.69
251.698	291.69
251.931	266.69
252.164	292.69
252.397	311.69
252.63	307.69
252.863	301.69
253.096	287.69
253.329	298.69
253.562	284.69
253.795	286.69
254.028	307.69
254.261	287.69
254.494	297.69
254.727	303.69
254.96	303.69
255.193	313.69
255.426	310.69
255.659	294.69
255.892	320.69
256.124	295.69
256.357	314.69
256.59	318.69
256.823	305.69
257.056	311.69
257.289	308.69
257.521	322.69
257.754	314.69
257.987	321.69
258.22	323.69
258.452	335.69
258.685	325.69
258.918	348.69
259.151	337.69
259.383	332.69
259.616	324.69
259.849	317.69
260.081	333.69
260.314	331.69
260.547	331.69
260.779	320.69
261.012	333.69
261.244	354.69
261.477	342.69
261.71	324.69
261.942	332.69
262.175	345.69
262.407	357.69
262.64	333.69
262.872	345.69
263.105	341.69
263.337	346.69
263.57	356.69
263.802	357.69
264.035	361.69
264.267	373.69
264.499	366.69
264.732	365.69
264.964	378.69
265.197	377.69
265.429	387.69
265.661	351.69
265.894	371.69
266.126	368.69
266.358	371.69
266.591	365.69
266.823	402.69
267.055	387.69
267.287	378.69
267.52	408.69
267.752	381.69
267.984	392.69
268.216	388.69
268.448	384.69
268.681	380.69
268.913	408.69
269.145	390.69
269.377	404.69
269.609	398.69
269.841	401.69
270.073	372.69
270.306	394.69
270.538	401.69
270.77	381.69
271.002	398.69
271.234	402.69
271.466	409.69
271.698	415.69
271.93	405.69
272.162	412.69
272.394	409.69
272.626	417.69
272.858	413.69
273.09	431.69
273.322	403.69
273.553	426.69
273.785	430.69
274.017	422.69
274.249	435.69
274.481	425.69
274.713	444.69
274.945	430.69
275.176	446.69
275.408	438.69
275.64	413.69
275.872	430.69
276.104	429.69
276.335	420.69
276.567	432.69
276.799	425.69
277.031	462.69
277.262	450.69
277.494	441.69
277.726	464.69
277.957	445.69
278.189	452.69
278.421	469.69
278.652	454.69
278.884	457.69
279.115	465.69
279.347	456.69
279.579	481.69
279.81	464.69
280.042	467.69
280.273	444.69
280.505	466.69
280.736	474.69
280.968	464.69
281.199	466.69
281.431	485.69
281.662	489.69
281.894	486.69
282.125	483.69
282.356	504.69
282.588	508.69
282.819	497.69
283.051	504.69
283.282	480.69
283.513	510.69
283.745	492.69
283.976	467.69
284.207	513.69
284.439	495.69
284.67	542.69
284.901	506.69
285.132	521.69
285.364	514.69
285.595	527.69
285.826	519.69
286.057	517.69
286.288	535.69
286.52	522.69
286.751	534.69
286.982	500.69
287.213	505.69
287.444	549.69
287.675	531.69
287.906	525.69
288.138	544.69
288.369	536.69
288.6	551.69
288.831	536.69
289.062	546.69
289.293	546.69
289.524	532.69
289.755	541.69
289.986	584.69
290.217	540.69
290.448	542.69
290.679	575.69
290.91	540.69
291.141	580.69
291.371	563.69
291.602	558.69
291.833	564.69
292.064	563.69
292.295	525.69
292.526	552.69
292.757	547.69
292.987	554.69
293.218	547.69
293.449	563.69
293.68	560.69
293.91	554.69
294.141	586.69
294.372	540.69
294.603	549.69
294.833	582.69
295.064	573.69
295.295	567.69
295.525	556.69
295.756	606.69
295.987	569.69
296.217	591.69
296.448	594.69
296.679	578.69
296.909	602.69
297.14	605.69
297.37	615.69
297.601	632.69
297.831	576.69
298.062	596.69
298.292	630.69
298.523	622.69
298.753	633.69
298.984	628.69
299.214	603.69
299.445	631.69
299.675	593.69
299.905	622.69
300.136	611.69
300.366	614.69
300.597	620.69
300.827	637.69
301.057	634.69
301.288	636.69
301.518	636.69
301.748	648.69
301.979	639.69
302.209	625.69
302.439	661.69
302.669	630.69
302.9	640.69
303.13	609.69
303.36	616.69
303.59	603.69
303.82	616.69
304.051	635.69
304.281	660.69
304.511	616.69
304.741	670.69
304.971	620.69
305.201	620.69
305.431	608.69
305.661	620.69
305.891	602.69
306.121	608.69
306.352	597.69
306.582	626.69
306.812	590.69
307.042	596.69
307.272	612.69
307.502	606.69
307.731	613.69
307.961	601.69
308.191	609.69
308.421	610.69
308.651	589.69
308.881	605.69
309.111	621.69
309.341	577.69
309.571	598.69
309.8	598.69
310.03	590.69
310.26	597.69
310.49	621.69
310.72	616.69
310.949	627.69
311.179	591.69
311.409	605.69
311.639	618.69
311.868	604.69
312.098	637.69
312.328	622.69
312.557	628.69
312.787	608.69
313.017	630.69
313.246	616.69
313.476	641.69
313.706	680.69
313.935	636.69
314.165	651.69
314.394	660.69
314.624	644.69
314.853	661.69
315.083	640.69
315.312	679.69
315.542	646.69
315.771	642.69
316.001	648.69
316.23	625.69
316.46	615.69
316.689	640.69
316.919	609.69
317.148	625.69
317.377	624.69
317.607	639.69
317.836	610.69
318.065	633.69
318.295	638.69
318.524	635.69
318.753	633.69
318.983	627.69
319.212	616.69
319.441	645.69
319.67	620.69
319.9	643.69
320.129	617.69
320.358	609.69
320.587	616.69
320.816	630.69
321.046	646.69
321.275	655.69
321.504	653.69
321.733	645.69
321.962	623.69
322.191	672.69
322.42	646.69
322.649	666.69
322.878	645.69
323.108	651.69
323.337	637.69
323.566	647.69
323.795	662.69
324.024	651.69
324.253	637.69
324.482	644.69
324.71	656.69
324.939	648.69
325.168	661.69
325.397	665.69
325.626	647.69
325.855	658.69
326.084	680.69
326.313	689.69
326.542	717.69
326.77	713.69
326.999	705.69
327.228	673.69
327.457	677.69
327.686	690.69
327.914	680.69
328.143	702.69
328.372	696.69
328.6	698.69
328.829	695.69
329.058	693.69
329.287	672.69
329.515	712.69
329.744	709.69
329.972	718.69
330.201	733.69
330.43	710.69
330.658	710.69
330.887	713.69
331.115	708.69
331.344	731.69
331.572	730.69
331.801	761.69
332.03	762.69
332.258	784.69
332.486	808.69
332.715	837.69
332.943	846.69
333.172	910.69
333.4	946.69
333.629	974.69
333.857	980.69
334.085	964.69
334.314	938.69
334.542	916.69
334.771	885.69
334.999	871.69
335.227	877.69
335.455	852.69
335.684	872.69
335.912	841.69
336.14	838.69
336.369	833.69
336.597	832.69
336.825	826.69
337.053	828.69
337.281	828.69
337.51	808.69
337.738	803.69
337.966	773.69
338.194	774.69
338.422	743.69
338.65	765.69
338.878	720.69
339.106	743.69
339.334	731.69
339.562	750.69
339.79	736.69
340.018	704.69
340.246	704.69
340.474	726.69
340.702	710.69
340.93	710.69
341.158	753.69
341.386	715.69
341.614	736.69
341.842	674.69
342.07	703.69
342.298	718.69
342.526	711.69
342.754	729.69
342.981	742.69
343.209	720.69
343.437	766.69
343.665	825.69
343.893	896.69
344.12	926.69
344.348	859.69
344.576	824.69
344.804	782.69
345.031	756.69
345.259	765.69
345.487	729.69
345.714	737.69
345.942	690.69
346.17	722.69
346.397	728.69
346.625	695.69
346.853	700.69
347.08	692.69
347.308	704.69
347.535	725.69
347.763	743.69
347.99	719.69
348.218	728.69
348.445	722.69
348.673	698.69
348.9	708.69
349.128	696.69
349.355	681.69
349.583	695.69
349.81	678.69
350.037	677.69
350.265	651.69
350.492	670.69
350.72	687.69
350.947	660.69
351.174	659.69
351.402	681.69
351.629	662.69
351.856	664.69
352.083	673.69
352.311	674.69
352.538	666.69
352.765	651.69
352.992	693.69
353.22	643.69
353.447	661.69
353.674	654.69
353.901	652.69
354.128	674.69
354.355	657.69
354.583	642.69
354.81	665.69
355.037	688.69
355.264	681.69
355.491	669.69
355.718	657.69
355.945	684.69
356.172	691.69
356.399	680.69
356.626	669.69
356.853	667.69
357.08	655.69
357.307	677.69
357.534	659.69
357.761	677.69
357.988	668.69
358.215	685.69
358.441	662.69
358.668	654.69
358.895	685.69
359.122	662.69
359.349	647.69
359.576	677.69
359.802	664.69
360.029	673.69
360.256	687.69
360.483	665.69
360.709	680.69
360.936	683.69
361.163	664.69
361.39	689.69
361.616	667.69
361.843	674.69
362.07	673.69
362.296	654.69
362.523	663.69
362.749	665.69
362.976	671.69
363.203	663.69
363.429	647.69
363.656	654.69
363.882	670.69
364.109	642.69
364.335	675.69
364.562	678.69
364.788	663.69
365.015	656.69
365.241	670.69
365.468	648.69
365.694	655.69
365.92	656.69
366.147	665.69
366.373	651.69
366.599	677.69
366.826	662.69
367.052	668.69
367.278	678.69
367.505	651.69
367.731	657.69
367.957	667.69
368.184	681.69
368.41	656.69
368.636	633.69
368.862	697.69
369.089	694.69
369.315	690.69
369.541	696.69
369.767	717.69
369.993	684.69
370.219	664.69
370.445	697.69
370.672	721.69
370.898	729.69
371.124	744.69
371.35	720.69
371.576	749.69
371.802	752.69
372.028	722.69
372.254	698.69
372.48	721.69
372.706	768.69
372.932	739.69
373.158	755.69
373.384	760.69
373.61	741.69
373.835	752.69
374.061	743.69
374.287	743.69
374.513	750.69
374.739	784.69
374.965	833.69
375.191	804.69
375.416	820.69
375.642	768.69
375.868	796.69
376.094	766.69
376.319	753.69
376.545	763.69
376.771	741.69
376.997	726.69
377.222	713.69
377.448	736.69
377.674	718.69
377.899	753.69
378.125	711.69
378.35	713.69
378.576	731.69
378.802	704.69
379.027	733.69
379.253	741.69
379.478	728.69
379.704	686.69
379.929	720.69
380.155	708.69
380.38	725.69
380.606	740.69
380.831	729.69
381.057	728.69
381.282	716.69
381.507	750.69
381.733	739.69
381.958	741.69
382.184	766.69
382.409	730.69
382.634	766.69
382.86	788.69
383.085	775.69
383.31	793.69
383.535	801.69
383.761	818.69
383.986	820.69
384.211	861.69
384.436	847.69
384.662	888.69
384.887	892.69
385.112	891.69
385.337	892.69
385.562	906.69
385.787	925.69
386.013	870.69
386.238	890.69
386.463	894.69
386.688	899.69
386.913	862.69
387.138	879.69
387.363	863.69
387.588	842.69
387.813	870.69
388.038	876.69
388.263	886.69
388.488	860.69
388.713	898.69
388.938	868.69
389.163	853.69
389.387	872.69
389.612	872.69
389.837	845.69
390.062	848.69
390.287	849.69
390.512	849.69
390.736	854.69
390.961	890.69
391.186	879.69
391.411	922.69
391.636	976.69
391.86	1008.69
392.085	998.69
392.31	1004.69
392.534	989.69
392.759	966.69
392.984	924.69
393.208	910.69
393.433	917.69
393.658	949.69
393.882	945.69
394.107	953.69
394.331	946.69
394.556	968.69
394.78	953.69
395.005	975.69
395.229	948.69
395.454	965.69
395.678	1001.69
395.903	1002.69
396.127	987.69
396.352	950.69
396.576	903.69
396.801	917.69
397.025	929.69
397.249	962.69
397.474	1000.69
397.698	1009.69
397.922	1007.69
398.147	973.69
398.371	1016.69
398.595	1042.69
398.82	1064.69
399.044	1140.69
399.268	1269.69
399.492	1524.69
399.717	1759.69
399.941	1803.69
400.165	1566.69
400.389	1375.69
400.613	1236.69
400.837	1202.69
401.062	1145.69
401.286	1120.69
401.51	1112.69
401.734	1109.69
401.958	1123.69
402.182	1153.69
402.406	1145.69
402.63	1165.69
402.854	1234.69
403.078	1218.69
403.302	1284.69
403.526	1267.69
403.75	1329.69
403.974	1346.69
404.198	1314.69
404.422	1380.69
404.645	1338.69
404.869	1325.69
405.093	1302.69
405.317	1260.69
405.541	1257.69
405.765	1246.69
405.988	1241.69
406.212	1246.69
406.436	1245.69
406.66	1235.69
406.883	1288.69
407.107	1318.69
407.331	1455.69
407.555	1478.69
407.778	1490.69
408.002	1412.69
408.226	1397.69
408.449	1398.69
408.673	1319.69
408.896	1283.69
409.12	1281.69
409.344	1285.69
409.567	1285.69
409.791	1297.69
410.014	1313.69
410.238	1288.69
410.461	1281.69
410.685	1242.69
410.908	1210.69
411.132	1214.69
411.355	1187.69
411.578	1187.69
411.802	1166.69
412.025	1199.69
412.249	1176.69
412.472	1191.69
412.695	1132.69
412.919	1119.69
413.142	1115.69
413.365	1116.69
413.589	1113.69
413.812	1109.69
414.035	1088.69
414.258	1085.69
414.482	1112.69
414.705	1145.69
414.928	1138.69
415.151	1125.69
415.374	1129.69
415.597	1105.69
415.821	1123.69
416.044	1097.69
416.267	1101.69
416.49	1068.69
416.713	1072.69
416.936	1092.69
417.159	1098.69
417.382	1087.69
417.605	1122.69
417.828	1121.69
418.051	1125.69
418.274	1158.69
418.497	1099.69
418.72	1156.69
418.943	1178.69
419.166	1237.69
419.389	1300.69
419.611	1303.69
419.834	1225.69
420.057	1162.69
420.28	1126.69
420.503	1122.69
420.726	1086.69
420.948	1114.69
421.171	1134.69
421.394	1127.69
421.617	1111.69
421.839	1102.69
422.062	1115.69
422.285	1117.69
422.507	1117.69
422.73	1149.69
422.953	1167.69
423.175	1154.69
423.398	1185.69
423.621	1216.69
423.843	1233.69
424.066	1246.69
424.288	1188.69
424.511	1224.69
424.733	1190.69
424.956	1141.69
425.178	1160.69
425.401	1131.69
425.623	1139.69
425.846	1104.69
426.068	1081.69
426.291	1065.69
426.513	1038.69
426.735	1045.69
426.958	1043.69
427.18	1049.69
427.402	1010.69
427.625	1020.69
427.847	979.69
428.069	1002.69
428.292	991.69
428.514	948.69
428.736	985.69
428.958	988.69
429.181	977.69
429.403	981.69
429.625	950.69
429.847	972.69
430.069	968.69
430.292	977.69
430.514	981.69
430.736	967.69
430.958	967.69
431.18	945.69
431.402	958.69
431.624	949.69
431.846	991.69
432.068	982.69
432.29	1015.69
432.512	986.69
432.734	965.69
432.956	982.69
433.178	999.69
433.4	1007.69
433.622	1005.69
433.844	995.69
434.066	1020.69
434.287	1013.69
434.509	1049.69
434.731	1112.69
434.953	1119.69
435.175	1159.69
435.397	1108.69
435.618	1060.69
435.84	1034.69
436.062	988.69
436.284	995.69
436.505	1002.69
436.727	985.69
436.949	992.69
437.17	1012.69
437.392	981.69
437.614	969.69
437.835	990.69
438.057	960.69
438.278	953.69
438.5	971.69
438.721	956.69
438.943	974.69
439.165	963.69
439.386	965.69
439.608	1008.69
439.829	977.69
440.05	1001.69
440.272	1027.69
440.493	984.69
440.715	1004.69
440.936	1025.69
441.158	1031.69
441.379	1104.69
441.6	1152.69
441.822	1144.69
442.043	1168.69
442.264	1141.69
442.486	1124.69
442.707	1121.69
442.928	1110.69
443.149	1128.69
443.371	1108.69
443.592	1117.69
443.813	1127.69
444.034	1125.69
444.255	1185.69
444.476	1238.69
444.698	1338.69
444.919	1423.69
445.14	1466.69
445.361	1329.69
445.582	1215.69
445.803	1130.69
446.024	1080.69
446.245	1016.69
446.466	1002.69
446.687	1004.69
446.908	988.69
447.129	962.69
447.35	986.69
447.571	980.69
447.792	956.69
448.013	965.69
448.234	912.69
448.455	899.69
448.675	912.69
448.896	933.69
449.117	926.69
449.338	918.69
449.559	911.69
449.779	894.69
450	890.69
450.221	907.69
450.442	944.69
450.662	933.69
450.883	950.69
451.104	961.69
451.324	948.69
451.545	979.69
451.766	948.69
451.986	955.69
452.207	928.69
452.428	906.69
452.648	931.69
452.869	925.69
453.089	902.69
453.31	889.69
453.53	879.69
453.751	906.69
453.971	876.69
454.192	882.69
454.412	860.69
454.633	901.69
454.853	878.69
455.073	857.69
455.294	884.69
455.514	856.69
455.734	864.69
455.955	842.69
456.175	857.69
456.395	828.69
456.616	848.69
456.836	884.69
457.056	845.69
457.276	829.69
457.497	879.69
457.717	856.69
457.937	871.69
458.157	881.69
458.377	874.69
458.598	888.69
458.818	933.69
459.038	945.69
459.258	998.69
459.478	1026.69
459.698	1025.69
459.918	1085.69
460.138	1134.69
460.358	1144.69
460.578	1194.69
460.798	1185.69
461.018	1240.69
461.238	1182.69
461.458	1208.69
461.678	1203.69
461.898	1203.69
462.118	1205.69
462.338	1280.69
462.558	1315.69
462.777	1376.69
462.997	1503.69
463.217	1669.69
463.437	1733.69
463.657	1546.69
463.876	1434.69
464.096	1408.69
464.316	1410.69
464.536	1433.69
464.755	1360.69
464.975	1294.69
465.195	1268.69
465.414	1179.69
465.634	1113.69
465.854	1089.69
466.073	1019.69
466.293	1024.69
466.512	975.69
466.732	956.69
466.951	944.69
467.171	949.69
467.391	953.69
467.61	966.69
467.829	965.69
468.049	934.69
468.268	925.69
468.488	916.69
468.707	912.69
468.927	927.69
469.146	945.69
469.365	933.69
469.585	953.69
469.804	975.69
470.023	968.69
470.243	975.69
470.462	1006.69
470.681	1004.69
470.901	982.69
471.12	997.69
471.339	972.69
471.558	950.69
471.777	951.69
471.997	929.69
472.216	918.69
472.435	929.69
472.654	892.69
472.873	905.69
473.092	890.69
473.311	893.69
473.53	888.69
473.749	869.69
473.968	904.69
474.187	870.69
474.406	885.69
474.625	905.69
474.844	916.69
475.063	855.69
475.282	881.69
475.501	898.69
475.72	889.69
475.939	902.69
476.158	891.69
476.377	916.69
476.596	919.69
476.814	928.69
477.033	936.69
477.252	934.69
477.471	963.69
477.69	1013.69
477.908	1017.69
478.127	1063.69
478.346	1093.69
478.564	1099.69
478.783	1114.69
479.002	1097.69
479.22	1156.69
479.439	1117.69
479.658	1133.69
479.876	1084.69
480.095	1127.69
480.313	1134.69
480.532	1217.69
480.751	1233.69
480.969	1149.69
481.188	1127.69
481.406	1085.69
481.624	1034.69
481.843	1038.69
482.061	1010.69
482.28	1029.69
482.498	1023.69
482.717	991.69
482.935	997.69
483.153	1010.69
483.372	1013.69
483.59	1004.69
483.808	1031.69
484.027	998.69
484.245	986.69
484.463	1000.69
484.681	1009.69
484.9	1044.69
485.118	1044.69
485.336	1032.69
485.554	1050.69
485.772	1058.69
485.99	1046.69
486.209	1092.69
486.427	1088.69
486.645	1100.69
486.863	1074.69
487.081	1075.69
487.299	1070.69
487.517	1034.69
487.735	1044.69
487.953	1074.69
488.171	1077.69
488.389	1060.69
488.607	1010.69
488.825	1009.69
489.043	1034.69
489.261	1040.69
489.479	1047.69
489.696	1041.69
489.914	1057.69
490.132	1040.69
490.35	1068.69
490.568	1052.69
490.786	1071.69
491.003	1053.69
491.221	1056.69
491.439	1068.69
491.657	1052.69
491.874	1060.69
492.092	1054.69
492.31	1064.69
492.527	1086.69
492.745	1080.69
492.963	1085.69
493.18	1092.69
493.398	1098.69
493.615	1122.69
493.833	1105.69
494.05	1100.69
494.268	1108.69
494.485	1130.69
494.703	1122.69
494.92	1125.69
495.138	1132.69
495.355	1118.69
495.573	1124.69
495.79	1127.69
496.008	1133.69
496.225	1137.69
496.442	1160.69
496.66	1132.69
496.877	1143.69
497.094	1173.69
497.312	1209.69
497.529	1228.69
497.746	1276.69
497.963	1294.69
498.181	1365.69
498.398	1410.69
498.615	1494.69
498.832	1591.69
499.049	1717.69
499.267	1885.69
499.484	2050.69
499.701	2320.69
499.918	2601.69
500.135	3092.69
500.352	3478.69
500.569	3752.69
500.786	3716.69
501.003	3447.69
501.22	3056.69
501.437	2620.69
501.654	2278.69
501.871	2040.69
502.088	1851.69
502.305	1726.69
502.522	1645.69
502.739	1573.69
502.956	1480.69
503.172	1388.69
503.389	1336.69
503.606	1325.69
503.823	1277.69
504.04	1299.69
504.256	1276.69
504.473	1337.69
504.69	1424.69
504.907	1373.69
505.123	1281.69
505.34	1143.69
505.557	1112.69
505.773	1100.69
505.99	1063.69
506.207	1042.69
506.423	1027.69
506.64	1031.69
506.856	997.69
507.073	1005.69
507.289	1004.69
507.506	1009.69
507.722	975.69
507.939	989.69
508.155	939.69
508.372	950.69
508.588	941.69
508.805	936.69
509.021	944.69
509.238	943.69
509.454	943.69
509.67	930.69
509.887	932.69
510.103	910.69
510.319	921.69
510.536	911.69
510.752	894.69
510.968	914.69
511.184	914.69
511.401	907.69
511.617	926.69
511.833	918.69
512.049	902.69
512.265	904.69
512.481	926.69
512.698	890.69
512.914	911.69
513.13	946.69
513.346	916.69
513.562	915.69
513.778	918.69
513.994	910.69
514.21	893.69
514.426	939.69
514.642	891.69
514.858	905.69
515.074	946.69
515.29	937.69
515.506	941.69
515.721	940.69
515.937	967.69
516.153	996.69
516.369	1013.69
516.585	1060.69
516.801	1081.69
517.016	1102.69
517.232	1160.69
517.448	1238.69
517.664	1340.69
517.879	1340.69
518.095	1322.69
518.311	1316.69
518.527	1212.69
518.742	1199.69
518.958	1106.69
519.173	1085.69
519.389	1040.69
519.605	996.69
519.82	965.69
520.036	959.69
520.251	934.69
520.467	911.69
520.682	906.69
520.898	897.69
521.113	887.69
521.329	901.69
521.544	870.69
521.76	896.69
521.975	874.69
522.19	867.69
522.406	852.69
522.621	851.69
522.836	857.69
523.052	871.69
523.267	853.69
523.482	836.69
523.698	849.69
523.913	854.69
524.128	830.69
524.343	845.69
524.559	828.69
524.774	835.69
524.989	829.69
525.204	853.69
525.419	834.69
525.634	795.69
525.849	834.69
526.064	824.69
526.28	818.69
526.495	822.69
526.71	825.69
526.925	791.69
527.14	830.69
527.355	809.69
527.57	812.69
527.785	854.69
527.999	820.69
528.214	801.69
528.429	826.69
528.644	813.69
528.859	832.69
529.074	830.69
529.289	833.69
529.503	824.69
529.718	822.69
529.933	847.69
530.148	808.69
530.363	832.69
530.577	797.69
530.792	796.69
531.007	836.69
531.221	839.69
531.436	815.69
531.651	833.69
531.865	826.69
532.08	819.69
532.295	840.69
532.509	821.69
532.724	797.69
532.938	797.69
533.153	829.69
533.367	820.69
533.582	819.69
533.796	801.69
534.011	829.69
534.225	803.69
534.44	797.69
534.654	819.69
534.868	814.69
535.083	827.69
535.297	797.69
535.511	786.69
535.726	800.69
535.94	793.69
536.154	796.69
536.369	796.69
536.583	806.69
536.797	767.69
537.011	748.69
537.225	750.69
537.44	751.69
537.654	762.69
537.868	737.69
538.082	726.69
538.296	758.69
538.51	764.69
538.724	760.69
538.938	733.69
539.153	733.69
539.367	753.69
539.581	736.69
539.795	719.69
540.009	743.69
540.222	748.69
540.436	720.69
540.65	708.69
540.864	738.69
541.078	716.69
541.292	768.69
541.506	766.69
541.72	744.69
541.934	729.69
542.147	753.69
542.361	754.69
542.575	722.69
542.789	716.69
543.002	703.69
543.216	725.69
543.43	715.69
543.644	727.69
543.857	713.69
544.071	723.69
544.285	729.69
544.498	735.69
544.712	745.69
544.925	724.69
545.139	768.69
545.352	731.69
545.566	747.69
545.779	762.69
545.993	729.69
546.206	731.69
546.42	741.69
546.633	738.69
546.847	777.69
547.06	762.69
547.274	768.69
547.487	729.69
547.7	717.69
547.914	753.69
548.127	780.69
548.34	760.69
548.554	750.69
548.767	752.69
548.98	739.69
549.193	775.69
549.407	797.69
549.62	802.69
549.833	789.69
550.046	802.69
550.259	767.69
550.473	744.69
550.686	752.69
550.899	721.69
551.112	727.69
551.325	714.69
551.538	741.69
551.751	722.69
551.964	735.69
552.177	757.69
552.39	758.69
552.603	778.69
552.816	804.69
553.029	802.69
553.242	849.69
553.455	876.69
553.667	828.69
553.88	831.69
554.093	800.69
554.306	794.69
554.519	774.69
554.732	790.69
554.944	738.69
555.157	732.69
555.37	710.69
555.583	710.69
555.795	694.69
556.008	694.69
556.221	682.69
556.433	660.69
556.646	660.69
556.859	660.69
557.071	649.69
557.284	670.69
557.496	634.69
557.709	646.69
557.921	630.69
558.134	650.69
558.346	653.69
558.559	636.69
558.771	629.69
558.984	635.69
559.196	617.69
559.409	643.69
559.621	627.69
559.833	600.69
560.046	614.69
560.258	601.69
560.47	616.69
560.683	609.69
560.895	635.69
561.107	630.69
561.32	599.69
561.532	617.69
561.744	611.69
561.956	629.69
562.168	611.69
562.381	640.69
562.593	624.69
562.805	641.69
563.017	620.69
563.229	627.69
563.441	628.69
563.653	622.69
563.865	631.69
564.077	628.69
564.289	649.69
564.501	671.69
564.713	668.69
564.925	667.69
565.137	690.69
565.349	696.69
565.561	728.69
565.773	756.69
565.985	761.69
566.197	837.69
566.408	901.69
566.62	964.69
566.832	1043.69
567.044	1080.69
567.255	1052.69
567.467	1104.69
567.679	1151.69
567.891	1292.69
568.102	1305.69
568.314	1261.69
568.526	1119.69
568.737	975.69
568.949	888.69
569.161	807.69
569.372	760.69
569.584	696.69
569.795	695.69
570.007	674.69
570.218	640.69
570.43	629.69
570.641	634.69
570.853	632.69
571.064	656.69
571.276	687.69
571.487	658.69
571.698	634.69
571.91	598.69
572.121	566.69
572.333	573.69
572.544	553.69
572.755	542.69
572.966	540.69
573.178	528.69
573.389	504.69
573.6	523.69
573.811	519.69
574.023	502.69
574.234	518.69
574.445	513.69
574.656	526.69
574.867	506.69
575.078	536.69
575.289	522.69
575.501	491.69
575.712	485.69
575.923	476.69
576.134	488.69
576.345	500.69
576.556	496.69
576.767	477.69
576.978	494.69
577.188	473.69
577.399	496.69
577.61	488.69
577.821	474.69
578.032	471.69
578.243	460.69
578.454	465.69
578.665	454.69
578.875	458.69
579.086	466.69
579.297	465.69
579.508	457.69
579.718	461.69
579.929	447.69
580.14	441.69
580.35	444.69
580.561	439.69
580.772	448.69
580.982	438.69
581.193	436.69
581.403	439.69
581.614	445.69
581.825	436.69
582.035	432.69
582.246	434.69
582.456	431.69
582.667	427.69
582.877	445.69
583.087	457.69
583.298	428.69
583.508	422.69
583.719	436.69
583.929	423.69
584.139	429.69
584.35	418.69
584.56	433.69
584.77	433.69
584.981	399.69
585.191	422.69
585.401	420.69
585.611	412.69
585.821	429.69
586.032	389.69
586.242	426.69
586.452	434.69
586.662	433.69
586.872	405.69
587.082	414.69
587.292	414.69
587.502	410.69
587.713	417.69
587.923	410.69
588.133	420.69
588.343	421.69
588.553	422.69
588.762	430.69
588.972	422.69
589.182	421.69
589.392	417.69
589.602	433.69
589.812	394.69
590.022	411.69
590.232	410.69
590.441	412.69
590.651	425.69
590.861	407.69
591.071	429.69
591.281	412.69
591.49	436.69
591.7	430.69
591.91	464.69
592.119	454.69
592.329	462.69
592.539	480.69
592.748	498.69
592.958	522.69
593.167	521.69
593.377	544.69
593.587	550.69
593.796	552.69
594.006	568.69
594.215	570.69
594.424	573.69
594.634	545.69
594.843	525.69
595.053	508.69
595.262	497.69
595.472	471.69
595.681	452.69
595.89	428.69
596.1	447.69
596.309	423.69
596.518	388.69
596.727	408.69
596.937	393.69
597.146	382.69
597.355	402.69
597.564	377.69
597.774	361.69
597.983	364.69
598.192	364.69
598.401	372.69
598.61	383.69
598.819	365.69
599.028	364.69
599.237	373.69
599.446	361.69
599.655	357.69
599.864	370.69
600.073	340.69
600.282	356.69
600.491	345.69
600.7	365.69
600.909	325.69
601.118	339.69
601.327	343.69
601.536	330.69
601.745	345.69
601.953	342.69
602.162	346.69
602.371	326.69
602.58	354.69
602.789	349.69
602.997	330.69
603.206	342.69
603.415	337.69
603.623	326.69
603.832	330.69
604.041	334.69
604.249	338.69
604.458	340.69
604.666	337.69
604.875	331.69
605.084	311.69
605.292	327.69
605.501	310.69
605.709	326.69
605.918	325.69
606.126	329.69
606.334	324.69
606.543	312.69
606.751	349.69
606.96	329.69
607.168	322.69
607.376	322.69
607.585	313.69
607.793	314.69
608.001	312.69
608.21	313.69
608.418	294.69
608.626	330.69
608.834	312.69
609.043	304.69
609.251	286.69
609.459	290.69
609.667	305.69
609.875	300.69
610.083	308.69
610.291	315.69
610.499	338.69
610.707	318.69
610.916	317.69
611.124	312.69
611.332	301.69
611.54	290.69
611.748	314.69
611.955	294.69
612.163	316.69
612.371	319.69
612.579	314.69
612.787	321.69
612.995	295.69
613.203	332.69
613.411	302.69
613.618	317.69
613.826	302.69
614.034	290.69
614.242	303.69
614.449	304.69
614.657	291.69
614.865	300.69
615.072	312.69
615.28	301.69
615.488	297.69
615.695	293.69
615.903	284.69
616.111	310.69
616.318	320.69
616.526	311.69
616.733	301.69
616.941	305.69
617.148	307.69
617.356	309.69
617.563	303.69
617.771	310.69
617.978	287.69
618.185	297.69
618.393	313.69
618.6	309.69
618.807	310.69
619.015	327.69
619.222	317.69
619.429	303.69
619.637	309.69
619.844	302.69
620.051	273.69
620.258	274.69
620.466	267.69
620.673	271.69
620.88	274.69
621.087	273.69
621.294	276.69
621.501	287.69
621.708	267.69
621.915	281.69
622.122	272.69
622.329	292.69
622.536	268.69
622.743	269.69
622.95	284.69
623.157	286.69
623.364	271.69
623.571	266.69
623.778	264.69
623.985	265.69
624.192	272.69
624.399	264.69
624.606	256.69
624.812	269.69
625.019	261.69
625.226	269.69
625.433	269.69
625.639	272.69
625.846	254.69
626.053	253.69
626.259	261.69
626.466	263.69
626.673	262.69
626.879	259.69
627.086	277.69
627.293	252.69
627.499	250.69
627.706	247.69
627.912	249.69
628.119	258.69
628.325	248.69
628.532	244.69
628.738	250.69
628.945	262.69
629.151	249.69
629.357	243.69
629.564	253.69
629.77	231.69
629.976	228.69
630.183	254.69
630.389	246.69
630.595	247.69
630.802	231.69
631.008	238.69
631.214	237.69
631.42	233.69
631.627	226.69
631.833	227.69
632.039	231.69
632.245	219.69
632.451	232.69
632.657	236.69
632.863	227.69
633.069	227.69
633.275	232.69
633.481	215.69
633.688	222.69
633.893	209.69
634.099	225.69
634.305	231.69
634.511	229.69
634.717	220.69
634.923	238.69
635.129	234.69
635.335	216.69
635.541	211.69
635.747	208.69
635.952	221.69
636.158	214.69
636.364	210.69
636.57	220.69
636.775	204.69
636.981	210.69
637.187	201.69
637.392	198.69
637.598	222.69
637.804	213.69
638.009	218.69
638.215	213.69
638.421	216.69
638.626	223.69
638.832	223.69
639.037	204.69
639.243	197.69
639.448	213.69
639.654	204.69
639.859	211.69
640.065	195.69
640.27	203.69
640.475	208.69
640.681	200.69
640.886	207.69
641.091	200.69
641.297	199.69
641.502	199.69
641.707	188.69
641.913	185.69
642.118	198.69
642.323	206.69
642.528	183.69
642.733	191.69
642.939	200.69
643.144	198.69
643.349	201.69
643.554	202.69
643.759	197.69
643.964	185.69
644.169	185.69
644.374	194.69
644.579	209.69
644.784	177.69
644.989	201.69
645.194	184.69
645.399	180.69
645.604	193.69
645.809	195.69
646.014	202.69
646.219	192.69
646.423	181.69
646.628	194.69
646.833	213.69
647.038	200.69
647.243	200.69
647.447	210.69
647.652	200.69
647.857	192.69
648.062	198.69
648.266	199.69
648.471	214.69
648.676	211.69
648.88	209.69
649.085	216.69
649.289	208.69
649.494	189.69
649.698	183.69
649.903	179.69
650.107	197.69
650.312	186.69
650.516	193.69
650.721	172.69
650.925	175.69
651.13	170.69
651.334	176.69
651.539	161.69
651.743	169.69
651.947	157.69
652.152	148.69
652.356	168.69
652.56	151.69
652.764	165.69
652.969	153.69
653.173	146.69
653.377	143.69
653.581	164.69
653.785	161.69
653.99	135.69
654.194	148.69
654.398	159.69
654.602	130.69
654.806	152.69
655.01	137.69
655.214	136.69
655.418	130.69
655.622	143.69
655.826	134.69
656.03	138.69
656.234	128.69
656.438	128.69
656.642	139.69
656.846	124.69
657.049	127.69
657.253	124.69
657.457	130.69
657.661	107.69
657.865	121.69
658.068	119.69
658.272	109.69
658.476	104.69
658.68	98.69
658.883	94.69
659.087	90.69
659.291	91.69
659.494	94.69
659.698	93.69
659.901	116.69
660.105	108.69
660.309	96.69
660.512	94.69
660.716	87.69
660.919	86.69
661.123	95.69
661.326	102.69
661.53	91.69
661.733	93.69
661.936	98.69
662.14	88.69
662.343	70.69
662.546	79.69
662.75	86.69
662.953	83.69
663.156	86.69
663.36	83.69
663.563	74.69
663.766	79.69
663.969	80.69
664.173	72.69
664.376	79.69
664.579	77.69
664.782	72.69
664.985	80.69
665.188	76.69
665.391	80.69
665.594	77.69
665.797	73.69
666	71.69
666.203	53.69
666.406	75.69
666.609	80.69
666.812	96.69
667.015	68.69
667.218	83.69
667.421	96.69
667.624	84.69
667.827	70.69
668.03	61.69
668.232	71.69
668.435	102.69
668.638	93.69
668.841	89.69
669.043	85.69
669.246	83.69
669.449	78.69
669.651	72.69
669.854	84.69
670.057	72.69
670.259	73.69
670.462	84.69
670.665	71.69
670.867	74.69
671.07	83.69
671.272	76.69
671.475	85.69
671.677	81.69
671.88	91.69
672.082	75.69
672.284	77.69
672.487	69.69
672.689	72.69
672.892	83.69
