Data from NiCl2@0.25M.TitratingCurve.Agarose3%dH2O.NegLispCup.LampEnergy10.LIBS07252019_HRD10591_18-26-00-574.txt Node
Date: Thu Jul 25 18:26:00 EDT 2019
User: cochatt
Spectrometer: HR+D1059
Trigger mode: 1
Integration Time (sec): 1.000000E-1
Scans to average: 1
Electric dark correction enabled: true
Nonlinearity correction enabled: false
Boxcar width: 0
XAxis mode: Wavelengths
Number of Pixels in Spectrum: 2048
>>>>>Begin Spectral Data<<<<<
223.165	-18.88
223.4	-18.88
223.635	-18.88
223.869	-27.88
224.104	-16.88
224.338	-13.88
224.573	-13.88
224.808	-19.88
225.042	-6.88
225.277	-11.88
225.511	-0.88
225.746	5.12
225.98	20.12
226.215	15.12
226.449	13.12
226.683	12.12
226.918	27.12
227.152	38.12
227.387	30.12
227.621	39.12
227.856	46.12
228.09	61.12
228.324	58.12
228.559	61.12
228.793	73.12
229.027	108.12
229.262	119.12
229.496	140.12
229.73	124.12
229.964	133.12
230.199	128.12
230.433	126.12
230.667	157.12
230.901	147.12
231.136	135.12
231.37	127.12
231.604	141.12
231.838	154.12
232.072	158.12
232.306	149.12
232.541	162.12
232.775	148.12
233.009	157.12
233.243	168.12
233.477	170.12
233.711	158.12
233.945	156.12
234.179	165.12
234.413	169.12
234.647	167.12
234.881	171.12
235.115	178.12
235.349	156.12
235.583	170.12
235.817	169.12
236.051	157.12
236.285	167.12
236.519	167.12
236.753	173.12
236.987	189.12
237.221	176.12
237.455	170.12
237.689	168.12
237.922	178.12
238.156	183.12
238.39	164.12
238.624	191.12
238.858	189.12
239.091	203.12
239.325	182.12
239.559	190.12
239.793	178.12
240.027	189.12
240.26	182.12
240.494	209.12
240.728	204.12
240.961	191.12
241.195	204.12
241.429	215.12
241.662	196.12
241.896	201.12
242.13	205.12
242.363	225.12
242.597	221.12
242.83	214.12
243.064	211.12
243.298	225.12
243.531	208.12
243.765	214.12
243.998	204.12
244.232	235.12
244.465	236.12
244.699	242.12
244.932	255.12
245.166	258.12
245.399	241.12
245.633	256.12
245.866	258.12
246.099	240.12
246.333	250.12
246.566	245.12
246.8	240.12
247.033	234.12
247.266	253.12
247.5	252.12
247.733	244.12
247.966	256.12
248.2	259.12
248.433	262.12
248.666	265.12
248.899	262.12
249.133	266.12
249.366	277.12
249.599	279.12
249.832	276.12
250.066	284.12
250.299	269.12
250.532	278.12
250.765	270.12
250.998	278.12
251.231	279.12
251.465	282.12
251.698	275.12
251.931	275.12
252.164	301.12
252.397	293.12
252.63	290.12
252.863	300.12
253.096	298.12
253.329	307.12
253.562	311.12
253.795	305.12
254.028	309.12
254.261	290.12
254.494	318.12
254.727	316.12
254.96	299.12
255.193	313.12
255.426	281.12
255.659	304.12
255.892	314.12
256.124	324.12
256.357	327.12
256.59	329.12
256.823	311.12
257.056	335.12
257.289	331.12
257.521	323.12
257.754	339.12
257.987	340.12
258.22	339.12
258.452	342.12
258.685	322.12
258.918	326.12
259.151	356.12
259.383	343.12
259.616	346.12
259.849	347.12
260.081	354.12
260.314	354.12
260.547	340.12
260.779	350.12
261.012	356.12
261.244	346.12
261.477	375.12
261.71	366.12
261.942	374.12
262.175	352.12
262.407	354.12
262.64	353.12
262.872	366.12
263.105	374.12
263.337	362.12
263.57	376.12
263.802	382.12
264.035	375.12
264.267	382.12
264.499	375.12
264.732	385.12
264.964	386.12
265.197	381.12
265.429	392.12
265.661	366.12
265.894	390.12
266.126	403.12
266.358	390.12
266.591	384.12
266.823	390.12
267.055	396.12
267.287	408.12
267.52	402.12
267.752	419.12
267.984	438.12
268.216	426.12
268.448	401.12
268.681	409.12
268.913	410.12
269.145	393.12
269.377	408.12
269.609	410.12
269.841	411.12
270.073	429.12
270.306	422.12
270.538	428.12
270.77	414.12
271.002	414.12
271.234	401.12
271.466	414.12
271.698	413.12
271.93	423.12
272.162	423.12
272.394	416.12
272.626	427.12
272.858	432.12
273.09	441.12
273.322	447.12
273.553	449.12
273.785	450.12
274.017	464.12
274.249	463.12
274.481	445.12
274.713	419.12
274.945	461.12
275.176	469.12
275.408	471.12
275.64	451.12
275.872	444.12
276.104	477.12
276.335	491.12
276.567	463.12
276.799	460.12
277.031	461.12
277.262	484.12
277.494	457.12
277.726	474.12
277.957	483.12
278.189	452.12
278.421	479.12
278.652	488.12
278.884	488.12
279.115	482.12
279.347	496.12
279.579	492.12
279.81	503.12
280.042	516.12
280.273	498.12
280.505	489.12
280.736	493.12
280.968	503.12
281.199	495.12
281.431	524.12
281.662	505.12
281.894	519.12
282.125	507.12
282.356	534.12
282.588	518.12
282.819	518.12
283.051	520.12
283.282	521.12
283.513	518.12
283.745	508.12
283.976	541.12
284.207	534.12
284.439	532.12
284.67	523.12
284.901	570.12
285.132	546.12
285.364	524.12
285.595	531.12
285.826	538.12
286.057	559.12
286.288	533.12
286.52	562.12
286.751	534.12
286.982	565.12
287.213	557.12
287.444	575.12
287.675	553.12
287.906	545.12
288.138	562.12
288.369	577.12
288.6	563.12
288.831	565.12
289.062	553.12
289.293	554.12
289.524	554.12
289.755	575.12
289.986	578.12
290.217	580.12
290.448	580.12
290.679	568.12
290.91	581.12
291.141	586.12
291.371	570.12
291.602	566.12
291.833	584.12
292.064	581.12
292.295	589.12
292.526	569.12
292.757	583.12
292.987	574.12
293.218	586.12
293.449	584.12
293.68	599.12
293.91	591.12
294.141	581.12
294.372	586.12
294.603	586.12
294.833	605.12
295.064	613.12
295.295	598.12
295.525	599.12
295.756	590.12
295.987	584.12
296.217	605.12
296.448	604.12
296.679	619.12
296.909	596.12
297.14	603.12
297.37	636.12
297.601	622.12
297.831	623.12
298.062	627.12
298.292	646.12
298.523	642.12
298.753	631.12
298.984	645.12
299.214	638.12
299.445	631.12
299.675	630.12
299.905	631.12
300.136	626.12
300.366	636.12
300.597	655.12
300.827	682.12
301.057	663.12
301.288	646.12
301.518	671.12
301.748	683.12
301.979	689.12
302.209	683.12
302.439	687.12
302.669	665.12
302.9	645.12
303.13	681.12
303.36	663.12
303.59	660.12
303.82	669.12
304.051	643.12
304.281	679.12
304.511	660.12
304.741	651.12
304.971	664.12
305.201	661.12
305.431	648.12
305.661	658.12
305.891	640.12
306.121	628.12
306.352	656.12
306.582	647.12
306.812	631.12
307.042	662.12
307.272	659.12
307.502	642.12
307.731	655.12
307.961	649.12
308.191	637.12
308.421	666.12
308.651	630.12
308.881	630.12
309.111	640.12
309.341	652.12
309.571	638.12
309.8	645.12
310.03	650.12
310.26	667.12
310.49	632.12
310.72	664.12
310.949	647.12
311.179	625.12
311.409	652.12
311.639	666.12
311.868	641.12
312.098	671.12
312.328	660.12
312.557	653.12
312.787	674.12
313.017	699.12
313.246	677.12
313.476	701.12
313.706	698.12
313.935	662.12
314.165	684.12
314.394	688.12
314.624	700.12
314.853	690.12
315.083	705.12
315.312	715.12
315.542	683.12
315.771	690.12
316.001	692.12
316.23	711.12
316.46	674.12
316.689	676.12
316.919	677.12
317.148	662.12
317.377	679.12
317.607	659.12
317.836	668.12
318.065	666.12
318.295	677.12
318.524	699.12
318.753	664.12
318.983	682.12
319.212	692.12
319.441	682.12
319.67	661.12
319.9	680.12
320.129	710.12
320.358	702.12
320.587	699.12
320.816	690.12
321.046	690.12
321.275	697.12
321.504	680.12
321.733	702.12
321.962	690.12
322.191	675.12
322.42	681.12
322.649	706.12
322.878	669.12
323.108	696.12
323.337	716.12
323.566	700.12
323.795	699.12
324.024	702.12
324.253	695.12
324.482	722.12
324.71	743.12
324.939	740.12
325.168	743.12
325.397	709.12
325.626	701.12
325.855	726.12
326.084	761.12
326.313	751.12
326.542	776.12
326.77	750.12
326.999	755.12
327.228	748.12
327.457	747.12
327.686	730.12
327.914	730.12
328.143	721.12
328.372	753.12
328.6	757.12
328.829	745.12
329.058	756.12
329.287	739.12
329.515	755.12
329.744	759.12
329.972	752.12
330.201	754.12
330.43	774.12
330.658	764.12
330.887	776.12
331.115	788.12
331.344	790.12
331.572	792.12
331.801	803.12
332.03	799.12
332.258	836.12
332.486	854.12
332.715	870.12
332.943	914.12
333.172	943.12
333.4	972.12
333.629	984.12
333.857	990.12
334.085	991.12
334.314	996.12
334.542	974.12
334.771	952.12
334.999	943.12
335.227	962.12
335.455	934.12
335.684	900.12
335.912	903.12
336.14	920.12
336.369	914.12
336.597	913.12
336.825	903.12
337.053	898.12
337.281	899.12
337.51	879.12
337.738	871.12
337.966	863.12
338.194	844.12
338.422	857.12
338.65	863.12
338.878	819.12
339.106	816.12
339.334	829.12
339.562	820.12
339.79	805.12
340.018	798.12
340.246	777.12
340.474	800.12
340.702	769.12
340.93	799.12
341.158	783.12
341.386	782.12
341.614	795.12
341.842	797.12
342.07	791.12
342.298	807.12
342.526	759.12
342.754	760.12
342.981	774.12
343.209	798.12
343.437	825.12
343.665	862.12
343.893	926.12
344.12	964.12
344.348	929.12
344.576	920.12
344.804	861.12
345.031	809.12
345.259	792.12
345.487	804.12
345.714	771.12
345.942	758.12
346.17	765.12
346.397	756.12
346.625	768.12
346.853	746.12
347.08	751.12
347.308	738.12
347.535	763.12
347.763	782.12
347.99	755.12
348.218	748.12
348.445	761.12
348.673	771.12
348.9	776.12
349.128	761.12
349.355	734.12
349.583	735.12
349.81	748.12
350.037	756.12
350.265	736.12
350.492	723.12
350.72	749.12
350.947	728.12
351.174	730.12
351.402	741.12
351.629	766.12
351.856	718.12
352.083	723.12
352.311	715.12
352.538	730.12
352.765	729.12
352.992	723.12
353.22	709.12
353.447	710.12
353.674	704.12
353.901	705.12
354.128	714.12
354.355	696.12
354.583	735.12
354.81	722.12
355.037	712.12
355.264	722.12
355.491	713.12
355.718	735.12
355.945	712.12
356.172	710.12
356.399	733.12
356.626	724.12
356.853	774.12
357.08	747.12
357.307	720.12
357.534	721.12
357.761	738.12
357.988	731.12
358.215	720.12
358.441	723.12
358.668	706.12
358.895	742.12
359.122	715.12
359.349	720.12
359.576	700.12
359.802	734.12
360.029	726.12
360.256	740.12
360.483	719.12
360.709	717.12
360.936	751.12
361.163	749.12
361.39	714.12
361.616	749.12
361.843	727.12
362.07	730.12
362.296	720.12
362.523	712.12
362.749	725.12
362.976	726.12
363.203	707.12
363.429	744.12
363.656	710.12
363.882	724.12
364.109	733.12
364.335	720.12
364.562	707.12
364.788	719.12
365.015	743.12
365.241	709.12
365.468	722.12
365.694	735.12
365.92	726.12
366.147	736.12
366.373	719.12
366.599	729.12
366.826	744.12
367.052	730.12
367.278	728.12
367.505	715.12
367.731	735.12
367.957	736.12
368.184	732.12
368.41	735.12
368.636	750.12
368.862	753.12
369.089	784.12
369.315	766.12
369.541	741.12
369.767	751.12
369.993	762.12
370.219	762.12
370.445	762.12
370.672	779.12
370.898	794.12
371.124	784.12
371.35	798.12
371.576	798.12
371.802	792.12
372.028	783.12
372.254	809.12
372.48	806.12
372.706	827.12
372.932	818.12
373.158	836.12
373.384	805.12
373.61	796.12
373.835	810.12
374.061	794.12
374.287	819.12
374.513	796.12
374.739	845.12
374.965	847.12
375.191	876.12
375.416	878.12
375.642	821.12
375.868	848.12
376.094	856.12
376.319	826.12
376.545	828.12
376.771	800.12
376.997	806.12
377.222	797.12
377.448	792.12
377.674	813.12
377.899	791.12
378.125	784.12
378.35	768.12
378.576	806.12
378.802	790.12
379.027	775.12
379.253	786.12
379.478	778.12
379.704	806.12
379.929	815.12
380.155	778.12
380.38	790.12
380.606	777.12
380.831	787.12
381.057	796.12
381.282	780.12
381.507	795.12
381.733	794.12
381.958	773.12
382.184	830.12
382.409	814.12
382.634	809.12
382.86	849.12
383.085	847.12
383.31	847.12
383.535	896.12
383.761	892.12
383.986	889.12
384.211	911.12
384.436	903.12
384.662	943.12
384.887	921.12
385.112	934.12
385.337	940.12
385.562	941.12
385.787	938.12
386.013	971.12
386.238	952.12
386.463	962.12
386.688	978.12
386.913	941.12
387.138	922.12
387.363	949.12
387.588	914.12
387.813	966.12
388.038	936.12
388.263	907.12
388.488	975.12
388.713	942.12
388.938	936.12
389.163	964.12
389.387	960.12
389.612	953.12
389.837	967.12
390.062	924.12
390.287	950.12
390.512	946.12
390.736	966.12
390.961	982.12
391.186	1004.12
391.411	985.12
391.636	1050.12
391.86	1087.12
392.085	1060.12
392.31	1090.12
392.534	1060.12
392.759	1044.12
392.984	1062.12
393.208	1036.12
393.433	1029.12
393.658	1006.12
393.882	1026.12
394.107	993.12
394.331	1035.12
394.556	1010.12
394.78	1008.12
395.005	1033.12
395.229	1036.12
395.454	1059.12
395.678	1073.12
395.903	1097.12
396.127	1093.12
396.352	1050.12
396.576	1012.12
396.801	1040.12
397.025	1036.12
397.249	1077.12
397.474	1082.12
397.698	1100.12
397.922	1091.12
398.147	1115.12
398.371	1103.12
398.595	1158.12
398.82	1184.12
399.044	1268.12
399.268	1401.12
399.492	1570.12
399.717	1747.12
399.941	1766.12
400.165	1636.12
400.389	1481.12
400.613	1362.12
400.837	1284.12
401.062	1242.12
401.286	1241.12
401.51	1215.12
401.734	1205.12
401.958	1246.12
402.182	1214.12
402.406	1240.12
402.63	1247.12
402.854	1270.12
403.078	1289.12
403.302	1284.12
403.526	1334.12
403.75	1362.12
403.974	1348.12
404.198	1360.12
404.422	1371.12
404.645	1352.12
404.869	1370.12
405.093	1359.12
405.317	1314.12
405.541	1316.12
405.765	1327.12
405.988	1330.12
406.212	1302.12
406.436	1354.12
406.66	1391.12
406.883	1387.12
407.107	1455.12
407.331	1499.12
407.555	1540.12
407.778	1556.12
408.002	1545.12
408.226	1505.12
408.449	1460.12
408.673	1419.12
408.896	1364.12
409.12	1370.12
409.344	1412.12
409.567	1389.12
409.791	1375.12
410.014	1366.12
410.238	1346.12
410.461	1341.12
410.685	1349.12
410.908	1327.12
411.132	1290.12
411.355	1265.12
411.578	1284.12
411.802	1255.12
412.025	1287.12
412.249	1293.12
412.472	1284.12
412.695	1254.12
412.919	1210.12
413.142	1239.12
413.365	1249.12
413.589	1204.12
413.812	1186.12
414.035	1208.12
414.258	1206.12
414.482	1221.12
414.705	1239.12
414.928	1220.12
415.151	1220.12
415.374	1212.12
415.597	1221.12
415.821	1188.12
416.044	1176.12
416.267	1156.12
416.49	1165.12
416.713	1166.12
416.936	1192.12
417.159	1153.12
417.382	1147.12
417.605	1165.12
417.828	1188.12
418.051	1182.12
418.274	1188.12
418.497	1182.12
418.72	1190.12
418.943	1219.12
419.166	1283.12
419.389	1366.12
419.611	1360.12
419.834	1298.12
420.057	1264.12
420.28	1222.12
420.503	1198.12
420.726	1189.12
420.948	1184.12
421.171	1191.12
421.394	1162.12
421.617	1158.12
421.839	1203.12
422.062	1227.12
422.285	1167.12
422.507	1226.12
422.73	1184.12
422.953	1236.12
423.175	1202.12
423.398	1247.12
423.621	1244.12
423.843	1214.12
424.066	1276.12
424.288	1238.12
424.511	1211.12
424.733	1224.12
424.956	1237.12
425.178	1194.12
425.401	1203.12
425.623	1187.12
425.846	1144.12
426.068	1142.12
426.291	1169.12
426.513	1144.12
426.735	1124.12
426.958	1131.12
427.18	1133.12
427.402	1130.12
427.625	1103.12
427.847	1079.12
428.069	1086.12
428.292	1096.12
428.514	1054.12
428.736	1080.12
428.958	1063.12
429.181	1054.12
429.403	1046.12
429.625	1020.12
429.847	1049.12
430.069	1031.12
430.292	1063.12
430.514	995.12
430.736	1040.12
430.958	1037.12
431.18	1018.12
431.402	1028.12
431.624	1071.12
431.846	1057.12
432.068	1086.12
432.29	1077.12
432.512	1058.12
432.734	1081.12
432.956	1052.12
433.178	1088.12
433.4	1079.12
433.622	1077.12
433.844	1097.12
434.066	1094.12
434.287	1114.12
434.509	1135.12
434.731	1159.12
434.953	1181.12
435.175	1228.12
435.397	1192.12
435.618	1127.12
435.84	1096.12
436.062	1103.12
436.284	1049.12
436.505	1046.12
436.727	1071.12
436.949	1050.12
437.17	1078.12
437.392	1049.12
437.614	1017.12
437.835	1023.12
438.057	1029.12
438.278	1012.12
438.5	1000.12
438.721	1054.12
438.943	1026.12
439.165	1018.12
439.386	1045.12
439.608	1043.12
439.829	1053.12
440.05	1036.12
440.272	1038.12
440.493	1062.12
440.715	1075.12
440.936	1101.12
441.158	1110.12
441.379	1155.12
441.6	1159.12
441.822	1206.12
442.043	1195.12
442.264	1160.12
442.486	1134.12
442.707	1142.12
442.928	1162.12
443.149	1171.12
443.371	1134.12
443.592	1169.12
443.813	1154.12
444.034	1163.12
444.255	1243.12
444.476	1292.12
444.698	1342.12
444.919	1379.12
445.14	1398.12
445.361	1293.12
445.582	1236.12
445.803	1141.12
446.024	1146.12
446.245	1101.12
446.466	1114.12
446.687	1082.12
446.908	1080.12
447.129	1060.12
447.35	1009.12
447.571	1043.12
447.792	1010.12
448.013	984.12
448.234	1008.12
448.455	990.12
448.675	980.12
448.896	977.12
449.117	974.12
449.338	976.12
449.559	927.12
449.779	959.12
450	959.12
450.221	954.12
450.442	972.12
450.662	990.12
450.883	959.12
451.104	1026.12
451.324	982.12
451.545	977.12
451.766	989.12
451.986	969.12
452.207	969.12
452.428	946.12
452.648	957.12
452.869	923.12
453.089	927.12
453.31	963.12
453.53	940.12
453.751	946.12
453.971	948.12
454.192	932.12
454.412	914.12
454.633	916.12
454.853	956.12
455.073	915.12
455.294	935.12
455.514	924.12
455.734	915.12
455.955	894.12
456.175	918.12
456.395	880.12
456.616	894.12
456.836	894.12
457.056	889.12
457.276	892.12
457.497	918.12
457.717	931.12
457.937	930.12
458.157	960.12
458.377	938.12
458.598	964.12
458.818	995.12
459.038	1017.12
459.258	1072.12
459.478	1087.12
459.698	1102.12
459.918	1122.12
460.138	1188.12
460.358	1212.12
460.578	1231.12
460.798	1216.12
461.018	1279.12
461.238	1256.12
461.458	1242.12
461.678	1236.12
461.898	1299.12
462.118	1284.12
462.338	1369.12
462.558	1380.12
462.777	1423.12
462.997	1526.12
463.217	1629.12
463.437	1652.12
463.657	1555.12
463.876	1479.12
464.096	1461.12
464.316	1470.12
464.536	1467.12
464.755	1421.12
464.975	1391.12
465.195	1280.12
465.414	1236.12
465.634	1166.12
465.854	1141.12
466.073	1103.12
466.293	1087.12
466.512	1044.12
466.732	1065.12
466.951	1064.12
467.171	1011.12
467.391	1024.12
467.61	1029.12
467.829	1059.12
468.049	1010.12
468.268	978.12
468.488	985.12
468.707	970.12
468.927	991.12
469.146	989.12
469.365	997.12
469.585	1017.12
469.804	1000.12
470.023	1023.12
470.243	1007.12
470.462	1064.12
470.681	1076.12
470.901	1070.12
471.12	1076.12
471.339	1024.12
471.558	1003.12
471.777	1001.12
471.997	996.12
472.216	986.12
472.435	966.12
472.654	948.12
472.873	932.12
473.092	966.12
473.311	975.12
473.53	985.12
473.749	962.12
473.968	989.12
474.187	940.12
474.406	954.12
474.625	950.12
474.844	1004.12
475.063	977.12
475.282	959.12
475.501	978.12
475.72	969.12
475.939	991.12
476.158	1024.12
476.377	1028.12
476.596	997.12
476.814	1026.12
477.033	1038.12
477.252	1060.12
477.471	1094.12
477.69	1092.12
477.908	1101.12
478.127	1146.12
478.346	1145.12
478.564	1168.12
478.783	1158.12
479.002	1211.12
479.22	1200.12
479.439	1205.12
479.658	1221.12
479.876	1251.12
480.095	1220.12
480.313	1239.12
480.532	1287.12
480.751	1307.12
480.969	1232.12
481.188	1214.12
481.406	1192.12
481.624	1195.12
481.843	1094.12
482.061	1102.12
482.28	1115.12
482.498	1094.12
482.717	1080.12
482.935	1103.12
483.153	1102.12
483.372	1108.12
483.59	1068.12
483.808	1128.12
484.027	1108.12
484.245	1126.12
484.463	1118.12
484.681	1150.12
484.9	1150.12
485.118	1150.12
485.336	1168.12
485.554	1172.12
485.772	1189.12
485.99	1177.12
486.209	1184.12
486.427	1178.12
486.645	1163.12
486.863	1173.12
487.081	1174.12
487.299	1194.12
487.517	1176.12
487.735	1191.12
487.953	1171.12
488.171	1183.12
488.389	1172.12
488.607	1154.12
488.825	1148.12
489.043	1130.12
489.261	1160.12
489.479	1164.12
489.696	1152.12
489.914	1139.12
490.132	1181.12
490.35	1178.12
490.568	1203.12
490.786	1174.12
491.003	1172.12
491.221	1193.12
491.439	1190.12
491.657	1184.12
491.874	1185.12
492.092	1197.12
492.31	1197.12
492.527	1199.12
492.745	1183.12
492.963	1198.12
493.18	1216.12
493.398	1232.12
493.615	1221.12
493.833	1253.12
494.05	1222.12
494.268	1239.12
494.485	1234.12
494.703	1263.12
494.92	1256.12
495.138	1280.12
495.355	1243.12
495.573	1254.12
495.79	1286.12
496.008	1289.12
496.225	1317.12
496.442	1334.12
496.66	1319.12
496.877	1313.12
497.094	1344.12
497.312	1368.12
497.529	1402.12
497.746	1443.12
497.963	1464.12
498.181	1570.12
498.398	1633.12
498.615	1727.12
498.832	1839.12
499.049	1928.12
499.267	2073.12
499.484	2303.12
499.701	2556.12
499.918	2762.12
500.135	3108.12
500.352	3479.12
500.569	3583.12
500.786	3588.12
501.003	3406.12
501.22	3092.12
501.437	2833.12
501.654	2466.12
501.871	2267.12
502.088	2100.12
502.305	1979.12
502.522	1848.12
502.739	1762.12
502.956	1687.12
503.172	1628.12
503.389	1544.12
503.606	1497.12
503.823	1491.12
504.04	1424.12
504.256	1444.12
504.473	1472.12
504.69	1498.12
504.907	1497.12
505.123	1396.12
505.34	1333.12
505.557	1276.12
505.773	1238.12
505.99	1178.12
506.207	1164.12
506.423	1172.12
506.64	1142.12
506.856	1165.12
507.073	1135.12
507.289	1103.12
507.506	1129.12
507.722	1123.12
507.939	1126.12
508.155	1078.12
508.372	1062.12
508.588	1045.12
508.805	1093.12
509.021	1069.12
509.238	1054.12
509.454	1042.12
509.67	1018.12
509.887	1010.12
510.103	1040.12
510.319	1025.12
510.536	1015.12
510.752	1003.12
510.968	1022.12
511.184	1026.12
511.401	1039.12
511.617	1006.12
511.833	1009.12
512.049	996.12
512.265	1005.12
512.481	986.12
512.698	999.12
512.914	1016.12
513.13	1028.12
513.346	984.12
513.562	1026.12
513.778	1003.12
513.994	1023.12
514.21	1015.12
514.426	1014.12
514.642	1017.12
514.858	1005.12
515.074	1036.12
515.29	1032.12
515.506	1033.12
515.721	1071.12
515.937	1074.12
516.153	1094.12
516.369	1122.12
516.585	1158.12
516.801	1189.12
517.016	1224.12
517.232	1294.12
517.448	1306.12
517.664	1365.12
517.879	1369.12
518.095	1414.12
518.311	1350.12
518.527	1292.12
518.742	1272.12
518.958	1209.12
519.173	1178.12
519.389	1129.12
519.605	1104.12
519.82	1115.12
520.036	1066.12
520.251	1059.12
520.467	1055.12
520.682	1037.12
520.898	1013.12
521.113	1000.12
521.329	989.12
521.544	976.12
521.76	980.12
521.975	960.12
522.19	984.12
522.406	991.12
522.621	964.12
522.836	969.12
523.052	951.12
523.267	950.12
523.482	964.12
523.698	932.12
523.913	930.12
524.128	934.12
524.343	947.12
524.559	918.12
524.774	929.12
524.989	915.12
525.204	919.12
525.419	943.12
525.634	920.12
525.849	930.12
526.064	922.12
526.28	926.12
526.495	912.12
526.71	928.12
526.925	907.12
527.14	894.12
527.355	888.12
527.57	888.12
527.785	923.12
527.999	890.12
528.214	898.12
528.429	911.12
528.644	887.12
528.859	896.12
529.074	907.12
529.289	889.12
529.503	918.12
529.718	891.12
529.933	902.12
530.148	908.12
530.363	914.12
530.577	898.12
530.792	895.12
531.007	899.12
531.221	911.12
531.436	923.12
531.651	894.12
531.865	902.12
532.08	915.12
532.295	920.12
532.509	901.12
532.724	889.12
532.938	908.12
533.153	885.12
533.367	875.12
533.582	896.12
533.796	898.12
534.011	930.12
534.225	874.12
534.44	869.12
534.654	865.12
534.868	879.12
535.083	875.12
535.297	867.12
535.511	855.12
535.726	844.12
535.94	883.12
536.154	842.12
536.369	847.12
536.583	839.12
536.797	823.12
537.011	839.12
537.225	835.12
537.44	832.12
537.654	834.12
537.868	823.12
538.082	834.12
538.296	826.12
538.51	812.12
538.724	823.12
538.938	829.12
539.153	829.12
539.367	809.12
539.581	816.12
539.795	811.12
540.009	804.12
540.222	821.12
540.436	812.12
540.65	808.12
540.864	811.12
541.078	823.12
541.292	794.12
541.506	822.12
541.72	788.12
541.934	806.12
542.147	813.12
542.361	834.12
542.575	794.12
542.789	808.12
543.002	802.12
543.216	789.12
543.43	795.12
543.644	795.12
543.857	806.12
544.071	811.12
544.285	796.12
544.498	814.12
544.712	798.12
544.925	811.12
545.139	810.12
545.352	832.12
545.566	824.12
545.779	843.12
545.993	811.12
546.206	814.12
546.42	810.12
546.633	828.12
546.847	837.12
547.06	830.12
547.274	824.12
547.487	821.12
547.7	799.12
547.914	809.12
548.127	814.12
548.34	824.12
548.554	809.12
548.767	836.12
548.98	815.12
549.193	854.12
549.407	850.12
549.62	832.12
549.833	852.12
550.046	815.12
550.259	824.12
550.473	835.12
550.686	828.12
550.899	824.12
551.112	810.12
551.325	837.12
551.538	809.12
551.751	801.12
551.964	796.12
552.177	838.12
552.39	846.12
552.603	854.12
552.816	882.12
553.029	873.12
553.242	872.12
553.455	905.12
553.667	924.12
553.88	884.12
554.093	851.12
554.306	848.12
554.519	812.12
554.732	803.12
554.944	795.12
555.157	772.12
555.37	823.12
555.583	772.12
555.795	779.12
556.008	750.12
556.221	740.12
556.433	746.12
556.646	739.12
556.859	739.12
557.071	731.12
557.284	708.12
557.496	726.12
557.709	711.12
557.921	692.12
558.134	692.12
558.346	691.12
558.559	696.12
558.771	686.12
558.984	677.12
559.196	693.12
559.409	666.12
559.621	679.12
559.833	662.12
560.046	672.12
560.258	668.12
560.47	692.12
560.683	672.12
560.895	707.12
561.107	672.12
561.32	665.12
561.532	671.12
561.744	682.12
561.956	682.12
562.168	672.12
562.381	699.12
562.593	670.12
562.805	687.12
563.017	662.12
563.229	681.12
563.441	713.12
563.653	675.12
563.865	702.12
564.077	699.12
564.289	725.12
564.501	724.12
564.713	764.12
564.925	740.12
565.137	751.12
565.349	763.12
565.561	813.12
565.773	840.12
565.985	860.12
566.197	910.12
566.408	932.12
566.62	1033.12
566.832	1088.12
567.044	1096.12
567.255	1133.12
567.467	1155.12
567.679	1212.12
567.891	1276.12
568.102	1274.12
568.314	1189.12
568.526	1108.12
568.737	1034.12
568.949	939.12
569.161	862.12
569.372	802.12
569.584	799.12
569.795	772.12
570.007	737.12
570.218	704.12
570.43	740.12
570.641	706.12
570.853	716.12
571.064	711.12
571.276	713.12
571.487	702.12
571.698	670.12
571.91	662.12
572.121	654.12
572.333	620.12
572.544	599.12
572.755	606.12
572.966	607.12
573.178	590.12
573.389	579.12
573.6	588.12
573.811	579.12
574.023	560.12
574.234	562.12
574.445	567.12
574.656	565.12
574.867	554.12
575.078	579.12
575.289	564.12
575.501	551.12
575.712	581.12
575.923	535.12
576.134	538.12
576.345	547.12
576.556	542.12
576.767	522.12
576.978	555.12
577.188	527.12
577.399	528.12
577.61	532.12
577.821	510.12
578.032	499.12
578.243	502.12
578.454	495.12
578.665	513.12
578.875	510.12
579.086	505.12
579.297	511.12
579.508	508.12
579.718	501.12
579.929	477.12
580.14	496.12
580.35	483.12
580.561	485.12
580.772	490.12
580.982	480.12
581.193	475.12
581.403	479.12
581.614	493.12
581.825	494.12
582.035	479.12
582.246	481.12
582.456	463.12
582.667	486.12
582.877	469.12
583.087	490.12
583.298	460.12
583.508	478.12
583.719	479.12
583.929	478.12
584.139	474.12
584.35	464.12
584.56	474.12
584.77	470.12
584.981	458.12
585.191	453.12
585.401	447.12
585.611	438.12
585.821	449.12
586.032	461.12
586.242	449.12
586.452	445.12
586.662	442.12
586.872	469.12
587.082	452.12
587.292	445.12
587.502	436.12
587.713	460.12
587.923	453.12
588.133	463.12
588.343	441.12
588.553	461.12
588.762	459.12
588.972	449.12
589.182	459.12
589.392	441.12
589.602	450.12
589.812	466.12
590.022	477.12
590.232	469.12
590.441	479.12
590.651	466.12
590.861	482.12
591.071	448.12
591.281	437.12
591.49	471.12
591.7	484.12
591.91	493.12
592.119	507.12
592.329	496.12
592.539	503.12
592.748	507.12
592.958	522.12
593.167	554.12
593.377	555.12
593.587	552.12
593.796	568.12
594.006	581.12
594.215	571.12
594.424	581.12
594.634	545.12
594.843	548.12
595.053	517.12
595.262	519.12
595.472	499.12
595.681	484.12
595.89	467.12
596.1	482.12
596.309	442.12
596.518	461.12
596.727	447.12
596.937	416.12
597.146	401.12
597.355	429.12
597.564	407.12
597.774	398.12
597.983	415.12
598.192	410.12
598.401	409.12
598.61	412.12
598.819	403.12
599.028	392.12
599.237	402.12
599.446	392.12
599.655	414.12
599.864	388.12
600.073	372.12
600.282	376.12
600.491	381.12
600.7	364.12
600.909	375.12
601.118	376.12
601.327	377.12
601.536	369.12
601.745	384.12
601.953	373.12
602.162	354.12
602.371	354.12
602.58	350.12
602.789	363.12
602.997	359.12
603.206	380.12
603.415	363.12
603.623	357.12
603.832	376.12
604.041	367.12
604.249	356.12
604.458	342.12
604.666	340.12
604.875	339.12
605.084	347.12
605.292	352.12
605.501	357.12
605.709	344.12
605.918	349.12
606.126	344.12
606.334	335.12
606.543	368.12
606.751	361.12
606.96	353.12
607.168	344.12
607.376	339.12
607.585	334.12
607.793	352.12
608.001	352.12
608.21	322.12
608.418	355.12
608.626	328.12
608.834	346.12
609.043	340.12
609.251	336.12
609.459	323.12
609.667	334.12
609.875	327.12
610.083	365.12
610.291	336.12
610.499	340.12
610.707	334.12
610.916	326.12
611.124	314.12
611.332	330.12
611.54	324.12
611.748	333.12
611.955	318.12
612.163	316.12
612.371	340.12
612.579	320.12
612.787	312.12
612.995	308.12
613.203	332.12
613.411	331.12
613.618	314.12
613.826	338.12
614.034	320.12
614.242	318.12
614.449	322.12
614.657	330.12
614.865	311.12
615.072	312.12
615.28	317.12
615.488	315.12
615.695	316.12
615.903	321.12
616.111	329.12
616.318	333.12
616.526	326.12
616.733	328.12
616.941	320.12
617.148	325.12
617.356	325.12
617.563	317.12
617.771	319.12
617.978	319.12
618.185	321.12
618.393	292.12
618.6	331.12
618.807	307.12
619.015	312.12
619.222	326.12
619.429	294.12
619.637	303.12
619.844	293.12
620.051	299.12
620.258	325.12
620.466	295.12
620.673	283.12
620.88	298.12
621.087	314.12
621.294	302.12
621.501	301.12
621.708	300.12
621.915	298.12
622.122	301.12
622.329	284.12
622.536	303.12
622.743	307.12
622.95	301.12
623.157	287.12
623.364	286.12
623.571	279.12
623.778	306.12
623.985	286.12
624.192	277.12
624.399	299.12
624.606	288.12
624.812	288.12
625.019	288.12
625.226	286.12
625.433	281.12
625.639	294.12
625.846	275.12
626.053	284.12
626.259	289.12
626.466	278.12
626.673	266.12
626.879	278.12
627.086	271.12
627.293	266.12
627.499	280.12
627.706	277.12
627.912	280.12
628.119	269.12
628.325	275.12
628.532	268.12
628.738	259.12
628.945	272.12
629.151	271.12
629.357	255.12
629.564	251.12
629.77	272.12
629.976	278.12
630.183	254.12
630.389	252.12
630.595	267.12
630.802	248.12
631.008	253.12
631.214	260.12
631.42	260.12
631.627	262.12
631.833	254.12
632.039	241.12
632.245	253.12
632.451	251.12
632.657	232.12
632.863	228.12
633.069	255.12
633.275	245.12
633.481	227.12
633.688	222.12
633.893	251.12
634.099	246.12
634.305	243.12
634.511	229.12
634.717	235.12
634.923	233.12
635.129	234.12
635.335	240.12
635.541	239.12
635.747	225.12
635.952	238.12
636.158	228.12
636.364	237.12
636.57	236.12
636.775	238.12
636.981	236.12
637.187	251.12
637.392	231.12
637.598	236.12
637.804	224.12
638.009	226.12
638.215	218.12
638.421	215.12
638.626	239.12
638.832	231.12
639.037	236.12
639.243	235.12
639.448	219.12
639.654	233.12
639.859	220.12
640.065	232.12
640.27	227.12
640.475	210.12
640.681	217.12
640.886	225.12
641.091	206.12
641.297	224.12
641.502	214.12
641.707	207.12
641.913	219.12
642.118	203.12
642.323	205.12
642.528	222.12
642.733	206.12
642.939	219.12
643.144	202.12
643.349	211.12
643.554	215.12
643.759	202.12
643.964	209.12
644.169	215.12
644.374	211.12
644.579	213.12
644.784	213.12
644.989	215.12
645.194	198.12
645.399	204.12
645.604	199.12
645.809	208.12
646.014	221.12
646.219	208.12
646.423	202.12
646.628	217.12
646.833	207.12
647.038	214.12
647.243	216.12
647.447	200.12
647.652	218.12
647.857	220.12
648.062	233.12
648.266	194.12
648.471	215.12
648.676	220.12
648.88	200.12
649.085	228.12
649.289	203.12
649.494	211.12
649.698	200.12
649.903	205.12
650.107	189.12
650.312	196.12
650.516	186.12
650.721	185.12
650.925	183.12
651.13	184.12
651.334	197.12
651.539	179.12
651.743	184.12
651.947	192.12
652.152	173.12
652.356	174.12
652.56	178.12
652.764	171.12
652.969	167.12
653.173	179.12
653.377	173.12
653.581	173.12
653.785	163.12
653.99	181.12
654.194	144.12
654.398	156.12
654.602	157.12
654.806	152.12
655.01	149.12
655.214	139.12
655.418	148.12
655.622	158.12
655.826	167.12
656.03	135.12
656.234	159.12
656.438	150.12
656.642	151.12
656.846	140.12
657.049	143.12
657.253	144.12
657.457	149.12
657.661	123.12
657.865	129.12
658.068	128.12
658.272	134.12
658.476	125.12
658.68	108.12
658.883	111.12
659.087	116.12
659.291	111.12
659.494	104.12
659.698	107.12
659.901	100.12
660.105	104.12
660.309	102.12
660.512	104.12
660.716	103.12
660.919	104.12
661.123	114.12
661.326	106.12
661.53	91.12
661.733	93.12
661.936	102.12
662.14	88.12
662.343	105.12
662.546	94.12
662.75	91.12
662.953	81.12
663.156	87.12
663.36	76.12
663.563	94.12
663.766	80.12
663.969	91.12
664.173	89.12
664.376	92.12
664.579	95.12
664.782	86.12
664.985	74.12
665.188	81.12
665.391	86.12
665.594	91.12
665.797	79.12
666	84.12
666.203	84.12
666.406	104.12
666.609	78.12
666.812	90.12
667.015	97.12
667.218	94.12
667.421	86.12
667.624	88.12
667.827	82.12
668.03	75.12
668.232	72.12
668.435	80.12
668.638	79.12
668.841	89.12
669.043	79.12
669.246	84.12
669.449	96.12
669.651	95.12
669.854	83.12
670.057	87.12
670.259	65.12
670.462	74.12
670.665	77.12
670.867	98.12
671.07	83.12
671.272	88.12
671.475	85.12
671.677	91.12
671.88	97.12
672.082	86.12
672.284	83.12
672.487	78.12
672.689	73.12
672.892	79.12
