Data from NiCl2@0.25M.TitratingCurve.Agarose3%dH2O.NegLispCup.LampEnergy10.LIBS07252019_HRD10591_18-26-12-573.txt Node
Date: Thu Jul 25 18:26:12 EDT 2019
User: cochatt
Spectrometer: HR+D1059
Trigger mode: 1
Integration Time (sec): 1.000000E-1
Scans to average: 1
Electric dark correction enabled: true
Nonlinearity correction enabled: false
Boxcar width: 0
XAxis mode: Wavelengths
Number of Pixels in Spectrum: 2048
>>>>>Begin Spectral Data<<<<<
223.165	-15.25
223.4	-15.25
223.635	-15.25
223.869	-22.25
224.104	-13.25
224.338	-19.25
224.573	-16.25
224.808	-4.25
225.042	-22.25
225.277	1.75
225.511	-3.25
225.746	9.75
225.98	8.75
226.215	10.75
226.449	16.75
226.683	28.75
226.918	19.75
227.152	19.75
227.387	41.75
227.621	27.75
227.856	38.75
228.09	35.75
228.324	49.75
228.559	55.75
228.793	66.75
229.027	120.75
229.262	116.75
229.496	128.75
229.73	135.75
229.964	136.75
230.199	145.75
230.433	151.75
230.667	140.75
230.901	142.75
231.136	132.75
231.37	143.75
231.604	161.75
231.838	159.75
232.072	161.75
232.306	165.75
232.541	163.75
232.775	160.75
233.009	188.75
233.243	165.75
233.477	167.75
233.711	159.75
233.945	159.75
234.179	177.75
234.413	172.75
234.647	167.75
234.881	165.75
235.115	172.75
235.349	166.75
235.583	171.75
235.817	186.75
236.051	168.75
236.285	175.75
236.519	186.75
236.753	178.75
236.987	170.75
237.221	185.75
237.455	192.75
237.689	197.75
237.922	194.75
238.156	185.75
238.39	183.75
238.624	184.75
238.858	198.75
239.091	192.75
239.325	191.75
239.559	224.75
239.793	198.75
240.027	214.75
240.26	203.75
240.494	202.75
240.728	204.75
240.961	212.75
241.195	213.75
241.429	195.75
241.662	221.75
241.896	221.75
242.13	220.75
242.363	225.75
242.597	209.75
242.83	225.75
243.064	235.75
243.298	223.75
243.531	244.75
243.765	232.75
243.998	235.75
244.232	248.75
244.465	247.75
244.699	241.75
244.932	257.75
245.166	260.75
245.399	269.75
245.633	245.75
245.866	255.75
246.099	267.75
246.333	271.75
246.566	259.75
246.8	259.75
247.033	265.75
247.266	266.75
247.5	264.75
247.733	276.75
247.966	289.75
248.2	289.75
248.433	274.75
248.666	297.75
248.899	287.75
249.133	269.75
249.366	295.75
249.599	296.75
249.832	278.75
250.066	292.75
250.299	308.75
250.532	305.75
250.765	296.75
250.998	309.75
251.231	290.75
251.465	303.75
251.698	313.75
251.931	316.75
252.164	293.75
252.397	321.75
252.63	321.75
252.863	327.75
253.096	307.75
253.329	320.75
253.562	330.75
253.795	334.75
254.028	323.75
254.261	325.75
254.494	328.75
254.727	319.75
254.96	326.75
255.193	340.75
255.426	340.75
255.659	323.75
255.892	341.75
256.124	329.75
256.357	331.75
256.59	331.75
256.823	343.75
257.056	357.75
257.289	375.75
257.521	360.75
257.754	348.75
257.987	350.75
258.22	348.75
258.452	372.75
258.685	364.75
258.918	348.75
259.151	360.75
259.383	369.75
259.616	371.75
259.849	377.75
260.081	378.75
260.314	355.75
260.547	390.75
260.779	369.75
261.012	372.75
261.244	376.75
261.477	375.75
261.71	387.75
261.942	383.75
262.175	421.75
262.407	409.75
262.64	395.75
262.872	386.75
263.105	381.75
263.337	415.75
263.57	405.75
263.802	399.75
264.035	397.75
264.267	407.75
264.499	417.75
264.732	422.75
264.964	404.75
265.197	419.75
265.429	406.75
265.661	414.75
265.894	400.75
266.126	431.75
266.358	409.75
266.591	437.75
266.823	438.75
267.055	433.75
267.287	428.75
267.52	439.75
267.752	423.75
267.984	443.75
268.216	436.75
268.448	433.75
268.681	415.75
268.913	441.75
269.145	450.75
269.377	453.75
269.609	445.75
269.841	439.75
270.073	451.75
270.306	433.75
270.538	442.75
270.77	450.75
271.002	454.75
271.234	461.75
271.466	459.75
271.698	450.75
271.93	465.75
272.162	468.75
272.394	474.75
272.626	443.75
272.858	479.75
273.09	476.75
273.322	477.75
273.553	472.75
273.785	476.75
274.017	486.75
274.249	492.75
274.481	499.75
274.713	486.75
274.945	490.75
275.176	501.75
275.408	490.75
275.64	522.75
275.872	507.75
276.104	511.75
276.335	522.75
276.567	525.75
276.799	511.75
277.031	498.75
277.262	514.75
277.494	492.75
277.726	491.75
277.957	509.75
278.189	507.75
278.421	523.75
278.652	493.75
278.884	533.75
279.115	535.75
279.347	515.75
279.579	544.75
279.81	554.75
280.042	529.75
280.273	555.75
280.505	543.75
280.736	556.75
280.968	535.75
281.199	525.75
281.431	553.75
281.662	541.75
281.894	555.75
282.125	556.75
282.356	544.75
282.588	572.75
282.819	568.75
283.051	550.75
283.282	564.75
283.513	573.75
283.745	573.75
283.976	569.75
284.207	604.75
284.439	589.75
284.67	587.75
284.901	579.75
285.132	589.75
285.364	590.75
285.595	602.75
285.826	610.75
286.057	589.75
286.288	619.75
286.52	604.75
286.751	616.75
286.982	625.75
287.213	623.75
287.444	608.75
287.675	612.75
287.906	606.75
288.138	620.75
288.369	620.75
288.6	629.75
288.831	611.75
289.062	605.75
289.293	633.75
289.524	631.75
289.755	636.75
289.986	628.75
290.217	645.75
290.448	626.75
290.679	631.75
290.91	639.75
291.141	632.75
291.371	651.75
291.602	638.75
291.833	649.75
292.064	646.75
292.295	627.75
292.526	627.75
292.757	644.75
292.987	615.75
293.218	633.75
293.449	633.75
293.68	614.75
293.91	638.75
294.141	654.75
294.372	654.75
294.603	631.75
294.833	640.75
295.064	645.75
295.295	666.75
295.525	661.75
295.756	643.75
295.987	657.75
296.217	676.75
296.448	651.75
296.679	655.75
296.909	656.75
297.14	670.75
297.37	697.75
297.601	681.75
297.831	671.75
298.062	677.75
298.292	695.75
298.523	700.75
298.753	695.75
298.984	714.75
299.214	695.75
299.445	666.75
299.675	705.75
299.905	684.75
300.136	693.75
300.366	700.75
300.597	689.75
300.827	700.75
301.057	741.75
301.288	738.75
301.518	729.75
301.748	755.75
301.979	743.75
302.209	738.75
302.439	743.75
302.669	761.75
302.9	726.75
303.13	699.75
303.36	714.75
303.59	726.75
303.82	738.75
304.051	725.75
304.281	721.75
304.511	693.75
304.741	715.75
304.971	725.75
305.201	713.75
305.431	716.75
305.661	727.75
305.891	709.75
306.121	711.75
306.352	692.75
306.582	695.75
306.812	716.75
307.042	724.75
307.272	712.75
307.502	709.75
307.731	707.75
307.961	709.75
308.191	723.75
308.421	701.75
308.651	700.75
308.881	755.75
309.111	692.75
309.341	687.75
309.571	714.75
309.8	707.75
310.03	720.75
310.26	701.75
310.49	703.75
310.72	731.75
310.949	706.75
311.179	703.75
311.409	737.75
311.639	727.75
311.868	742.75
312.098	724.75
312.328	724.75
312.557	722.75
312.787	724.75
313.017	731.75
313.246	741.75
313.476	742.75
313.706	787.75
313.935	756.75
314.165	793.75
314.394	770.75
314.624	782.75
314.853	739.75
315.083	771.75
315.312	783.75
315.542	777.75
315.771	737.75
316.001	754.75
316.23	741.75
316.46	752.75
316.689	761.75
316.919	763.75
317.148	772.75
317.377	760.75
317.607	755.75
317.836	726.75
318.065	737.75
318.295	757.75
318.524	743.75
318.753	743.75
318.983	753.75
319.212	745.75
319.441	751.75
319.67	738.75
319.9	735.75
320.129	714.75
320.358	740.75
320.587	746.75
320.816	721.75
321.046	752.75
321.275	748.75
321.504	771.75
321.733	753.75
321.962	749.75
322.191	739.75
322.42	746.75
322.649	749.75
322.878	760.75
323.108	743.75
323.337	765.75
323.566	771.75
323.795	787.75
324.024	804.75
324.253	786.75
324.482	781.75
324.71	777.75
324.939	778.75
325.168	788.75
325.397	789.75
325.626	779.75
325.855	801.75
326.084	810.75
326.313	786.75
326.542	821.75
326.77	841.75
326.999	802.75
327.228	823.75
327.457	822.75
327.686	819.75
327.914	832.75
328.143	845.75
328.372	794.75
328.6	810.75
328.829	851.75
329.058	817.75
329.287	834.75
329.515	826.75
329.744	843.75
329.972	849.75
330.201	817.75
330.43	845.75
330.658	871.75
330.887	864.75
331.115	848.75
331.344	858.75
331.572	852.75
331.801	915.75
332.03	921.75
332.258	930.75
332.486	983.75
332.715	977.75
332.943	1026.75
333.172	1073.75
333.4	1157.75
333.629	1119.75
333.857	1129.75
334.085	1114.75
334.314	1081.75
334.542	1080.75
334.771	1069.75
334.999	1041.75
335.227	1033.75
335.455	1052.75
335.684	1039.75
335.912	1025.75
336.14	1009.75
336.369	997.75
336.597	1010.75
336.825	998.75
337.053	970.75
337.281	954.75
337.51	965.75
337.738	935.75
337.966	925.75
338.194	914.75
338.422	914.75
338.65	899.75
338.878	915.75
339.106	912.75
339.334	875.75
339.562	892.75
339.79	857.75
340.018	887.75
340.246	866.75
340.474	852.75
340.702	860.75
340.93	853.75
341.158	884.75
341.386	860.75
341.614	870.75
341.842	841.75
342.07	840.75
342.298	853.75
342.526	861.75
342.754	856.75
342.981	879.75
343.209	875.75
343.437	918.75
343.665	959.75
343.893	1067.75
344.12	1098.75
344.348	1047.75
344.576	988.75
344.804	937.75
345.031	885.75
345.259	867.75
345.487	867.75
345.714	852.75
345.942	839.75
346.17	853.75
346.397	840.75
346.625	827.75
346.853	825.75
347.08	847.75
347.308	823.75
347.535	839.75
347.763	828.75
347.99	829.75
348.218	861.75
348.445	851.75
348.673	824.75
348.9	827.75
349.128	817.75
349.355	796.75
349.583	815.75
349.81	811.75
350.037	791.75
350.265	812.75
350.492	777.75
350.72	784.75
350.947	768.75
351.174	802.75
351.402	791.75
351.629	784.75
351.856	803.75
352.083	801.75
352.311	799.75
352.538	767.75
352.765	792.75
352.992	791.75
353.22	780.75
353.447	785.75
353.674	755.75
353.901	761.75
354.128	791.75
354.355	786.75
354.583	807.75
354.81	781.75
355.037	800.75
355.264	793.75
355.491	774.75
355.718	806.75
355.945	790.75
356.172	825.75
356.399	810.75
356.626	804.75
356.853	804.75
357.08	780.75
357.307	786.75
357.534	831.75
357.761	811.75
357.988	794.75
358.215	814.75
358.441	800.75
358.668	788.75
358.895	800.75
359.122	813.75
359.349	780.75
359.576	805.75
359.802	810.75
360.029	816.75
360.256	799.75
360.483	779.75
360.709	799.75
360.936	808.75
361.163	802.75
361.39	812.75
361.616	796.75
361.843	792.75
362.07	800.75
362.296	809.75
362.523	801.75
362.749	800.75
362.976	787.75
363.203	812.75
363.429	789.75
363.656	786.75
363.882	796.75
364.109	807.75
364.335	801.75
364.562	775.75
364.788	774.75
365.015	802.75
365.241	755.75
365.468	778.75
365.694	820.75
365.92	800.75
366.147	805.75
366.373	788.75
366.599	808.75
366.826	785.75
367.052	796.75
367.278	792.75
367.505	797.75
367.731	803.75
367.957	823.75
368.184	797.75
368.41	816.75
368.636	811.75
368.862	819.75
369.089	799.75
369.315	833.75
369.541	833.75
369.767	831.75
369.993	827.75
370.219	827.75
370.445	873.75
370.672	870.75
370.898	854.75
371.124	844.75
371.35	887.75
371.576	854.75
371.802	862.75
372.028	877.75
372.254	883.75
372.48	867.75
372.706	894.75
372.932	915.75
373.158	891.75
373.384	908.75
373.61	866.75
373.835	858.75
374.061	877.75
374.287	879.75
374.513	928.75
374.739	915.75
374.965	948.75
375.191	963.75
375.416	969.75
375.642	907.75
375.868	890.75
376.094	901.75
376.319	888.75
376.545	869.75
376.771	870.75
376.997	875.75
377.222	865.75
377.448	875.75
377.674	844.75
377.899	875.75
378.125	860.75
378.35	851.75
378.576	873.75
378.802	874.75
379.027	864.75
379.253	850.75
379.478	862.75
379.704	859.75
379.929	870.75
380.155	855.75
380.38	863.75
380.606	849.75
380.831	839.75
381.057	887.75
381.282	847.75
381.507	855.75
381.733	904.75
381.958	903.75
382.184	913.75
382.409	901.75
382.634	909.75
382.86	919.75
383.085	945.75
383.31	944.75
383.535	949.75
383.761	967.75
383.986	959.75
384.211	1032.75
384.436	1043.75
384.662	1027.75
384.887	1087.75
385.112	1064.75
385.337	1067.75
385.562	1055.75
385.787	1066.75
386.013	1075.75
386.238	1044.75
386.463	1074.75
386.688	1086.75
386.913	1075.75
387.138	1026.75
387.363	1054.75
387.588	1029.75
387.813	1059.75
388.038	1055.75
388.263	1057.75
388.488	1073.75
388.713	1032.75
388.938	1034.75
389.163	1017.75
389.387	998.75
389.612	1019.75
389.837	1037.75
390.062	1018.75
390.287	1045.75
390.512	1024.75
390.736	1052.75
390.961	1042.75
391.186	1093.75
391.411	1108.75
391.636	1119.75
391.86	1201.75
392.085	1215.75
392.31	1218.75
392.534	1156.75
392.759	1148.75
392.984	1119.75
393.208	1108.75
393.433	1092.75
393.658	1154.75
393.882	1113.75
394.107	1126.75
394.331	1147.75
394.556	1125.75
394.78	1105.75
395.005	1140.75
395.229	1143.75
395.454	1152.75
395.678	1205.75
395.903	1225.75
396.127	1164.75
396.352	1109.75
396.576	1107.75
396.801	1113.75
397.025	1119.75
397.249	1200.75
397.474	1155.75
397.698	1180.75
397.922	1185.75
398.147	1219.75
398.371	1232.75
398.595	1252.75
398.82	1317.75
399.044	1404.75
399.268	1589.75
399.492	1874.75
399.717	2112.75
399.941	2053.75
400.165	1827.75
400.389	1611.75
400.613	1482.75
400.837	1404.75
401.062	1362.75
401.286	1346.75
401.51	1337.75
401.734	1324.75
401.958	1332.75
402.182	1327.75
402.406	1351.75
402.63	1419.75
402.854	1442.75
403.078	1404.75
403.302	1497.75
403.526	1529.75
403.75	1574.75
403.974	1573.75
404.198	1565.75
404.422	1580.75
404.645	1558.75
404.869	1551.75
405.093	1516.75
405.317	1484.75
405.541	1473.75
405.765	1478.75
405.988	1433.75
406.212	1467.75
406.436	1443.75
406.66	1508.75
406.883	1540.75
407.107	1605.75
407.331	1735.75
407.555	1751.75
407.778	1746.75
408.002	1680.75
408.226	1627.75
408.449	1610.75
408.673	1531.75
408.896	1521.75
409.12	1452.75
409.344	1536.75
409.567	1507.75
409.791	1525.75
410.014	1493.75
410.238	1472.75
410.461	1462.75
410.685	1472.75
410.908	1430.75
411.132	1395.75
411.355	1380.75
411.578	1367.75
411.802	1370.75
412.025	1397.75
412.249	1404.75
412.472	1409.75
412.695	1338.75
412.919	1322.75
413.142	1293.75
413.365	1297.75
413.589	1341.75
413.812	1299.75
414.035	1269.75
414.258	1332.75
414.482	1324.75
414.705	1339.75
414.928	1316.75
415.151	1327.75
415.374	1321.75
415.597	1324.75
415.821	1303.75
416.044	1297.75
416.267	1293.75
416.49	1297.75
416.713	1292.75
416.936	1287.75
417.159	1268.75
417.382	1288.75
417.605	1290.75
417.828	1318.75
418.051	1320.75
418.274	1300.75
418.497	1293.75
418.72	1351.75
418.943	1354.75
419.166	1440.75
419.389	1524.75
419.611	1477.75
419.834	1395.75
420.057	1343.75
420.28	1333.75
420.503	1290.75
420.726	1327.75
420.948	1282.75
421.171	1279.75
421.394	1285.75
421.617	1254.75
421.839	1279.75
422.062	1301.75
422.285	1289.75
422.507	1327.75
422.73	1352.75
422.953	1345.75
423.175	1375.75
423.398	1375.75
423.621	1361.75
423.843	1413.75
424.066	1425.75
424.288	1403.75
424.511	1407.75
424.733	1361.75
424.956	1327.75
425.178	1318.75
425.401	1336.75
425.623	1334.75
425.846	1239.75
426.068	1243.75
426.291	1229.75
426.513	1234.75
426.735	1229.75
426.958	1233.75
427.18	1169.75
427.402	1177.75
427.625	1203.75
427.847	1170.75
428.069	1129.75
428.292	1157.75
428.514	1163.75
428.736	1160.75
428.958	1151.75
429.181	1120.75
429.403	1100.75
429.625	1128.75
429.847	1127.75
430.069	1096.75
430.292	1141.75
430.514	1123.75
430.736	1124.75
430.958	1109.75
431.18	1129.75
431.402	1119.75
431.624	1139.75
431.846	1124.75
432.068	1151.75
432.29	1166.75
432.512	1124.75
432.734	1156.75
432.956	1155.75
433.178	1163.75
433.4	1143.75
433.622	1151.75
433.844	1176.75
434.066	1155.75
434.287	1172.75
434.509	1223.75
434.731	1258.75
434.953	1293.75
435.175	1308.75
435.397	1294.75
435.618	1201.75
435.84	1188.75
436.062	1146.75
436.284	1156.75
436.505	1119.75
436.727	1157.75
436.949	1173.75
437.17	1140.75
437.392	1102.75
437.614	1126.75
437.835	1080.75
438.057	1100.75
438.278	1083.75
438.5	1046.75
438.721	1092.75
438.943	1120.75
439.165	1058.75
439.386	1124.75
439.608	1130.75
439.829	1133.75
440.05	1121.75
440.272	1152.75
440.493	1148.75
440.715	1162.75
440.936	1212.75
441.158	1205.75
441.379	1225.75
441.6	1311.75
441.822	1316.75
442.043	1298.75
442.264	1290.75
442.486	1223.75
442.707	1235.75
442.928	1261.75
443.149	1280.75
443.371	1259.75
443.592	1276.75
443.813	1316.75
444.034	1309.75
444.255	1317.75
444.476	1439.75
444.698	1487.75
444.919	1607.75
445.14	1603.75
445.361	1452.75
445.582	1343.75
445.803	1242.75
446.024	1199.75
446.245	1173.75
446.466	1202.75
446.687	1139.75
446.908	1129.75
447.129	1125.75
447.35	1086.75
447.571	1097.75
447.792	1058.75
448.013	1049.75
448.234	1047.75
448.455	1042.75
448.675	1046.75
448.896	1036.75
449.117	1067.75
449.338	1051.75
449.559	1030.75
449.779	1004.75
450	1021.75
450.221	1038.75
450.442	1016.75
450.662	1027.75
450.883	1047.75
451.104	1077.75
451.324	1058.75
451.545	1066.75
451.766	1047.75
451.986	1032.75
452.207	1044.75
452.428	1036.75
452.648	1049.75
452.869	1001.75
453.089	1020.75
453.31	1032.75
453.53	1031.75
453.751	1019.75
453.971	995.75
454.192	1031.75
454.412	972.75
454.633	1006.75
454.853	1015.75
455.073	961.75
455.294	1003.75
455.514	980.75
455.734	961.75
455.955	945.75
456.175	972.75
456.395	951.75
456.616	961.75
456.836	960.75
457.056	978.75
457.276	951.75
457.497	969.75
457.717	923.75
457.937	996.75
458.157	983.75
458.377	1003.75
458.598	1019.75
458.818	1065.75
459.038	1113.75
459.258	1107.75
459.478	1163.75
459.698	1151.75
459.918	1223.75
460.138	1260.75
460.358	1351.75
460.578	1382.75
460.798	1375.75
461.018	1367.75
461.238	1362.75
461.458	1373.75
461.678	1370.75
461.898	1377.75
462.118	1343.75
462.338	1452.75
462.558	1465.75
462.777	1579.75
462.997	1713.75
463.217	1843.75
463.437	1855.75
463.657	1711.75
463.876	1607.75
464.096	1594.75
464.316	1613.75
464.536	1636.75
464.755	1552.75
464.975	1493.75
465.195	1406.75
465.414	1335.75
465.634	1242.75
465.854	1160.75
466.073	1175.75
466.293	1145.75
466.512	1119.75
466.732	1093.75
466.951	1115.75
467.171	1106.75
467.391	1118.75
467.61	1072.75
467.829	1084.75
468.049	1066.75
468.268	1023.75
468.488	1003.75
468.707	1008.75
468.927	1049.75
469.146	1060.75
469.365	1087.75
469.585	1051.75
469.804	1088.75
470.023	1145.75
470.243	1107.75
470.462	1143.75
470.681	1139.75
470.901	1157.75
471.12	1113.75
471.339	1092.75
471.558	1079.75
471.777	1052.75
471.997	1059.75
472.216	1042.75
472.435	1050.75
472.654	1028.75
472.873	1018.75
473.092	979.75
473.311	997.75
473.53	1032.75
473.749	980.75
473.968	988.75
474.187	1002.75
474.406	997.75
474.625	1029.75
474.844	1001.75
475.063	1039.75
475.282	1029.75
475.501	1004.75
475.72	1021.75
475.939	1017.75
476.158	1057.75
476.377	1060.75
476.596	1067.75
476.814	1066.75
477.033	1067.75
477.252	1070.75
477.471	1116.75
477.69	1148.75
477.908	1178.75
478.127	1195.75
478.346	1206.75
478.564	1273.75
478.783	1277.75
479.002	1287.75
479.22	1276.75
479.439	1280.75
479.658	1284.75
479.876	1275.75
480.095	1304.75
480.313	1368.75
480.532	1418.75
480.751	1403.75
480.969	1314.75
481.188	1289.75
481.406	1237.75
481.624	1192.75
481.843	1199.75
482.061	1151.75
482.28	1176.75
482.498	1181.75
482.717	1193.75
482.935	1155.75
483.153	1142.75
483.372	1143.75
483.59	1160.75
483.808	1163.75
484.027	1130.75
484.245	1160.75
484.463	1182.75
484.681	1185.75
484.9	1177.75
485.118	1229.75
485.336	1196.75
485.554	1225.75
485.772	1201.75
485.99	1237.75
486.209	1219.75
486.427	1222.75
486.645	1207.75
486.863	1230.75
487.081	1226.75
487.299	1201.75
487.517	1206.75
487.735	1210.75
487.953	1209.75
488.171	1231.75
488.389	1208.75
488.607	1218.75
488.825	1168.75
489.043	1183.75
489.261	1219.75
489.479	1209.75
489.696	1194.75
489.914	1197.75
490.132	1222.75
490.35	1227.75
490.568	1218.75
490.786	1213.75
491.003	1213.75
491.221	1229.75
491.439	1239.75
491.657	1231.75
491.874	1236.75
492.092	1267.75
492.31	1239.75
492.527	1235.75
492.745	1265.75
492.963	1254.75
493.18	1265.75
493.398	1280.75
493.615	1278.75
493.833	1283.75
494.05	1282.75
494.268	1275.75
494.485	1280.75
494.703	1301.75
494.92	1288.75
495.138	1322.75
495.355	1310.75
495.573	1303.75
495.79	1315.75
496.008	1292.75
496.225	1343.75
496.442	1353.75
496.66	1362.75
496.877	1384.75
497.094	1417.75
497.312	1443.75
497.529	1431.75
497.746	1487.75
497.963	1557.75
498.181	1580.75
498.398	1679.75
498.615	1745.75
498.832	1919.75
499.049	2091.75
499.267	2247.75
499.484	2468.75
499.701	2730.75
499.918	3041.75
500.135	3540.75
500.352	4051.75
500.569	4236.75
500.786	4232.75
501.003	3893.75
501.22	3428.75
501.437	2962.75
501.654	2631.75
501.871	2368.75
502.088	2153.75
502.305	1996.75
502.522	1904.75
502.739	1846.75
502.956	1736.75
503.172	1714.75
503.389	1579.75
503.606	1516.75
503.823	1482.75
504.04	1509.75
504.256	1483.75
504.473	1577.75
504.69	1618.75
504.907	1570.75
505.123	1459.75
505.34	1365.75
505.557	1297.75
505.773	1283.75
505.99	1235.75
506.207	1239.75
506.423	1207.75
506.64	1176.75
506.856	1169.75
507.073	1150.75
507.289	1159.75
507.506	1157.75
507.722	1130.75
507.939	1157.75
508.155	1125.75
508.372	1119.75
508.588	1100.75
508.805	1100.75
509.021	1120.75
509.238	1093.75
509.454	1033.75
509.67	1065.75
509.887	1080.75
510.103	1083.75
510.319	1079.75
510.536	1081.75
510.752	1048.75
510.968	1035.75
511.184	1064.75
511.401	1025.75
511.617	1042.75
511.833	1055.75
512.049	1049.75
512.265	1040.75
512.481	1053.75
512.698	1044.75
512.914	1027.75
513.13	1012.75
513.346	1037.75
513.562	1063.75
513.778	1039.75
513.994	1037.75
514.21	1053.75
514.426	1064.75
514.642	1045.75
514.858	1057.75
515.074	1071.75
515.29	1083.75
515.506	1090.75
515.721	1122.75
515.937	1117.75
516.153	1160.75
516.369	1205.75
516.585	1227.75
516.801	1258.75
517.016	1313.75
517.232	1407.75
517.448	1478.75
517.664	1510.75
517.879	1523.75
518.095	1485.75
518.311	1487.75
518.527	1410.75
518.742	1363.75
518.958	1287.75
519.173	1219.75
519.389	1199.75
519.605	1172.75
519.82	1144.75
520.036	1136.75
520.251	1087.75
520.467	1041.75
520.682	1079.75
520.898	1029.75
521.113	1043.75
521.329	1028.75
521.544	1023.75
521.76	997.75
521.975	1001.75
522.19	994.75
522.406	981.75
522.621	1009.75
522.836	1000.75
523.052	984.75
523.267	981.75
523.482	964.75
523.698	977.75
523.913	1009.75
524.128	963.75
524.343	978.75
524.559	981.75
524.774	972.75
524.989	976.75
525.204	948.75
525.419	935.75
525.634	950.75
525.849	947.75
526.064	952.75
526.28	956.75
526.495	938.75
526.71	945.75
526.925	918.75
527.14	934.75
527.355	934.75
527.57	926.75
527.785	924.75
527.999	940.75
528.214	948.75
528.429	902.75
528.644	954.75
528.859	958.75
529.074	946.75
529.289	959.75
529.503	933.75
529.718	927.75
529.933	939.75
530.148	947.75
530.363	915.75
530.577	912.75
530.792	933.75
531.007	931.75
531.221	937.75
531.436	953.75
531.651	924.75
531.865	960.75
532.08	951.75
532.295	950.75
532.509	969.75
532.724	949.75
532.938	947.75
533.153	926.75
533.367	923.75
533.582	952.75
533.796	949.75
534.011	913.75
534.225	932.75
534.44	930.75
534.654	930.75
534.868	919.75
535.083	939.75
535.297	921.75
535.511	884.75
535.726	901.75
535.94	879.75
536.154	871.75
536.369	893.75
536.583	887.75
536.797	895.75
537.011	880.75
537.225	859.75
537.44	877.75
537.654	852.75
537.868	842.75
538.082	839.75
538.296	863.75
538.51	849.75
538.724	849.75
538.938	852.75
539.153	873.75
539.367	844.75
539.581	864.75
539.795	848.75
540.009	863.75
540.222	824.75
540.436	832.75
540.65	857.75
540.864	867.75
541.078	833.75
541.292	855.75
541.506	837.75
541.72	832.75
541.934	835.75
542.147	855.75
542.361	840.75
542.575	831.75
542.789	844.75
543.002	852.75
543.216	810.75
543.43	816.75
543.644	800.75
543.857	811.75
544.071	835.75
544.285	822.75
544.498	837.75
544.712	846.75
544.925	863.75
545.139	839.75
545.352	816.75
545.566	855.75
545.779	849.75
545.993	890.75
546.206	873.75
546.42	831.75
546.633	846.75
546.847	863.75
547.06	857.75
547.274	862.75
547.487	857.75
547.7	853.75
547.914	860.75
548.127	864.75
548.34	866.75
548.554	870.75
548.767	864.75
548.98	855.75
549.193	877.75
549.407	853.75
549.62	883.75
549.833	896.75
550.046	875.75
550.259	887.75
550.473	844.75
550.686	844.75
550.899	853.75
551.112	804.75
551.325	837.75
551.538	844.75
551.751	843.75
551.964	847.75
552.177	863.75
552.39	883.75
552.603	903.75
552.816	916.75
553.029	935.75
553.242	963.75
553.455	921.75
553.667	983.75
553.88	959.75
554.093	921.75
554.306	911.75
554.519	860.75
554.732	883.75
554.944	856.75
555.157	826.75
555.37	811.75
555.583	799.75
555.795	797.75
556.008	771.75
556.221	754.75
556.433	727.75
556.646	743.75
556.859	760.75
557.071	746.75
557.284	733.75
557.496	729.75
557.709	737.75
557.921	753.75
558.134	742.75
558.346	714.75
558.559	720.75
558.771	735.75
558.984	710.75
559.196	704.75
559.409	705.75
559.621	723.75
559.833	711.75
560.046	702.75
560.258	711.75
560.47	712.75
560.683	682.75
560.895	692.75
561.107	697.75
561.32	687.75
561.532	658.75
561.744	711.75
561.956	695.75
562.168	700.75
562.381	689.75
562.593	708.75
562.805	705.75
563.017	692.75
563.229	712.75
563.441	705.75
563.653	728.75
563.865	717.75
564.077	732.75
564.289	726.75
564.501	736.75
564.713	748.75
564.925	746.75
565.137	772.75
565.349	781.75
565.561	821.75
565.773	846.75
565.985	889.75
566.197	915.75
566.408	991.75
566.62	1096.75
566.832	1192.75
567.044	1235.75
567.255	1186.75
567.467	1243.75
567.679	1320.75
567.891	1412.75
568.102	1481.75
568.314	1397.75
568.526	1233.75
568.737	1117.75
568.949	1002.75
569.161	932.75
569.372	831.75
569.584	783.75
569.795	799.75
570.007	763.75
570.218	763.75
570.43	722.75
570.641	708.75
570.853	736.75
571.064	738.75
571.276	732.75
571.487	721.75
571.698	690.75
571.91	647.75
572.121	640.75
572.333	637.75
572.544	628.75
572.755	610.75
572.966	595.75
573.178	624.75
573.389	609.75
573.6	574.75
573.811	591.75
574.023	589.75
574.234	601.75
574.445	572.75
574.656	617.75
574.867	580.75
575.078	591.75
575.289	562.75
575.501	567.75
575.712	530.75
575.923	534.75
576.134	552.75
576.345	547.75
576.556	557.75
576.767	547.75
576.978	550.75
577.188	548.75
577.399	540.75
577.61	539.75
577.821	528.75
578.032	515.75
578.243	524.75
578.454	509.75
578.665	500.75
578.875	521.75
579.086	515.75
579.297	495.75
579.508	496.75
579.718	502.75
579.929	498.75
580.14	494.75
580.35	500.75
580.561	504.75
580.772	488.75
580.982	507.75
581.193	492.75
581.403	495.75
581.614	487.75
581.825	509.75
582.035	473.75
582.246	486.75
582.456	483.75
582.667	476.75
582.877	472.75
583.087	487.75
583.298	469.75
583.508	485.75
583.719	485.75
583.929	487.75
584.139	490.75
584.35	474.75
584.56	441.75
584.77	482.75
584.981	467.75
585.191	482.75
585.401	450.75
585.611	468.75
585.821	456.75
586.032	453.75
586.242	458.75
586.452	456.75
586.662	471.75
586.872	463.75
587.082	471.75
587.292	457.75
587.502	448.75
587.713	433.75
587.923	449.75
588.133	458.75
588.343	449.75
588.553	468.75
588.762	459.75
588.972	464.75
589.182	445.75
589.392	453.75
589.602	468.75
589.812	480.75
590.022	471.75
590.232	441.75
590.441	470.75
590.651	469.75
590.861	453.75
591.071	467.75
591.281	488.75
591.49	491.75
591.7	514.75
591.91	497.75
592.119	510.75
592.329	523.75
592.539	541.75
592.748	556.75
592.958	549.75
593.167	584.75
593.377	590.75
593.587	620.75
593.796	611.75
594.006	591.75
594.215	642.75
594.424	612.75
594.634	601.75
594.843	563.75
595.053	526.75
595.262	517.75
595.472	508.75
595.681	491.75
595.89	477.75
596.1	473.75
596.309	464.75
596.518	475.75
596.727	421.75
596.937	452.75
597.146	428.75
597.355	425.75
597.564	422.75
597.774	391.75
597.983	409.75
598.192	421.75
598.401	412.75
598.61	387.75
598.819	391.75
599.028	383.75
599.237	401.75
599.446	409.75
599.655	398.75
599.864	379.75
600.073	389.75
600.282	377.75
600.491	369.75
600.7	359.75
600.909	383.75
601.118	373.75
601.327	376.75
601.536	376.75
601.745	375.75
601.953	357.75
602.162	368.75
602.371	369.75
602.58	388.75
602.789	359.75
602.997	371.75
603.206	391.75
603.415	363.75
603.623	367.75
603.832	378.75
604.041	383.75
604.249	381.75
604.458	363.75
604.666	347.75
604.875	349.75
605.084	338.75
605.292	351.75
605.501	353.75
605.709	351.75
605.918	346.75
606.126	359.75
606.334	350.75
606.543	330.75
606.751	361.75
606.96	360.75
607.168	349.75
607.376	325.75
607.585	345.75
607.793	341.75
608.001	355.75
608.21	322.75
608.418	344.75
608.626	314.75
608.834	349.75
609.043	362.75
609.251	354.75
609.459	323.75
609.667	345.75
609.875	345.75
610.083	337.75
610.291	335.75
610.499	335.75
610.707	345.75
610.916	336.75
611.124	343.75
611.332	324.75
611.54	337.75
611.748	326.75
611.955	315.75
612.163	332.75
612.371	344.75
612.579	329.75
612.787	329.75
612.995	326.75
613.203	344.75
613.411	325.75
613.618	326.75
613.826	319.75
614.034	320.75
614.242	325.75
614.449	323.75
614.657	330.75
614.865	321.75
615.072	322.75
615.28	341.75
615.488	347.75
615.695	329.75
615.903	322.75
616.111	348.75
616.318	321.75
616.526	337.75
616.733	328.75
616.941	343.75
617.148	328.75
617.356	334.75
617.563	330.75
617.771	332.75
617.978	318.75
618.185	352.75
618.393	334.75
618.6	332.75
618.807	329.75
619.015	312.75
619.222	327.75
619.429	321.75
619.637	318.75
619.844	309.75
620.051	317.75
620.258	304.75
620.466	307.75
620.673	279.75
620.88	290.75
621.087	313.75
621.294	307.75
621.501	318.75
621.708	283.75
621.915	290.75
622.122	329.75
622.329	303.75
622.536	290.75
622.743	306.75
622.95	293.75
623.157	310.75
623.364	313.75
623.571	289.75
623.778	301.75
623.985	276.75
624.192	282.75
624.399	292.75
624.606	289.75
624.812	278.75
625.019	279.75
625.226	280.75
625.433	284.75
625.639	286.75
625.846	307.75
626.053	269.75
626.259	268.75
626.466	270.75
626.673	279.75
626.879	266.75
627.086	271.75
627.293	279.75
627.499	288.75
627.706	271.75
627.912	265.75
628.119	268.75
628.325	273.75
628.532	265.75
628.738	275.75
628.945	276.75
629.151	260.75
629.357	264.75
629.564	267.75
629.77	258.75
629.976	270.75
630.183	247.75
630.389	244.75
630.595	248.75
630.802	266.75
631.008	245.75
631.214	233.75
631.42	261.75
631.627	248.75
631.833	253.75
632.039	251.75
632.245	256.75
632.451	241.75
632.657	248.75
632.863	245.75
633.069	249.75
633.275	243.75
633.481	258.75
633.688	246.75
633.893	214.75
634.099	262.75
634.305	263.75
634.511	228.75
634.717	233.75
634.923	235.75
635.129	236.75
635.335	232.75
635.541	232.75
635.747	227.75
635.952	223.75
636.158	232.75
636.364	235.75
636.57	239.75
636.775	252.75
636.981	231.75
637.187	230.75
637.392	226.75
637.598	205.75
637.804	228.75
638.009	234.75
638.215	230.75
638.421	231.75
638.626	225.75
638.832	232.75
639.037	214.75
639.243	227.75
639.448	206.75
639.654	213.75
639.859	233.75
640.065	233.75
640.27	225.75
640.475	233.75
640.681	222.75
640.886	215.75
641.091	221.75
641.297	227.75
641.502	207.75
641.707	233.75
641.913	225.75
642.118	218.75
642.323	231.75
642.528	224.75
642.733	220.75
642.939	222.75
643.144	208.75
643.349	220.75
643.554	201.75
643.759	212.75
643.964	215.75
644.169	215.75
644.374	196.75
644.579	223.75
644.784	216.75
644.989	201.75
645.194	197.75
645.399	212.75
645.604	200.75
645.809	213.75
646.014	205.75
646.219	215.75
646.423	200.75
646.628	204.75
646.833	217.75
647.038	200.75
647.243	204.75
647.447	213.75
647.652	214.75
647.857	218.75
648.062	220.75
648.266	213.75
648.471	226.75
648.676	212.75
648.88	216.75
649.085	202.75
649.289	198.75
649.494	205.75
649.698	222.75
649.903	195.75
650.107	201.75
650.312	202.75
650.516	185.75
650.721	187.75
650.925	188.75
651.13	196.75
651.334	176.75
651.539	194.75
651.743	183.75
651.947	163.75
652.152	195.75
652.356	181.75
652.56	167.75
652.764	169.75
652.969	175.75
653.173	181.75
653.377	161.75
653.581	159.75
653.785	157.75
653.99	155.75
654.194	153.75
654.398	163.75
654.602	161.75
654.806	150.75
655.01	156.75
655.214	151.75
655.418	156.75
655.622	142.75
655.826	142.75
656.03	149.75
656.234	157.75
656.438	130.75
656.642	162.75
656.846	152.75
657.049	140.75
657.253	125.75
657.457	115.75
657.661	144.75
657.865	126.75
658.068	126.75
658.272	125.75
658.476	115.75
658.68	114.75
658.883	118.75
659.087	124.75
659.291	102.75
659.494	114.75
659.698	91.75
659.901	104.75
660.105	100.75
660.309	98.75
660.512	98.75
660.716	102.75
660.919	115.75
661.123	108.75
661.326	99.75
661.53	95.75
661.733	87.75
661.936	88.75
662.14	100.75
662.343	87.75
662.546	90.75
662.75	83.75
662.953	84.75
663.156	86.75
663.36	81.75
663.563	74.75
663.766	76.75
663.969	89.75
664.173	71.75
664.376	85.75
664.579	97.75
664.782	81.75
664.985	78.75
665.188	75.75
665.391	82.75
665.594	82.75
665.797	72.75
666	84.75
666.203	84.75
666.406	66.75
666.609	77.75
666.812	85.75
667.015	88.75
667.218	76.75
667.421	71.75
667.624	71.75
667.827	87.75
668.03	83.75
668.232	85.75
668.435	94.75
668.638	85.75
668.841	83.75
669.043	92.75
669.246	71.75
669.449	68.75
669.651	76.75
669.854	83.75
670.057	63.75
670.259	91.75
670.462	78.75
670.665	83.75
670.867	80.75
671.07	77.75
671.272	83.75
671.475	83.75
671.677	85.75
671.88	76.75
672.082	83.75
672.284	72.75
672.487	91.75
672.689	87.75
672.892	93.75
