Data from NiCl2@0.5M.TitratingCurve.Agarose3%dH2O.NegLispCup.LampEnergy10.LIBS07252019_HRD10591_18-20-38-573.txt Node
Date: Thu Jul 25 18:20:38 EDT 2019
User: cochatt
Spectrometer: HR+D1059
Trigger mode: 1
Integration Time (sec): 1.000000E-1
Scans to average: 1
Electric dark correction enabled: true
Nonlinearity correction enabled: false
Boxcar width: 0
XAxis mode: Wavelengths
Number of Pixels in Spectrum: 2048
>>>>>Begin Spectral Data<<<<<
223.165	-22.94
223.4	-22.94
223.635	-22.94
223.869	-18.94
224.104	-21.94
224.338	-14.94
224.573	-10.94
224.808	-4.94
225.042	-12.94
225.277	-7.94
225.511	-1.94
225.746	14.06
225.98	6.06
226.215	4.06
226.449	7.06
226.683	26.06
226.918	33.06
227.152	27.06
227.387	28.06
227.621	38.06
227.856	50.06
228.09	47.06
228.324	47.06
228.559	60.06
228.793	69.06
229.027	96.06
229.262	109.06
229.496	132.06
229.73	137.06
229.964	133.06
230.199	148.06
230.433	133.06
230.667	141.06
230.901	141.06
231.136	150.06
231.37	135.06
231.604	149.06
231.838	162.06
232.072	154.06
232.306	152.06
232.541	139.06
232.775	154.06
233.009	162.06
233.243	153.06
233.477	136.06
233.711	161.06
233.945	152.06
234.179	161.06
234.413	145.06
234.647	167.06
234.881	158.06
235.115	158.06
235.349	156.06
235.583	161.06
235.817	153.06
236.051	162.06
236.285	150.06
236.519	167.06
236.753	158.06
236.987	161.06
237.221	161.06
237.455	158.06
237.689	169.06
237.922	180.06
238.156	155.06
238.39	154.06
238.624	163.06
238.858	162.06
239.091	156.06
239.325	163.06
239.559	171.06
239.793	180.06
240.027	183.06
240.26	187.06
240.494	181.06
240.728	164.06
240.961	180.06
241.195	191.06
241.429	182.06
241.662	199.06
241.896	209.06
242.13	201.06
242.363	204.06
242.597	189.06
242.83	198.06
243.064	193.06
243.298	205.06
243.531	215.06
243.765	206.06
243.998	211.06
244.232	225.06
244.465	209.06
244.699	213.06
244.932	232.06
245.166	216.06
245.399	221.06
245.633	220.06
245.866	211.06
246.099	238.06
246.333	228.06
246.566	199.06
246.8	229.06
247.033	217.06
247.266	219.06
247.5	249.06
247.733	223.06
247.966	232.06
248.2	220.06
248.433	238.06
248.666	241.06
248.899	233.06
249.133	241.06
249.366	246.06
249.599	235.06
249.832	249.06
250.066	245.06
250.299	239.06
250.532	259.06
250.765	270.06
250.998	269.06
251.231	267.06
251.465	275.06
251.698	267.06
251.931	263.06
252.164	264.06
252.397	254.06
252.63	283.06
252.863	278.06
253.096	268.06
253.329	261.06
253.562	294.06
253.795	294.06
254.028	292.06
254.261	292.06
254.494	276.06
254.727	279.06
254.96	271.06
255.193	285.06
255.426	280.06
255.659	289.06
255.892	279.06
256.124	318.06
256.357	297.06
256.59	290.06
256.823	298.06
257.056	308.06
257.289	330.06
257.521	311.06
257.754	311.06
257.987	289.06
258.22	302.06
258.452	313.06
258.685	295.06
258.918	297.06
259.151	309.06
259.383	313.06
259.616	307.06
259.849	316.06
260.081	319.06
260.314	326.06
260.547	331.06
260.779	318.06
261.012	323.06
261.244	307.06
261.477	334.06
261.71	321.06
261.942	319.06
262.175	339.06
262.407	341.06
262.64	322.06
262.872	339.06
263.105	333.06
263.337	323.06
263.57	345.06
263.802	355.06
264.035	342.06
264.267	362.06
264.499	352.06
264.732	356.06
264.964	344.06
265.197	351.06
265.429	356.06
265.661	378.06
265.894	375.06
266.126	370.06
266.358	353.06
266.591	373.06
266.823	364.06
267.055	353.06
267.287	369.06
267.52	374.06
267.752	344.06
267.984	389.06
268.216	386.06
268.448	374.06
268.681	372.06
268.913	386.06
269.145	373.06
269.377	389.06
269.609	378.06
269.841	371.06
270.073	377.06
270.306	386.06
270.538	389.06
270.77	367.06
271.002	365.06
271.234	377.06
271.466	381.06
271.698	394.06
271.93	386.06
272.162	407.06
272.394	394.06
272.626	404.06
272.858	416.06
273.09	400.06
273.322	420.06
273.553	412.06
273.785	412.06
274.017	399.06
274.249	410.06
274.481	397.06
274.713	415.06
274.945	441.06
275.176	436.06
275.408	431.06
275.64	435.06
275.872	423.06
276.104	425.06
276.335	428.06
276.567	438.06
276.799	418.06
277.031	412.06
277.262	428.06
277.494	429.06
277.726	449.06
277.957	438.06
278.189	435.06
278.421	424.06
278.652	441.06
278.884	441.06
279.115	447.06
279.347	452.06
279.579	453.06
279.81	444.06
280.042	448.06
280.273	465.06
280.505	461.06
280.736	454.06
280.968	463.06
281.199	455.06
281.431	480.06
281.662	458.06
281.894	492.06
282.125	472.06
282.356	482.06
282.588	477.06
282.819	483.06
283.051	483.06
283.282	500.06
283.513	490.06
283.745	497.06
283.976	481.06
284.207	499.06
284.439	492.06
284.67	482.06
284.901	491.06
285.132	498.06
285.364	494.06
285.595	506.06
285.826	499.06
286.057	515.06
286.288	485.06
286.52	507.06
286.751	476.06
286.982	478.06
287.213	517.06
287.444	515.06
287.675	521.06
287.906	507.06
288.138	521.06
288.369	534.06
288.6	531.06
288.831	507.06
289.062	512.06
289.293	547.06
289.524	542.06
289.755	506.06
289.986	521.06
290.217	519.06
290.448	547.06
290.679	513.06
290.91	543.06
291.141	555.06
291.371	542.06
291.602	560.06
291.833	547.06
292.064	549.06
292.295	527.06
292.526	539.06
292.757	543.06
292.987	519.06
293.218	545.06
293.449	545.06
293.68	548.06
293.91	546.06
294.141	557.06
294.372	534.06
294.603	531.06
294.833	546.06
295.064	574.06
295.295	536.06
295.525	549.06
295.756	545.06
295.987	534.06
296.217	570.06
296.448	563.06
296.679	554.06
296.909	559.06
297.14	567.06
297.37	576.06
297.601	567.06
297.831	565.06
298.062	559.06
298.292	576.06
298.523	588.06
298.753	612.06
298.984	609.06
299.214	594.06
299.445	577.06
299.675	599.06
299.905	587.06
300.136	583.06
300.366	627.06
300.597	636.06
300.827	616.06
301.057	629.06
301.288	637.06
301.518	613.06
301.748	607.06
301.979	623.06
302.209	637.06
302.439	622.06
302.669	623.06
302.9	625.06
303.13	610.06
303.36	607.06
303.59	621.06
303.82	607.06
304.051	649.06
304.281	632.06
304.511	604.06
304.741	635.06
304.971	609.06
305.201	641.06
305.431	625.06
305.661	646.06
305.891	636.06
306.121	659.06
306.352	616.06
306.582	631.06
306.812	615.06
307.042	634.06
307.272	615.06
307.502	587.06
307.731	590.06
307.961	593.06
308.191	602.06
308.421	605.06
308.651	599.06
308.881	605.06
309.111	618.06
309.341	618.06
309.571	613.06
309.8	611.06
310.03	631.06
310.26	637.06
310.49	622.06
310.72	630.06
310.949	627.06
311.179	634.06
311.409	645.06
311.639	610.06
311.868	611.06
312.098	638.06
312.328	606.06
312.557	636.06
312.787	656.06
313.017	637.06
313.246	645.06
313.476	661.06
313.706	664.06
313.935	667.06
314.165	676.06
314.394	651.06
314.624	650.06
314.853	655.06
315.083	678.06
315.312	658.06
315.542	660.06
315.771	669.06
316.001	656.06
316.23	675.06
316.46	646.06
316.689	649.06
316.919	668.06
317.148	663.06
317.377	668.06
317.607	656.06
317.836	658.06
318.065	656.06
318.295	655.06
318.524	669.06
318.753	657.06
318.983	643.06
319.212	671.06
319.441	667.06
319.67	656.06
319.9	658.06
320.129	652.06
320.358	645.06
320.587	641.06
320.816	670.06
321.046	657.06
321.275	669.06
321.504	661.06
321.733	674.06
321.962	649.06
322.191	662.06
322.42	667.06
322.649	690.06
322.878	667.06
323.108	655.06
323.337	680.06
323.566	679.06
323.795	686.06
324.024	694.06
324.253	692.06
324.482	689.06
324.71	684.06
324.939	677.06
325.168	678.06
325.397	685.06
325.626	692.06
325.855	713.06
326.084	706.06
326.313	701.06
326.542	722.06
326.77	736.06
326.999	711.06
327.228	677.06
327.457	708.06
327.686	691.06
327.914	722.06
328.143	702.06
328.372	719.06
328.6	708.06
328.829	700.06
329.058	717.06
329.287	723.06
329.515	727.06
329.744	711.06
329.972	738.06
330.201	744.06
330.43	755.06
330.658	730.06
330.887	739.06
331.115	745.06
331.344	762.06
331.572	765.06
331.801	792.06
332.03	770.06
332.258	763.06
332.486	802.06
332.715	805.06
332.943	851.06
333.172	833.06
333.4	868.06
333.629	876.06
333.857	898.06
334.085	911.06
334.314	903.06
334.542	884.06
334.771	891.06
334.999	905.06
335.227	905.06
335.455	895.06
335.684	926.06
335.912	892.06
336.14	891.06
336.369	895.06
336.597	888.06
336.825	881.06
337.053	901.06
337.281	881.06
337.51	844.06
337.738	858.06
337.966	822.06
338.194	833.06
338.422	829.06
338.65	791.06
338.878	778.06
339.106	799.06
339.334	814.06
339.562	827.06
339.79	794.06
340.018	759.06
340.246	755.06
340.474	760.06
340.702	753.06
340.93	777.06
341.158	775.06
341.386	792.06
341.614	841.06
341.842	801.06
342.07	743.06
342.298	745.06
342.526	743.06
342.754	749.06
342.981	750.06
343.209	786.06
343.437	787.06
343.665	838.06
343.893	853.06
344.12	883.06
344.348	860.06
344.576	872.06
344.804	865.06
345.031	805.06
345.259	795.06
345.487	796.06
345.714	786.06
345.942	800.06
346.17	826.06
346.397	772.06
346.625	773.06
346.853	742.06
347.08	723.06
347.308	739.06
347.535	761.06
347.763	746.06
347.99	735.06
348.218	717.06
348.445	750.06
348.673	739.06
348.9	729.06
349.128	730.06
349.355	734.06
349.583	737.06
349.81	728.06
350.037	679.06
350.265	680.06
350.492	689.06
350.72	705.06
350.947	706.06
351.174	720.06
351.402	733.06
351.629	730.06
351.856	723.06
352.083	710.06
352.311	713.06
352.538	749.06
352.765	761.06
352.992	711.06
353.22	705.06
353.447	665.06
353.674	669.06
353.901	676.06
354.128	672.06
354.355	699.06
354.583	684.06
354.81	679.06
355.037	707.06
355.264	702.06
355.491	680.06
355.718	651.06
355.945	697.06
356.172	681.06
356.399	703.06
356.626	719.06
356.853	718.06
357.08	692.06
357.307	719.06
357.534	712.06
357.761	689.06
357.988	710.06
358.215	711.06
358.441	719.06
358.668	674.06
358.895	678.06
359.122	685.06
359.349	704.06
359.576	685.06
359.802	693.06
360.029	695.06
360.256	679.06
360.483	662.06
360.709	688.06
360.936	705.06
361.163	719.06
361.39	712.06
361.616	707.06
361.843	724.06
362.07	731.06
362.296	723.06
362.523	685.06
362.749	692.06
362.976	675.06
363.203	713.06
363.429	701.06
363.656	694.06
363.882	690.06
364.109	690.06
364.335	677.06
364.562	690.06
364.788	689.06
365.015	686.06
365.241	689.06
365.468	683.06
365.694	679.06
365.92	682.06
366.147	667.06
366.373	694.06
366.599	674.06
366.826	654.06
367.052	659.06
367.278	685.06
367.505	694.06
367.731	706.06
367.957	711.06
368.184	688.06
368.41	682.06
368.636	695.06
368.862	708.06
369.089	691.06
369.315	697.06
369.541	707.06
369.767	705.06
369.993	671.06
370.219	714.06
370.445	735.06
370.672	698.06
370.898	716.06
371.124	732.06
371.35	728.06
371.576	713.06
371.802	733.06
372.028	708.06
372.254	743.06
372.48	732.06
372.706	761.06
372.932	743.06
373.158	771.06
373.384	765.06
373.61	749.06
373.835	763.06
374.061	733.06
374.287	733.06
374.513	717.06
374.739	757.06
374.965	801.06
375.191	794.06
375.416	784.06
375.642	787.06
375.868	780.06
376.094	773.06
376.319	747.06
376.545	750.06
376.771	730.06
376.997	741.06
377.222	758.06
377.448	734.06
377.674	736.06
377.899	734.06
378.125	730.06
378.35	713.06
378.576	729.06
378.802	739.06
379.027	723.06
379.253	709.06
379.478	685.06
379.704	706.06
379.929	730.06
380.155	719.06
380.38	723.06
380.606	716.06
380.831	748.06
381.057	732.06
381.282	715.06
381.507	718.06
381.733	724.06
381.958	728.06
382.184	737.06
382.409	718.06
382.634	730.06
382.86	745.06
383.085	751.06
383.31	769.06
383.535	749.06
383.761	787.06
383.986	804.06
384.211	804.06
384.436	820.06
384.662	821.06
384.887	834.06
385.112	828.06
385.337	866.06
385.562	828.06
385.787	863.06
386.013	868.06
386.238	853.06
386.463	849.06
386.688	866.06
386.913	840.06
387.138	862.06
387.363	859.06
387.588	856.06
387.813	860.06
388.038	851.06
388.263	863.06
388.488	851.06
388.713	870.06
388.938	845.06
389.163	889.06
389.387	863.06
389.612	817.06
389.837	851.06
390.062	874.06
390.287	854.06
390.512	861.06
390.736	888.06
390.961	880.06
391.186	890.06
391.411	906.06
391.636	901.06
391.86	957.06
392.085	974.06
392.31	953.06
392.534	910.06
392.759	933.06
392.984	900.06
393.208	908.06
393.433	913.06
393.658	931.06
393.882	912.06
394.107	900.06
394.331	940.06
394.556	905.06
394.78	941.06
395.005	908.06
395.229	902.06
395.454	967.06
395.678	930.06
395.903	962.06
396.127	965.06
396.352	921.06
396.576	927.06
396.801	939.06
397.025	945.06
397.249	993.06
397.474	977.06
397.698	987.06
397.922	997.06
398.147	1002.06
398.371	1009.06
398.595	1047.06
398.82	1049.06
399.044	1118.06
399.268	1195.06
399.492	1317.06
399.717	1406.06
399.941	1437.06
400.165	1354.06
400.389	1244.06
400.613	1227.06
400.837	1201.06
401.062	1157.06
401.286	1117.06
401.51	1083.06
401.734	1070.06
401.958	1088.06
402.182	1080.06
402.406	1079.06
402.63	1103.06
402.854	1130.06
403.078	1100.06
403.302	1111.06
403.526	1146.06
403.75	1137.06
403.974	1108.06
404.198	1162.06
404.422	1203.06
404.645	1148.06
404.869	1159.06
405.093	1146.06
405.317	1153.06
405.541	1147.06
405.765	1174.06
405.988	1164.06
406.212	1153.06
406.436	1179.06
406.66	1204.06
406.883	1230.06
407.107	1290.06
407.331	1327.06
407.555	1361.06
407.778	1358.06
408.002	1299.06
408.226	1305.06
408.449	1272.06
408.673	1242.06
408.896	1233.06
409.12	1244.06
409.344	1209.06
409.567	1227.06
409.791	1222.06
410.014	1214.06
410.238	1194.06
410.461	1192.06
410.685	1194.06
410.908	1141.06
411.132	1207.06
411.355	1155.06
411.578	1123.06
411.802	1121.06
412.025	1111.06
412.249	1172.06
412.472	1154.06
412.695	1105.06
412.919	1098.06
413.142	1142.06
413.365	1080.06
413.589	1102.06
413.812	1096.06
414.035	1097.06
414.258	1097.06
414.482	1109.06
414.705	1080.06
414.928	1095.06
415.151	1109.06
415.374	1094.06
415.597	1086.06
415.821	1078.06
416.044	1059.06
416.267	1063.06
416.49	1062.06
416.713	1054.06
416.936	1063.06
417.159	1058.06
417.382	1061.06
417.605	1058.06
417.828	1053.06
418.051	1057.06
418.274	1068.06
418.497	1066.06
418.72	1113.06
418.943	1085.06
419.166	1129.06
419.389	1226.06
419.611	1194.06
419.834	1134.06
420.057	1122.06
420.28	1070.06
420.503	1039.06
420.726	1076.06
420.948	1059.06
421.171	1076.06
421.394	1095.06
421.617	1045.06
421.839	1096.06
422.062	1102.06
422.285	1038.06
422.507	1088.06
422.73	1084.06
422.953	1047.06
423.175	1097.06
423.398	1099.06
423.621	1099.06
423.843	1107.06
424.066	1085.06
424.288	1096.06
424.511	1059.06
424.733	1062.06
424.956	1075.06
425.178	1093.06
425.401	1074.06
425.623	1069.06
425.846	1053.06
426.068	1035.06
426.291	1048.06
426.513	1032.06
426.735	1023.06
426.958	1032.06
427.18	991.06
427.402	1025.06
427.625	1005.06
427.847	999.06
428.069	1016.06
428.292	1023.06
428.514	1004.06
428.736	1017.06
428.958	1021.06
429.181	1003.06
429.403	989.06
429.625	967.06
429.847	972.06
430.069	954.06
430.292	977.06
430.514	971.06
430.736	995.06
430.958	968.06
431.18	993.06
431.402	981.06
431.624	977.06
431.846	994.06
432.068	1009.06
432.29	1043.06
432.512	992.06
432.734	1038.06
432.956	1017.06
433.178	992.06
433.4	1015.06
433.622	995.06
433.844	1041.06
434.066	1023.06
434.287	1014.06
434.509	1047.06
434.731	1060.06
434.953	1091.06
435.175	1091.06
435.397	1110.06
435.618	1060.06
435.84	1030.06
436.062	1010.06
436.284	999.06
436.505	1003.06
436.727	996.06
436.949	993.06
437.17	1002.06
437.392	981.06
437.614	994.06
437.835	955.06
438.057	971.06
438.278	955.06
438.5	954.06
438.721	959.06
438.943	1006.06
439.165	972.06
439.386	955.06
439.608	982.06
439.829	990.06
440.05	970.06
440.272	1002.06
440.493	1039.06
440.715	1061.06
440.936	1021.06
441.158	1031.06
441.379	1076.06
441.6	1082.06
441.822	1103.06
442.043	1092.06
442.264	1076.06
442.486	1057.06
442.707	1070.06
442.928	1080.06
443.149	1088.06
443.371	1058.06
443.592	1119.06
443.813	1141.06
444.034	1118.06
444.255	1141.06
444.476	1180.06
444.698	1224.06
444.919	1197.06
445.14	1263.06
445.361	1210.06
445.582	1141.06
445.803	1094.06
446.024	1031.06
446.245	1099.06
446.466	1038.06
446.687	996.06
446.908	997.06
447.129	981.06
447.35	992.06
447.571	995.06
447.792	955.06
448.013	945.06
448.234	961.06
448.455	934.06
448.675	965.06
448.896	945.06
449.117	932.06
449.338	923.06
449.559	925.06
449.779	925.06
450	918.06
450.221	918.06
450.442	930.06
450.662	922.06
450.883	940.06
451.104	975.06
451.324	943.06
451.545	919.06
451.766	957.06
451.986	932.06
452.207	933.06
452.428	884.06
452.648	903.06
452.869	892.06
453.089	898.06
453.31	901.06
453.53	879.06
453.751	891.06
453.971	875.06
454.192	891.06
454.412	897.06
454.633	907.06
454.853	871.06
455.073	889.06
455.294	885.06
455.514	886.06
455.734	886.06
455.955	873.06
456.175	873.06
456.395	873.06
456.616	858.06
456.836	871.06
457.056	883.06
457.276	839.06
457.497	901.06
457.717	901.06
457.937	889.06
458.157	887.06
458.377	906.06
458.598	922.06
458.818	939.06
459.038	974.06
459.258	974.06
459.478	1022.06
459.698	1081.06
459.918	1081.06
460.138	1109.06
460.358	1123.06
460.578	1151.06
460.798	1181.06
461.018	1179.06
461.238	1148.06
461.458	1178.06
461.678	1167.06
461.898	1172.06
462.118	1173.06
462.338	1257.06
462.558	1292.06
462.777	1291.06
462.997	1384.06
463.217	1395.06
463.437	1448.06
463.657	1403.06
463.876	1341.06
464.096	1365.06
464.316	1350.06
464.536	1323.06
464.755	1253.06
464.975	1251.06
465.195	1157.06
465.414	1153.06
465.634	1116.06
465.854	1075.06
466.073	1041.06
466.293	1005.06
466.512	1016.06
466.732	1009.06
466.951	1016.06
467.171	995.06
467.391	973.06
467.61	953.06
467.829	974.06
468.049	973.06
468.268	934.06
468.488	959.06
468.707	949.06
468.927	952.06
469.146	979.06
469.365	999.06
469.585	977.06
469.804	994.06
470.023	998.06
470.243	958.06
470.462	1007.06
470.681	990.06
470.901	1019.06
471.12	1000.06
471.339	985.06
471.558	963.06
471.777	964.06
471.997	974.06
472.216	966.06
472.435	951.06
472.654	942.06
472.873	911.06
473.092	912.06
473.311	917.06
473.53	945.06
473.749	925.06
473.968	904.06
474.187	915.06
474.406	937.06
474.625	946.06
474.844	941.06
475.063	945.06
475.282	976.06
475.501	938.06
475.72	951.06
475.939	972.06
476.158	984.06
476.377	952.06
476.596	968.06
476.814	977.06
477.033	981.06
477.252	1003.06
477.471	1029.06
477.69	1040.06
477.908	1055.06
478.127	1090.06
478.346	1077.06
478.564	1101.06
478.783	1127.06
479.002	1157.06
479.22	1159.06
479.439	1128.06
479.658	1118.06
479.876	1112.06
480.095	1133.06
480.313	1176.06
480.532	1177.06
480.751	1137.06
480.969	1129.06
481.188	1129.06
481.406	1112.06
481.624	1094.06
481.843	1077.06
482.061	1045.06
482.28	1032.06
482.498	1086.06
482.717	1069.06
482.935	1089.06
483.153	1097.06
483.372	1078.06
483.59	1121.06
483.808	1111.06
484.027	1093.06
484.245	1099.06
484.463	1105.06
484.681	1131.06
484.9	1108.06
485.118	1112.06
485.336	1134.06
485.554	1125.06
485.772	1142.06
485.99	1134.06
486.209	1130.06
486.427	1130.06
486.645	1153.06
486.863	1153.06
487.081	1152.06
487.299	1122.06
487.517	1130.06
487.735	1145.06
487.953	1153.06
488.171	1132.06
488.389	1134.06
488.607	1117.06
488.825	1089.06
489.043	1095.06
489.261	1100.06
489.479	1119.06
489.696	1116.06
489.914	1132.06
490.132	1129.06
490.35	1126.06
490.568	1155.06
490.786	1140.06
491.003	1149.06
491.221	1167.06
491.439	1170.06
491.657	1138.06
491.874	1151.06
492.092	1152.06
492.31	1147.06
492.527	1178.06
492.745	1180.06
492.963	1197.06
493.18	1158.06
493.398	1173.06
493.615	1238.06
493.833	1200.06
494.05	1185.06
494.268	1181.06
494.485	1198.06
494.703	1217.06
494.92	1204.06
495.138	1210.06
495.355	1213.06
495.573	1213.06
495.79	1230.06
496.008	1224.06
496.225	1212.06
496.442	1252.06
496.66	1265.06
496.877	1318.06
497.094	1344.06
497.312	1356.06
497.529	1335.06
497.746	1398.06
497.963	1409.06
498.181	1470.06
498.398	1541.06
498.615	1588.06
498.832	1698.06
499.049	1789.06
499.267	1899.06
499.484	2011.06
499.701	2185.06
499.918	2394.06
500.135	2562.06
500.352	2764.06
500.569	2775.06
500.786	2794.06
501.003	2691.06
501.22	2503.06
501.437	2325.06
501.654	2141.06
501.871	2034.06
502.088	1905.06
502.305	1825.06
502.522	1734.06
502.739	1638.06
502.956	1525.06
503.172	1509.06
503.389	1446.06
503.606	1413.06
503.823	1381.06
504.04	1389.06
504.256	1375.06
504.473	1363.06
504.69	1308.06
504.907	1322.06
505.123	1265.06
505.34	1253.06
505.557	1215.06
505.773	1170.06
505.99	1105.06
506.207	1134.06
506.423	1089.06
506.64	1107.06
506.856	1086.06
507.073	1079.06
507.289	1077.06
507.506	1036.06
507.722	1065.06
507.939	1046.06
508.155	994.06
508.372	1033.06
508.588	1022.06
508.805	1026.06
509.021	995.06
509.238	985.06
509.454	986.06
509.67	994.06
509.887	951.06
510.103	955.06
510.319	932.06
510.536	961.06
510.752	962.06
510.968	947.06
511.184	939.06
511.401	951.06
511.617	945.06
511.833	946.06
512.049	935.06
512.265	928.06
512.481	951.06
512.698	962.06
512.914	957.06
513.13	953.06
513.346	924.06
513.562	948.06
513.778	979.06
513.994	972.06
514.21	959.06
514.426	955.06
514.642	950.06
514.858	972.06
515.074	976.06
515.29	1010.06
515.506	964.06
515.721	1014.06
515.937	1007.06
516.153	1023.06
516.369	1059.06
516.585	1079.06
516.801	1094.06
517.016	1136.06
517.232	1162.06
517.448	1176.06
517.664	1187.06
517.879	1213.06
518.095	1223.06
518.311	1221.06
518.527	1170.06
518.742	1140.06
518.958	1110.06
519.173	1063.06
519.389	1058.06
519.605	1009.06
519.82	1011.06
520.036	974.06
520.251	997.06
520.467	984.06
520.682	930.06
520.898	942.06
521.113	916.06
521.329	927.06
521.544	911.06
521.76	918.06
521.975	905.06
522.19	859.06
522.406	877.06
522.621	874.06
522.836	901.06
523.052	890.06
523.267	864.06
523.482	865.06
523.698	896.06
523.913	849.06
524.128	882.06
524.343	871.06
524.559	855.06
524.774	851.06
524.989	850.06
525.204	861.06
525.419	860.06
525.634	869.06
525.849	850.06
526.064	841.06
526.28	848.06
526.495	828.06
526.71	841.06
526.925	836.06
527.14	837.06
527.355	838.06
527.57	841.06
527.785	857.06
527.999	827.06
528.214	851.06
528.429	838.06
528.644	849.06
528.859	830.06
529.074	846.06
529.289	855.06
529.503	828.06
529.718	846.06
529.933	836.06
530.148	841.06
530.363	831.06
530.577	833.06
530.792	806.06
531.007	805.06
531.221	821.06
531.436	843.06
531.651	840.06
531.865	830.06
532.08	830.06
532.295	837.06
532.509	843.06
532.724	813.06
532.938	815.06
533.153	828.06
533.367	831.06
533.582	809.06
533.796	828.06
534.011	818.06
534.225	802.06
534.44	787.06
534.654	781.06
534.868	801.06
535.083	793.06
535.297	804.06
535.511	823.06
535.726	795.06
535.94	797.06
536.154	783.06
536.369	790.06
536.583	778.06
536.797	778.06
537.011	777.06
537.225	772.06
537.44	748.06
537.654	734.06
537.868	744.06
538.082	765.06
538.296	745.06
538.51	769.06
538.724	753.06
538.938	743.06
539.153	765.06
539.367	777.06
539.581	747.06
539.795	727.06
540.009	769.06
540.222	735.06
540.436	737.06
540.65	747.06
540.864	750.06
541.078	771.06
541.292	763.06
541.506	746.06
541.72	766.06
541.934	759.06
542.147	763.06
542.361	744.06
542.575	713.06
542.789	722.06
543.002	744.06
543.216	761.06
543.43	723.06
543.644	710.06
543.857	731.06
544.071	774.06
544.285	723.06
544.498	738.06
544.712	738.06
544.925	758.06
545.139	759.06
545.352	759.06
545.566	779.06
545.779	773.06
545.993	761.06
546.206	761.06
546.42	769.06
546.633	739.06
546.847	767.06
547.06	787.06
547.274	765.06
547.487	769.06
547.7	786.06
547.914	787.06
548.127	742.06
548.34	764.06
548.554	751.06
548.767	759.06
548.98	758.06
549.193	736.06
549.407	765.06
549.62	757.06
549.833	760.06
550.046	767.06
550.259	751.06
550.473	759.06
550.686	742.06
550.899	757.06
551.112	746.06
551.325	739.06
551.538	749.06
551.751	743.06
551.964	742.06
552.177	770.06
552.39	753.06
552.603	779.06
552.816	780.06
553.029	801.06
553.242	831.06
553.455	818.06
553.667	814.06
553.88	793.06
554.093	803.06
554.306	778.06
554.519	728.06
554.732	766.06
554.944	733.06
555.157	722.06
555.37	710.06
555.583	726.06
555.795	723.06
556.008	687.06
556.221	677.06
556.433	690.06
556.646	691.06
556.859	682.06
557.071	679.06
557.284	676.06
557.496	657.06
557.709	673.06
557.921	650.06
558.134	665.06
558.346	660.06
558.559	665.06
558.771	657.06
558.984	634.06
559.196	631.06
559.409	631.06
559.621	632.06
559.833	631.06
560.046	640.06
560.258	633.06
560.47	637.06
560.683	639.06
560.895	619.06
561.107	641.06
561.32	620.06
561.532	625.06
561.744	625.06
561.956	638.06
562.168	627.06
562.381	636.06
562.593	647.06
562.805	622.06
563.017	657.06
563.229	619.06
563.441	652.06
563.653	645.06
563.865	639.06
564.077	656.06
564.289	661.06
564.501	650.06
564.713	694.06
564.925	680.06
565.137	710.06
565.349	713.06
565.561	721.06
565.773	751.06
565.985	764.06
566.197	793.06
566.408	849.06
566.62	867.06
566.832	908.06
567.044	925.06
567.255	925.06
567.467	942.06
567.679	963.06
567.891	997.06
568.102	1009.06
568.314	1000.06
568.526	923.06
568.737	865.06
568.949	801.06
569.161	782.06
569.372	699.06
569.584	702.06
569.795	713.06
570.007	651.06
570.218	647.06
570.43	656.06
570.641	651.06
570.853	606.06
571.064	635.06
571.276	629.06
571.487	593.06
571.698	582.06
571.91	590.06
572.121	591.06
572.333	589.06
572.544	540.06
572.755	547.06
572.966	515.06
573.178	542.06
573.389	525.06
573.6	543.06
573.811	522.06
574.023	521.06
574.234	521.06
574.445	535.06
574.656	509.06
574.867	515.06
575.078	502.06
575.289	525.06
575.501	512.06
575.712	514.06
575.923	499.06
576.134	489.06
576.345	505.06
576.556	475.06
576.767	475.06
576.978	485.06
577.188	482.06
577.399	496.06
577.61	502.06
577.821	460.06
578.032	455.06
578.243	465.06
578.454	468.06
578.665	486.06
578.875	470.06
579.086	449.06
579.297	457.06
579.508	463.06
579.718	441.06
579.929	448.06
580.14	463.06
580.35	422.06
580.561	457.06
580.772	440.06
580.982	463.06
581.193	429.06
581.403	443.06
581.614	439.06
581.825	433.06
582.035	440.06
582.246	441.06
582.456	436.06
582.667	423.06
582.877	410.06
583.087	431.06
583.298	438.06
583.508	421.06
583.719	428.06
583.929	419.06
584.139	431.06
584.35	432.06
584.56	429.06
584.77	420.06
584.981	422.06
585.191	411.06
585.401	410.06
585.611	416.06
585.821	403.06
586.032	419.06
586.242	420.06
586.452	420.06
586.662	419.06
586.872	429.06
587.082	410.06
587.292	420.06
587.502	423.06
587.713	421.06
587.923	442.06
588.133	423.06
588.343	411.06
588.553	424.06
588.762	427.06
588.972	433.06
589.182	461.06
589.392	474.06
589.602	445.06
589.812	468.06
590.022	469.06
590.232	438.06
590.441	421.06
590.651	417.06
590.861	423.06
591.071	418.06
591.281	409.06
591.49	411.06
591.7	448.06
591.91	417.06
592.119	439.06
592.329	451.06
592.539	446.06
592.748	446.06
592.958	468.06
593.167	474.06
593.377	464.06
593.587	500.06
593.796	473.06
594.006	484.06
594.215	481.06
594.424	495.06
594.634	491.06
594.843	454.06
595.053	438.06
595.262	435.06
595.472	430.06
595.681	429.06
595.89	414.06
596.1	418.06
596.309	411.06
596.518	411.06
596.727	385.06
596.937	371.06
597.146	389.06
597.355	360.06
597.564	393.06
597.774	374.06
597.983	367.06
598.192	345.06
598.401	369.06
598.61	372.06
598.819	351.06
599.028	358.06
599.237	388.06
599.446	349.06
599.655	360.06
599.864	349.06
600.073	341.06
600.282	338.06
600.491	320.06
600.7	339.06
600.909	335.06
601.118	348.06
601.327	341.06
601.536	344.06
601.745	331.06
601.953	339.06
602.162	329.06
602.371	332.06
602.58	347.06
602.789	334.06
602.997	333.06
603.206	315.06
603.415	332.06
603.623	330.06
603.832	317.06
604.041	308.06
604.249	329.06
604.458	329.06
604.666	316.06
604.875	324.06
605.084	311.06
605.292	302.06
605.501	343.06
605.709	311.06
605.918	320.06
606.126	299.06
606.334	314.06
606.543	316.06
606.751	306.06
606.96	322.06
607.168	308.06
607.376	300.06
607.585	313.06
607.793	312.06
608.001	320.06
608.21	327.06
608.418	294.06
608.626	297.06
608.834	311.06
609.043	318.06
609.251	326.06
609.459	303.06
609.667	308.06
609.875	291.06
610.083	300.06
610.291	305.06
610.499	286.06
610.707	303.06
610.916	297.06
611.124	293.06
611.332	290.06
611.54	281.06
611.748	310.06
611.955	296.06
612.163	298.06
612.371	297.06
612.579	290.06
612.787	306.06
612.995	290.06
613.203	293.06
613.411	282.06
613.618	291.06
613.826	279.06
614.034	284.06
614.242	278.06
614.449	308.06
614.657	316.06
614.865	278.06
615.072	295.06
615.28	264.06
615.488	260.06
615.695	285.06
615.903	276.06
616.111	271.06
616.318	289.06
616.526	283.06
616.733	299.06
616.941	296.06
617.148	270.06
617.356	279.06
617.563	299.06
617.771	292.06
617.978	292.06
618.185	283.06
618.393	284.06
618.6	271.06
618.807	281.06
619.015	301.06
619.222	285.06
619.429	291.06
619.637	269.06
619.844	291.06
620.051	278.06
620.258	279.06
620.466	271.06
620.673	269.06
620.88	258.06
621.087	238.06
621.294	270.06
621.501	271.06
621.708	267.06
621.915	270.06
622.122	265.06
622.329	265.06
622.536	284.06
622.743	266.06
622.95	266.06
623.157	269.06
623.364	263.06
623.571	255.06
623.778	276.06
623.985	274.06
624.192	278.06
624.399	251.06
624.606	259.06
624.812	239.06
625.019	247.06
625.226	255.06
625.433	244.06
625.639	261.06
625.846	253.06
626.053	260.06
626.259	248.06
626.466	241.06
626.673	261.06
626.879	243.06
627.086	243.06
627.293	237.06
627.499	250.06
627.706	230.06
627.912	243.06
628.119	239.06
628.325	245.06
628.532	255.06
628.738	244.06
628.945	235.06
629.151	245.06
629.357	263.06
629.564	239.06
629.77	220.06
629.976	226.06
630.183	227.06
630.389	250.06
630.595	236.06
630.802	243.06
631.008	225.06
631.214	223.06
631.42	219.06
631.627	235.06
631.833	246.06
632.039	231.06
632.245	223.06
632.451	219.06
632.657	213.06
632.863	220.06
633.069	210.06
633.275	227.06
633.481	217.06
633.688	211.06
633.893	227.06
634.099	210.06
634.305	211.06
634.511	214.06
634.717	214.06
634.923	220.06
635.129	217.06
635.335	221.06
635.541	224.06
635.747	203.06
635.952	217.06
636.158	224.06
636.364	221.06
636.57	224.06
636.775	217.06
636.981	220.06
637.187	222.06
637.392	218.06
637.598	212.06
637.804	220.06
638.009	215.06
638.215	225.06
638.421	219.06
638.626	218.06
638.832	221.06
639.037	210.06
639.243	200.06
639.448	197.06
639.654	217.06
639.859	199.06
640.065	211.06
640.27	199.06
640.475	204.06
640.681	190.06
640.886	197.06
641.091	201.06
641.297	210.06
641.502	203.06
641.707	205.06
641.913	210.06
642.118	195.06
642.323	209.06
642.528	184.06
642.733	196.06
642.939	193.06
643.144	200.06
643.349	204.06
643.554	200.06
643.759	189.06
643.964	197.06
644.169	206.06
644.374	204.06
644.579	207.06
644.784	216.06
644.989	201.06
645.194	182.06
645.399	193.06
645.604	187.06
645.809	197.06
646.014	183.06
646.219	189.06
646.423	183.06
646.628	195.06
646.833	192.06
647.038	193.06
647.243	211.06
647.447	175.06
647.652	210.06
647.857	191.06
648.062	211.06
648.266	186.06
648.471	206.06
648.676	189.06
648.88	190.06
649.085	189.06
649.289	193.06
649.494	203.06
649.698	174.06
649.903	189.06
650.107	185.06
650.312	189.06
650.516	183.06
650.721	179.06
650.925	166.06
651.13	182.06
651.334	175.06
651.539	181.06
651.743	175.06
651.947	183.06
652.152	183.06
652.356	173.06
652.56	180.06
652.764	168.06
652.969	177.06
653.173	179.06
653.377	184.06
653.581	168.06
653.785	164.06
653.99	159.06
654.194	169.06
654.398	153.06
654.602	149.06
654.806	166.06
655.01	161.06
655.214	174.06
655.418	152.06
655.622	170.06
655.826	158.06
656.03	159.06
656.234	156.06
656.438	166.06
656.642	169.06
656.846	163.06
657.049	153.06
657.253	153.06
657.457	130.06
657.661	131.06
657.865	137.06
658.068	134.06
658.272	131.06
658.476	128.06
658.68	121.06
658.883	123.06
659.087	108.06
659.291	108.06
659.494	113.06
659.698	108.06
659.901	101.06
660.105	110.06
660.309	105.06
660.512	99.06
660.716	102.06
660.919	102.06
661.123	94.06
661.326	93.06
661.53	97.06
661.733	97.06
661.936	96.06
662.14	92.06
662.343	86.06
662.546	86.06
662.75	77.06
662.953	101.06
663.156	95.06
663.36	85.06
663.563	86.06
663.766	83.06
663.969	83.06
664.173	108.06
664.376	100.06
664.579	81.06
664.782	69.06
664.985	77.06
665.188	101.06
665.391	72.06
665.594	85.06
665.797	88.06
666	87.06
666.203	87.06
666.406	87.06
666.609	89.06
666.812	73.06
667.015	76.06
667.218	93.06
667.421	76.06
667.624	87.06
667.827	98.06
668.03	67.06
668.232	73.06
668.435	77.06
668.638	83.06
668.841	71.06
669.043	89.06
669.246	89.06
669.449	85.06
669.651	89.06
669.854	88.06
670.057	76.06
670.259	93.06
670.462	95.06
670.665	80.06
670.867	91.06
671.07	78.06
671.272	85.06
671.475	95.06
671.677	95.06
671.88	78.06
672.082	84.06
672.284	90.06
672.487	86.06
672.689	92.06
672.892	90.06
