Data from NiCl2@0.0625M.TitratingCurve.Agarose3%dH2O.NegLispCup.LampEnergy10.LIBS07252019_HRD10591_18-34-24-576.txt Node
Date: Thu Jul 25 18:34:24 EDT 2019
User: cochatt
Spectrometer: HR+D1059
Trigger mode: 1
Integration Time (sec): 1.000000E-1
Scans to average: 1
Electric dark correction enabled: true
Nonlinearity correction enabled: false
Boxcar width: 0
XAxis mode: Wavelengths
Number of Pixels in Spectrum: 2048
>>>>>Begin Spectral Data<<<<<
223.165	-11.25
223.4	-11.25
223.635	-11.25
223.869	-24.25
224.104	-11.25
224.338	-15.25
224.573	-14.25
224.808	-8.25
225.042	-7.25
225.277	-3.25
225.511	-0.25
225.746	1.75
225.98	10.75
226.215	6.75
226.449	24.75
226.683	10.75
226.918	17.75
227.152	22.75
227.387	35.75
227.621	25.75
227.856	34.75
228.09	47.75
228.324	49.75
228.559	51.75
228.793	66.75
229.027	138.75
229.262	137.75
229.496	154.75
229.73	166.75
229.964	176.75
230.199	165.75
230.433	178.75
230.667	183.75
230.901	160.75
231.136	170.75
231.37	179.75
231.604	180.75
231.838	168.75
232.072	180.75
232.306	212.75
232.541	201.75
232.775	190.75
233.009	193.75
233.243	198.75
233.477	202.75
233.711	195.75
233.945	201.75
234.179	198.75
234.413	206.75
234.647	202.75
234.881	218.75
235.115	230.75
235.349	205.75
235.583	208.75
235.817	206.75
236.051	209.75
236.285	214.75
236.519	221.75
236.753	205.75
236.987	209.75
237.221	233.75
237.455	209.75
237.689	238.75
237.922	227.75
238.156	226.75
238.39	234.75
238.624	230.75
238.858	229.75
239.091	251.75
239.325	273.75
239.559	264.75
239.793	269.75
240.027	253.75
240.26	251.75
240.494	271.75
240.728	261.75
240.961	264.75
241.195	276.75
241.429	281.75
241.662	280.75
241.896	275.75
242.13	287.75
242.363	293.75
242.597	288.75
242.83	295.75
243.064	294.75
243.298	303.75
243.531	310.75
243.765	305.75
243.998	307.75
244.232	292.75
244.465	296.75
244.699	322.75
244.932	330.75
245.166	352.75
245.399	336.75
245.633	324.75
245.866	310.75
246.099	335.75
246.333	337.75
246.566	348.75
246.8	350.75
247.033	341.75
247.266	321.75
247.5	358.75
247.733	359.75
247.966	354.75
248.2	360.75
248.433	373.75
248.666	361.75
248.899	384.75
249.133	354.75
249.366	394.75
249.599	389.75
249.832	389.75
250.066	390.75
250.299	365.75
250.532	400.75
250.765	407.75
250.998	386.75
251.231	388.75
251.465	414.75
251.698	411.75
251.931	418.75
252.164	396.75
252.397	395.75
252.63	403.75
252.863	400.75
253.096	428.75
253.329	438.75
253.562	422.75
253.795	436.75
254.028	434.75
254.261	434.75
254.494	436.75
254.727	434.75
254.96	437.75
255.193	455.75
255.426	460.75
255.659	434.75
255.892	470.75
256.124	443.75
256.357	464.75
256.59	470.75
256.823	465.75
257.056	453.75
257.289	478.75
257.521	467.75
257.754	468.75
257.987	474.75
258.22	476.75
258.452	477.75
258.685	457.75
258.918	477.75
259.151	510.75
259.383	489.75
259.616	485.75
259.849	506.75
260.081	518.75
260.314	505.75
260.547	500.75
260.779	493.75
261.012	517.75
261.244	513.75
261.477	537.75
261.71	517.75
261.942	522.75
262.175	509.75
262.407	537.75
262.64	536.75
262.872	521.75
263.105	513.75
263.337	549.75
263.57	539.75
263.802	561.75
264.035	542.75
264.267	552.75
264.499	558.75
264.732	548.75
264.964	563.75
265.197	561.75
265.429	546.75
265.661	557.75
265.894	582.75
266.126	584.75
266.358	554.75
266.591	591.75
266.823	575.75
267.055	593.75
267.287	572.75
267.52	590.75
267.752	586.75
267.984	587.75
268.216	586.75
268.448	589.75
268.681	596.75
268.913	609.75
269.145	606.75
269.377	592.75
269.609	590.75
269.841	609.75
270.073	604.75
270.306	614.75
270.538	611.75
270.77	608.75
271.002	616.75
271.234	599.75
271.466	625.75
271.698	612.75
271.93	663.75
272.162	659.75
272.394	614.75
272.626	632.75
272.858	638.75
273.09	672.75
273.322	676.75
273.553	649.75
273.785	658.75
274.017	654.75
274.249	684.75
274.481	673.75
274.713	668.75
274.945	668.75
275.176	668.75
275.408	687.75
275.64	689.75
275.872	688.75
276.104	691.75
276.335	698.75
276.567	697.75
276.799	690.75
277.031	689.75
277.262	697.75
277.494	689.75
277.726	697.75
277.957	707.75
278.189	721.75
278.421	722.75
278.652	716.75
278.884	714.75
279.115	728.75
279.347	762.75
279.579	755.75
279.81	718.75
280.042	722.75
280.273	741.75
280.505	773.75
280.736	766.75
280.968	728.75
281.199	772.75
281.431	776.75
281.662	761.75
281.894	761.75
282.125	761.75
282.356	776.75
282.588	802.75
282.819	751.75
283.051	767.75
283.282	791.75
283.513	815.75
283.745	789.75
283.976	803.75
284.207	784.75
284.439	788.75
284.67	789.75
284.901	801.75
285.132	788.75
285.364	838.75
285.595	832.75
285.826	809.75
286.057	831.75
286.288	834.75
286.52	801.75
286.751	814.75
286.982	822.75
287.213	830.75
287.444	824.75
287.675	852.75
287.906	850.75
288.138	839.75
288.369	865.75
288.6	886.75
288.831	843.75
289.062	854.75
289.293	844.75
289.524	863.75
289.755	852.75
289.986	884.75
290.217	865.75
290.448	872.75
290.679	870.75
290.91	861.75
291.141	865.75
291.371	858.75
291.602	874.75
291.833	889.75
292.064	854.75
292.295	883.75
292.526	871.75
292.757	894.75
292.987	866.75
293.218	853.75
293.449	906.75
293.68	882.75
293.91	870.75
294.141	876.75
294.372	834.75
294.603	861.75
294.833	872.75
295.064	888.75
295.295	887.75
295.525	892.75
295.756	871.75
295.987	883.75
296.217	908.75
296.448	907.75
296.679	902.75
296.909	890.75
297.14	898.75
297.37	956.75
297.601	950.75
297.831	911.75
298.062	942.75
298.292	931.75
298.523	972.75
298.753	979.75
298.984	966.75
299.214	950.75
299.445	957.75
299.675	974.75
299.905	941.75
300.136	948.75
300.366	929.75
300.597	952.75
300.827	980.75
301.057	979.75
301.288	991.75
301.518	1014.75
301.748	993.75
301.979	1008.75
302.209	985.75
302.439	964.75
302.669	988.75
302.9	973.75
303.13	982.75
303.36	993.75
303.59	969.75
303.82	988.75
304.051	1019.75
304.281	1025.75
304.511	973.75
304.741	1005.75
304.971	1023.75
305.201	969.75
305.431	983.75
305.661	1030.75
305.891	980.75
306.121	973.75
306.352	985.75
306.582	994.75
306.812	966.75
307.042	1004.75
307.272	1015.75
307.502	983.75
307.731	992.75
307.961	981.75
308.191	968.75
308.421	989.75
308.651	960.75
308.881	978.75
309.111	1008.75
309.341	985.75
309.571	961.75
309.8	1031.75
310.03	1011.75
310.26	995.75
310.49	986.75
310.72	989.75
310.949	977.75
311.179	1007.75
311.409	989.75
311.639	1030.75
311.868	1007.75
312.098	1028.75
312.328	1034.75
312.557	1041.75
312.787	1038.75
313.017	1048.75
313.246	1035.75
313.476	1085.75
313.706	1056.75
313.935	1074.75
314.165	1078.75
314.394	1077.75
314.624	1046.75
314.853	1069.75
315.083	1040.75
315.312	1063.75
315.542	1070.75
315.771	1083.75
316.001	1071.75
316.23	1037.75
316.46	1053.75
316.689	1070.75
316.919	1083.75
317.148	1061.75
317.377	1074.75
317.607	1057.75
317.836	1024.75
318.065	1033.75
318.295	1062.75
318.524	1045.75
318.753	1047.75
318.983	1059.75
319.212	1030.75
319.441	1086.75
319.67	1072.75
319.9	1055.75
320.129	1061.75
320.358	1053.75
320.587	1051.75
320.816	1075.75
321.046	1057.75
321.275	1087.75
321.504	1053.75
321.733	1047.75
321.962	1072.75
322.191	1086.75
322.42	1056.75
322.649	1065.75
322.878	1089.75
323.108	1086.75
323.337	1087.75
323.566	1070.75
323.795	1076.75
324.024	1102.75
324.253	1091.75
324.482	1091.75
324.71	1097.75
324.939	1119.75
325.168	1103.75
325.397	1097.75
325.626	1151.75
325.855	1126.75
326.084	1108.75
326.313	1171.75
326.542	1149.75
326.77	1161.75
326.999	1160.75
327.228	1122.75
327.457	1152.75
327.686	1127.75
327.914	1143.75
328.143	1177.75
328.372	1159.75
328.6	1158.75
328.829	1155.75
329.058	1167.75
329.287	1141.75
329.515	1176.75
329.744	1175.75
329.972	1198.75
330.201	1180.75
330.43	1220.75
330.658	1183.75
330.887	1204.75
331.115	1207.75
331.344	1201.75
331.572	1193.75
331.801	1265.75
332.03	1277.75
332.258	1265.75
332.486	1301.75
332.715	1302.75
332.943	1378.75
333.172	1418.75
333.4	1441.75
333.629	1459.75
333.857	1499.75
334.085	1490.75
334.314	1473.75
334.542	1473.75
334.771	1491.75
334.999	1471.75
335.227	1457.75
335.455	1444.75
335.684	1406.75
335.912	1456.75
336.14	1428.75
336.369	1382.75
336.597	1404.75
336.825	1352.75
337.053	1362.75
337.281	1364.75
337.51	1353.75
337.738	1334.75
337.966	1283.75
338.194	1316.75
338.422	1269.75
338.65	1285.75
338.878	1286.75
339.106	1280.75
339.334	1258.75
339.562	1233.75
339.79	1221.75
340.018	1243.75
340.246	1241.75
340.474	1192.75
340.702	1212.75
340.93	1232.75
341.158	1214.75
341.386	1226.75
341.614	1217.75
341.842	1226.75
342.07	1210.75
342.298	1198.75
342.526	1200.75
342.754	1202.75
342.981	1235.75
343.209	1225.75
343.437	1285.75
343.665	1320.75
343.893	1404.75
344.12	1422.75
344.348	1393.75
344.576	1380.75
344.804	1312.75
345.031	1280.75
345.259	1224.75
345.487	1204.75
345.714	1208.75
345.942	1184.75
346.17	1189.75
346.397	1203.75
346.625	1167.75
346.853	1176.75
347.08	1176.75
347.308	1181.75
347.535	1163.75
347.763	1154.75
347.99	1153.75
348.218	1162.75
348.445	1175.75
348.673	1142.75
348.9	1160.75
349.128	1145.75
349.355	1156.75
349.583	1173.75
349.81	1146.75
350.037	1153.75
350.265	1141.75
350.492	1142.75
350.72	1126.75
350.947	1122.75
351.174	1131.75
351.402	1140.75
351.629	1124.75
351.856	1120.75
352.083	1121.75
352.311	1100.75
352.538	1111.75
352.765	1109.75
352.992	1136.75
353.22	1094.75
353.447	1084.75
353.674	1138.75
353.901	1102.75
354.128	1119.75
354.355	1118.75
354.583	1113.75
354.81	1125.75
355.037	1126.75
355.264	1112.75
355.491	1129.75
355.718	1123.75
355.945	1123.75
356.172	1134.75
356.399	1129.75
356.626	1153.75
356.853	1153.75
357.08	1130.75
357.307	1152.75
357.534	1132.75
357.761	1150.75
357.988	1130.75
358.215	1115.75
358.441	1112.75
358.668	1126.75
358.895	1121.75
359.122	1125.75
359.349	1137.75
359.576	1129.75
359.802	1110.75
360.029	1120.75
360.256	1142.75
360.483	1136.75
360.709	1132.75
360.936	1141.75
361.163	1116.75
361.39	1120.75
361.616	1106.75
361.843	1120.75
362.07	1119.75
362.296	1124.75
362.523	1095.75
362.749	1126.75
362.976	1105.75
363.203	1100.75
363.429	1139.75
363.656	1140.75
363.882	1149.75
364.109	1124.75
364.335	1110.75
364.562	1127.75
364.788	1116.75
365.015	1119.75
365.241	1119.75
365.468	1135.75
365.694	1112.75
365.92	1119.75
366.147	1111.75
366.373	1110.75
366.599	1104.75
366.826	1129.75
367.052	1114.75
367.278	1124.75
367.505	1130.75
367.731	1145.75
367.957	1130.75
368.184	1143.75
368.41	1140.75
368.636	1160.75
368.862	1164.75
369.089	1160.75
369.315	1136.75
369.541	1181.75
369.767	1183.75
369.993	1170.75
370.219	1152.75
370.445	1183.75
370.672	1202.75
370.898	1198.75
371.124	1166.75
371.35	1223.75
371.576	1222.75
371.802	1220.75
372.028	1193.75
372.254	1209.75
372.48	1233.75
372.706	1267.75
372.932	1277.75
373.158	1269.75
373.384	1279.75
373.61	1237.75
373.835	1253.75
374.061	1235.75
374.287	1229.75
374.513	1233.75
374.739	1256.75
374.965	1296.75
375.191	1310.75
375.416	1321.75
375.642	1318.75
375.868	1280.75
376.094	1287.75
376.319	1265.75
376.545	1252.75
376.771	1239.75
376.997	1203.75
377.222	1210.75
377.448	1233.75
377.674	1198.75
377.899	1214.75
378.125	1198.75
378.35	1183.75
378.576	1197.75
378.802	1213.75
379.027	1206.75
379.253	1200.75
379.478	1196.75
379.704	1210.75
379.929	1214.75
380.155	1207.75
380.38	1173.75
380.606	1196.75
380.831	1200.75
381.057	1246.75
381.282	1222.75
381.507	1218.75
381.733	1267.75
381.958	1234.75
382.184	1248.75
382.409	1285.75
382.634	1296.75
382.86	1276.75
383.085	1325.75
383.31	1312.75
383.535	1344.75
383.761	1329.75
383.986	1348.75
384.211	1376.75
384.436	1395.75
384.662	1402.75
384.887	1413.75
385.112	1426.75
385.337	1440.75
385.562	1432.75
385.787	1429.75
386.013	1424.75
386.238	1473.75
386.463	1478.75
386.688	1455.75
386.913	1440.75
387.138	1476.75
387.363	1470.75
387.588	1456.75
387.813	1432.75
388.038	1456.75
388.263	1463.75
388.488	1495.75
388.713	1440.75
388.938	1447.75
389.163	1428.75
389.387	1413.75
389.612	1435.75
389.837	1428.75
390.062	1453.75
390.287	1437.75
390.512	1434.75
390.736	1430.75
390.961	1472.75
391.186	1507.75
391.411	1552.75
391.636	1561.75
391.86	1568.75
392.085	1628.75
392.31	1564.75
392.534	1589.75
392.759	1548.75
392.984	1554.75
393.208	1553.75
393.433	1549.75
393.658	1534.75
393.882	1518.75
394.107	1526.75
394.331	1530.75
394.556	1523.75
394.78	1557.75
395.005	1584.75
395.229	1580.75
395.454	1594.75
395.678	1646.75
395.903	1627.75
396.127	1603.75
396.352	1589.75
396.576	1577.75
396.801	1574.75
397.025	1583.75
397.249	1598.75
397.474	1645.75
397.698	1649.75
397.922	1644.75
398.147	1607.75
398.371	1693.75
398.595	1747.75
398.82	1806.75
399.044	1880.75
399.268	2054.75
399.492	2256.75
399.717	2512.75
399.941	2538.75
400.165	2360.75
400.389	2206.75
400.613	2006.75
400.837	1940.75
401.062	1911.75
401.286	1858.75
401.51	1864.75
401.734	1821.75
401.958	1854.75
402.182	1840.75
402.406	1845.75
402.63	1876.75
402.854	1912.75
403.078	1910.75
403.302	1906.75
403.526	1962.75
403.75	1973.75
403.974	1982.75
404.198	1936.75
404.422	1977.75
404.645	2008.75
404.869	1985.75
405.093	1993.75
405.317	1973.75
405.541	1988.75
405.765	1932.75
405.988	1918.75
406.212	1980.75
406.436	2001.75
406.66	2053.75
406.883	2048.75
407.107	2182.75
407.331	2220.75
407.555	2245.75
407.778	2268.75
408.002	2216.75
408.226	2191.75
408.449	2201.75
408.673	2069.75
408.896	2048.75
409.12	2050.75
409.344	2061.75
409.567	2002.75
409.791	2002.75
410.014	2028.75
410.238	1989.75
410.461	1991.75
410.685	1942.75
410.908	1906.75
411.132	1914.75
411.355	1843.75
411.578	1883.75
411.802	1875.75
412.025	1870.75
412.249	1947.75
412.472	1956.75
412.695	1870.75
412.919	1816.75
413.142	1816.75
413.365	1845.75
413.589	1810.75
413.812	1822.75
414.035	1807.75
414.258	1810.75
414.482	1807.75
414.705	1813.75
414.928	1871.75
415.151	1800.75
415.374	1794.75
415.597	1759.75
415.821	1756.75
416.044	1738.75
416.267	1752.75
416.49	1745.75
416.713	1737.75
416.936	1767.75
417.159	1728.75
417.382	1728.75
417.605	1723.75
417.828	1737.75
418.051	1734.75
418.274	1754.75
418.497	1743.75
418.72	1773.75
418.943	1781.75
419.166	1887.75
419.389	2044.75
419.611	1979.75
419.834	1906.75
420.057	1829.75
420.28	1774.75
420.503	1751.75
420.726	1762.75
420.948	1736.75
421.171	1700.75
421.394	1749.75
421.617	1732.75
421.839	1712.75
422.062	1716.75
422.285	1703.75
422.507	1750.75
422.73	1744.75
422.953	1770.75
423.175	1798.75
423.398	1809.75
423.621	1812.75
423.843	1840.75
424.066	1801.75
424.288	1794.75
424.511	1802.75
424.733	1792.75
424.956	1769.75
425.178	1774.75
425.401	1737.75
425.623	1738.75
425.846	1681.75
426.068	1715.75
426.291	1732.75
426.513	1682.75
426.735	1654.75
426.958	1648.75
427.18	1611.75
427.402	1664.75
427.625	1640.75
427.847	1618.75
428.069	1618.75
428.292	1612.75
428.514	1601.75
428.736	1566.75
428.958	1586.75
429.181	1559.75
429.403	1557.75
429.625	1592.75
429.847	1580.75
430.069	1546.75
430.292	1538.75
430.514	1514.75
430.736	1571.75
430.958	1604.75
431.18	1570.75
431.402	1578.75
431.624	1577.75
431.846	1605.75
432.068	1613.75
432.29	1649.75
432.512	1572.75
432.734	1663.75
432.956	1593.75
433.178	1596.75
433.4	1627.75
433.622	1609.75
433.844	1632.75
434.066	1633.75
434.287	1664.75
434.509	1734.75
434.731	1784.75
434.953	1744.75
435.175	1788.75
435.397	1766.75
435.618	1677.75
435.84	1700.75
436.062	1638.75
436.284	1600.75
436.505	1646.75
436.727	1606.75
436.949	1575.75
437.17	1600.75
437.392	1557.75
437.614	1522.75
437.835	1519.75
438.057	1516.75
438.278	1517.75
438.5	1517.75
438.721	1544.75
438.943	1538.75
439.165	1505.75
439.386	1532.75
439.608	1594.75
439.829	1561.75
440.05	1536.75
440.272	1558.75
440.493	1574.75
440.715	1600.75
440.936	1626.75
441.158	1615.75
441.379	1688.75
441.6	1719.75
441.822	1696.75
442.043	1731.75
442.264	1693.75
442.486	1684.75
442.707	1762.75
442.928	1713.75
443.149	1667.75
443.371	1647.75
443.592	1718.75
443.813	1733.75
444.034	1752.75
444.255	1782.75
444.476	1832.75
444.698	1904.75
444.919	1932.75
445.14	2074.75
445.361	1877.75
445.582	1776.75
445.803	1705.75
446.024	1682.75
446.245	1671.75
446.466	1593.75
446.687	1568.75
446.908	1544.75
447.129	1536.75
447.35	1533.75
447.571	1512.75
447.792	1471.75
448.013	1465.75
448.234	1417.75
448.455	1482.75
448.675	1441.75
448.896	1438.75
449.117	1394.75
449.338	1399.75
449.559	1426.75
449.779	1366.75
450	1405.75
450.221	1391.75
450.442	1393.75
450.662	1390.75
450.883	1390.75
451.104	1446.75
451.324	1416.75
451.545	1406.75
451.766	1438.75
451.986	1390.75
452.207	1396.75
452.428	1397.75
452.648	1381.75
452.869	1384.75
453.089	1369.75
453.31	1375.75
453.53	1352.75
453.751	1358.75
453.971	1364.75
454.192	1373.75
454.412	1342.75
454.633	1334.75
454.853	1335.75
455.073	1330.75
455.294	1333.75
455.514	1304.75
455.734	1342.75
455.955	1326.75
456.175	1322.75
456.395	1316.75
456.616	1303.75
456.836	1308.75
457.056	1346.75
457.276	1287.75
457.497	1329.75
457.717	1342.75
457.937	1327.75
458.157	1364.75
458.377	1354.75
458.598	1394.75
458.818	1448.75
459.038	1446.75
459.258	1475.75
459.478	1578.75
459.698	1598.75
459.918	1641.75
460.138	1700.75
460.358	1748.75
460.578	1759.75
460.798	1749.75
461.018	1817.75
461.238	1803.75
461.458	1765.75
461.678	1792.75
461.898	1780.75
462.118	1792.75
462.338	1912.75
462.558	1974.75
462.777	2028.75
462.997	2121.75
463.217	2292.75
463.437	2293.75
463.657	2095.75
463.876	2085.75
464.096	2086.75
464.316	2004.75
464.536	1999.75
464.755	1988.75
464.975	1952.75
465.195	1840.75
465.414	1762.75
465.634	1680.75
465.854	1604.75
466.073	1590.75
466.293	1594.75
466.512	1539.75
466.732	1506.75
466.951	1486.75
467.171	1490.75
467.391	1523.75
467.61	1481.75
467.829	1473.75
468.049	1480.75
468.268	1434.75
468.488	1453.75
468.707	1406.75
468.927	1446.75
469.146	1435.75
469.365	1474.75
469.585	1443.75
469.804	1477.75
470.023	1485.75
470.243	1497.75
470.462	1523.75
470.681	1517.75
470.901	1503.75
471.12	1491.75
471.339	1483.75
471.558	1477.75
471.777	1496.75
471.997	1454.75
472.216	1445.75
472.435	1436.75
472.654	1444.75
472.873	1419.75
473.092	1392.75
473.311	1414.75
473.53	1404.75
473.749	1425.75
473.968	1408.75
474.187	1393.75
474.406	1415.75
474.625	1417.75
474.844	1423.75
475.063	1396.75
475.282	1415.75
475.501	1436.75
475.72	1440.75
475.939	1469.75
476.158	1501.75
476.377	1488.75
476.596	1474.75
476.814	1512.75
477.033	1531.75
477.252	1532.75
477.471	1572.75
477.69	1555.75
477.908	1612.75
478.127	1639.75
478.346	1675.75
478.564	1695.75
478.783	1748.75
479.002	1759.75
479.22	1782.75
479.439	1763.75
479.658	1796.75
479.876	1800.75
480.095	1809.75
480.313	1901.75
480.532	1872.75
480.751	1892.75
480.969	1893.75
481.188	1800.75
481.406	1744.75
481.624	1746.75
481.843	1757.75
482.061	1734.75
482.28	1755.75
482.498	1752.75
482.717	1741.75
482.935	1719.75
483.153	1752.75
483.372	1729.75
483.59	1733.75
483.808	1751.75
484.027	1785.75
484.245	1806.75
484.463	1757.75
484.681	1839.75
484.9	1870.75
485.118	1901.75
485.336	1910.75
485.554	1931.75
485.772	1967.75
485.99	1910.75
486.209	1924.75
486.427	1882.75
486.645	1910.75
486.863	1919.75
487.081	1881.75
487.299	1890.75
487.517	1870.75
487.735	1852.75
487.953	1863.75
488.171	1865.75
488.389	1844.75
488.607	1836.75
488.825	1815.75
489.043	1826.75
489.261	1819.75
489.479	1854.75
489.696	1788.75
489.914	1792.75
490.132	1833.75
490.35	1789.75
490.568	1797.75
490.786	1806.75
491.003	1782.75
491.221	1774.75
491.439	1821.75
491.657	1727.75
491.874	1766.75
492.092	1765.75
492.31	1755.75
492.527	1803.75
492.745	1799.75
492.963	1792.75
493.18	1836.75
493.398	1831.75
493.615	1813.75
493.833	1815.75
494.05	1811.75
494.268	1809.75
494.485	1818.75
494.703	1820.75
494.92	1807.75
495.138	1806.75
495.355	1829.75
495.573	1837.75
495.79	1840.75
496.008	1880.75
496.225	1862.75
496.442	1884.75
496.66	1917.75
496.877	1904.75
497.094	1987.75
497.312	2011.75
497.529	2022.75
497.746	2061.75
497.963	2145.75
498.181	2230.75
498.398	2284.75
498.615	2388.75
498.832	2593.75
499.049	2738.75
499.267	2916.75
499.484	3152.75
499.701	3446.75
499.918	3743.75
500.135	4068.75
500.352	4508.75
500.569	4589.75
500.786	4566.75
501.003	4318.75
501.22	4037.75
501.437	3612.75
501.654	3320.75
501.871	3109.75
502.088	2827.75
502.305	2681.75
502.522	2558.75
502.739	2442.75
502.956	2383.75
503.172	2255.75
503.389	2131.75
503.606	2084.75
503.823	2075.75
504.04	2036.75
504.256	2039.75
504.473	2095.75
504.69	2087.75
504.907	2048.75
505.123	1911.75
505.34	1861.75
505.557	1808.75
505.773	1765.75
505.99	1726.75
506.207	1632.75
506.423	1662.75
506.64	1606.75
506.856	1617.75
507.073	1605.75
507.289	1577.75
507.506	1577.75
507.722	1540.75
507.939	1517.75
508.155	1519.75
508.372	1512.75
508.588	1521.75
508.805	1527.75
509.021	1477.75
509.238	1510.75
509.454	1444.75
509.67	1406.75
509.887	1478.75
510.103	1440.75
510.319	1436.75
510.536	1434.75
510.752	1411.75
510.968	1450.75
511.184	1391.75
511.401	1446.75
511.617	1418.75
511.833	1415.75
512.049	1417.75
512.265	1401.75
512.481	1411.75
512.698	1421.75
512.914	1405.75
513.13	1418.75
513.346	1399.75
513.562	1396.75
513.778	1417.75
513.994	1405.75
514.21	1436.75
514.426	1433.75
514.642	1426.75
514.858	1446.75
515.074	1470.75
515.29	1496.75
515.506	1495.75
515.721	1541.75
515.937	1492.75
516.153	1532.75
516.369	1556.75
516.585	1616.75
516.801	1655.75
517.016	1704.75
517.232	1759.75
517.448	1816.75
517.664	1884.75
517.879	1857.75
518.095	1850.75
518.311	1812.75
518.527	1761.75
518.742	1738.75
518.958	1653.75
519.173	1615.75
519.389	1620.75
519.605	1522.75
519.82	1481.75
520.036	1492.75
520.251	1448.75
520.467	1460.75
520.682	1435.75
520.898	1356.75
521.113	1400.75
521.329	1400.75
521.544	1349.75
521.76	1369.75
521.975	1337.75
522.19	1374.75
522.406	1332.75
522.621	1338.75
522.836	1305.75
523.052	1341.75
523.267	1325.75
523.482	1321.75
523.698	1296.75
523.913	1302.75
524.128	1290.75
524.343	1273.75
524.559	1296.75
524.774	1245.75
524.989	1294.75
525.204	1303.75
525.419	1260.75
525.634	1244.75
525.849	1288.75
526.064	1279.75
526.28	1252.75
526.495	1222.75
526.71	1248.75
526.925	1221.75
527.14	1224.75
527.355	1234.75
527.57	1249.75
527.785	1228.75
527.999	1246.75
528.214	1235.75
528.429	1267.75
528.644	1247.75
528.859	1221.75
529.074	1225.75
529.289	1256.75
529.503	1232.75
529.718	1253.75
529.933	1225.75
530.148	1235.75
530.363	1244.75
530.577	1267.75
530.792	1220.75
531.007	1250.75
531.221	1265.75
531.436	1234.75
531.651	1238.75
531.865	1243.75
532.08	1182.75
532.295	1244.75
532.509	1200.75
532.724	1258.75
532.938	1264.75
533.153	1200.75
533.367	1234.75
533.582	1221.75
533.796	1233.75
534.011	1223.75
534.225	1206.75
534.44	1207.75
534.654	1215.75
534.868	1208.75
535.083	1162.75
535.297	1197.75
535.511	1168.75
535.726	1159.75
535.94	1200.75
536.154	1191.75
536.369	1135.75
536.583	1148.75
536.797	1157.75
537.011	1168.75
537.225	1137.75
537.44	1134.75
537.654	1144.75
537.868	1120.75
538.082	1122.75
538.296	1132.75
538.51	1152.75
538.724	1143.75
538.938	1109.75
539.153	1118.75
539.367	1098.75
539.581	1096.75
539.795	1086.75
540.009	1092.75
540.222	1099.75
540.436	1078.75
540.65	1083.75
540.864	1096.75
541.078	1091.75
541.292	1088.75
541.506	1096.75
541.72	1068.75
541.934	1103.75
542.147	1116.75
542.361	1091.75
542.575	1078.75
542.789	1052.75
543.002	1084.75
543.216	1087.75
543.43	1066.75
543.644	1112.75
543.857	1063.75
544.071	1053.75
544.285	1065.75
544.498	1088.75
544.712	1082.75
544.925	1083.75
545.139	1093.75
545.352	1114.75
545.566	1100.75
545.779	1091.75
545.993	1088.75
546.206	1092.75
546.42	1101.75
546.633	1091.75
546.847	1134.75
547.06	1082.75
547.274	1101.75
547.487	1106.75
547.7	1102.75
547.914	1090.75
548.127	1132.75
548.34	1112.75
548.554	1163.75
548.767	1133.75
548.98	1116.75
549.193	1116.75
549.407	1098.75
549.62	1117.75
549.833	1145.75
550.046	1104.75
550.259	1106.75
550.473	1089.75
550.686	1087.75
550.899	1093.75
551.112	1068.75
551.325	1082.75
551.538	1085.75
551.751	1094.75
551.964	1090.75
552.177	1105.75
552.39	1130.75
552.603	1120.75
552.816	1136.75
553.029	1173.75
553.242	1190.75
553.455	1175.75
553.667	1175.75
553.88	1171.75
554.093	1137.75
554.306	1126.75
554.519	1119.75
554.732	1092.75
554.944	1088.75
555.157	1069.75
555.37	1050.75
555.583	1033.75
555.795	1040.75
556.008	984.75
556.221	976.75
556.433	974.75
556.646	978.75
556.859	967.75
557.071	971.75
557.284	959.75
557.496	933.75
557.709	948.75
557.921	944.75
558.134	945.75
558.346	941.75
558.559	954.75
558.771	939.75
558.984	932.75
559.196	914.75
559.409	928.75
559.621	941.75
559.833	921.75
560.046	903.75
560.258	916.75
560.47	922.75
560.683	902.75
560.895	933.75
561.107	920.75
561.32	911.75
561.532	903.75
561.744	918.75
561.956	909.75
562.168	902.75
562.381	895.75
562.593	912.75
562.805	914.75
563.017	898.75
563.229	914.75
563.441	895.75
563.653	935.75
563.865	925.75
564.077	953.75
564.289	953.75
564.501	961.75
564.713	987.75
564.925	1014.75
565.137	1024.75
565.349	1019.75
565.561	1072.75
565.773	1085.75
565.985	1129.75
566.197	1169.75
566.408	1258.75
566.62	1300.75
566.832	1400.75
567.044	1443.75
567.255	1425.75
567.467	1470.75
567.679	1550.75
567.891	1576.75
568.102	1593.75
568.314	1505.75
568.526	1385.75
568.737	1301.75
568.949	1256.75
569.161	1140.75
569.372	1109.75
569.584	1040.75
569.795	1012.75
570.007	992.75
570.218	936.75
570.43	929.75
570.641	953.75
570.853	934.75
571.064	922.75
571.276	927.75
571.487	922.75
571.698	873.75
571.91	858.75
572.121	836.75
572.333	840.75
572.544	826.75
572.755	782.75
572.966	818.75
573.178	741.75
573.389	769.75
573.6	772.75
573.811	735.75
574.023	730.75
574.234	765.75
574.445	728.75
574.656	757.75
574.867	747.75
575.078	734.75
575.289	728.75
575.501	725.75
575.712	722.75
575.923	698.75
576.134	712.75
576.345	685.75
576.556	694.75
576.767	681.75
576.978	704.75
577.188	678.75
577.399	679.75
577.61	701.75
577.821	692.75
578.032	696.75
578.243	666.75
578.454	633.75
578.665	668.75
578.875	655.75
579.086	639.75
579.297	638.75
579.508	666.75
579.718	655.75
579.929	663.75
580.14	632.75
580.35	634.75
580.561	644.75
580.772	656.75
580.982	646.75
581.193	622.75
581.403	634.75
581.614	593.75
581.825	625.75
582.035	638.75
582.246	611.75
582.456	600.75
582.667	613.75
582.877	626.75
583.087	641.75
583.298	634.75
583.508	592.75
583.719	606.75
583.929	604.75
584.139	622.75
584.35	611.75
584.56	616.75
584.77	603.75
584.981	618.75
585.191	610.75
585.401	596.75
585.611	600.75
585.821	620.75
586.032	592.75
586.242	609.75
586.452	588.75
586.662	605.75
586.872	582.75
587.082	577.75
587.292	595.75
587.502	601.75
587.713	593.75
587.923	591.75
588.133	567.75
588.343	577.75
588.553	599.75
588.762	581.75
588.972	568.75
589.182	594.75
589.392	613.75
589.602	583.75
589.812	598.75
590.022	607.75
590.232	587.75
590.441	595.75
590.651	599.75
590.861	610.75
591.071	596.75
591.281	591.75
591.49	632.75
591.7	625.75
591.91	627.75
592.119	613.75
592.329	641.75
592.539	664.75
592.748	669.75
592.958	672.75
593.167	715.75
593.377	705.75
593.587	708.75
593.796	706.75
594.006	732.75
594.215	735.75
594.424	723.75
594.634	679.75
594.843	687.75
595.053	665.75
595.262	635.75
595.472	643.75
595.681	592.75
595.89	600.75
596.1	594.75
596.309	565.75
596.518	585.75
596.727	564.75
596.937	562.75
597.146	537.75
597.355	527.75
597.564	518.75
597.774	529.75
597.983	515.75
598.192	508.75
598.401	508.75
598.61	524.75
598.819	515.75
599.028	506.75
599.237	516.75
599.446	484.75
599.655	492.75
599.864	508.75
600.073	503.75
600.282	485.75
600.491	477.75
600.7	494.75
600.909	520.75
601.118	489.75
601.327	485.75
601.536	491.75
601.745	468.75
601.953	480.75
602.162	471.75
602.371	463.75
602.58	472.75
602.789	484.75
602.997	460.75
603.206	469.75
603.415	457.75
603.623	454.75
603.832	434.75
604.041	454.75
604.249	448.75
604.458	448.75
604.666	449.75
604.875	451.75
605.084	430.75
605.292	427.75
605.501	449.75
605.709	464.75
605.918	430.75
606.126	447.75
606.334	447.75
606.543	437.75
606.751	433.75
606.96	435.75
607.168	435.75
607.376	428.75
607.585	449.75
607.793	442.75
608.001	426.75
608.21	425.75
608.418	441.75
608.626	435.75
608.834	464.75
609.043	430.75
609.251	398.75
609.459	418.75
609.667	413.75
609.875	423.75
610.083	437.75
610.291	448.75
610.499	402.75
610.707	401.75
610.916	410.75
611.124	421.75
611.332	420.75
611.54	401.75
611.748	417.75
611.955	424.75
612.163	420.75
612.371	403.75
612.579	405.75
612.787	441.75
612.995	409.75
613.203	414.75
613.411	423.75
613.618	414.75
613.826	413.75
614.034	419.75
614.242	416.75
614.449	398.75
614.657	416.75
614.865	389.75
615.072	421.75
615.28	406.75
615.488	385.75
615.695	412.75
615.903	390.75
616.111	421.75
616.318	408.75
616.526	412.75
616.733	406.75
616.941	432.75
617.148	412.75
617.356	397.75
617.563	438.75
617.771	432.75
617.978	398.75
618.185	411.75
618.393	414.75
618.6	407.75
618.807	414.75
619.015	410.75
619.222	393.75
619.429	428.75
619.637	398.75
619.844	386.75
620.051	395.75
620.258	391.75
620.466	376.75
620.673	376.75
620.88	371.75
621.087	405.75
621.294	389.75
621.501	388.75
621.708	364.75
621.915	386.75
622.122	376.75
622.329	358.75
622.536	394.75
622.743	376.75
622.95	355.75
623.157	355.75
623.364	357.75
623.571	353.75
623.778	371.75
623.985	366.75
624.192	352.75
624.399	365.75
624.606	358.75
624.812	368.75
625.019	349.75
625.226	354.75
625.433	370.75
625.639	358.75
625.846	366.75
626.053	332.75
626.259	347.75
626.466	337.75
626.673	351.75
626.879	342.75
627.086	352.75
627.293	331.75
627.499	337.75
627.706	338.75
627.912	342.75
628.119	320.75
628.325	344.75
628.532	330.75
628.738	348.75
628.945	349.75
629.151	337.75
629.357	333.75
629.564	318.75
629.77	313.75
629.976	309.75
630.183	335.75
630.389	309.75
630.595	329.75
630.802	317.75
631.008	310.75
631.214	319.75
631.42	328.75
631.627	313.75
631.833	310.75
632.039	317.75
632.245	303.75
632.451	306.75
632.657	301.75
632.863	312.75
633.069	305.75
633.275	318.75
633.481	306.75
633.688	291.75
633.893	280.75
634.099	307.75
634.305	293.75
634.511	313.75
634.717	302.75
634.923	299.75
635.129	303.75
635.335	307.75
635.541	286.75
635.747	302.75
635.952	278.75
636.158	290.75
636.364	281.75
636.57	288.75
636.775	286.75
636.981	292.75
637.187	287.75
637.392	288.75
637.598	284.75
637.804	305.75
638.009	283.75
638.215	280.75
638.421	281.75
638.626	273.75
638.832	285.75
639.037	296.75
639.243	277.75
639.448	280.75
639.654	288.75
639.859	281.75
640.065	288.75
640.27	281.75
640.475	258.75
640.681	252.75
640.886	291.75
641.091	281.75
641.297	295.75
641.502	268.75
641.707	244.75
641.913	264.75
642.118	264.75
642.323	277.75
642.528	282.75
642.733	264.75
642.939	272.75
643.144	294.75
643.349	266.75
643.554	274.75
643.759	286.75
643.964	272.75
644.169	258.75
644.374	280.75
644.579	272.75
644.784	267.75
644.989	281.75
645.194	267.75
645.399	272.75
645.604	256.75
645.809	270.75
646.014	272.75
646.219	289.75
646.423	274.75
646.628	258.75
646.833	280.75
647.038	286.75
647.243	281.75
647.447	286.75
647.652	305.75
647.857	282.75
648.062	309.75
648.266	313.75
648.471	309.75
648.676	295.75
648.88	300.75
649.085	282.75
649.289	295.75
649.494	291.75
649.698	294.75
649.903	267.75
650.107	282.75
650.312	290.75
650.516	289.75
650.721	272.75
650.925	278.75
651.13	268.75
651.334	268.75
651.539	248.75
651.743	273.75
651.947	264.75
652.152	270.75
652.356	267.75
652.56	258.75
652.764	262.75
652.969	254.75
653.173	267.75
653.377	268.75
653.581	255.75
653.785	260.75
653.99	265.75
654.194	264.75
654.398	290.75
654.602	281.75
654.806	275.75
655.01	281.75
655.214	267.75
655.418	291.75
655.622	323.75
655.826	321.75
656.03	346.75
656.234	354.75
656.438	401.75
656.642	384.75
656.846	376.75
657.049	332.75
657.253	297.75
657.457	270.75
657.661	242.75
657.865	213.75
658.068	210.75
658.272	196.75
658.476	176.75
658.68	172.75
658.883	162.75
659.087	142.75
659.291	146.75
659.494	137.75
659.698	129.75
659.901	117.75
660.105	110.75
660.309	123.75
660.512	132.75
660.716	117.75
660.919	106.75
661.123	110.75
661.326	110.75
661.53	109.75
661.733	112.75
661.936	90.75
662.14	84.75
662.343	85.75
662.546	96.75
662.75	76.75
662.953	95.75
663.156	82.75
663.36	90.75
663.563	82.75
663.766	78.75
663.969	81.75
664.173	87.75
664.376	82.75
664.579	88.75
664.782	78.75
664.985	89.75
665.188	89.75
665.391	90.75
665.594	86.75
665.797	79.75
666	68.75
666.203	70.75
666.406	86.75
666.609	73.75
666.812	84.75
667.015	78.75
667.218	86.75
667.421	69.75
667.624	85.75
667.827	97.75
668.03	76.75
668.232	64.75
668.435	69.75
668.638	62.75
668.841	78.75
669.043	75.75
669.246	88.75
669.449	88.75
669.651	82.75
669.854	76.75
670.057	78.75
670.259	74.75
670.462	72.75
670.665	74.75
670.867	74.75
671.07	83.75
671.272	84.75
671.475	83.75
671.677	69.75
671.88	70.75
672.082	71.75
672.284	83.75
672.487	94.75
672.689	68.75
672.892	79.75
