Data from NiCl2@0.25M.TitratingCurve.Agarose3%dH2O.NegLispCup.LampEnergy10.LIBS07252019_HRD10591_18-23-57-573.txt Node
Date: Thu Jul 25 18:23:57 EDT 2019
User: cochatt
Spectrometer: HR+D1059
Trigger mode: 1
Integration Time (sec): 1.000000E-1
Scans to average: 1
Electric dark correction enabled: true
Nonlinearity correction enabled: false
Boxcar width: 0
XAxis mode: Wavelengths
Number of Pixels in Spectrum: 2048
>>>>>Begin Spectral Data<<<<<
223.165	-21.94
223.4	-21.94
223.635	-21.94
223.869	-29.94
224.104	-13.94
224.338	-14.94
224.573	-18.94
224.808	-16.94
225.042	-1.94
225.277	-16.94
225.511	-1.94
225.746	2.06
225.98	17.06
226.215	8.06
226.449	23.06
226.683	23.06
226.918	34.06
227.152	30.06
227.387	29.06
227.621	31.06
227.856	39.06
228.09	41.06
228.324	57.06
228.559	62.06
228.793	70.06
229.027	105.06
229.262	127.06
229.496	119.06
229.73	129.06
229.964	125.06
230.199	124.06
230.433	134.06
230.667	151.06
230.901	147.06
231.136	152.06
231.37	159.06
231.604	152.06
231.838	152.06
232.072	151.06
232.306	154.06
232.541	168.06
232.775	184.06
233.009	164.06
233.243	177.06
233.477	159.06
233.711	167.06
233.945	166.06
234.179	187.06
234.413	175.06
234.647	157.06
234.881	174.06
235.115	167.06
235.349	168.06
235.583	170.06
235.817	160.06
236.051	185.06
236.285	175.06
236.519	188.06
236.753	183.06
236.987	178.06
237.221	194.06
237.455	188.06
237.689	179.06
237.922	199.06
238.156	184.06
238.39	198.06
238.624	197.06
238.858	185.06
239.091	203.06
239.325	194.06
239.559	203.06
239.793	200.06
240.027	212.06
240.26	206.06
240.494	212.06
240.728	212.06
240.961	219.06
241.195	212.06
241.429	223.06
241.662	205.06
241.896	232.06
242.13	205.06
242.363	239.06
242.597	246.06
242.83	226.06
243.064	221.06
243.298	236.06
243.531	262.06
243.765	235.06
243.998	240.06
244.232	262.06
244.465	241.06
244.699	245.06
244.932	261.06
245.166	251.06
245.399	261.06
245.633	260.06
245.866	256.06
246.099	252.06
246.333	274.06
246.566	268.06
246.8	259.06
247.033	270.06
247.266	272.06
247.5	263.06
247.733	272.06
247.966	266.06
248.2	283.06
248.433	299.06
248.666	280.06
248.899	280.06
249.133	280.06
249.366	276.06
249.599	304.06
249.832	304.06
250.066	285.06
250.299	312.06
250.532	284.06
250.765	311.06
250.998	305.06
251.231	304.06
251.465	303.06
251.698	321.06
251.931	310.06
252.164	315.06
252.397	312.06
252.63	323.06
252.863	325.06
253.096	339.06
253.329	328.06
253.562	327.06
253.795	337.06
254.028	336.06
254.261	347.06
254.494	329.06
254.727	357.06
254.96	319.06
255.193	353.06
255.426	362.06
255.659	353.06
255.892	354.06
256.124	372.06
256.357	358.06
256.59	371.06
256.823	345.06
257.056	351.06
257.289	370.06
257.521	365.06
257.754	375.06
257.987	362.06
258.22	367.06
258.452	362.06
258.685	367.06
258.918	358.06
259.151	383.06
259.383	396.06
259.616	380.06
259.849	370.06
260.081	379.06
260.314	381.06
260.547	390.06
260.779	381.06
261.012	384.06
261.244	386.06
261.477	401.06
261.71	383.06
261.942	390.06
262.175	390.06
262.407	392.06
262.64	382.06
262.872	401.06
263.105	426.06
263.337	425.06
263.57	409.06
263.802	417.06
264.035	417.06
264.267	420.06
264.499	405.06
264.732	419.06
264.964	422.06
265.197	411.06
265.429	434.06
265.661	427.06
265.894	433.06
266.126	439.06
266.358	433.06
266.591	424.06
266.823	437.06
267.055	439.06
267.287	443.06
267.52	453.06
267.752	460.06
267.984	444.06
268.216	453.06
268.448	451.06
268.681	452.06
268.913	452.06
269.145	448.06
269.377	469.06
269.609	463.06
269.841	450.06
270.073	448.06
270.306	471.06
270.538	456.06
270.77	463.06
271.002	460.06
271.234	477.06
271.466	473.06
271.698	462.06
271.93	473.06
272.162	473.06
272.394	482.06
272.626	463.06
272.858	490.06
273.09	485.06
273.322	490.06
273.553	476.06
273.785	474.06
274.017	495.06
274.249	525.06
274.481	492.06
274.713	501.06
274.945	495.06
275.176	499.06
275.408	507.06
275.64	511.06
275.872	519.06
276.104	522.06
276.335	508.06
276.567	539.06
276.799	512.06
277.031	531.06
277.262	537.06
277.494	513.06
277.726	514.06
277.957	548.06
278.189	535.06
278.421	530.06
278.652	532.06
278.884	538.06
279.115	561.06
279.347	560.06
279.579	554.06
279.81	551.06
280.042	550.06
280.273	564.06
280.505	569.06
280.736	527.06
280.968	552.06
281.199	580.06
281.431	581.06
281.662	579.06
281.894	600.06
282.125	584.06
282.356	579.06
282.588	590.06
282.819	603.06
283.051	600.06
283.282	584.06
283.513	592.06
283.745	593.06
283.976	593.06
284.207	618.06
284.439	617.06
284.67	607.06
284.901	613.06
285.132	598.06
285.364	609.06
285.595	615.06
285.826	593.06
286.057	625.06
286.288	615.06
286.52	592.06
286.751	618.06
286.982	630.06
287.213	635.06
287.444	643.06
287.675	632.06
287.906	623.06
288.138	637.06
288.369	625.06
288.6	624.06
288.831	649.06
289.062	642.06
289.293	638.06
289.524	649.06
289.755	652.06
289.986	637.06
290.217	628.06
290.448	650.06
290.679	647.06
290.91	656.06
291.141	652.06
291.371	648.06
291.602	662.06
291.833	637.06
292.064	666.06
292.295	659.06
292.526	657.06
292.757	670.06
292.987	681.06
293.218	651.06
293.449	671.06
293.68	663.06
293.91	642.06
294.141	681.06
294.372	648.06
294.603	666.06
294.833	660.06
295.064	669.06
295.295	673.06
295.525	654.06
295.756	664.06
295.987	651.06
296.217	693.06
296.448	685.06
296.679	694.06
296.909	673.06
297.14	700.06
297.37	685.06
297.601	691.06
297.831	701.06
298.062	699.06
298.292	696.06
298.523	720.06
298.753	717.06
298.984	710.06
299.214	730.06
299.445	719.06
299.675	715.06
299.905	726.06
300.136	703.06
300.366	739.06
300.597	732.06
300.827	748.06
301.057	743.06
301.288	792.06
301.518	757.06
301.748	747.06
301.979	772.06
302.209	773.06
302.439	776.06
302.669	766.06
302.9	748.06
303.13	763.06
303.36	758.06
303.59	771.06
303.82	760.06
304.051	747.06
304.281	727.06
304.511	757.06
304.741	747.06
304.971	725.06
305.201	759.06
305.431	768.06
305.661	760.06
305.891	715.06
306.121	751.06
306.352	733.06
306.582	731.06
306.812	716.06
307.042	737.06
307.272	713.06
307.502	717.06
307.731	738.06
307.961	722.06
308.191	724.06
308.421	740.06
308.651	731.06
308.881	730.06
309.111	752.06
309.341	727.06
309.571	712.06
309.8	746.06
310.03	738.06
310.26	737.06
310.49	751.06
310.72	751.06
310.949	731.06
311.179	753.06
311.409	732.06
311.639	751.06
311.868	764.06
312.098	743.06
312.328	785.06
312.557	777.06
312.787	786.06
313.017	781.06
313.246	793.06
313.476	783.06
313.706	780.06
313.935	780.06
314.165	779.06
314.394	810.06
314.624	798.06
314.853	797.06
315.083	771.06
315.312	789.06
315.542	793.06
315.771	800.06
316.001	744.06
316.23	760.06
316.46	809.06
316.689	771.06
316.919	771.06
317.148	767.06
317.377	771.06
317.607	779.06
317.836	786.06
318.065	757.06
318.295	771.06
318.524	769.06
318.753	755.06
318.983	767.06
319.212	743.06
319.441	757.06
319.67	793.06
319.9	804.06
320.129	788.06
320.358	792.06
320.587	790.06
320.816	794.06
321.046	767.06
321.275	785.06
321.504	774.06
321.733	795.06
321.962	764.06
322.191	780.06
322.42	793.06
322.649	795.06
322.878	781.06
323.108	792.06
323.337	817.06
323.566	806.06
323.795	813.06
324.024	800.06
324.253	802.06
324.482	808.06
324.71	809.06
324.939	813.06
325.168	817.06
325.397	828.06
325.626	836.06
325.855	836.06
326.084	824.06
326.313	859.06
326.542	869.06
326.77	883.06
326.999	839.06
327.228	834.06
327.457	815.06
327.686	841.06
327.914	835.06
328.143	838.06
328.372	844.06
328.6	837.06
328.829	838.06
329.058	856.06
329.287	855.06
329.515	842.06
329.744	860.06
329.972	870.06
330.201	878.06
330.43	859.06
330.658	860.06
330.887	871.06
331.115	893.06
331.344	889.06
331.572	899.06
331.801	927.06
332.03	958.06
332.258	977.06
332.486	985.06
332.715	1033.06
332.943	1103.06
333.172	1111.06
333.4	1160.06
333.629	1183.06
333.857	1209.06
334.085	1212.06
334.314	1128.06
334.542	1136.06
334.771	1123.06
334.999	1111.06
335.227	1127.06
335.455	1118.06
335.684	1077.06
335.912	1075.06
336.14	1079.06
336.369	1043.06
336.597	1080.06
336.825	1028.06
337.053	1028.06
337.281	1038.06
337.51	995.06
337.738	979.06
337.966	981.06
338.194	956.06
338.422	970.06
338.65	948.06
338.878	921.06
339.106	945.06
339.334	930.06
339.562	939.06
339.79	924.06
340.018	908.06
340.246	900.06
340.474	887.06
340.702	891.06
340.93	891.06
341.158	890.06
341.386	896.06
341.614	893.06
341.842	899.06
342.07	874.06
342.298	890.06
342.526	895.06
342.754	859.06
342.981	919.06
343.209	933.06
343.437	969.06
343.665	1010.06
343.893	1087.06
344.12	1140.06
344.348	1077.06
344.576	1035.06
344.804	1008.06
345.031	947.06
345.259	924.06
345.487	881.06
345.714	897.06
345.942	868.06
346.17	907.06
346.397	887.06
346.625	871.06
346.853	857.06
347.08	868.06
347.308	869.06
347.535	863.06
347.763	868.06
347.99	850.06
348.218	853.06
348.445	837.06
348.673	833.06
348.9	842.06
349.128	847.06
349.355	855.06
349.583	861.06
349.81	857.06
350.037	850.06
350.265	815.06
350.492	844.06
350.72	825.06
350.947	812.06
351.174	835.06
351.402	819.06
351.629	823.06
351.856	830.06
352.083	822.06
352.311	832.06
352.538	858.06
352.765	840.06
352.992	816.06
353.22	815.06
353.447	826.06
353.674	799.06
353.901	822.06
354.128	822.06
354.355	817.06
354.583	812.06
354.81	823.06
355.037	834.06
355.264	804.06
355.491	819.06
355.718	845.06
355.945	829.06
356.172	835.06
356.399	860.06
356.626	823.06
356.853	835.06
357.08	809.06
357.307	841.06
357.534	824.06
357.761	830.06
357.988	837.06
358.215	814.06
358.441	834.06
358.668	824.06
358.895	831.06
359.122	826.06
359.349	840.06
359.576	815.06
359.802	839.06
360.029	855.06
360.256	852.06
360.483	868.06
360.709	846.06
360.936	826.06
361.163	851.06
361.39	822.06
361.616	819.06
361.843	826.06
362.07	849.06
362.296	839.06
362.523	828.06
362.749	841.06
362.976	807.06
363.203	828.06
363.429	813.06
363.656	839.06
363.882	824.06
364.109	807.06
364.335	822.06
364.562	810.06
364.788	825.06
365.015	817.06
365.241	804.06
365.468	817.06
365.694	817.06
365.92	805.06
366.147	837.06
366.373	822.06
366.599	784.06
366.826	828.06
367.052	823.06
367.278	833.06
367.505	832.06
367.731	832.06
367.957	823.06
368.184	857.06
368.41	848.06
368.636	835.06
368.862	847.06
369.089	870.06
369.315	841.06
369.541	837.06
369.767	856.06
369.993	845.06
370.219	870.06
370.445	845.06
370.672	853.06
370.898	903.06
371.124	900.06
371.35	887.06
371.576	863.06
371.802	899.06
372.028	880.06
372.254	928.06
372.48	895.06
372.706	925.06
372.932	931.06
373.158	950.06
373.384	917.06
373.61	935.06
373.835	935.06
374.061	895.06
374.287	897.06
374.513	931.06
374.739	975.06
374.965	992.06
375.191	1006.06
375.416	993.06
375.642	949.06
375.868	967.06
376.094	934.06
376.319	925.06
376.545	893.06
376.771	909.06
376.997	933.06
377.222	899.06
377.448	901.06
377.674	893.06
377.899	879.06
378.125	899.06
378.35	885.06
378.576	879.06
378.802	908.06
379.027	887.06
379.253	871.06
379.478	869.06
379.704	878.06
379.929	915.06
380.155	885.06
380.38	918.06
380.606	887.06
380.831	877.06
381.057	903.06
381.282	885.06
381.507	900.06
381.733	872.06
381.958	915.06
382.184	917.06
382.409	943.06
382.634	957.06
382.86	961.06
383.085	959.06
383.31	1004.06
383.535	1001.06
383.761	986.06
383.986	1007.06
384.211	1037.06
384.436	1044.06
384.662	1064.06
384.887	1103.06
385.112	1114.06
385.337	1128.06
385.562	1105.06
385.787	1085.06
386.013	1124.06
386.238	1136.06
386.463	1135.06
386.688	1126.06
386.913	1109.06
387.138	1081.06
387.363	1115.06
387.588	1088.06
387.813	1083.06
388.038	1108.06
388.263	1072.06
388.488	1098.06
388.713	1094.06
388.938	1067.06
389.163	1069.06
389.387	1106.06
389.612	1084.06
389.837	1060.06
390.062	1092.06
390.287	1087.06
390.512	1077.06
390.736	1114.06
390.961	1148.06
391.186	1148.06
391.411	1191.06
391.636	1180.06
391.86	1271.06
392.085	1279.06
392.31	1296.06
392.534	1219.06
392.759	1215.06
392.984	1173.06
393.208	1207.06
393.433	1170.06
393.658	1152.06
393.882	1165.06
394.107	1185.06
394.331	1189.06
394.556	1202.06
394.78	1179.06
395.005	1202.06
395.229	1181.06
395.454	1239.06
395.678	1269.06
395.903	1244.06
396.127	1258.06
396.352	1223.06
396.576	1180.06
396.801	1185.06
397.025	1184.06
397.249	1221.06
397.474	1255.06
397.698	1281.06
397.922	1275.06
398.147	1279.06
398.371	1282.06
398.595	1324.06
398.82	1410.06
399.044	1510.06
399.268	1698.06
399.492	1916.06
399.717	2168.06
399.941	2175.06
400.165	2017.06
400.389	1761.06
400.613	1624.06
400.837	1545.06
401.062	1470.06
401.286	1432.06
401.51	1441.06
401.734	1437.06
401.958	1441.06
402.182	1467.06
402.406	1486.06
402.63	1496.06
402.854	1530.06
403.078	1491.06
403.302	1549.06
403.526	1592.06
403.75	1615.06
403.974	1660.06
404.198	1653.06
404.422	1624.06
404.645	1634.06
404.869	1618.06
405.093	1617.06
405.317	1581.06
405.541	1574.06
405.765	1539.06
405.988	1574.06
406.212	1601.06
406.436	1596.06
406.66	1609.06
406.883	1649.06
407.107	1736.06
407.331	1813.06
407.555	1891.06
407.778	1851.06
408.002	1805.06
408.226	1749.06
408.449	1768.06
408.673	1660.06
408.896	1595.06
409.12	1553.06
409.344	1610.06
409.567	1561.06
409.791	1594.06
410.014	1535.06
410.238	1548.06
410.461	1549.06
410.685	1531.06
410.908	1537.06
411.132	1480.06
411.355	1445.06
411.578	1474.06
411.802	1460.06
412.025	1473.06
412.249	1505.06
412.472	1497.06
412.695	1426.06
412.919	1420.06
413.142	1395.06
413.365	1435.06
413.589	1439.06
413.812	1388.06
414.035	1395.06
414.258	1399.06
414.482	1453.06
414.705	1444.06
414.928	1429.06
415.151	1447.06
415.374	1401.06
415.597	1431.06
415.821	1354.06
416.044	1370.06
416.267	1352.06
416.49	1387.06
416.713	1357.06
416.936	1364.06
417.159	1380.06
417.382	1390.06
417.605	1374.06
417.828	1377.06
418.051	1404.06
418.274	1374.06
418.497	1364.06
418.72	1423.06
418.943	1407.06
419.166	1536.06
419.389	1615.06
419.611	1571.06
419.834	1511.06
420.057	1431.06
420.28	1424.06
420.503	1425.06
420.726	1378.06
420.948	1387.06
421.171	1364.06
421.394	1399.06
421.617	1381.06
421.839	1415.06
422.062	1396.06
422.285	1362.06
422.507	1421.06
422.73	1391.06
422.953	1419.06
423.175	1453.06
423.398	1449.06
423.621	1435.06
423.843	1443.06
424.066	1468.06
424.288	1458.06
424.511	1459.06
424.733	1464.06
424.956	1418.06
425.178	1437.06
425.401	1401.06
425.623	1394.06
425.846	1353.06
426.068	1386.06
426.291	1360.06
426.513	1349.06
426.735	1293.06
426.958	1281.06
427.18	1272.06
427.402	1255.06
427.625	1220.06
427.847	1241.06
428.069	1257.06
428.292	1244.06
428.514	1199.06
428.736	1221.06
428.958	1218.06
429.181	1185.06
429.403	1194.06
429.625	1189.06
429.847	1181.06
430.069	1184.06
430.292	1188.06
430.514	1172.06
430.736	1187.06
430.958	1206.06
431.18	1190.06
431.402	1190.06
431.624	1202.06
431.846	1230.06
432.068	1208.06
432.29	1248.06
432.512	1196.06
432.734	1256.06
432.956	1184.06
433.178	1231.06
433.4	1223.06
433.622	1231.06
433.844	1226.06
434.066	1236.06
434.287	1261.06
434.509	1265.06
434.731	1340.06
434.953	1369.06
435.175	1384.06
435.397	1365.06
435.618	1284.06
435.84	1248.06
436.062	1215.06
436.284	1202.06
436.505	1227.06
436.727	1208.06
436.949	1230.06
437.17	1176.06
437.392	1183.06
437.614	1189.06
437.835	1180.06
438.057	1169.06
438.278	1145.06
438.5	1164.06
438.721	1153.06
438.943	1203.06
439.165	1126.06
439.386	1174.06
439.608	1178.06
439.829	1215.06
440.05	1175.06
440.272	1207.06
440.493	1210.06
440.715	1216.06
440.936	1248.06
441.158	1268.06
441.379	1326.06
441.6	1373.06
441.822	1409.06
442.043	1421.06
442.264	1351.06
442.486	1339.06
442.707	1339.06
442.928	1350.06
443.149	1313.06
443.371	1318.06
443.592	1330.06
443.813	1359.06
444.034	1364.06
444.255	1424.06
444.476	1480.06
444.698	1569.06
444.919	1656.06
445.14	1713.06
445.361	1553.06
445.582	1445.06
445.803	1313.06
446.024	1327.06
446.245	1274.06
446.466	1254.06
446.687	1200.06
446.908	1213.06
447.129	1190.06
447.35	1171.06
447.571	1198.06
447.792	1144.06
448.013	1159.06
448.234	1129.06
448.455	1114.06
448.675	1089.06
448.896	1147.06
449.117	1072.06
449.338	1091.06
449.559	1063.06
449.779	1059.06
450	1076.06
450.221	1126.06
450.442	1095.06
450.662	1075.06
450.883	1093.06
451.104	1106.06
451.324	1127.06
451.545	1128.06
451.766	1105.06
451.986	1096.06
452.207	1109.06
452.428	1074.06
452.648	1065.06
452.869	1064.06
453.089	1075.06
453.31	1096.06
453.53	1061.06
453.751	1043.06
453.971	1058.06
454.192	1069.06
454.412	1055.06
454.633	1073.06
454.853	1035.06
455.073	1044.06
455.294	1041.06
455.514	998.06
455.734	1030.06
455.955	1017.06
456.175	985.06
456.395	1012.06
456.616	1021.06
456.836	1004.06
457.056	1014.06
457.276	1015.06
457.497	1022.06
457.717	997.06
457.937	1043.06
458.157	1033.06
458.377	1056.06
458.598	1100.06
458.818	1134.06
459.038	1145.06
459.258	1184.06
459.478	1221.06
459.698	1242.06
459.918	1300.06
460.138	1352.06
460.358	1427.06
460.578	1458.06
460.798	1452.06
461.018	1493.06
461.238	1435.06
461.458	1496.06
461.678	1435.06
461.898	1497.06
462.118	1475.06
462.338	1541.06
462.558	1609.06
462.777	1672.06
462.997	1812.06
463.217	1919.06
463.437	1947.06
463.657	1813.06
463.876	1711.06
464.096	1756.06
464.316	1670.06
464.536	1677.06
464.755	1647.06
464.975	1554.06
465.195	1509.06
465.414	1430.06
465.634	1297.06
465.854	1273.06
466.073	1205.06
466.293	1224.06
466.512	1200.06
466.732	1163.06
466.951	1143.06
467.171	1114.06
467.391	1171.06
467.61	1157.06
467.829	1103.06
468.049	1156.06
468.268	1117.06
468.488	1099.06
468.707	1094.06
468.927	1096.06
469.146	1082.06
469.365	1099.06
469.585	1129.06
469.804	1143.06
470.023	1191.06
470.243	1188.06
470.462	1191.06
470.681	1185.06
470.901	1191.06
471.12	1181.06
471.339	1143.06
471.558	1121.06
471.777	1145.06
471.997	1153.06
472.216	1126.06
472.435	1100.06
472.654	1098.06
472.873	1062.06
473.092	1068.06
473.311	1061.06
473.53	1079.06
473.749	1085.06
473.968	1066.06
474.187	1063.06
474.406	1076.06
474.625	1074.06
474.844	1095.06
475.063	1060.06
475.282	1071.06
475.501	1105.06
475.72	1097.06
475.939	1111.06
476.158	1091.06
476.377	1121.06
476.596	1121.06
476.814	1161.06
477.033	1152.06
477.252	1164.06
477.471	1192.06
477.69	1197.06
477.908	1266.06
478.127	1285.06
478.346	1265.06
478.564	1282.06
478.783	1354.06
479.002	1378.06
479.22	1358.06
479.439	1355.06
479.658	1341.06
479.876	1407.06
480.095	1377.06
480.313	1439.06
480.532	1452.06
480.751	1478.06
480.969	1404.06
481.188	1348.06
481.406	1308.06
481.624	1265.06
481.843	1250.06
482.061	1229.06
482.28	1234.06
482.498	1232.06
482.717	1203.06
482.935	1252.06
483.153	1226.06
483.372	1202.06
483.59	1220.06
483.808	1199.06
484.027	1224.06
484.245	1234.06
484.463	1226.06
484.681	1239.06
484.9	1251.06
485.118	1245.06
485.336	1257.06
485.554	1289.06
485.772	1301.06
485.99	1267.06
486.209	1319.06
486.427	1327.06
486.645	1288.06
486.863	1290.06
487.081	1251.06
487.299	1274.06
487.517	1309.06
487.735	1295.06
487.953	1283.06
488.171	1300.06
488.389	1259.06
488.607	1270.06
488.825	1285.06
489.043	1276.06
489.261	1264.06
489.479	1283.06
489.696	1283.06
489.914	1235.06
490.132	1266.06
490.35	1308.06
490.568	1304.06
490.786	1283.06
491.003	1267.06
491.221	1313.06
491.439	1299.06
491.657	1299.06
491.874	1298.06
492.092	1291.06
492.31	1302.06
492.527	1317.06
492.745	1331.06
492.963	1313.06
493.18	1342.06
493.398	1293.06
493.615	1342.06
493.833	1364.06
494.05	1365.06
494.268	1359.06
494.485	1373.06
494.703	1407.06
494.92	1423.06
495.138	1413.06
495.355	1373.06
495.573	1384.06
495.79	1405.06
496.008	1456.06
496.225	1407.06
496.442	1417.06
496.66	1417.06
496.877	1472.06
497.094	1485.06
497.312	1536.06
497.529	1577.06
497.746	1610.06
497.963	1686.06
498.181	1722.06
498.398	1866.06
498.615	1954.06
498.832	2107.06
499.049	2278.06
499.267	2441.06
499.484	2682.06
499.701	2986.06
499.918	3298.06
500.135	3744.06
500.352	4234.06
500.569	4391.06
500.786	4336.06
501.003	4049.06
501.22	3665.06
501.437	3320.06
501.654	2899.06
501.871	2643.06
502.088	2407.06
502.305	2259.06
502.522	2111.06
502.739	2021.06
502.956	1925.06
503.172	1783.06
503.389	1735.06
503.606	1653.06
503.823	1658.06
504.04	1621.06
504.256	1659.06
504.473	1666.06
504.69	1699.06
504.907	1690.06
505.123	1565.06
505.34	1484.06
505.557	1396.06
505.773	1355.06
505.99	1319.06
506.207	1302.06
506.423	1268.06
506.64	1263.06
506.856	1235.06
507.073	1221.06
507.289	1223.06
507.506	1228.06
507.722	1227.06
507.939	1202.06
508.155	1195.06
508.372	1201.06
508.588	1133.06
508.805	1147.06
509.021	1163.06
509.238	1141.06
509.454	1151.06
509.67	1128.06
509.887	1136.06
510.103	1139.06
510.319	1093.06
510.536	1111.06
510.752	1090.06
510.968	1097.06
511.184	1083.06
511.401	1109.06
511.617	1090.06
511.833	1097.06
512.049	1057.06
512.265	1094.06
512.481	1092.06
512.698	1103.06
512.914	1083.06
513.13	1113.06
513.346	1104.06
513.562	1102.06
513.778	1120.06
513.994	1123.06
514.21	1120.06
514.426	1099.06
514.642	1116.06
514.858	1132.06
515.074	1122.06
515.29	1144.06
515.506	1203.06
515.721	1173.06
515.937	1199.06
516.153	1240.06
516.369	1260.06
516.585	1292.06
516.801	1348.06
517.016	1387.06
517.232	1466.06
517.448	1511.06
517.664	1601.06
517.879	1603.06
518.095	1571.06
518.311	1548.06
518.527	1500.06
518.742	1426.06
518.958	1386.06
519.173	1335.06
519.389	1272.06
519.605	1247.06
519.82	1205.06
520.036	1189.06
520.251	1160.06
520.467	1127.06
520.682	1111.06
520.898	1095.06
521.113	1112.06
521.329	1108.06
521.544	1059.06
521.76	1059.06
521.975	1077.06
522.19	1053.06
522.406	1055.06
522.621	1044.06
522.836	1030.06
523.052	1050.06
523.267	1031.06
523.482	1006.06
523.698	1008.06
523.913	1002.06
524.128	1001.06
524.343	1015.06
524.559	1018.06
524.774	1008.06
524.989	985.06
525.204	1010.06
525.419	1029.06
525.634	999.06
525.849	995.06
526.064	987.06
526.28	951.06
526.495	973.06
526.71	975.06
526.925	965.06
527.14	966.06
527.355	994.06
527.57	989.06
527.785	972.06
527.999	953.06
528.214	978.06
528.429	981.06
528.644	966.06
528.859	986.06
529.074	982.06
529.289	1012.06
529.503	985.06
529.718	966.06
529.933	979.06
530.148	943.06
530.363	947.06
530.577	966.06
530.792	956.06
531.007	952.06
531.221	965.06
531.436	992.06
531.651	973.06
531.865	948.06
532.08	991.06
532.295	992.06
532.509	941.06
532.724	983.06
532.938	991.06
533.153	969.06
533.367	981.06
533.582	986.06
533.796	960.06
534.011	964.06
534.225	934.06
534.44	940.06
534.654	942.06
534.868	950.06
535.083	941.06
535.297	955.06
535.511	919.06
535.726	946.06
535.94	949.06
536.154	917.06
536.369	904.06
536.583	901.06
536.797	923.06
537.011	923.06
537.225	903.06
537.44	897.06
537.654	893.06
537.868	884.06
538.082	889.06
538.296	913.06
538.51	912.06
538.724	899.06
538.938	871.06
539.153	878.06
539.367	867.06
539.581	868.06
539.795	890.06
540.009	871.06
540.222	890.06
540.436	853.06
540.65	867.06
540.864	844.06
541.078	847.06
541.292	858.06
541.506	863.06
541.72	864.06
541.934	883.06
542.147	894.06
542.361	858.06
542.575	859.06
542.789	857.06
543.002	881.06
543.216	853.06
543.43	847.06
543.644	839.06
543.857	862.06
544.071	854.06
544.285	868.06
544.498	844.06
544.712	884.06
544.925	870.06
545.139	878.06
545.352	919.06
545.566	884.06
545.779	903.06
545.993	916.06
546.206	915.06
546.42	891.06
546.633	891.06
546.847	907.06
547.06	893.06
547.274	887.06
547.487	898.06
547.7	899.06
547.914	883.06
548.127	885.06
548.34	913.06
548.554	913.06
548.767	920.06
548.98	918.06
549.193	923.06
549.407	889.06
549.62	942.06
549.833	948.06
550.046	927.06
550.259	937.06
550.473	881.06
550.686	903.06
550.899	890.06
551.112	872.06
551.325	886.06
551.538	881.06
551.751	906.06
551.964	898.06
552.177	897.06
552.39	911.06
552.603	928.06
552.816	974.06
553.029	984.06
553.242	989.06
553.455	999.06
553.667	1004.06
553.88	973.06
554.093	923.06
554.306	954.06
554.519	917.06
554.732	885.06
554.944	868.06
555.157	869.06
555.37	871.06
555.583	854.06
555.795	819.06
556.008	792.06
556.221	789.06
556.433	785.06
556.646	802.06
556.859	782.06
557.071	763.06
557.284	769.06
557.496	780.06
557.709	765.06
557.921	753.06
558.134	748.06
558.346	733.06
558.559	730.06
558.771	760.06
558.984	745.06
559.196	737.06
559.409	735.06
559.621	735.06
559.833	748.06
560.046	741.06
560.258	746.06
560.47	730.06
560.683	711.06
560.895	704.06
561.107	718.06
561.32	747.06
561.532	716.06
561.744	752.06
561.956	738.06
562.168	722.06
562.381	730.06
562.593	737.06
562.805	752.06
563.017	737.06
563.229	729.06
563.441	755.06
563.653	758.06
563.865	745.06
564.077	764.06
564.289	775.06
564.501	781.06
564.713	797.06
564.925	759.06
565.137	817.06
565.349	850.06
565.561	858.06
565.773	909.06
565.985	963.06
566.197	952.06
566.408	1081.06
566.62	1155.06
566.832	1234.06
567.044	1258.06
567.255	1289.06
567.467	1293.06
567.679	1413.06
567.891	1489.06
568.102	1514.06
568.314	1418.06
568.526	1303.06
568.737	1162.06
568.949	1099.06
569.161	1012.06
569.372	895.06
569.584	859.06
569.795	826.06
570.007	771.06
570.218	779.06
570.43	798.06
570.641	751.06
570.853	778.06
571.064	760.06
571.276	760.06
571.487	750.06
571.698	762.06
571.91	703.06
572.121	699.06
572.333	656.06
572.544	672.06
572.755	644.06
572.966	633.06
573.178	637.06
573.389	638.06
573.6	623.06
573.811	621.06
574.023	622.06
574.234	587.06
574.445	614.06
574.656	618.06
574.867	627.06
575.078	615.06
575.289	588.06
575.501	594.06
575.712	578.06
575.923	565.06
576.134	593.06
576.345	559.06
576.556	572.06
576.767	589.06
576.978	559.06
577.188	537.06
577.399	570.06
577.61	554.06
577.821	535.06
578.032	546.06
578.243	542.06
578.454	561.06
578.665	514.06
578.875	515.06
579.086	529.06
579.297	525.06
579.508	538.06
579.718	536.06
579.929	504.06
580.14	491.06
580.35	517.06
580.561	522.06
580.772	478.06
580.982	506.06
581.193	520.06
581.403	524.06
581.614	507.06
581.825	529.06
582.035	501.06
582.246	509.06
582.456	514.06
582.667	504.06
582.877	511.06
583.087	477.06
583.298	489.06
583.508	512.06
583.719	489.06
583.929	497.06
584.139	499.06
584.35	476.06
584.56	483.06
584.77	475.06
584.981	492.06
585.191	479.06
585.401	484.06
585.611	463.06
585.821	479.06
586.032	487.06
586.242	482.06
586.452	478.06
586.662	477.06
586.872	468.06
587.082	477.06
587.292	498.06
587.502	471.06
587.713	473.06
587.923	475.06
588.133	475.06
588.343	473.06
588.553	491.06
588.762	463.06
588.972	483.06
589.182	514.06
589.392	482.06
589.602	471.06
589.812	495.06
590.022	486.06
590.232	497.06
590.441	471.06
590.651	466.06
590.861	481.06
591.071	504.06
591.281	497.06
591.49	502.06
591.7	531.06
591.91	525.06
592.119	519.06
592.329	541.06
592.539	556.06
592.748	576.06
592.958	592.06
593.167	598.06
593.377	610.06
593.587	626.06
593.796	623.06
594.006	628.06
594.215	641.06
594.424	626.06
594.634	616.06
594.843	579.06
595.053	586.06
595.262	561.06
595.472	531.06
595.681	523.06
595.89	515.06
596.1	496.06
596.309	480.06
596.518	475.06
596.727	467.06
596.937	470.06
597.146	451.06
597.355	450.06
597.564	421.06
597.774	428.06
597.983	434.06
598.192	420.06
598.401	419.06
598.61	411.06
598.819	420.06
599.028	428.06
599.237	423.06
599.446	403.06
599.655	424.06
599.864	405.06
600.073	409.06
600.282	388.06
600.491	396.06
600.7	378.06
600.909	391.06
601.118	393.06
601.327	405.06
601.536	383.06
601.745	379.06
601.953	391.06
602.162	389.06
602.371	381.06
602.58	398.06
602.789	391.06
602.997	387.06
603.206	384.06
603.415	385.06
603.623	380.06
603.832	364.06
604.041	377.06
604.249	371.06
604.458	371.06
604.666	345.06
604.875	367.06
605.084	379.06
605.292	365.06
605.501	364.06
605.709	379.06
605.918	351.06
606.126	362.06
606.334	363.06
606.543	341.06
606.751	351.06
606.96	371.06
607.168	369.06
607.376	349.06
607.585	353.06
607.793	368.06
608.001	358.06
608.21	371.06
608.418	369.06
608.626	344.06
608.834	359.06
609.043	364.06
609.251	343.06
609.459	362.06
609.667	358.06
609.875	360.06
610.083	352.06
610.291	340.06
610.499	359.06
610.707	333.06
610.916	332.06
611.124	340.06
611.332	350.06
611.54	348.06
611.748	341.06
611.955	345.06
612.163	336.06
612.371	323.06
612.579	356.06
612.787	325.06
612.995	335.06
613.203	346.06
613.411	337.06
613.618	340.06
613.826	346.06
614.034	340.06
614.242	340.06
614.449	347.06
614.657	330.06
614.865	328.06
615.072	328.06
615.28	340.06
615.488	331.06
615.695	312.06
615.903	321.06
616.111	338.06
616.318	339.06
616.526	330.06
616.733	338.06
616.941	346.06
617.148	332.06
617.356	340.06
617.563	329.06
617.771	332.06
617.978	340.06
618.185	327.06
618.393	323.06
618.6	327.06
618.807	323.06
619.015	338.06
619.222	311.06
619.429	342.06
619.637	320.06
619.844	325.06
620.051	324.06
620.258	326.06
620.466	321.06
620.673	303.06
620.88	313.06
621.087	302.06
621.294	299.06
621.501	305.06
621.708	301.06
621.915	326.06
622.122	328.06
622.329	312.06
622.536	308.06
622.743	315.06
622.95	301.06
623.157	314.06
623.364	291.06
623.571	311.06
623.778	309.06
623.985	319.06
624.192	285.06
624.399	293.06
624.606	285.06
624.812	298.06
625.019	289.06
625.226	284.06
625.433	257.06
625.639	287.06
625.846	277.06
626.053	290.06
626.259	305.06
626.466	277.06
626.673	273.06
626.879	282.06
627.086	290.06
627.293	294.06
627.499	305.06
627.706	277.06
627.912	281.06
628.119	295.06
628.325	283.06
628.532	272.06
628.738	298.06
628.945	265.06
629.151	279.06
629.357	269.06
629.564	272.06
629.77	271.06
629.976	282.06
630.183	269.06
630.389	264.06
630.595	278.06
630.802	268.06
631.008	273.06
631.214	269.06
631.42	255.06
631.627	272.06
631.833	264.06
632.039	260.06
632.245	239.06
632.451	237.06
632.657	257.06
632.863	234.06
633.069	249.06
633.275	249.06
633.481	271.06
633.688	249.06
633.893	250.06
634.099	253.06
634.305	250.06
634.511	256.06
634.717	252.06
634.923	240.06
635.129	245.06
635.335	238.06
635.541	255.06
635.747	252.06
635.952	241.06
636.158	236.06
636.364	244.06
636.57	235.06
636.775	240.06
636.981	239.06
637.187	245.06
637.392	246.06
637.598	242.06
637.804	243.06
638.009	230.06
638.215	241.06
638.421	222.06
638.626	231.06
638.832	224.06
639.037	225.06
639.243	223.06
639.448	236.06
639.654	243.06
639.859	228.06
640.065	231.06
640.27	226.06
640.475	218.06
640.681	236.06
640.886	210.06
641.091	220.06
641.297	236.06
641.502	220.06
641.707	213.06
641.913	225.06
642.118	232.06
642.323	236.06
642.528	227.06
642.733	213.06
642.939	200.06
643.144	212.06
643.349	224.06
643.554	230.06
643.759	215.06
643.964	220.06
644.169	215.06
644.374	216.06
644.579	221.06
644.784	217.06
644.989	210.06
645.194	221.06
645.399	216.06
645.604	222.06
645.809	216.06
646.014	197.06
646.219	218.06
646.423	217.06
646.628	208.06
646.833	203.06
647.038	209.06
647.243	217.06
647.447	224.06
647.652	223.06
647.857	224.06
648.062	223.06
648.266	242.06
648.471	227.06
648.676	235.06
648.88	216.06
649.085	239.06
649.289	206.06
649.494	204.06
649.698	205.06
649.903	201.06
650.107	196.06
650.312	201.06
650.516	195.06
650.721	189.06
650.925	201.06
651.13	176.06
651.334	198.06
651.539	178.06
651.743	175.06
651.947	187.06
652.152	159.06
652.356	167.06
652.56	167.06
652.764	176.06
652.969	168.06
653.173	159.06
653.377	161.06
653.581	167.06
653.785	170.06
653.99	139.06
654.194	161.06
654.398	161.06
654.602	147.06
654.806	161.06
655.01	149.06
655.214	142.06
655.418	153.06
655.622	154.06
655.826	147.06
656.03	144.06
656.234	151.06
656.438	128.06
656.642	151.06
656.846	145.06
657.049	148.06
657.253	130.06
657.457	133.06
657.661	120.06
657.865	137.06
658.068	127.06
658.272	120.06
658.476	113.06
658.68	108.06
658.883	100.06
659.087	127.06
659.291	119.06
659.494	112.06
659.698	103.06
659.901	115.06
660.105	113.06
660.309	111.06
660.512	113.06
660.716	93.06
660.919	98.06
661.123	96.06
661.326	92.06
661.53	97.06
661.733	113.06
661.936	96.06
662.14	88.06
662.343	77.06
662.546	84.06
662.75	92.06
662.953	91.06
663.156	78.06
663.36	92.06
663.563	86.06
663.766	76.06
663.969	78.06
664.173	91.06
664.376	79.06
664.579	93.06
664.782	76.06
664.985	72.06
665.188	89.06
665.391	84.06
665.594	92.06
665.797	75.06
666	83.06
666.203	83.06
666.406	86.06
666.609	84.06
666.812	93.06
667.015	93.06
667.218	96.06
667.421	78.06
667.624	87.06
667.827	82.06
668.03	93.06
668.232	74.06
668.435	73.06
668.638	88.06
668.841	88.06
669.043	90.06
669.246	74.06
669.449	88.06
669.651	81.06
669.854	82.06
670.057	77.06
670.259	90.06
670.462	76.06
670.665	82.06
670.867	75.06
671.07	82.06
671.272	77.06
671.475	89.06
671.677	82.06
671.88	72.06
672.082	77.06
672.284	81.06
672.487	89.06
672.689	98.06
672.892	73.06
