Data from NiCl2@0.125M.TitratingCurve.Agarose3%dH2O.NegLispCup.LampEnergy10.LIBS07252019_HRD10591_18-28-26-578.txt Node
Date: Thu Jul 25 18:28:26 EDT 2019
User: cochatt
Spectrometer: HR+D1059
Trigger mode: 1
Integration Time (sec): 1.000000E-1
Scans to average: 1
Electric dark correction enabled: true
Nonlinearity correction enabled: false
Boxcar width: 0
XAxis mode: Wavelengths
Number of Pixels in Spectrum: 2048
>>>>>Begin Spectral Data<<<<<
223.165	-1.75
223.4	-1.75
223.635	-1.75
223.869	-16.75
224.104	-14.75
224.338	-8.75
224.573	-22.75
224.808	-10.75
225.042	-10.75
225.277	-6.75
225.511	-3.75
225.746	3.25
225.98	19.25
226.215	7.25
226.449	-1.75
226.683	20.25
226.918	34.25
227.152	14.25
227.387	38.25
227.621	32.25
227.856	35.25
228.09	50.25
228.324	63.25
228.559	45.25
228.793	68.25
229.027	110.25
229.262	131.25
229.496	122.25
229.73	121.25
229.964	133.25
230.199	136.25
230.433	131.25
230.667	141.25
230.901	147.25
231.136	158.25
231.37	142.25
231.604	156.25
231.838	160.25
232.072	156.25
232.306	148.25
232.541	144.25
232.775	164.25
233.009	148.25
233.243	164.25
233.477	162.25
233.711	163.25
233.945	153.25
234.179	173.25
234.413	165.25
234.647	159.25
234.881	157.25
235.115	165.25
235.349	172.25
235.583	153.25
235.817	157.25
236.051	158.25
236.285	159.25
236.519	173.25
236.753	158.25
236.987	167.25
237.221	174.25
237.455	180.25
237.689	174.25
237.922	164.25
238.156	179.25
238.39	164.25
238.624	166.25
238.858	188.25
239.091	179.25
239.325	191.25
239.559	183.25
239.793	179.25
240.027	188.25
240.26	190.25
240.494	211.25
240.728	194.25
240.961	196.25
241.195	205.25
241.429	174.25
241.662	195.25
241.896	203.25
242.13	198.25
242.363	203.25
242.597	199.25
242.83	221.25
243.064	214.25
243.298	219.25
243.531	212.25
243.765	246.25
243.998	215.25
244.232	218.25
244.465	210.25
244.699	212.25
244.932	232.25
245.166	234.25
245.399	248.25
245.633	241.25
245.866	225.25
246.099	235.25
246.333	249.25
246.566	231.25
246.8	246.25
247.033	250.25
247.266	257.25
247.5	248.25
247.733	255.25
247.966	260.25
248.2	249.25
248.433	261.25
248.666	246.25
248.899	246.25
249.133	255.25
249.366	268.25
249.599	265.25
249.832	270.25
250.066	271.25
250.299	274.25
250.532	277.25
250.765	283.25
250.998	274.25
251.231	270.25
251.465	279.25
251.698	269.25
251.931	289.25
252.164	287.25
252.397	301.25
252.63	279.25
252.863	310.25
253.096	298.25
253.329	295.25
253.562	294.25
253.795	293.25
254.028	293.25
254.261	290.25
254.494	298.25
254.727	309.25
254.96	295.25
255.193	299.25
255.426	297.25
255.659	302.25
255.892	334.25
256.124	335.25
256.357	332.25
256.59	328.25
256.823	310.25
257.056	313.25
257.289	330.25
257.521	310.25
257.754	321.25
257.987	334.25
258.22	323.25
258.452	333.25
258.685	326.25
258.918	325.25
259.151	335.25
259.383	326.25
259.616	323.25
259.849	347.25
260.081	339.25
260.314	341.25
260.547	343.25
260.779	345.25
261.012	335.25
261.244	338.25
261.477	353.25
261.71	357.25
261.942	352.25
262.175	365.25
262.407	344.25
262.64	343.25
262.872	359.25
263.105	347.25
263.337	362.25
263.57	355.25
263.802	353.25
264.035	370.25
264.267	376.25
264.499	381.25
264.732	372.25
264.964	370.25
265.197	378.25
265.429	397.25
265.661	364.25
265.894	388.25
266.126	395.25
266.358	403.25
266.591	395.25
266.823	387.25
267.055	391.25
267.287	388.25
267.52	397.25
267.752	383.25
267.984	393.25
268.216	396.25
268.448	410.25
268.681	385.25
268.913	385.25
269.145	394.25
269.377	396.25
269.609	408.25
269.841	427.25
270.073	404.25
270.306	431.25
270.538	416.25
270.77	414.25
271.002	407.25
271.234	405.25
271.466	425.25
271.698	410.25
271.93	412.25
272.162	430.25
272.394	420.25
272.626	446.25
272.858	409.25
273.09	440.25
273.322	443.25
273.553	429.25
273.785	433.25
274.017	438.25
274.249	436.25
274.481	447.25
274.713	460.25
274.945	448.25
275.176	446.25
275.408	437.25
275.64	442.25
275.872	445.25
276.104	429.25
276.335	454.25
276.567	453.25
276.799	447.25
277.031	454.25
277.262	452.25
277.494	454.25
277.726	456.25
277.957	472.25
278.189	480.25
278.421	450.25
278.652	452.25
278.884	459.25
279.115	472.25
279.347	490.25
279.579	459.25
279.81	466.25
280.042	489.25
280.273	492.25
280.505	482.25
280.736	494.25
280.968	487.25
281.199	518.25
281.431	481.25
281.662	501.25
281.894	490.25
282.125	491.25
282.356	525.25
282.588	520.25
282.819	536.25
283.051	527.25
283.282	519.25
283.513	521.25
283.745	516.25
283.976	515.25
284.207	524.25
284.439	521.25
284.67	543.25
284.901	539.25
285.132	546.25
285.364	543.25
285.595	538.25
285.826	518.25
286.057	539.25
286.288	525.25
286.52	545.25
286.751	562.25
286.982	542.25
287.213	543.25
287.444	545.25
287.675	553.25
287.906	572.25
288.138	553.25
288.369	558.25
288.6	548.25
288.831	564.25
289.062	561.25
289.293	572.25
289.524	584.25
289.755	573.25
289.986	584.25
290.217	567.25
290.448	594.25
290.679	579.25
290.91	555.25
291.141	566.25
291.371	582.25
291.602	585.25
291.833	567.25
292.064	575.25
292.295	563.25
292.526	603.25
292.757	572.25
292.987	563.25
293.218	554.25
293.449	564.25
293.68	590.25
293.91	603.25
294.141	568.25
294.372	568.25
294.603	580.25
294.833	597.25
295.064	601.25
295.295	572.25
295.525	558.25
295.756	586.25
295.987	567.25
296.217	583.25
296.448	596.25
296.679	585.25
296.909	583.25
297.14	569.25
297.37	618.25
297.601	620.25
297.831	630.25
298.062	604.25
298.292	623.25
298.523	643.25
298.753	646.25
298.984	639.25
299.214	621.25
299.445	599.25
299.675	615.25
299.905	622.25
300.136	609.25
300.366	615.25
300.597	642.25
300.827	675.25
301.057	659.25
301.288	658.25
301.518	649.25
301.748	670.25
301.979	674.25
302.209	678.25
302.439	675.25
302.669	664.25
302.9	655.25
303.13	624.25
303.36	642.25
303.59	644.25
303.82	645.25
304.051	653.25
304.281	641.25
304.511	633.25
304.741	652.25
304.971	636.25
305.201	646.25
305.431	659.25
305.661	647.25
305.891	646.25
306.121	653.25
306.352	647.25
306.582	613.25
306.812	628.25
307.042	657.25
307.272	637.25
307.502	633.25
307.731	646.25
307.961	633.25
308.191	623.25
308.421	620.25
308.651	621.25
308.881	620.25
309.111	622.25
309.341	604.25
309.571	634.25
309.8	647.25
310.03	641.25
310.26	638.25
310.49	637.25
310.72	637.25
310.949	646.25
311.179	641.25
311.409	645.25
311.639	623.25
311.868	640.25
312.098	641.25
312.328	637.25
312.557	666.25
312.787	652.25
313.017	667.25
313.246	653.25
313.476	686.25
313.706	693.25
313.935	671.25
314.165	695.25
314.394	699.25
314.624	691.25
314.853	682.25
315.083	695.25
315.312	675.25
315.542	674.25
315.771	683.25
316.001	682.25
316.23	653.25
316.46	682.25
316.689	654.25
316.919	674.25
317.148	667.25
317.377	645.25
317.607	667.25
317.836	671.25
318.065	668.25
318.295	659.25
318.524	679.25
318.753	673.25
318.983	638.25
319.212	673.25
319.441	656.25
319.67	675.25
319.9	678.25
320.129	685.25
320.358	665.25
320.587	655.25
320.816	654.25
321.046	635.25
321.275	685.25
321.504	670.25
321.733	650.25
321.962	694.25
322.191	679.25
322.42	691.25
322.649	673.25
322.878	687.25
323.108	666.25
323.337	670.25
323.566	685.25
323.795	685.25
324.024	702.25
324.253	702.25
324.482	694.25
324.71	710.25
324.939	716.25
325.168	684.25
325.397	685.25
325.626	712.25
325.855	697.25
326.084	726.25
326.313	742.25
326.542	730.25
326.77	757.25
326.999	716.25
327.228	719.25
327.457	737.25
327.686	745.25
327.914	722.25
328.143	746.25
328.372	718.25
328.6	725.25
328.829	757.25
329.058	735.25
329.287	734.25
329.515	729.25
329.744	735.25
329.972	753.25
330.201	744.25
330.43	758.25
330.658	732.25
330.887	736.25
331.115	769.25
331.344	813.25
331.572	772.25
331.801	807.25
332.03	819.25
332.258	814.25
332.486	866.25
332.715	861.25
332.943	912.25
333.172	967.25
333.4	972.25
333.629	1010.25
333.857	1021.25
334.085	975.25
334.314	999.25
334.542	941.25
334.771	961.25
334.999	903.25
335.227	933.25
335.455	918.25
335.684	937.25
335.912	932.25
336.14	887.25
336.369	896.25
336.597	897.25
336.825	881.25
337.053	891.25
337.281	877.25
337.51	829.25
337.738	824.25
337.966	804.25
338.194	827.25
338.422	789.25
338.65	802.25
338.878	814.25
339.106	806.25
339.334	793.25
339.562	759.25
339.79	761.25
340.018	761.25
340.246	746.25
340.474	777.25
340.702	738.25
340.93	771.25
341.158	807.25
341.386	762.25
341.614	733.25
341.842	784.25
342.07	746.25
342.298	737.25
342.526	771.25
342.754	742.25
342.981	775.25
343.209	779.25
343.437	810.25
343.665	862.25
343.893	947.25
344.12	973.25
344.348	933.25
344.576	869.25
344.804	854.25
345.031	796.25
345.259	789.25
345.487	789.25
345.714	783.25
345.942	748.25
346.17	781.25
346.397	730.25
346.625	713.25
346.853	729.25
347.08	709.25
347.308	746.25
347.535	741.25
347.763	765.25
347.99	744.25
348.218	757.25
348.445	744.25
348.673	759.25
348.9	734.25
349.128	709.25
349.355	710.25
349.583	754.25
349.81	720.25
350.037	730.25
350.265	697.25
350.492	721.25
350.72	723.25
350.947	719.25
351.174	732.25
351.402	710.25
351.629	721.25
351.856	715.25
352.083	723.25
352.311	711.25
352.538	685.25
352.765	710.25
352.992	715.25
353.22	691.25
353.447	682.25
353.674	705.25
353.901	714.25
354.128	700.25
354.355	721.25
354.583	707.25
354.81	721.25
355.037	754.25
355.264	717.25
355.491	698.25
355.718	709.25
355.945	723.25
356.172	722.25
356.399	677.25
356.626	732.25
356.853	703.25
357.08	707.25
357.307	740.25
357.534	711.25
357.761	730.25
357.988	716.25
358.215	702.25
358.441	708.25
358.668	713.25
358.895	718.25
359.122	699.25
359.349	708.25
359.576	717.25
359.802	705.25
360.029	725.25
360.256	733.25
360.483	712.25
360.709	706.25
360.936	706.25
361.163	714.25
361.39	708.25
361.616	715.25
361.843	728.25
362.07	727.25
362.296	745.25
362.523	718.25
362.749	696.25
362.976	718.25
363.203	704.25
363.429	700.25
363.656	702.25
363.882	704.25
364.109	709.25
364.335	696.25
364.562	683.25
364.788	694.25
365.015	709.25
365.241	701.25
365.468	718.25
365.694	723.25
365.92	711.25
366.147	708.25
366.373	726.25
366.599	713.25
366.826	723.25
367.052	707.25
367.278	713.25
367.505	757.25
367.731	733.25
367.957	725.25
368.184	703.25
368.41	725.25
368.636	729.25
368.862	732.25
369.089	726.25
369.315	733.25
369.541	729.25
369.767	759.25
369.993	717.25
370.219	747.25
370.445	748.25
370.672	765.25
370.898	753.25
371.124	763.25
371.35	793.25
371.576	776.25
371.802	776.25
372.028	768.25
372.254	779.25
372.48	814.25
372.706	794.25
372.932	818.25
373.158	791.25
373.384	792.25
373.61	765.25
373.835	786.25
374.061	787.25
374.287	798.25
374.513	798.25
374.739	813.25
374.965	860.25
375.191	873.25
375.416	857.25
375.642	835.25
375.868	805.25
376.094	788.25
376.319	801.25
376.545	797.25
376.771	817.25
376.997	777.25
377.222	795.25
377.448	783.25
377.674	796.25
377.899	757.25
378.125	759.25
378.35	757.25
378.576	781.25
378.802	746.25
379.027	786.25
379.253	757.25
379.478	749.25
379.704	759.25
379.929	748.25
380.155	737.25
380.38	764.25
380.606	769.25
380.831	769.25
381.057	766.25
381.282	791.25
381.507	756.25
381.733	781.25
381.958	783.25
382.184	811.25
382.409	824.25
382.634	813.25
382.86	826.25
383.085	841.25
383.31	815.25
383.535	817.25
383.761	865.25
383.986	876.25
384.211	883.25
384.436	917.25
384.662	901.25
384.887	955.25
385.112	941.25
385.337	941.25
385.562	958.25
385.787	925.25
386.013	960.25
386.238	927.25
386.463	940.25
386.688	938.25
386.913	925.25
387.138	900.25
387.363	942.25
387.588	893.25
387.813	909.25
388.038	907.25
388.263	911.25
388.488	924.25
388.713	934.25
388.938	935.25
389.163	922.25
389.387	906.25
389.612	926.25
389.837	894.25
390.062	922.25
390.287	914.25
390.512	904.25
390.736	937.25
390.961	930.25
391.186	984.25
391.411	1003.25
391.636	1011.25
391.86	1073.25
392.085	1063.25
392.31	1066.25
392.534	1030.25
392.759	982.25
392.984	977.25
393.208	986.25
393.433	987.25
393.658	975.25
393.882	991.25
394.107	1033.25
394.331	985.25
394.556	1022.25
394.78	1007.25
395.005	1005.25
395.229	1011.25
395.454	1063.25
395.678	1044.25
395.903	1051.25
396.127	1032.25
396.352	1002.25
396.576	969.25
396.801	976.25
397.025	953.25
397.249	984.25
397.474	1073.25
397.698	1086.25
397.922	1036.25
398.147	1037.25
398.371	1080.25
398.595	1070.25
398.82	1125.25
399.044	1220.25
399.268	1372.25
399.492	1603.25
399.717	1880.25
399.941	1828.25
400.165	1569.25
400.389	1422.25
400.613	1314.25
400.837	1242.25
401.062	1188.25
401.286	1196.25
401.51	1171.25
401.734	1151.25
401.958	1157.25
402.182	1188.25
402.406	1186.25
402.63	1212.25
402.854	1237.25
403.078	1279.25
403.302	1353.25
403.526	1384.25
403.75	1380.25
403.974	1410.25
404.198	1405.25
404.422	1396.25
404.645	1385.25
404.869	1322.25
405.093	1340.25
405.317	1333.25
405.541	1333.25
405.765	1323.25
405.988	1273.25
406.212	1282.25
406.436	1250.25
406.66	1326.25
406.883	1378.25
407.107	1422.25
407.331	1507.25
407.555	1504.25
407.778	1525.25
408.002	1507.25
408.226	1461.25
408.449	1406.25
408.673	1369.25
408.896	1313.25
409.12	1336.25
409.344	1350.25
409.567	1348.25
409.791	1361.25
410.014	1333.25
410.238	1344.25
410.461	1357.25
410.685	1318.25
410.908	1282.25
411.132	1276.25
411.355	1226.25
411.578	1213.25
411.802	1229.25
412.025	1229.25
412.249	1279.25
412.472	1251.25
412.695	1187.25
412.919	1152.25
413.142	1177.25
413.365	1161.25
413.589	1187.25
413.812	1186.25
414.035	1145.25
414.258	1169.25
414.482	1151.25
414.705	1195.25
414.928	1208.25
415.151	1221.25
415.374	1195.25
415.597	1155.25
415.821	1169.25
416.044	1155.25
416.267	1127.25
416.49	1143.25
416.713	1145.25
416.936	1148.25
417.159	1121.25
417.382	1145.25
417.605	1168.25
417.828	1167.25
418.051	1176.25
418.274	1196.25
418.497	1161.25
418.72	1202.25
418.943	1188.25
419.166	1265.25
419.389	1344.25
419.611	1284.25
419.834	1244.25
420.057	1211.25
420.28	1171.25
420.503	1167.25
420.726	1145.25
420.948	1184.25
421.171	1161.25
421.394	1167.25
421.617	1135.25
421.839	1167.25
422.062	1187.25
422.285	1138.25
422.507	1186.25
422.73	1195.25
422.953	1219.25
423.175	1209.25
423.398	1240.25
423.621	1194.25
423.843	1248.25
424.066	1285.25
424.288	1252.25
424.511	1256.25
424.733	1192.25
424.956	1230.25
425.178	1193.25
425.401	1210.25
425.623	1174.25
425.846	1146.25
426.068	1139.25
426.291	1115.25
426.513	1078.25
426.735	1107.25
426.958	1083.25
427.18	1085.25
427.402	1071.25
427.625	1061.25
427.847	1047.25
428.069	1050.25
428.292	1049.25
428.514	1021.25
428.736	1033.25
428.958	998.25
429.181	990.25
429.403	1013.25
429.625	988.25
429.847	993.25
430.069	1010.25
430.292	1011.25
430.514	976.25
430.736	1005.25
430.958	1011.25
431.18	993.25
431.402	1043.25
431.624	1009.25
431.846	1042.25
432.068	1038.25
432.29	1038.25
432.512	1043.25
432.734	1032.25
432.956	1025.25
433.178	1061.25
433.4	1053.25
433.622	1014.25
433.844	1053.25
434.066	1043.25
434.287	1047.25
434.509	1125.25
434.731	1123.25
434.953	1157.25
435.175	1201.25
435.397	1190.25
435.618	1099.25
435.84	1065.25
436.062	1042.25
436.284	1033.25
436.505	1023.25
436.727	1054.25
436.949	1056.25
437.17	1029.25
437.392	1033.25
437.614	1037.25
437.835	998.25
438.057	986.25
438.278	982.25
438.5	975.25
438.721	1006.25
438.943	1013.25
439.165	1005.25
439.386	982.25
439.608	1035.25
439.829	1058.25
440.05	1069.25
440.272	1047.25
440.493	1038.25
440.715	1055.25
440.936	1074.25
441.158	1097.25
441.379	1143.25
441.6	1142.25
441.822	1169.25
442.043	1199.25
442.264	1154.25
442.486	1137.25
442.707	1157.25
442.928	1159.25
443.149	1143.25
443.371	1127.25
443.592	1173.25
443.813	1189.25
444.034	1200.25
444.255	1215.25
444.476	1268.25
444.698	1345.25
444.919	1410.25
445.14	1511.25
445.361	1369.25
445.582	1214.25
445.803	1133.25
446.024	1056.25
446.245	1069.25
446.466	1045.25
446.687	1034.25
446.908	1050.25
447.129	1017.25
447.35	1000.25
447.571	1037.25
447.792	975.25
448.013	999.25
448.234	977.25
448.455	959.25
448.675	966.25
448.896	959.25
449.117	926.25
449.338	928.25
449.559	935.25
449.779	932.25
450	925.25
450.221	963.25
450.442	935.25
450.662	957.25
450.883	971.25
451.104	998.25
451.324	956.25
451.545	963.25
451.766	971.25
451.986	956.25
452.207	912.25
452.428	922.25
452.648	938.25
452.869	934.25
453.089	938.25
453.31	940.25
453.53	951.25
453.751	926.25
453.971	917.25
454.192	883.25
454.412	886.25
454.633	921.25
454.853	907.25
455.073	907.25
455.294	893.25
455.514	862.25
455.734	869.25
455.955	887.25
456.175	867.25
456.395	869.25
456.616	872.25
456.836	874.25
457.056	863.25
457.276	844.25
457.497	883.25
457.717	873.25
457.937	907.25
458.157	917.25
458.377	913.25
458.598	929.25
458.818	964.25
459.038	963.25
459.258	1002.25
459.478	1042.25
459.698	1071.25
459.918	1063.25
460.138	1138.25
460.358	1211.25
460.578	1212.25
460.798	1237.25
461.018	1221.25
461.238	1215.25
461.458	1219.25
461.678	1212.25
461.898	1225.25
462.118	1260.25
462.338	1314.25
462.558	1352.25
462.777	1367.25
462.997	1545.25
463.217	1697.25
463.437	1732.25
463.657	1521.25
463.876	1461.25
464.096	1439.25
464.316	1437.25
464.536	1465.25
464.755	1401.25
464.975	1332.25
465.195	1283.25
465.414	1168.25
465.634	1134.25
465.854	1083.25
466.073	1051.25
466.293	1023.25
466.512	1023.25
466.732	1005.25
466.951	987.25
467.171	995.25
467.391	1012.25
467.61	974.25
467.829	963.25
468.049	985.25
468.268	967.25
468.488	929.25
468.707	950.25
468.927	971.25
469.146	929.25
469.365	971.25
469.585	957.25
469.804	983.25
470.023	991.25
470.243	1031.25
470.462	1053.25
470.681	1019.25
470.901	1034.25
471.12	1012.25
471.339	958.25
471.558	952.25
471.777	951.25
471.997	970.25
472.216	962.25
472.435	937.25
472.654	942.25
472.873	897.25
473.092	913.25
473.311	922.25
473.53	900.25
473.749	904.25
473.968	877.25
474.187	904.25
474.406	913.25
474.625	912.25
474.844	906.25
475.063	923.25
475.282	894.25
475.501	910.25
475.72	919.25
475.939	913.25
476.158	921.25
476.377	954.25
476.596	951.25
476.814	979.25
477.033	970.25
477.252	983.25
477.471	1023.25
477.69	1023.25
477.908	1057.25
478.127	1086.25
478.346	1111.25
478.564	1103.25
478.783	1129.25
479.002	1163.25
479.22	1166.25
479.439	1147.25
479.658	1109.25
479.876	1134.25
480.095	1160.25
480.313	1223.25
480.532	1253.25
480.751	1243.25
480.969	1184.25
481.188	1121.25
481.406	1111.25
481.624	1069.25
481.843	1055.25
482.061	1034.25
482.28	1005.25
482.498	1045.25
482.717	1029.25
482.935	1032.25
483.153	1051.25
483.372	1068.25
483.59	1052.25
483.808	1051.25
484.027	1030.25
484.245	1051.25
484.463	1050.25
484.681	1074.25
484.9	1091.25
485.118	1087.25
485.336	1068.25
485.554	1075.25
485.772	1074.25
485.99	1084.25
486.209	1113.25
486.427	1094.25
486.645	1093.25
486.863	1104.25
487.081	1106.25
487.299	1129.25
487.517	1078.25
487.735	1088.25
487.953	1079.25
488.171	1107.25
488.389	1088.25
488.607	1090.25
488.825	1074.25
489.043	1068.25
489.261	1077.25
489.479	1073.25
489.696	1067.25
489.914	1087.25
490.132	1091.25
490.35	1098.25
490.568	1082.25
490.786	1094.25
491.003	1107.25
491.221	1118.25
491.439	1101.25
491.657	1125.25
491.874	1099.25
492.092	1061.25
492.31	1115.25
492.527	1139.25
492.745	1121.25
492.963	1150.25
493.18	1134.25
493.398	1123.25
493.615	1181.25
493.833	1128.25
494.05	1174.25
494.268	1157.25
494.485	1160.25
494.703	1118.25
494.92	1171.25
495.138	1166.25
495.355	1161.25
495.573	1149.25
495.79	1179.25
496.008	1140.25
496.225	1185.25
496.442	1168.25
496.66	1208.25
496.877	1230.25
497.094	1235.25
497.312	1250.25
497.529	1263.25
497.746	1279.25
497.963	1316.25
498.181	1400.25
498.398	1461.25
498.615	1556.25
498.832	1629.25
499.049	1774.25
499.267	1955.25
499.484	2130.25
499.701	2378.25
499.918	2635.25
500.135	3047.25
500.352	3514.25
500.569	3733.25
500.786	3659.25
501.003	3360.25
501.22	3033.25
501.437	2602.25
501.654	2272.25
501.871	2041.25
502.088	1853.25
502.305	1757.25
502.522	1663.25
502.739	1620.25
502.956	1499.25
503.172	1451.25
503.389	1428.25
503.606	1368.25
503.823	1342.25
504.04	1321.25
504.256	1309.25
504.473	1377.25
504.69	1373.25
504.907	1381.25
505.123	1284.25
505.34	1188.25
505.557	1138.25
505.773	1116.25
505.99	1123.25
506.207	1080.25
506.423	1046.25
506.64	1062.25
506.856	1036.25
507.073	1021.25
507.289	1037.25
507.506	1029.25
507.722	1024.25
507.939	961.25
508.155	994.25
508.372	997.25
508.588	1000.25
508.805	977.25
509.021	966.25
509.238	972.25
509.454	969.25
509.67	989.25
509.887	937.25
510.103	906.25
510.319	931.25
510.536	947.25
510.752	947.25
510.968	973.25
511.184	943.25
511.401	941.25
511.617	925.25
511.833	917.25
512.049	911.25
512.265	948.25
512.481	941.25
512.698	933.25
512.914	950.25
513.13	940.25
513.346	941.25
513.562	923.25
513.778	936.25
513.994	952.25
514.21	910.25
514.426	935.25
514.642	931.25
514.858	951.25
515.074	955.25
515.29	977.25
515.506	983.25
515.721	996.25
515.937	1004.25
516.153	1034.25
516.369	1044.25
516.585	1095.25
516.801	1105.25
517.016	1157.25
517.232	1225.25
517.448	1281.25
517.664	1307.25
517.879	1335.25
518.095	1348.25
518.311	1327.25
518.527	1227.25
518.742	1183.25
518.958	1144.25
519.173	1117.25
519.389	1073.25
519.605	1016.25
519.82	1033.25
520.036	974.25
520.251	955.25
520.467	972.25
520.682	961.25
520.898	945.25
521.113	929.25
521.329	925.25
521.544	914.25
521.76	914.25
521.975	903.25
522.19	893.25
522.406	906.25
522.621	899.25
522.836	878.25
523.052	881.25
523.267	884.25
523.482	896.25
523.698	870.25
523.913	855.25
524.128	848.25
524.343	859.25
524.559	862.25
524.774	831.25
524.989	867.25
525.204	842.25
525.419	852.25
525.634	858.25
525.849	863.25
526.064	820.25
526.28	845.25
526.495	851.25
526.71	823.25
526.925	835.25
527.14	872.25
527.355	851.25
527.57	842.25
527.785	846.25
527.999	827.25
528.214	860.25
528.429	849.25
528.644	847.25
528.859	837.25
529.074	841.25
529.289	837.25
529.503	842.25
529.718	850.25
529.933	841.25
530.148	819.25
530.363	845.25
530.577	832.25
530.792	843.25
531.007	857.25
531.221	839.25
531.436	825.25
531.651	855.25
531.865	828.25
532.08	833.25
532.295	856.25
532.509	867.25
532.724	832.25
532.938	834.25
533.153	863.25
533.367	847.25
533.582	853.25
533.796	827.25
534.011	833.25
534.225	838.25
534.44	835.25
534.654	828.25
534.868	827.25
535.083	812.25
535.297	821.25
535.511	802.25
535.726	821.25
535.94	823.25
536.154	788.25
536.369	809.25
536.583	757.25
536.797	810.25
537.011	779.25
537.225	772.25
537.44	761.25
537.654	769.25
537.868	779.25
538.082	754.25
538.296	763.25
538.51	775.25
538.724	778.25
538.938	743.25
539.153	739.25
539.367	746.25
539.581	750.25
539.795	739.25
540.009	741.25
540.222	769.25
540.436	745.25
540.65	734.25
540.864	747.25
541.078	742.25
541.292	774.25
541.506	746.25
541.72	776.25
541.934	755.25
542.147	754.25
542.361	737.25
542.575	734.25
542.789	741.25
543.002	744.25
543.216	740.25
543.43	725.25
543.644	736.25
543.857	746.25
544.071	714.25
544.285	746.25
544.498	742.25
544.712	748.25
544.925	763.25
545.139	757.25
545.352	750.25
545.566	777.25
545.779	773.25
545.993	786.25
546.206	784.25
546.42	771.25
546.633	791.25
546.847	772.25
547.06	781.25
547.274	768.25
547.487	761.25
547.7	783.25
547.914	787.25
548.127	788.25
548.34	772.25
548.554	803.25
548.767	787.25
548.98	770.25
549.193	803.25
549.407	779.25
549.62	819.25
549.833	821.25
550.046	800.25
550.259	801.25
550.473	749.25
550.686	778.25
550.899	760.25
551.112	749.25
551.325	741.25
551.538	750.25
551.751	735.25
551.964	765.25
552.177	757.25
552.39	761.25
552.603	782.25
552.816	788.25
553.029	839.25
553.242	821.25
553.455	832.25
553.667	863.25
553.88	822.25
554.093	818.25
554.306	802.25
554.519	766.25
554.732	747.25
554.944	760.25
555.157	760.25
555.37	738.25
555.583	733.25
555.795	716.25
556.008	706.25
556.221	691.25
556.433	675.25
556.646	693.25
556.859	681.25
557.071	666.25
557.284	682.25
557.496	682.25
557.709	687.25
557.921	640.25
558.134	647.25
558.346	663.25
558.559	641.25
558.771	653.25
558.984	641.25
559.196	654.25
559.409	639.25
559.621	631.25
559.833	645.25
560.046	635.25
560.258	630.25
560.47	651.25
560.683	625.25
560.895	641.25
561.107	639.25
561.32	618.25
561.532	639.25
561.744	618.25
561.956	637.25
562.168	620.25
562.381	655.25
562.593	643.25
562.805	636.25
563.017	647.25
563.229	618.25
563.441	645.25
563.653	639.25
563.865	675.25
564.077	654.25
564.289	666.25
564.501	674.25
564.713	667.25
564.925	665.25
565.137	693.25
565.349	685.25
565.561	721.25
565.773	742.25
565.985	755.25
566.197	824.25
566.408	893.25
566.62	955.25
566.832	1061.25
567.044	1067.25
567.255	1042.25
567.467	1068.25
567.679	1162.25
567.891	1265.25
568.102	1299.25
568.314	1247.25
568.526	1102.25
568.737	994.25
568.949	879.25
569.161	826.25
569.372	772.25
569.584	724.25
569.795	689.25
570.007	679.25
570.218	643.25
570.43	637.25
570.641	658.25
570.853	662.25
571.064	660.25
571.276	679.25
571.487	645.25
571.698	625.25
571.91	595.25
572.121	589.25
572.333	576.25
572.544	558.25
572.755	571.25
572.966	546.25
573.178	520.25
573.389	527.25
573.6	519.25
573.811	534.25
574.023	538.25
574.234	537.25
574.445	523.25
574.656	542.25
574.867	527.25
575.078	511.25
575.289	524.25
575.501	529.25
575.712	496.25
575.923	499.25
576.134	506.25
576.345	484.25
576.556	503.25
576.767	493.25
576.978	507.25
577.188	497.25
577.399	487.25
577.61	487.25
577.821	470.25
578.032	485.25
578.243	472.25
578.454	471.25
578.665	484.25
578.875	462.25
579.086	465.25
579.297	469.25
579.508	453.25
579.718	468.25
579.929	464.25
580.14	454.25
580.35	452.25
580.561	467.25
580.772	454.25
580.982	457.25
581.193	446.25
581.403	459.25
581.614	449.25
581.825	447.25
582.035	441.25
582.246	439.25
582.456	447.25
582.667	438.25
582.877	434.25
583.087	443.25
583.298	449.25
583.508	432.25
583.719	439.25
583.929	425.25
584.139	437.25
584.35	430.25
584.56	429.25
584.77	421.25
584.981	426.25
585.191	440.25
585.401	441.25
585.611	434.25
585.821	438.25
586.032	412.25
586.242	426.25
586.452	429.25
586.662	429.25
586.872	416.25
587.082	400.25
587.292	433.25
587.502	418.25
587.713	418.25
587.923	429.25
588.133	402.25
588.343	425.25
588.553	422.25
588.762	417.25
588.972	406.25
589.182	433.25
589.392	425.25
589.602	425.25
589.812	419.25
590.022	421.25
590.232	433.25
590.441	413.25
590.651	431.25
590.861	437.25
591.071	437.25
591.281	434.25
591.49	437.25
591.7	453.25
591.91	456.25
592.119	434.25
592.329	475.25
592.539	493.25
592.748	475.25
592.958	499.25
593.167	516.25
593.377	521.25
593.587	546.25
593.796	551.25
594.006	550.25
594.215	553.25
594.424	546.25
594.634	540.25
594.843	525.25
595.053	506.25
595.262	490.25
595.472	466.25
595.681	442.25
595.89	440.25
596.1	413.25
596.309	425.25
596.518	403.25
596.727	375.25
596.937	372.25
597.146	396.25
597.355	406.25
597.564	369.25
597.774	381.25
597.983	374.25
598.192	364.25
598.401	359.25
598.61	363.25
598.819	379.25
599.028	338.25
599.237	354.25
599.446	348.25
599.655	347.25
599.864	361.25
600.073	369.25
600.282	365.25
600.491	365.25
600.7	379.25
600.909	343.25
601.118	348.25
601.327	353.25
601.536	348.25
601.745	351.25
601.953	358.25
602.162	344.25
602.371	343.25
602.58	360.25
602.789	339.25
602.997	355.25
603.206	345.25
603.415	337.25
603.623	330.25
603.832	340.25
604.041	341.25
604.249	330.25
604.458	341.25
604.666	334.25
604.875	337.25
605.084	315.25
605.292	330.25
605.501	339.25
605.709	321.25
605.918	332.25
606.126	322.25
606.334	314.25
606.543	320.25
606.751	332.25
606.96	331.25
607.168	321.25
607.376	298.25
607.585	318.25
607.793	321.25
608.001	322.25
608.21	314.25
608.418	324.25
608.626	316.25
608.834	327.25
609.043	327.25
609.251	314.25
609.459	328.25
609.667	317.25
609.875	307.25
610.083	299.25
610.291	317.25
610.499	322.25
610.707	323.25
610.916	314.25
611.124	333.25
611.332	329.25
611.54	315.25
611.748	316.25
611.955	314.25
612.163	293.25
612.371	303.25
612.579	311.25
612.787	339.25
612.995	305.25
613.203	313.25
613.411	293.25
613.618	315.25
613.826	290.25
614.034	297.25
614.242	307.25
614.449	310.25
614.657	295.25
614.865	282.25
615.072	303.25
615.28	309.25
615.488	306.25
615.695	310.25
615.903	296.25
616.111	329.25
616.318	307.25
616.526	321.25
616.733	315.25
616.941	313.25
617.148	313.25
617.356	321.25
617.563	313.25
617.771	323.25
617.978	309.25
618.185	306.25
618.393	301.25
618.6	301.25
618.807	298.25
619.015	313.25
619.222	305.25
619.429	306.25
619.637	291.25
619.844	298.25
620.051	303.25
620.258	285.25
620.466	272.25
620.673	278.25
620.88	281.25
621.087	286.25
621.294	277.25
621.501	287.25
621.708	295.25
621.915	290.25
622.122	278.25
622.329	267.25
622.536	271.25
622.743	287.25
622.95	307.25
623.157	290.25
623.364	267.25
623.571	268.25
623.778	283.25
623.985	287.25
624.192	277.25
624.399	265.25
624.606	264.25
624.812	241.25
625.019	265.25
625.226	278.25
625.433	267.25
625.639	242.25
625.846	264.25
626.053	250.25
626.259	270.25
626.466	250.25
626.673	269.25
626.879	262.25
627.086	257.25
627.293	245.25
627.499	262.25
627.706	258.25
627.912	249.25
628.119	269.25
628.325	276.25
628.532	235.25
628.738	241.25
628.945	258.25
629.151	261.25
629.357	252.25
629.564	249.25
629.77	242.25
629.976	238.25
630.183	249.25
630.389	255.25
630.595	235.25
630.802	249.25
631.008	244.25
631.214	257.25
631.42	226.25
631.627	222.25
631.833	244.25
632.039	221.25
632.245	223.25
632.451	233.25
632.657	222.25
632.863	227.25
633.069	225.25
633.275	234.25
633.481	234.25
633.688	216.25
633.893	231.25
634.099	234.25
634.305	233.25
634.511	217.25
634.717	232.25
634.923	204.25
635.129	221.25
635.335	237.25
635.541	203.25
635.747	219.25
635.952	207.25
636.158	228.25
636.364	217.25
636.57	207.25
636.775	232.25
636.981	222.25
637.187	202.25
637.392	215.25
637.598	205.25
637.804	237.25
638.009	218.25
638.215	215.25
638.421	218.25
638.626	210.25
638.832	219.25
639.037	220.25
639.243	229.25
639.448	223.25
639.654	210.25
639.859	224.25
640.065	214.25
640.27	186.25
640.475	210.25
640.681	199.25
640.886	192.25
641.091	213.25
641.297	195.25
641.502	198.25
641.707	207.25
641.913	193.25
642.118	187.25
642.323	186.25
642.528	212.25
642.733	205.25
642.939	194.25
643.144	196.25
643.349	202.25
643.554	198.25
643.759	183.25
643.964	204.25
644.169	195.25
644.374	189.25
644.579	207.25
644.784	194.25
644.989	189.25
645.194	201.25
645.399	203.25
645.604	213.25
645.809	198.25
646.014	196.25
646.219	197.25
646.423	209.25
646.628	197.25
646.833	206.25
647.038	200.25
647.243	210.25
647.447	204.25
647.652	208.25
647.857	212.25
648.062	223.25
648.266	214.25
648.471	211.25
648.676	224.25
648.88	204.25
649.085	212.25
649.289	213.25
649.494	205.25
649.698	191.25
649.903	200.25
650.107	189.25
650.312	176.25
650.516	198.25
650.721	201.25
650.925	184.25
651.13	196.25
651.334	174.25
651.539	174.25
651.743	168.25
651.947	181.25
652.152	173.25
652.356	165.25
652.56	174.25
652.764	161.25
652.969	170.25
653.173	169.25
653.377	162.25
653.581	152.25
653.785	162.25
653.99	146.25
654.194	153.25
654.398	142.25
654.602	137.25
654.806	146.25
655.01	165.25
655.214	158.25
655.418	141.25
655.622	148.25
655.826	154.25
656.03	143.25
656.234	143.25
656.438	119.25
656.642	143.25
656.846	140.25
657.049	141.25
657.253	138.25
657.457	120.25
657.661	117.25
657.865	102.25
658.068	133.25
658.272	127.25
658.476	122.25
658.68	113.25
658.883	120.25
659.087	118.25
659.291	111.25
659.494	109.25
659.698	101.25
659.901	95.25
660.105	102.25
660.309	99.25
660.512	94.25
660.716	99.25
660.919	101.25
661.123	98.25
661.326	93.25
661.53	89.25
661.733	86.25
661.936	80.25
662.14	86.25
662.343	96.25
662.546	78.25
662.75	93.25
662.953	91.25
663.156	94.25
663.36	84.25
663.563	85.25
663.766	92.25
663.969	63.25
664.173	76.25
664.376	89.25
664.579	95.25
664.782	83.25
664.985	80.25
665.188	82.25
665.391	85.25
665.594	71.25
665.797	91.25
666	107.25
666.203	74.25
666.406	74.25
666.609	85.25
666.812	89.25
667.015	82.25
667.218	92.25
667.421	77.25
667.624	78.25
667.827	90.25
668.03	73.25
668.232	95.25
668.435	83.25
668.638	86.25
668.841	78.25
669.043	83.25
669.246	87.25
669.449	88.25
669.651	86.25
669.854	104.25
670.057	104.25
670.259	78.25
670.462	87.25
670.665	83.25
670.867	85.25
671.07	88.25
671.272	76.25
671.475	95.25
671.677	83.25
671.88	77.25
672.082	85.25
672.284	90.25
672.487	81.25
672.689	75.25
672.892	78.25
