Data from NiCl2@0.0625M.TitratingCurve.Agarose3%dH2O.NegLispCup.LampEnergy10.LIBS07252019_HRD10591_18-34-53-576.txt Node
Date: Thu Jul 25 18:34:53 EDT 2019
User: cochatt
Spectrometer: HR+D1059
Trigger mode: 1
Integration Time (sec): 1.000000E-1
Scans to average: 1
Electric dark correction enabled: true
Nonlinearity correction enabled: false
Boxcar width: 0
XAxis mode: Wavelengths
Number of Pixels in Spectrum: 2048
>>>>>Begin Spectral Data<<<<<
223.165	-17.5
223.4	-17.5
223.635	-17.5
223.869	-15.5
224.104	-13.5
224.338	-19.5
224.573	-11.5
224.808	-10.5
225.042	-15.5
225.277	-2.5
225.511	-11.5
225.746	-4.5
225.98	-5.5
226.215	32.5
226.449	9.5
226.683	16.5
226.918	31.5
227.152	37.5
227.387	42.5
227.621	37.5
227.856	44.5
228.09	34.5
228.324	53.5
228.559	73.5
228.793	75.5
229.027	120.5
229.262	139.5
229.496	116.5
229.73	161.5
229.964	152.5
230.199	175.5
230.433	155.5
230.667	152.5
230.901	170.5
231.136	165.5
231.37	175.5
231.604	177.5
231.838	161.5
232.072	180.5
232.306	186.5
232.541	184.5
232.775	180.5
233.009	175.5
233.243	186.5
233.477	180.5
233.711	194.5
233.945	188.5
234.179	187.5
234.413	198.5
234.647	197.5
234.881	201.5
235.115	214.5
235.349	193.5
235.583	196.5
235.817	199.5
236.051	205.5
236.285	204.5
236.519	210.5
236.753	211.5
236.987	220.5
237.221	205.5
237.455	221.5
237.689	210.5
237.922	202.5
238.156	223.5
238.39	224.5
238.624	222.5
238.858	242.5
239.091	218.5
239.325	224.5
239.559	235.5
239.793	252.5
240.027	249.5
240.26	243.5
240.494	235.5
240.728	253.5
240.961	252.5
241.195	259.5
241.429	259.5
241.662	253.5
241.896	272.5
242.13	255.5
242.363	268.5
242.597	271.5
242.83	264.5
243.064	272.5
243.298	276.5
243.531	288.5
243.765	296.5
243.998	291.5
244.232	307.5
244.465	305.5
244.699	300.5
244.932	319.5
245.166	287.5
245.399	306.5
245.633	313.5
245.866	315.5
246.099	324.5
246.333	317.5
246.566	313.5
246.8	317.5
247.033	323.5
247.266	321.5
247.5	345.5
247.733	333.5
247.966	343.5
248.2	324.5
248.433	335.5
248.666	326.5
248.899	345.5
249.133	339.5
249.366	360.5
249.599	357.5
249.832	353.5
250.066	360.5
250.299	368.5
250.532	355.5
250.765	359.5
250.998	361.5
251.231	377.5
251.465	352.5
251.698	385.5
251.931	403.5
252.164	378.5
252.397	388.5
252.63	393.5
252.863	391.5
253.096	398.5
253.329	399.5
253.562	395.5
253.795	386.5
254.028	404.5
254.261	414.5
254.494	427.5
254.727	402.5
254.96	412.5
255.193	414.5
255.426	429.5
255.659	424.5
255.892	413.5
256.124	421.5
256.357	417.5
256.59	425.5
256.823	415.5
257.056	426.5
257.289	427.5
257.521	435.5
257.754	449.5
257.987	445.5
258.22	437.5
258.452	440.5
258.685	433.5
258.918	457.5
259.151	430.5
259.383	460.5
259.616	431.5
259.849	461.5
260.081	466.5
260.314	480.5
260.547	491.5
260.779	466.5
261.012	461.5
261.244	470.5
261.477	484.5
261.71	478.5
261.942	475.5
262.175	469.5
262.407	471.5
262.64	498.5
262.872	488.5
263.105	482.5
263.337	507.5
263.57	481.5
263.802	478.5
264.035	491.5
264.267	506.5
264.499	521.5
264.732	492.5
264.964	521.5
265.197	526.5
265.429	520.5
265.661	522.5
265.894	544.5
266.126	533.5
266.358	547.5
266.591	537.5
266.823	534.5
267.055	533.5
267.287	529.5
267.52	563.5
267.752	546.5
267.984	546.5
268.216	548.5
268.448	554.5
268.681	537.5
268.913	543.5
269.145	569.5
269.377	564.5
269.609	569.5
269.841	563.5
270.073	566.5
270.306	569.5
270.538	559.5
270.77	559.5
271.002	577.5
271.234	576.5
271.466	582.5
271.698	570.5
271.93	573.5
272.162	579.5
272.394	605.5
272.626	605.5
272.858	599.5
273.09	599.5
273.322	593.5
273.553	612.5
273.785	604.5
274.017	612.5
274.249	624.5
274.481	632.5
274.713	616.5
274.945	631.5
275.176	628.5
275.408	632.5
275.64	626.5
275.872	608.5
276.104	663.5
276.335	624.5
276.567	645.5
276.799	643.5
277.031	668.5
277.262	655.5
277.494	624.5
277.726	662.5
277.957	639.5
278.189	660.5
278.421	661.5
278.652	671.5
278.884	650.5
279.115	677.5
279.347	654.5
279.579	679.5
279.81	645.5
280.042	653.5
280.273	690.5
280.505	678.5
280.736	703.5
280.968	687.5
281.199	702.5
281.431	704.5
281.662	713.5
281.894	713.5
282.125	715.5
282.356	721.5
282.588	729.5
282.819	708.5
283.051	721.5
283.282	693.5
283.513	716.5
283.745	744.5
283.976	708.5
284.207	703.5
284.439	716.5
284.67	724.5
284.901	723.5
285.132	769.5
285.364	751.5
285.595	741.5
285.826	732.5
286.057	726.5
286.288	730.5
286.52	754.5
286.751	771.5
286.982	775.5
287.213	755.5
287.444	758.5
287.675	768.5
287.906	779.5
288.138	771.5
288.369	779.5
288.6	788.5
288.831	777.5
289.062	778.5
289.293	794.5
289.524	799.5
289.755	759.5
289.986	798.5
290.217	786.5
290.448	773.5
290.679	802.5
290.91	784.5
291.141	775.5
291.371	777.5
291.602	796.5
291.833	795.5
292.064	807.5
292.295	784.5
292.526	817.5
292.757	802.5
292.987	787.5
293.218	785.5
293.449	808.5
293.68	821.5
293.91	819.5
294.141	806.5
294.372	810.5
294.603	806.5
294.833	804.5
295.064	824.5
295.295	813.5
295.525	798.5
295.756	815.5
295.987	839.5
296.217	836.5
296.448	797.5
296.679	844.5
296.909	845.5
297.14	840.5
297.37	838.5
297.601	831.5
297.831	849.5
298.062	871.5
298.292	878.5
298.523	872.5
298.753	875.5
298.984	860.5
299.214	872.5
299.445	858.5
299.675	879.5
299.905	876.5
300.136	897.5
300.366	895.5
300.597	888.5
300.827	881.5
301.057	877.5
301.288	932.5
301.518	899.5
301.748	930.5
301.979	924.5
302.209	928.5
302.439	925.5
302.669	887.5
302.9	935.5
303.13	895.5
303.36	908.5
303.59	898.5
303.82	899.5
304.051	899.5
304.281	897.5
304.511	909.5
304.741	912.5
304.971	899.5
305.201	923.5
305.431	897.5
305.661	889.5
305.891	896.5
306.121	879.5
306.352	902.5
306.582	892.5
306.812	898.5
307.042	889.5
307.272	899.5
307.502	886.5
307.731	859.5
307.961	915.5
308.191	917.5
308.421	899.5
308.651	923.5
308.881	873.5
309.111	887.5
309.341	883.5
309.571	913.5
309.8	930.5
310.03	895.5
310.26	905.5
310.49	895.5
310.72	904.5
310.949	891.5
311.179	894.5
311.409	940.5
311.639	946.5
311.868	927.5
312.098	918.5
312.328	940.5
312.557	924.5
312.787	919.5
313.017	949.5
313.246	931.5
313.476	972.5
313.706	946.5
313.935	986.5
314.165	965.5
314.394	961.5
314.624	992.5
314.853	977.5
315.083	963.5
315.312	986.5
315.542	947.5
315.771	960.5
316.001	972.5
316.23	933.5
316.46	965.5
316.689	939.5
316.919	974.5
317.148	971.5
317.377	956.5
317.607	975.5
317.836	946.5
318.065	951.5
318.295	939.5
318.524	947.5
318.753	979.5
318.983	949.5
319.212	946.5
319.441	959.5
319.67	943.5
319.9	959.5
320.129	945.5
320.358	953.5
320.587	944.5
320.816	964.5
321.046	949.5
321.275	953.5
321.504	1009.5
321.733	981.5
321.962	986.5
322.191	970.5
322.42	975.5
322.649	981.5
322.878	967.5
323.108	956.5
323.337	981.5
323.566	996.5
323.795	992.5
324.024	999.5
324.253	1005.5
324.482	979.5
324.71	995.5
324.939	1021.5
325.168	1012.5
325.397	1035.5
325.626	999.5
325.855	1025.5
326.084	1046.5
326.313	1029.5
326.542	1063.5
326.77	1060.5
326.999	1029.5
327.228	1041.5
327.457	1009.5
327.686	1055.5
327.914	1055.5
328.143	1064.5
328.372	1054.5
328.6	1045.5
328.829	1033.5
329.058	1073.5
329.287	1034.5
329.515	1059.5
329.744	1054.5
329.972	1064.5
330.201	1034.5
330.43	1081.5
330.658	1075.5
330.887	1079.5
331.115	1063.5
331.344	1071.5
331.572	1124.5
331.801	1119.5
332.03	1138.5
332.258	1139.5
332.486	1156.5
332.715	1201.5
332.943	1242.5
333.172	1253.5
333.4	1316.5
333.629	1308.5
333.857	1339.5
334.085	1351.5
334.314	1313.5
334.542	1322.5
334.771	1312.5
334.999	1305.5
335.227	1283.5
335.455	1296.5
335.684	1257.5
335.912	1290.5
336.14	1293.5
336.369	1256.5
336.597	1264.5
336.825	1265.5
337.053	1244.5
337.281	1221.5
337.51	1238.5
337.738	1234.5
337.966	1177.5
338.194	1163.5
338.422	1166.5
338.65	1170.5
338.878	1179.5
339.106	1155.5
339.334	1153.5
339.562	1136.5
339.79	1128.5
340.018	1129.5
340.246	1115.5
340.474	1089.5
340.702	1101.5
340.93	1096.5
341.158	1112.5
341.386	1088.5
341.614	1144.5
341.842	1099.5
342.07	1118.5
342.298	1104.5
342.526	1078.5
342.754	1083.5
342.981	1093.5
343.209	1136.5
343.437	1174.5
343.665	1199.5
343.893	1253.5
344.12	1299.5
344.348	1257.5
344.576	1201.5
344.804	1178.5
345.031	1132.5
345.259	1128.5
345.487	1149.5
345.714	1105.5
345.942	1103.5
346.17	1069.5
346.397	1081.5
346.625	1063.5
346.853	1025.5
347.08	1043.5
347.308	1066.5
347.535	1066.5
347.763	1068.5
347.99	1048.5
348.218	1041.5
348.445	1049.5
348.673	1044.5
348.9	1016.5
349.128	1033.5
349.355	1038.5
349.583	1048.5
349.81	1028.5
350.037	1034.5
350.265	1023.5
350.492	1015.5
350.72	1041.5
350.947	1010.5
351.174	1025.5
351.402	1067.5
351.629	1017.5
351.856	1020.5
352.083	1001.5
352.311	1020.5
352.538	1019.5
352.765	1009.5
352.992	992.5
353.22	977.5
353.447	1021.5
353.674	1014.5
353.901	1004.5
354.128	1013.5
354.355	1018.5
354.583	970.5
354.81	1003.5
355.037	1009.5
355.264	1015.5
355.491	1017.5
355.718	1003.5
355.945	1029.5
356.172	1000.5
356.399	1031.5
356.626	1013.5
356.853	1051.5
357.08	996.5
357.307	1016.5
357.534	1026.5
357.761	1029.5
357.988	1015.5
358.215	1045.5
358.441	982.5
358.668	1025.5
358.895	1026.5
359.122	1024.5
359.349	1003.5
359.576	1030.5
359.802	1034.5
360.029	994.5
360.256	1027.5
360.483	1032.5
360.709	986.5
360.936	989.5
361.163	1009.5
361.39	1000.5
361.616	1016.5
361.843	1022.5
362.07	1021.5
362.296	993.5
362.523	983.5
362.749	1016.5
362.976	1027.5
363.203	1013.5
363.429	982.5
363.656	1006.5
363.882	1038.5
364.109	1025.5
364.335	1043.5
364.562	982.5
364.788	985.5
365.015	1024.5
365.241	1023.5
365.468	998.5
365.694	1024.5
365.92	1011.5
366.147	1003.5
366.373	1032.5
366.599	1013.5
366.826	1036.5
367.052	1016.5
367.278	1029.5
367.505	1011.5
367.731	1052.5
367.957	1040.5
368.184	1055.5
368.41	1035.5
368.636	1064.5
368.862	1027.5
369.089	1046.5
369.315	1045.5
369.541	1062.5
369.767	1060.5
369.993	1066.5
370.219	1042.5
370.445	1072.5
370.672	1075.5
370.898	1093.5
371.124	1098.5
371.35	1108.5
371.576	1106.5
371.802	1093.5
372.028	1092.5
372.254	1088.5
372.48	1081.5
372.706	1121.5
372.932	1119.5
373.158	1143.5
373.384	1121.5
373.61	1123.5
373.835	1120.5
374.061	1117.5
374.287	1129.5
374.513	1138.5
374.739	1175.5
374.965	1168.5
375.191	1221.5
375.416	1210.5
375.642	1135.5
375.868	1180.5
376.094	1129.5
376.319	1137.5
376.545	1102.5
376.771	1095.5
376.997	1118.5
377.222	1127.5
377.448	1098.5
377.674	1094.5
377.899	1087.5
378.125	1105.5
378.35	1096.5
378.576	1071.5
378.802	1107.5
379.027	1093.5
379.253	1110.5
379.478	1091.5
379.704	1099.5
379.929	1116.5
380.155	1108.5
380.38	1084.5
380.606	1091.5
380.831	1098.5
381.057	1116.5
381.282	1090.5
381.507	1058.5
381.733	1098.5
381.958	1148.5
382.184	1125.5
382.409	1128.5
382.634	1131.5
382.86	1154.5
383.085	1116.5
383.31	1165.5
383.535	1173.5
383.761	1211.5
383.986	1179.5
384.211	1203.5
384.436	1246.5
384.662	1235.5
384.887	1263.5
385.112	1254.5
385.337	1288.5
385.562	1290.5
385.787	1291.5
386.013	1314.5
386.238	1306.5
386.463	1325.5
386.688	1320.5
386.913	1279.5
387.138	1304.5
387.363	1293.5
387.588	1286.5
387.813	1301.5
388.038	1333.5
388.263	1273.5
388.488	1313.5
388.713	1304.5
388.938	1299.5
389.163	1300.5
389.387	1332.5
389.612	1293.5
389.837	1297.5
390.062	1306.5
390.287	1297.5
390.512	1279.5
390.736	1303.5
390.961	1308.5
391.186	1318.5
391.411	1360.5
391.636	1410.5
391.86	1415.5
392.085	1447.5
392.31	1409.5
392.534	1436.5
392.759	1417.5
392.984	1411.5
393.208	1370.5
393.433	1380.5
393.658	1367.5
393.882	1368.5
394.107	1367.5
394.331	1407.5
394.556	1365.5
394.78	1407.5
395.005	1411.5
395.229	1411.5
395.454	1460.5
395.678	1463.5
395.903	1444.5
396.127	1442.5
396.352	1434.5
396.576	1402.5
396.801	1405.5
397.025	1434.5
397.249	1467.5
397.474	1474.5
397.698	1479.5
397.922	1485.5
398.147	1507.5
398.371	1524.5
398.595	1542.5
398.82	1610.5
399.044	1744.5
399.268	1846.5
399.492	2024.5
399.717	2232.5
399.941	2273.5
400.165	2108.5
400.389	1957.5
400.613	1841.5
400.837	1730.5
401.062	1699.5
401.286	1681.5
401.51	1617.5
401.734	1609.5
401.958	1661.5
402.182	1642.5
402.406	1677.5
402.63	1648.5
402.854	1650.5
403.078	1708.5
403.302	1706.5
403.526	1714.5
403.75	1783.5
403.974	1818.5
404.198	1782.5
404.422	1818.5
404.645	1788.5
404.869	1733.5
405.093	1769.5
405.317	1740.5
405.541	1755.5
405.765	1764.5
405.988	1751.5
406.212	1789.5
406.436	1740.5
406.66	1770.5
406.883	1814.5
407.107	1963.5
407.331	2042.5
407.555	2078.5
407.778	2053.5
408.002	2047.5
408.226	1969.5
408.449	1967.5
408.673	1890.5
408.896	1876.5
409.12	1805.5
409.344	1833.5
409.567	1809.5
409.791	1818.5
410.014	1815.5
410.238	1777.5
410.461	1763.5
410.685	1783.5
410.908	1741.5
411.132	1749.5
411.355	1704.5
411.578	1734.5
411.802	1690.5
412.025	1691.5
412.249	1724.5
412.472	1735.5
412.695	1660.5
412.919	1669.5
413.142	1651.5
413.365	1659.5
413.589	1674.5
413.812	1613.5
414.035	1579.5
414.258	1631.5
414.482	1634.5
414.705	1597.5
414.928	1639.5
415.151	1610.5
415.374	1600.5
415.597	1620.5
415.821	1549.5
416.044	1589.5
416.267	1561.5
416.49	1553.5
416.713	1562.5
416.936	1603.5
417.159	1563.5
417.382	1542.5
417.605	1522.5
417.828	1553.5
418.051	1571.5
418.274	1569.5
418.497	1566.5
418.72	1577.5
418.943	1636.5
419.166	1708.5
419.389	1796.5
419.611	1798.5
419.834	1697.5
420.057	1690.5
420.28	1590.5
420.503	1545.5
420.726	1523.5
420.948	1526.5
421.171	1570.5
421.394	1573.5
421.617	1577.5
421.839	1586.5
422.062	1583.5
422.285	1555.5
422.507	1576.5
422.73	1587.5
422.953	1553.5
423.175	1617.5
423.398	1636.5
423.621	1606.5
423.843	1617.5
424.066	1590.5
424.288	1630.5
424.511	1627.5
424.733	1575.5
424.956	1594.5
425.178	1617.5
425.401	1555.5
425.623	1565.5
425.846	1529.5
426.068	1530.5
426.291	1539.5
426.513	1492.5
426.735	1509.5
426.958	1474.5
427.18	1454.5
427.402	1475.5
427.625	1492.5
427.847	1413.5
428.069	1429.5
428.292	1432.5
428.514	1420.5
428.736	1417.5
428.958	1405.5
429.181	1434.5
429.403	1407.5
429.625	1435.5
429.847	1407.5
430.069	1377.5
430.292	1396.5
430.514	1367.5
430.736	1420.5
430.958	1416.5
431.18	1411.5
431.402	1432.5
431.624	1386.5
431.846	1419.5
432.068	1468.5
432.29	1483.5
432.512	1439.5
432.734	1499.5
432.956	1421.5
433.178	1452.5
433.4	1449.5
433.622	1508.5
433.844	1486.5
434.066	1459.5
434.287	1477.5
434.509	1551.5
434.731	1587.5
434.953	1601.5
435.175	1624.5
435.397	1604.5
435.618	1504.5
435.84	1474.5
436.062	1439.5
436.284	1476.5
436.505	1439.5
436.727	1425.5
436.949	1398.5
437.17	1423.5
437.392	1408.5
437.614	1417.5
437.835	1357.5
438.057	1354.5
438.278	1341.5
438.5	1371.5
438.721	1408.5
438.943	1369.5
439.165	1375.5
439.386	1383.5
439.608	1418.5
439.829	1379.5
440.05	1405.5
440.272	1435.5
440.493	1405.5
440.715	1444.5
440.936	1479.5
441.158	1444.5
441.379	1546.5
441.6	1553.5
441.822	1525.5
442.043	1559.5
442.264	1555.5
442.486	1529.5
442.707	1506.5
442.928	1507.5
443.149	1510.5
443.371	1515.5
443.592	1558.5
443.813	1559.5
444.034	1541.5
444.255	1621.5
444.476	1655.5
444.698	1727.5
444.919	1767.5
445.14	1844.5
445.361	1738.5
445.582	1622.5
445.803	1535.5
446.024	1485.5
446.245	1504.5
446.466	1452.5
446.687	1460.5
446.908	1387.5
447.129	1405.5
447.35	1356.5
447.571	1344.5
447.792	1306.5
448.013	1333.5
448.234	1323.5
448.455	1292.5
448.675	1306.5
448.896	1293.5
449.117	1270.5
449.338	1267.5
449.559	1247.5
449.779	1263.5
450	1243.5
450.221	1247.5
450.442	1270.5
450.662	1275.5
450.883	1264.5
451.104	1319.5
451.324	1272.5
451.545	1285.5
451.766	1284.5
451.986	1252.5
452.207	1282.5
452.428	1271.5
452.648	1265.5
452.869	1212.5
453.089	1243.5
453.31	1248.5
453.53	1196.5
453.751	1228.5
453.971	1220.5
454.192	1233.5
454.412	1183.5
454.633	1243.5
454.853	1209.5
455.073	1203.5
455.294	1215.5
455.514	1185.5
455.734	1218.5
455.955	1184.5
456.175	1205.5
456.395	1212.5
456.616	1215.5
456.836	1207.5
457.056	1180.5
457.276	1175.5
457.497	1208.5
457.717	1201.5
457.937	1226.5
458.157	1248.5
458.377	1238.5
458.598	1300.5
458.818	1315.5
459.038	1300.5
459.258	1349.5
459.478	1399.5
459.698	1447.5
459.918	1481.5
460.138	1493.5
460.358	1595.5
460.578	1562.5
460.798	1591.5
461.018	1639.5
461.238	1610.5
461.458	1589.5
461.678	1606.5
461.898	1656.5
462.118	1639.5
462.338	1722.5
462.558	1779.5
462.777	1823.5
462.997	1929.5
463.217	2026.5
463.437	2010.5
463.657	1934.5
463.876	1863.5
464.096	1869.5
464.316	1824.5
464.536	1860.5
464.755	1801.5
464.975	1740.5
465.195	1643.5
465.414	1600.5
465.634	1497.5
465.854	1464.5
466.073	1443.5
466.293	1387.5
466.512	1363.5
466.732	1362.5
466.951	1340.5
467.171	1355.5
467.391	1352.5
467.61	1351.5
467.829	1322.5
468.049	1302.5
468.268	1291.5
468.488	1267.5
468.707	1314.5
468.927	1299.5
469.146	1268.5
469.365	1319.5
469.585	1311.5
469.804	1355.5
470.023	1386.5
470.243	1379.5
470.462	1377.5
470.681	1363.5
470.901	1360.5
471.12	1345.5
471.339	1376.5
471.558	1296.5
471.777	1318.5
471.997	1349.5
472.216	1323.5
472.435	1306.5
472.654	1289.5
472.873	1292.5
473.092	1281.5
473.311	1292.5
473.53	1283.5
473.749	1255.5
473.968	1266.5
474.187	1260.5
474.406	1264.5
474.625	1267.5
474.844	1282.5
475.063	1292.5
475.282	1312.5
475.501	1303.5
475.72	1304.5
475.939	1329.5
476.158	1333.5
476.377	1360.5
476.596	1306.5
476.814	1361.5
477.033	1366.5
477.252	1388.5
477.471	1415.5
477.69	1427.5
477.908	1446.5
478.127	1487.5
478.346	1531.5
478.564	1550.5
478.783	1538.5
479.002	1600.5
479.22	1604.5
479.439	1618.5
479.658	1608.5
479.876	1586.5
480.095	1609.5
480.313	1686.5
480.532	1721.5
480.751	1689.5
480.969	1649.5
481.188	1609.5
481.406	1621.5
481.624	1566.5
481.843	1523.5
482.061	1555.5
482.28	1537.5
482.498	1565.5
482.717	1556.5
482.935	1501.5
483.153	1523.5
483.372	1539.5
483.59	1584.5
483.808	1569.5
484.027	1568.5
484.245	1552.5
484.463	1617.5
484.681	1629.5
484.9	1651.5
485.118	1644.5
485.336	1633.5
485.554	1676.5
485.772	1689.5
485.99	1629.5
486.209	1707.5
486.427	1667.5
486.645	1662.5
486.863	1683.5
487.081	1640.5
487.299	1669.5
487.517	1657.5
487.735	1668.5
487.953	1675.5
488.171	1660.5
488.389	1614.5
488.607	1628.5
488.825	1577.5
489.043	1621.5
489.261	1603.5
489.479	1610.5
489.696	1618.5
489.914	1582.5
490.132	1596.5
490.35	1633.5
490.568	1595.5
490.786	1572.5
491.003	1624.5
491.221	1592.5
491.439	1605.5
491.657	1608.5
491.874	1620.5
492.092	1583.5
492.31	1595.5
492.527	1568.5
492.745	1586.5
492.963	1594.5
493.18	1633.5
493.398	1623.5
493.615	1632.5
493.833	1633.5
494.05	1594.5
494.268	1605.5
494.485	1621.5
494.703	1659.5
494.92	1679.5
495.138	1613.5
495.355	1643.5
495.573	1609.5
495.79	1640.5
496.008	1692.5
496.225	1647.5
496.442	1682.5
496.66	1717.5
496.877	1767.5
497.094	1764.5
497.312	1789.5
497.529	1808.5
497.746	1821.5
497.963	1897.5
498.181	1972.5
498.398	2090.5
498.615	2194.5
498.832	2259.5
499.049	2404.5
499.267	2646.5
499.484	2799.5
499.701	3044.5
499.918	3319.5
500.135	3588.5
500.352	3951.5
500.569	4187.5
500.786	4081.5
501.003	3853.5
501.22	3570.5
501.437	3298.5
501.654	2976.5
501.871	2839.5
502.088	2595.5
502.305	2419.5
502.522	2324.5
502.739	2211.5
502.956	2090.5
503.172	1999.5
503.389	1981.5
503.606	1920.5
503.823	1835.5
504.04	1852.5
504.256	1863.5
504.473	1860.5
504.69	1842.5
504.907	1825.5
505.123	1759.5
505.34	1699.5
505.557	1620.5
505.773	1541.5
505.99	1535.5
506.207	1529.5
506.423	1514.5
506.64	1468.5
506.856	1431.5
507.073	1402.5
507.289	1407.5
507.506	1352.5
507.722	1415.5
507.939	1384.5
508.155	1387.5
508.372	1361.5
508.588	1360.5
508.805	1345.5
509.021	1342.5
509.238	1343.5
509.454	1335.5
509.67	1287.5
509.887	1305.5
510.103	1301.5
510.319	1257.5
510.536	1300.5
510.752	1313.5
510.968	1271.5
511.184	1265.5
511.401	1270.5
511.617	1277.5
511.833	1289.5
512.049	1285.5
512.265	1261.5
512.481	1280.5
512.698	1276.5
512.914	1274.5
513.13	1259.5
513.346	1284.5
513.562	1279.5
513.778	1268.5
513.994	1275.5
514.21	1282.5
514.426	1269.5
514.642	1299.5
514.858	1290.5
515.074	1290.5
515.29	1298.5
515.506	1309.5
515.721	1346.5
515.937	1367.5
516.153	1380.5
516.369	1430.5
516.585	1463.5
516.801	1510.5
517.016	1511.5
517.232	1569.5
517.448	1639.5
517.664	1649.5
517.879	1629.5
518.095	1681.5
518.311	1661.5
518.527	1591.5
518.742	1576.5
518.958	1509.5
519.173	1455.5
519.389	1418.5
519.605	1423.5
519.82	1368.5
520.036	1375.5
520.251	1310.5
520.467	1273.5
520.682	1279.5
520.898	1266.5
521.113	1247.5
521.329	1236.5
521.544	1235.5
521.76	1220.5
521.975	1239.5
522.19	1228.5
522.406	1202.5
522.621	1170.5
522.836	1196.5
523.052	1185.5
523.267	1140.5
523.482	1165.5
523.698	1143.5
523.913	1147.5
524.128	1141.5
524.343	1170.5
524.559	1149.5
524.774	1166.5
524.989	1130.5
525.204	1162.5
525.419	1126.5
525.634	1149.5
525.849	1165.5
526.064	1163.5
526.28	1106.5
526.495	1130.5
526.71	1111.5
526.925	1130.5
527.14	1071.5
527.355	1100.5
527.57	1115.5
527.785	1133.5
527.999	1096.5
528.214	1124.5
528.429	1096.5
528.644	1144.5
528.859	1111.5
529.074	1115.5
529.289	1137.5
529.503	1072.5
529.718	1126.5
529.933	1108.5
530.148	1108.5
530.363	1126.5
530.577	1136.5
530.792	1101.5
531.007	1093.5
531.221	1102.5
531.436	1116.5
531.651	1138.5
531.865	1110.5
532.08	1119.5
532.295	1136.5
532.509	1138.5
532.724	1115.5
532.938	1102.5
533.153	1103.5
533.367	1113.5
533.582	1092.5
533.796	1130.5
534.011	1107.5
534.225	1101.5
534.44	1091.5
534.654	1076.5
534.868	1094.5
535.083	1069.5
535.297	1090.5
535.511	1059.5
535.726	1041.5
535.94	1058.5
536.154	1028.5
536.369	1022.5
536.583	997.5
536.797	1049.5
537.011	1024.5
537.225	1039.5
537.44	996.5
537.654	1027.5
537.868	997.5
538.082	1013.5
538.296	1009.5
538.51	997.5
538.724	977.5
538.938	1015.5
539.153	1004.5
539.367	1011.5
539.581	1012.5
539.795	978.5
540.009	997.5
540.222	989.5
540.436	997.5
540.65	1001.5
540.864	969.5
541.078	968.5
541.292	978.5
541.506	983.5
541.72	969.5
541.934	961.5
542.147	1002.5
542.361	984.5
542.575	967.5
542.789	960.5
543.002	944.5
543.216	988.5
543.43	963.5
543.644	977.5
543.857	1002.5
544.071	966.5
544.285	984.5
544.498	965.5
544.712	969.5
544.925	988.5
545.139	987.5
545.352	984.5
545.566	1004.5
545.779	966.5
545.993	976.5
546.206	985.5
546.42	977.5
546.633	964.5
546.847	1000.5
547.06	993.5
547.274	996.5
547.487	962.5
547.7	991.5
547.914	977.5
548.127	1002.5
548.34	1023.5
548.554	1031.5
548.767	986.5
548.98	980.5
549.193	981.5
549.407	978.5
549.62	1007.5
549.833	1035.5
550.046	1004.5
550.259	1002.5
550.473	984.5
550.686	1003.5
550.899	986.5
551.112	979.5
551.325	992.5
551.538	998.5
551.751	970.5
551.964	951.5
552.177	997.5
552.39	1007.5
552.603	1011.5
552.816	1043.5
553.029	1072.5
553.242	1081.5
553.455	1075.5
553.667	1074.5
553.88	1058.5
554.093	1027.5
554.306	1037.5
554.519	1039.5
554.732	1004.5
554.944	962.5
555.157	952.5
555.37	947.5
555.583	949.5
555.795	929.5
556.008	892.5
556.221	875.5
556.433	874.5
556.646	897.5
556.859	890.5
557.071	871.5
557.284	868.5
557.496	845.5
557.709	860.5
557.921	855.5
558.134	852.5
558.346	840.5
558.559	839.5
558.771	858.5
558.984	846.5
559.196	839.5
559.409	815.5
559.621	823.5
559.833	802.5
560.046	789.5
560.258	819.5
560.47	809.5
560.683	826.5
560.895	818.5
561.107	820.5
561.32	796.5
561.532	821.5
561.744	838.5
561.956	826.5
562.168	813.5
562.381	817.5
562.593	824.5
562.805	838.5
563.017	838.5
563.229	829.5
563.441	835.5
563.653	831.5
563.865	826.5
564.077	852.5
564.289	859.5
564.501	863.5
564.713	875.5
564.925	913.5
565.137	907.5
565.349	953.5
565.561	948.5
565.773	1002.5
565.985	1017.5
566.197	1075.5
566.408	1138.5
566.62	1180.5
566.832	1244.5
567.044	1296.5
567.255	1279.5
567.467	1308.5
567.679	1358.5
567.891	1450.5
568.102	1433.5
568.314	1396.5
568.526	1300.5
568.737	1217.5
568.949	1109.5
569.161	1035.5
569.372	990.5
569.584	957.5
569.795	935.5
570.007	895.5
570.218	864.5
570.43	843.5
570.641	816.5
570.853	847.5
571.064	855.5
571.276	849.5
571.487	827.5
571.698	789.5
571.91	784.5
572.121	751.5
572.333	748.5
572.544	725.5
572.755	714.5
572.966	724.5
573.178	700.5
573.389	691.5
573.6	695.5
573.811	685.5
574.023	679.5
574.234	665.5
574.445	651.5
574.656	681.5
574.867	658.5
575.078	673.5
575.289	662.5
575.501	661.5
575.712	647.5
575.923	645.5
576.134	620.5
576.345	647.5
576.556	631.5
576.767	627.5
576.978	637.5
577.188	625.5
577.399	610.5
577.61	609.5
577.821	607.5
578.032	583.5
578.243	624.5
578.454	623.5
578.665	606.5
578.875	609.5
579.086	593.5
579.297	592.5
579.508	581.5
579.718	593.5
579.929	593.5
580.14	567.5
580.35	612.5
580.561	581.5
580.772	591.5
580.982	593.5
581.193	586.5
581.403	593.5
581.614	586.5
581.825	560.5
582.035	569.5
582.246	568.5
582.456	569.5
582.667	566.5
582.877	576.5
583.087	585.5
583.298	561.5
583.508	551.5
583.719	561.5
583.929	579.5
584.139	564.5
584.35	531.5
584.56	533.5
584.77	537.5
584.981	551.5
585.191	531.5
585.401	571.5
585.611	540.5
585.821	540.5
586.032	556.5
586.242	554.5
586.452	543.5
586.662	533.5
586.872	511.5
587.082	547.5
587.292	524.5
587.502	533.5
587.713	521.5
587.923	544.5
588.133	550.5
588.343	539.5
588.553	540.5
588.762	526.5
588.972	547.5
589.182	554.5
589.392	571.5
589.602	543.5
589.812	547.5
590.022	557.5
590.232	539.5
590.441	542.5
590.651	537.5
590.861	554.5
591.071	537.5
591.281	565.5
591.49	565.5
591.7	589.5
591.91	567.5
592.119	577.5
592.329	594.5
592.539	578.5
592.748	608.5
592.958	604.5
593.167	616.5
593.377	653.5
593.587	663.5
593.796	657.5
594.006	660.5
594.215	675.5
594.424	649.5
594.634	635.5
594.843	623.5
595.053	586.5
595.262	573.5
595.472	558.5
595.681	545.5
595.89	545.5
596.1	538.5
596.309	525.5
596.518	537.5
596.727	507.5
596.937	517.5
597.146	476.5
597.355	499.5
597.564	481.5
597.774	467.5
597.983	451.5
598.192	463.5
598.401	463.5
598.61	471.5
598.819	448.5
599.028	454.5
599.237	447.5
599.446	438.5
599.655	451.5
599.864	435.5
600.073	454.5
600.282	439.5
600.491	455.5
600.7	429.5
600.909	436.5
601.118	455.5
601.327	417.5
601.536	441.5
601.745	438.5
601.953	433.5
602.162	444.5
602.371	439.5
602.58	422.5
602.789	418.5
602.997	411.5
603.206	405.5
603.415	452.5
603.623	426.5
603.832	415.5
604.041	403.5
604.249	432.5
604.458	411.5
604.666	403.5
604.875	413.5
605.084	421.5
605.292	397.5
605.501	409.5
605.709	416.5
605.918	424.5
606.126	417.5
606.334	393.5
606.543	407.5
606.751	418.5
606.96	403.5
607.168	403.5
607.376	400.5
607.585	390.5
607.793	407.5
608.001	406.5
608.21	397.5
608.418	386.5
608.626	398.5
608.834	409.5
609.043	397.5
609.251	376.5
609.459	387.5
609.667	400.5
609.875	373.5
610.083	382.5
610.291	383.5
610.499	395.5
610.707	376.5
610.916	388.5
611.124	391.5
611.332	390.5
611.54	393.5
611.748	380.5
611.955	394.5
612.163	387.5
612.371	388.5
612.579	374.5
612.787	369.5
612.995	381.5
613.203	386.5
613.411	381.5
613.618	373.5
613.826	376.5
614.034	382.5
614.242	366.5
614.449	369.5
614.657	362.5
614.865	360.5
615.072	374.5
615.28	372.5
615.488	388.5
615.695	372.5
615.903	397.5
616.111	384.5
616.318	385.5
616.526	387.5
616.733	379.5
616.941	373.5
617.148	372.5
617.356	358.5
617.563	376.5
617.771	367.5
617.978	374.5
618.185	355.5
618.393	358.5
618.6	361.5
618.807	366.5
619.015	373.5
619.222	377.5
619.429	365.5
619.637	368.5
619.844	355.5
620.051	345.5
620.258	354.5
620.466	334.5
620.673	350.5
620.88	362.5
621.087	347.5
621.294	339.5
621.501	360.5
621.708	343.5
621.915	358.5
622.122	335.5
622.329	342.5
622.536	338.5
622.743	344.5
622.95	346.5
623.157	332.5
623.364	337.5
623.571	341.5
623.778	338.5
623.985	335.5
624.192	321.5
624.399	326.5
624.606	335.5
624.812	314.5
625.019	329.5
625.226	317.5
625.433	311.5
625.639	314.5
625.846	332.5
626.053	320.5
626.259	315.5
626.466	323.5
626.673	310.5
626.879	305.5
627.086	304.5
627.293	308.5
627.499	324.5
627.706	317.5
627.912	315.5
628.119	317.5
628.325	315.5
628.532	296.5
628.738	329.5
628.945	294.5
629.151	309.5
629.357	289.5
629.564	325.5
629.77	281.5
629.976	295.5
630.183	281.5
630.389	290.5
630.595	293.5
630.802	285.5
631.008	293.5
631.214	307.5
631.42	303.5
631.627	284.5
631.833	281.5
632.039	299.5
632.245	298.5
632.451	275.5
632.657	275.5
632.863	276.5
633.069	295.5
633.275	288.5
633.481	283.5
633.688	272.5
633.893	295.5
634.099	292.5
634.305	282.5
634.511	273.5
634.717	279.5
634.923	266.5
635.129	275.5
635.335	255.5
635.541	272.5
635.747	279.5
635.952	276.5
636.158	279.5
636.364	285.5
636.57	273.5
636.775	265.5
636.981	270.5
637.187	264.5
637.392	265.5
637.598	262.5
637.804	272.5
638.009	282.5
638.215	270.5
638.421	276.5
638.626	266.5
638.832	252.5
639.037	258.5
639.243	247.5
639.448	244.5
639.654	250.5
639.859	263.5
640.065	276.5
640.27	253.5
640.475	245.5
640.681	275.5
640.886	252.5
641.091	248.5
641.297	251.5
641.502	247.5
641.707	254.5
641.913	247.5
642.118	251.5
642.323	247.5
642.528	266.5
642.733	251.5
642.939	261.5
643.144	251.5
643.349	247.5
643.554	244.5
643.759	257.5
643.964	250.5
644.169	259.5
644.374	245.5
644.579	250.5
644.784	263.5
644.989	241.5
645.194	240.5
645.399	249.5
645.604	253.5
645.809	264.5
646.014	247.5
646.219	257.5
646.423	235.5
646.628	231.5
646.833	254.5
647.038	252.5
647.243	267.5
647.447	254.5
647.652	265.5
647.857	276.5
648.062	280.5
648.266	264.5
648.471	275.5
648.676	283.5
648.88	280.5
649.085	266.5
649.289	284.5
649.494	282.5
649.698	256.5
649.903	235.5
650.107	269.5
650.312	260.5
650.516	266.5
650.721	226.5
650.925	240.5
651.13	248.5
651.334	263.5
651.539	252.5
651.743	253.5
651.947	239.5
652.152	248.5
652.356	234.5
652.56	251.5
652.764	232.5
652.969	235.5
653.173	242.5
653.377	243.5
653.581	253.5
653.785	233.5
653.99	242.5
654.194	223.5
654.398	223.5
654.602	256.5
654.806	236.5
655.01	240.5
655.214	259.5
655.418	256.5
655.622	276.5
655.826	271.5
656.03	295.5
656.234	295.5
656.438	325.5
656.642	300.5
656.846	315.5
657.049	285.5
657.253	271.5
657.457	234.5
657.661	202.5
657.865	190.5
658.068	164.5
658.272	161.5
658.476	167.5
658.68	168.5
658.883	142.5
659.087	133.5
659.291	142.5
659.494	123.5
659.698	123.5
659.901	120.5
660.105	123.5
660.309	113.5
660.512	115.5
660.716	119.5
660.919	107.5
661.123	116.5
661.326	121.5
661.53	100.5
661.733	98.5
661.936	101.5
662.14	93.5
662.343	97.5
662.546	101.5
662.75	109.5
662.953	99.5
663.156	81.5
663.36	90.5
663.563	87.5
663.766	87.5
663.969	83.5
664.173	85.5
664.376	89.5
664.579	73.5
664.782	90.5
664.985	77.5
665.188	84.5
665.391	90.5
665.594	82.5
665.797	82.5
666	82.5
666.203	91.5
666.406	74.5
666.609	79.5
666.812	93.5
667.015	89.5
667.218	87.5
667.421	87.5
667.624	76.5
667.827	77.5
668.03	80.5
668.232	70.5
668.435	74.5
668.638	86.5
668.841	85.5
669.043	75.5
669.246	88.5
669.449	87.5
669.651	90.5
669.854	75.5
670.057	67.5
670.259	82.5
670.462	75.5
670.665	79.5
670.867	88.5
671.07	98.5
671.272	89.5
671.475	92.5
671.677	77.5
671.88	80.5
672.082	90.5
672.284	77.5
672.487	74.5
672.689	67.5
672.892	97.5
