Data from NiCl2@0.125M.TitratingCurve.Agarose3%dH2O.NegLispCup.LampEnergy10.LIBS07252019_HRD10591_18-30-27-575.txt Node
Date: Thu Jul 25 18:30:27 EDT 2019
User: cochatt
Spectrometer: HR+D1059
Trigger mode: 1
Integration Time (sec): 1.000000E-1
Scans to average: 1
Electric dark correction enabled: true
Nonlinearity correction enabled: false
Boxcar width: 0
XAxis mode: Wavelengths
Number of Pixels in Spectrum: 2048
>>>>>Begin Spectral Data<<<<<
223.165	-17.25
223.4	-17.25
223.635	-17.25
223.869	-15.25
224.104	-17.25
224.338	-13.25
224.573	-0.25
224.808	-17.25
225.042	-4.25
225.277	-9.25
225.511	-0.25
225.746	-0.25
225.98	12.75
226.215	10.75
226.449	20.75
226.683	8.75
226.918	18.75
227.152	22.75
227.387	32.75
227.621	44.75
227.856	32.75
228.09	47.75
228.324	48.75
228.559	56.75
228.793	69.75
229.027	110.75
229.262	101.75
229.496	117.75
229.73	112.75
229.964	133.75
230.199	124.75
230.433	132.75
230.667	125.75
230.901	131.75
231.136	120.75
231.37	144.75
231.604	140.75
231.838	130.75
232.072	138.75
232.306	132.75
232.541	140.75
232.775	140.75
233.009	135.75
233.243	144.75
233.477	130.75
233.711	142.75
233.945	135.75
234.179	148.75
234.413	126.75
234.647	148.75
234.881	146.75
235.115	131.75
235.349	161.75
235.583	138.75
235.817	142.75
236.051	156.75
236.285	145.75
236.519	148.75
236.753	143.75
236.987	154.75
237.221	161.75
237.455	159.75
237.689	156.75
237.922	133.75
238.156	152.75
238.39	148.75
238.624	146.75
238.858	146.75
239.091	159.75
239.325	159.75
239.559	165.75
239.793	184.75
240.027	160.75
240.26	158.75
240.494	169.75
240.728	162.75
240.961	178.75
241.195	167.75
241.429	172.75
241.662	171.75
241.896	169.75
242.13	196.75
242.363	171.75
242.597	195.75
242.83	195.75
243.064	185.75
243.298	183.75
243.531	207.75
243.765	200.75
243.998	193.75
244.232	205.75
244.465	177.75
244.699	183.75
244.932	205.75
245.166	224.75
245.399	208.75
245.633	201.75
245.866	209.75
246.099	208.75
246.333	224.75
246.566	203.75
246.8	215.75
247.033	212.75
247.266	218.75
247.5	205.75
247.733	222.75
247.966	201.75
248.2	214.75
248.433	230.75
248.666	219.75
248.899	230.75
249.133	222.75
249.366	231.75
249.599	236.75
249.832	224.75
250.066	223.75
250.299	235.75
250.532	229.75
250.765	224.75
250.998	228.75
251.231	245.75
251.465	254.75
251.698	262.75
251.931	245.75
252.164	244.75
252.397	238.75
252.63	247.75
252.863	248.75
253.096	239.75
253.329	244.75
253.562	255.75
253.795	279.75
254.028	252.75
254.261	265.75
254.494	279.75
254.727	268.75
254.96	267.75
255.193	263.75
255.426	269.75
255.659	284.75
255.892	271.75
256.124	258.75
256.357	283.75
256.59	280.75
256.823	280.75
257.056	268.75
257.289	287.75
257.521	284.75
257.754	279.75
257.987	280.75
258.22	298.75
258.452	279.75
258.685	288.75
258.918	285.75
259.151	275.75
259.383	274.75
259.616	284.75
259.849	298.75
260.081	286.75
260.314	302.75
260.547	297.75
260.779	294.75
261.012	303.75
261.244	312.75
261.477	308.75
261.71	315.75
261.942	309.75
262.175	316.75
262.407	323.75
262.64	328.75
262.872	299.75
263.105	303.75
263.337	322.75
263.57	298.75
263.802	316.75
264.035	329.75
264.267	321.75
264.499	335.75
264.732	341.75
264.964	356.75
265.197	319.75
265.429	336.75
265.661	329.75
265.894	340.75
266.126	343.75
266.358	332.75
266.591	342.75
266.823	336.75
267.055	335.75
267.287	344.75
267.52	356.75
267.752	348.75
267.984	345.75
268.216	355.75
268.448	338.75
268.681	346.75
268.913	361.75
269.145	353.75
269.377	349.75
269.609	346.75
269.841	341.75
270.073	350.75
270.306	341.75
270.538	344.75
270.77	346.75
271.002	363.75
271.234	356.75
271.466	348.75
271.698	362.75
271.93	366.75
272.162	361.75
272.394	370.75
272.626	380.75
272.858	369.75
273.09	380.75
273.322	391.75
273.553	349.75
273.785	360.75
274.017	369.75
274.249	370.75
274.481	385.75
274.713	370.75
274.945	391.75
275.176	372.75
275.408	409.75
275.64	383.75
275.872	390.75
276.104	394.75
276.335	380.75
276.567	394.75
276.799	397.75
277.031	386.75
277.262	390.75
277.494	400.75
277.726	391.75
277.957	420.75
278.189	405.75
278.421	400.75
278.652	388.75
278.884	399.75
279.115	412.75
279.347	421.75
279.579	404.75
279.81	410.75
280.042	415.75
280.273	420.75
280.505	411.75
280.736	417.75
280.968	433.75
281.199	427.75
281.431	430.75
281.662	438.75
281.894	428.75
282.125	430.75
282.356	440.75
282.588	409.75
282.819	432.75
283.051	444.75
283.282	426.75
283.513	457.75
283.745	423.75
283.976	443.75
284.207	444.75
284.439	438.75
284.67	435.75
284.901	443.75
285.132	455.75
285.364	454.75
285.595	463.75
285.826	439.75
286.057	452.75
286.288	459.75
286.52	470.75
286.751	466.75
286.982	466.75
287.213	459.75
287.444	458.75
287.675	478.75
287.906	472.75
288.138	474.75
288.369	479.75
288.6	482.75
288.831	477.75
289.062	475.75
289.293	463.75
289.524	488.75
289.755	481.75
289.986	486.75
290.217	475.75
290.448	488.75
290.679	472.75
290.91	484.75
291.141	489.75
291.371	484.75
291.602	497.75
291.833	471.75
292.064	495.75
292.295	506.75
292.526	497.75
292.757	497.75
292.987	494.75
293.218	484.75
293.449	478.75
293.68	504.75
293.91	509.75
294.141	467.75
294.372	488.75
294.603	512.75
294.833	478.75
295.064	505.75
295.295	500.75
295.525	507.75
295.756	508.75
295.987	501.75
296.217	540.75
296.448	535.75
296.679	505.75
296.909	511.75
297.14	533.75
297.37	515.75
297.601	526.75
297.831	518.75
298.062	549.75
298.292	533.75
298.523	565.75
298.753	562.75
298.984	577.75
299.214	559.75
299.445	532.75
299.675	520.75
299.905	556.75
300.136	545.75
300.366	552.75
300.597	558.75
300.827	577.75
301.057	571.75
301.288	581.75
301.518	574.75
301.748	568.75
301.979	564.75
302.209	561.75
302.439	566.75
302.669	548.75
302.9	562.75
303.13	545.75
303.36	550.75
303.59	534.75
303.82	550.75
304.051	561.75
304.281	554.75
304.511	561.75
304.741	556.75
304.971	544.75
305.201	567.75
305.431	558.75
305.661	550.75
305.891	559.75
306.121	571.75
306.352	551.75
306.582	539.75
306.812	547.75
307.042	515.75
307.272	525.75
307.502	550.75
307.731	550.75
307.961	539.75
308.191	530.75
308.421	543.75
308.651	545.75
308.881	530.75
309.111	541.75
309.341	540.75
309.571	539.75
309.8	573.75
310.03	547.75
310.26	541.75
310.49	556.75
310.72	536.75
310.949	566.75
311.179	574.75
311.409	547.75
311.639	564.75
311.868	540.75
312.098	563.75
312.328	551.75
312.557	586.75
312.787	574.75
313.017	577.75
313.246	582.75
313.476	565.75
313.706	582.75
313.935	596.75
314.165	584.75
314.394	557.75
314.624	578.75
314.853	563.75
315.083	569.75
315.312	619.75
315.542	584.75
315.771	572.75
316.001	562.75
316.23	550.75
316.46	574.75
316.689	555.75
316.919	570.75
317.148	568.75
317.377	565.75
317.607	572.75
317.836	555.75
318.065	568.75
318.295	554.75
318.524	549.75
318.753	556.75
318.983	583.75
319.212	545.75
319.441	568.75
319.67	574.75
319.9	546.75
320.129	553.75
320.358	590.75
320.587	564.75
320.816	565.75
321.046	587.75
321.275	583.75
321.504	578.75
321.733	561.75
321.962	586.75
322.191	586.75
322.42	576.75
322.649	555.75
322.878	596.75
323.108	600.75
323.337	580.75
323.566	571.75
323.795	583.75
324.024	590.75
324.253	579.75
324.482	596.75
324.71	587.75
324.939	598.75
325.168	600.75
325.397	595.75
325.626	605.75
325.855	605.75
326.084	633.75
326.313	617.75
326.542	640.75
326.77	655.75
326.999	657.75
327.228	626.75
327.457	607.75
327.686	614.75
327.914	623.75
328.143	652.75
328.372	607.75
328.6	634.75
328.829	602.75
329.058	608.75
329.287	639.75
329.515	640.75
329.744	626.75
329.972	634.75
330.201	640.75
330.43	636.75
330.658	611.75
330.887	629.75
331.115	652.75
331.344	660.75
331.572	632.75
331.801	667.75
332.03	680.75
332.258	674.75
332.486	720.75
332.715	738.75
332.943	781.75
333.172	805.75
333.4	822.75
333.629	850.75
333.857	874.75
334.085	852.75
334.314	838.75
334.542	818.75
334.771	807.75
334.999	780.75
335.227	806.75
335.455	778.75
335.684	756.75
335.912	757.75
336.14	769.75
336.369	751.75
336.597	743.75
336.825	720.75
337.053	734.75
337.281	727.75
337.51	740.75
337.738	723.75
337.966	697.75
338.194	706.75
338.422	682.75
338.65	677.75
338.878	674.75
339.106	653.75
339.334	662.75
339.562	652.75
339.79	649.75
340.018	640.75
340.246	631.75
340.474	644.75
340.702	651.75
340.93	639.75
341.158	646.75
341.386	655.75
341.614	665.75
341.842	642.75
342.07	650.75
342.298	658.75
342.526	614.75
342.754	635.75
342.981	620.75
343.209	665.75
343.437	702.75
343.665	727.75
343.893	798.75
344.12	803.75
344.348	788.75
344.576	737.75
344.804	718.75
345.031	696.75
345.259	643.75
345.487	670.75
345.714	660.75
345.942	662.75
346.17	664.75
346.397	656.75
346.625	632.75
346.853	627.75
347.08	635.75
347.308	641.75
347.535	640.75
347.763	657.75
347.99	650.75
348.218	649.75
348.445	648.75
348.673	640.75
348.9	642.75
349.128	624.75
349.355	631.75
349.583	618.75
349.81	634.75
350.037	609.75
350.265	612.75
350.492	615.75
350.72	620.75
350.947	609.75
351.174	612.75
351.402	611.75
351.629	628.75
351.856	619.75
352.083	604.75
352.311	624.75
352.538	615.75
352.765	617.75
352.992	582.75
353.22	592.75
353.447	569.75
353.674	589.75
353.901	596.75
354.128	622.75
354.355	587.75
354.583	604.75
354.81	608.75
355.037	614.75
355.264	586.75
355.491	610.75
355.718	613.75
355.945	626.75
356.172	595.75
356.399	629.75
356.626	631.75
356.853	635.75
357.08	597.75
357.307	604.75
357.534	607.75
357.761	581.75
357.988	607.75
358.215	596.75
358.441	615.75
358.668	625.75
358.895	600.75
359.122	586.75
359.349	618.75
359.576	609.75
359.802	618.75
360.029	614.75
360.256	620.75
360.483	612.75
360.709	602.75
360.936	622.75
361.163	618.75
361.39	619.75
361.616	606.75
361.843	610.75
362.07	618.75
362.296	617.75
362.523	622.75
362.749	617.75
362.976	606.75
363.203	603.75
363.429	596.75
363.656	602.75
363.882	592.75
364.109	605.75
364.335	607.75
364.562	601.75
364.788	611.75
365.015	593.75
365.241	586.75
365.468	593.75
365.694	591.75
365.92	595.75
366.147	598.75
366.373	605.75
366.599	606.75
366.826	590.75
367.052	591.75
367.278	619.75
367.505	595.75
367.731	597.75
367.957	610.75
368.184	624.75
368.41	625.75
368.636	605.75
368.862	632.75
369.089	607.75
369.315	640.75
369.541	612.75
369.767	636.75
369.993	638.75
370.219	635.75
370.445	650.75
370.672	651.75
370.898	634.75
371.124	655.75
371.35	664.75
371.576	690.75
371.802	685.75
372.028	695.75
372.254	642.75
372.48	653.75
372.706	647.75
372.932	687.75
373.158	709.75
373.384	672.75
373.61	663.75
373.835	676.75
374.061	650.75
374.287	683.75
374.513	687.75
374.739	686.75
374.965	720.75
375.191	725.75
375.416	720.75
375.642	715.75
375.868	731.75
376.094	692.75
376.319	678.75
376.545	662.75
376.771	691.75
376.997	676.75
377.222	671.75
377.448	643.75
377.674	652.75
377.899	664.75
378.125	659.75
378.35	642.75
378.576	664.75
378.802	666.75
379.027	677.75
379.253	658.75
379.478	683.75
379.704	653.75
379.929	647.75
380.155	659.75
380.38	685.75
380.606	658.75
380.831	672.75
381.057	671.75
381.282	671.75
381.507	661.75
381.733	667.75
381.958	666.75
382.184	675.75
382.409	681.75
382.634	699.75
382.86	709.75
383.085	707.75
383.31	742.75
383.535	739.75
383.761	708.75
383.986	735.75
384.211	746.75
384.436	774.75
384.662	794.75
384.887	783.75
385.112	790.75
385.337	818.75
385.562	812.75
385.787	804.75
386.013	809.75
386.238	805.75
386.463	809.75
386.688	822.75
386.913	814.75
387.138	810.75
387.363	798.75
387.588	786.75
387.813	794.75
388.038	802.75
388.263	775.75
388.488	779.75
388.713	753.75
388.938	787.75
389.163	771.75
389.387	766.75
389.612	754.75
389.837	787.75
390.062	769.75
390.287	784.75
390.512	770.75
390.736	780.75
390.961	791.75
391.186	825.75
391.411	825.75
391.636	851.75
391.86	903.75
392.085	888.75
392.31	907.75
392.534	884.75
392.759	890.75
392.984	855.75
393.208	862.75
393.433	844.75
393.658	836.75
393.882	862.75
394.107	865.75
394.331	879.75
394.556	856.75
394.78	866.75
395.005	853.75
395.229	857.75
395.454	854.75
395.678	895.75
395.903	913.75
396.127	890.75
396.352	863.75
396.576	852.75
396.801	833.75
397.025	855.75
397.249	857.75
397.474	888.75
397.698	881.75
397.922	888.75
398.147	896.75
398.371	908.75
398.595	931.75
398.82	976.75
399.044	1038.75
399.268	1154.75
399.492	1366.75
399.717	1557.75
399.941	1574.75
400.165	1388.75
400.389	1222.75
400.613	1117.75
400.837	1060.75
401.062	1007.75
401.286	984.75
401.51	974.75
401.734	1000.75
401.958	1018.75
402.182	1029.75
402.406	1014.75
402.63	1064.75
402.854	1055.75
403.078	1086.75
403.302	1103.75
403.526	1135.75
403.75	1172.75
403.974	1198.75
404.198	1184.75
404.422	1187.75
404.645	1162.75
404.869	1150.75
405.093	1167.75
405.317	1124.75
405.541	1109.75
405.765	1132.75
405.988	1100.75
406.212	1081.75
406.436	1097.75
406.66	1095.75
406.883	1147.75
407.107	1208.75
407.331	1231.75
407.555	1307.75
407.778	1304.75
408.002	1287.75
408.226	1250.75
408.449	1219.75
408.673	1171.75
408.896	1163.75
409.12	1130.75
409.344	1142.75
409.567	1127.75
409.791	1182.75
410.014	1161.75
410.238	1141.75
410.461	1143.75
410.685	1109.75
410.908	1078.75
411.132	1079.75
411.355	1056.75
411.578	1050.75
411.802	1029.75
412.025	1042.75
412.249	1065.75
412.472	1050.75
412.695	1044.75
412.919	1028.75
413.142	970.75
413.365	986.75
413.589	988.75
413.812	995.75
414.035	1001.75
414.258	998.75
414.482	1007.75
414.705	1022.75
414.928	1020.75
415.151	1000.75
415.374	989.75
415.597	1007.75
415.821	995.75
416.044	976.75
416.267	968.75
416.49	962.75
416.713	1007.75
416.936	1006.75
417.159	973.75
417.382	970.75
417.605	992.75
417.828	999.75
418.051	1001.75
418.274	988.75
418.497	1002.75
418.72	1032.75
418.943	1032.75
419.166	1116.75
419.389	1182.75
419.611	1134.75
419.834	1081.75
420.057	1052.75
420.28	1029.75
420.503	968.75
420.726	982.75
420.948	1003.75
421.171	994.75
421.394	988.75
421.617	983.75
421.839	1003.75
422.062	1007.75
422.285	1006.75
422.507	1060.75
422.73	1007.75
422.953	981.75
423.175	1072.75
423.398	1087.75
423.621	1064.75
423.843	1072.75
424.066	1091.75
424.288	1082.75
424.511	1091.75
424.733	1037.75
424.956	1037.75
425.178	1007.75
425.401	1007.75
425.623	1002.75
425.846	949.75
426.068	971.75
426.291	972.75
426.513	937.75
426.735	932.75
426.958	952.75
427.18	914.75
427.402	911.75
427.625	928.75
427.847	880.75
428.069	870.75
428.292	890.75
428.514	867.75
428.736	898.75
428.958	890.75
429.181	850.75
429.403	890.75
429.625	867.75
429.847	866.75
430.069	841.75
430.292	863.75
430.514	835.75
430.736	888.75
430.958	867.75
431.18	874.75
431.402	901.75
431.624	878.75
431.846	885.75
432.068	898.75
432.29	912.75
432.512	881.75
432.734	914.75
432.956	899.75
433.178	920.75
433.4	909.75
433.622	955.75
433.844	911.75
434.066	908.75
434.287	909.75
434.509	931.75
434.731	982.75
434.953	1007.75
435.175	1034.75
435.397	1043.75
435.618	963.75
435.84	935.75
436.062	892.75
436.284	887.75
436.505	857.75
436.727	906.75
436.949	910.75
437.17	914.75
437.392	885.75
437.614	881.75
437.835	856.75
438.057	863.75
438.278	866.75
438.5	853.75
438.721	862.75
438.943	866.75
439.165	884.75
439.386	886.75
439.608	888.75
439.829	891.75
440.05	875.75
440.272	902.75
440.493	894.75
440.715	908.75
440.936	930.75
441.158	930.75
441.379	972.75
441.6	1028.75
441.822	1051.75
442.043	1017.75
442.264	985.75
442.486	991.75
442.707	983.75
442.928	977.75
443.149	996.75
443.371	1019.75
443.592	1028.75
443.813	1022.75
444.034	1025.75
444.255	1099.75
444.476	1093.75
444.698	1165.75
444.919	1225.75
445.14	1321.75
445.361	1210.75
445.582	1064.75
445.803	989.75
446.024	976.75
446.245	957.75
446.466	939.75
446.687	921.75
446.908	920.75
447.129	905.75
447.35	887.75
447.571	883.75
447.792	841.75
448.013	857.75
448.234	832.75
448.455	836.75
448.675	855.75
448.896	842.75
449.117	807.75
449.338	838.75
449.559	835.75
449.779	835.75
450	808.75
450.221	826.75
450.442	831.75
450.662	834.75
450.883	856.75
451.104	866.75
451.324	857.75
451.545	863.75
451.766	857.75
451.986	870.75
452.207	855.75
452.428	848.75
452.648	851.75
452.869	842.75
453.089	824.75
453.31	843.75
453.53	834.75
453.751	815.75
453.971	818.75
454.192	822.75
454.412	795.75
454.633	801.75
454.853	783.75
455.073	783.75
455.294	808.75
455.514	787.75
455.734	763.75
455.955	757.75
456.175	790.75
456.395	762.75
456.616	764.75
456.836	766.75
457.056	788.75
457.276	743.75
457.497	784.75
457.717	776.75
457.937	794.75
458.157	795.75
458.377	804.75
458.598	779.75
458.818	823.75
459.038	860.75
459.258	901.75
459.478	923.75
459.698	950.75
459.918	981.75
460.138	1014.75
460.358	1039.75
460.578	1097.75
460.798	1095.75
461.018	1084.75
461.238	1074.75
461.458	1084.75
461.678	1051.75
461.898	1102.75
462.118	1072.75
462.338	1150.75
462.558	1171.75
462.777	1214.75
462.997	1338.75
463.217	1466.75
463.437	1452.75
463.657	1365.75
463.876	1278.75
464.096	1259.75
464.316	1259.75
464.536	1270.75
464.755	1224.75
464.975	1195.75
465.195	1120.75
465.414	1047.75
465.634	976.75
465.854	951.75
466.073	945.75
466.293	903.75
466.512	884.75
466.732	890.75
466.951	882.75
467.171	836.75
467.391	894.75
467.61	885.75
467.829	888.75
468.049	872.75
468.268	822.75
468.488	841.75
468.707	828.75
468.927	847.75
469.146	850.75
469.365	843.75
469.585	846.75
469.804	857.75
470.023	905.75
470.243	900.75
470.462	905.75
470.681	904.75
470.901	890.75
471.12	907.75
471.339	898.75
471.558	882.75
471.777	850.75
471.997	834.75
472.216	845.75
472.435	819.75
472.654	801.75
472.873	801.75
473.092	804.75
473.311	798.75
473.53	838.75
473.749	830.75
473.968	823.75
474.187	795.75
474.406	808.75
474.625	815.75
474.844	808.75
475.063	799.75
475.282	816.75
475.501	840.75
475.72	816.75
475.939	809.75
476.158	826.75
476.377	831.75
476.596	853.75
476.814	860.75
477.033	885.75
477.252	871.75
477.471	867.75
477.69	920.75
477.908	958.75
478.127	940.75
478.346	984.75
478.564	982.75
478.783	994.75
479.002	1029.75
479.22	1033.75
479.439	1000.75
479.658	1033.75
479.876	1032.75
480.095	1019.75
480.313	1042.75
480.532	1102.75
480.751	1149.75
480.969	1068.75
481.188	1008.75
481.406	979.75
481.624	958.75
481.843	938.75
482.061	936.75
482.28	928.75
482.498	935.75
482.717	947.75
482.935	938.75
483.153	948.75
483.372	959.75
483.59	945.75
483.808	930.75
484.027	931.75
484.245	941.75
484.463	968.75
484.681	961.75
484.9	948.75
485.118	974.75
485.336	975.75
485.554	969.75
485.772	979.75
485.99	990.75
486.209	994.75
486.427	1000.75
486.645	1060.75
486.863	1028.75
487.081	969.75
487.299	995.75
487.517	1006.75
487.735	978.75
487.953	1009.75
488.171	978.75
488.389	984.75
488.607	966.75
488.825	985.75
489.043	960.75
489.261	974.75
489.479	959.75
489.696	979.75
489.914	968.75
490.132	992.75
490.35	963.75
490.568	994.75
490.786	981.75
491.003	990.75
491.221	970.75
491.439	1008.75
491.657	984.75
491.874	978.75
492.092	989.75
492.31	990.75
492.527	1025.75
492.745	996.75
492.963	987.75
493.18	1013.75
493.398	1001.75
493.615	1007.75
493.833	1034.75
494.05	1017.75
494.268	1012.75
494.485	1059.75
494.703	1063.75
494.92	1049.75
495.138	1044.75
495.355	1043.75
495.573	1007.75
495.79	1036.75
496.008	1065.75
496.225	1046.75
496.442	1060.75
496.66	1051.75
496.877	1079.75
497.094	1077.75
497.312	1106.75
497.529	1106.75
497.746	1138.75
497.963	1182.75
498.181	1214.75
498.398	1283.75
498.615	1371.75
498.832	1466.75
499.049	1571.75
499.267	1699.75
499.484	1907.75
499.701	2061.75
499.918	2277.75
500.135	2603.75
500.352	3039.75
500.569	3268.75
500.786	3164.75
501.003	2954.75
501.22	2662.75
501.437	2313.75
501.654	1985.75
501.871	1807.75
502.088	1665.75
502.305	1554.75
502.522	1495.75
502.739	1430.75
502.956	1295.75
503.172	1299.75
503.389	1210.75
503.606	1178.75
503.823	1177.75
504.04	1187.75
504.256	1148.75
504.473	1244.75
504.69	1274.75
504.907	1237.75
505.123	1145.75
505.34	1075.75
505.557	1081.75
505.773	1018.75
505.99	1000.75
506.207	968.75
506.423	973.75
506.64	935.75
506.856	944.75
507.073	936.75
507.289	937.75
507.506	902.75
507.722	937.75
507.939	919.75
508.155	869.75
508.372	903.75
508.588	871.75
508.805	848.75
509.021	852.75
509.238	887.75
509.454	863.75
509.67	843.75
509.887	856.75
510.103	843.75
510.319	810.75
510.536	844.75
510.752	822.75
510.968	835.75
511.184	843.75
511.401	820.75
511.617	839.75
511.833	836.75
512.049	836.75
512.265	831.75
512.481	840.75
512.698	837.75
512.914	826.75
513.13	838.75
513.346	831.75
513.562	830.75
513.778	857.75
513.994	855.75
514.21	809.75
514.426	830.75
514.642	835.75
514.858	841.75
515.074	875.75
515.29	855.75
515.506	890.75
515.721	872.75
515.937	864.75
516.153	904.75
516.369	943.75
516.585	962.75
516.801	978.75
517.016	1021.75
517.232	1074.75
517.448	1113.75
517.664	1169.75
517.879	1190.75
518.095	1182.75
518.311	1158.75
518.527	1093.75
518.742	1034.75
518.958	1013.75
519.173	963.75
519.389	940.75
519.605	920.75
519.82	901.75
520.036	890.75
520.251	873.75
520.467	869.75
520.682	866.75
520.898	834.75
521.113	826.75
521.329	816.75
521.544	828.75
521.76	794.75
521.975	818.75
522.19	803.75
522.406	768.75
522.621	794.75
522.836	800.75
523.052	782.75
523.267	773.75
523.482	779.75
523.698	766.75
523.913	779.75
524.128	780.75
524.343	751.75
524.559	766.75
524.774	790.75
524.989	759.75
525.204	770.75
525.419	750.75
525.634	740.75
525.849	745.75
526.064	775.75
526.28	773.75
526.495	762.75
526.71	721.75
526.925	751.75
527.14	774.75
527.355	757.75
527.57	774.75
527.785	745.75
527.999	773.75
528.214	770.75
528.429	742.75
528.644	753.75
528.859	757.75
529.074	747.75
529.289	758.75
529.503	768.75
529.718	756.75
529.933	755.75
530.148	751.75
530.363	758.75
530.577	752.75
530.792	713.75
531.007	735.75
531.221	770.75
531.436	760.75
531.651	773.75
531.865	752.75
532.08	783.75
532.295	794.75
532.509	778.75
532.724	757.75
532.938	784.75
533.153	762.75
533.367	734.75
533.582	745.75
533.796	776.75
534.011	752.75
534.225	769.75
534.44	738.75
534.654	719.75
534.868	737.75
535.083	716.75
535.297	717.75
535.511	732.75
535.726	723.75
535.94	716.75
536.154	718.75
536.369	706.75
536.583	721.75
536.797	712.75
537.011	705.75
537.225	696.75
537.44	702.75
537.654	695.75
537.868	711.75
538.082	701.75
538.296	708.75
538.51	668.75
538.724	672.75
538.938	697.75
539.153	688.75
539.367	694.75
539.581	679.75
539.795	676.75
540.009	705.75
540.222	688.75
540.436	713.75
540.65	702.75
540.864	687.75
541.078	671.75
541.292	675.75
541.506	699.75
541.72	692.75
541.934	649.75
542.147	691.75
542.361	672.75
542.575	678.75
542.789	680.75
543.002	650.75
543.216	681.75
543.43	662.75
543.644	644.75
543.857	660.75
544.071	661.75
544.285	661.75
544.498	680.75
544.712	699.75
544.925	693.75
545.139	683.75
545.352	690.75
545.566	703.75
545.779	713.75
545.993	704.75
546.206	707.75
546.42	698.75
546.633	676.75
546.847	664.75
547.06	712.75
547.274	682.75
547.487	686.75
547.7	678.75
547.914	701.75
548.127	729.75
548.34	682.75
548.554	690.75
548.767	720.75
548.98	697.75
549.193	704.75
549.407	704.75
549.62	714.75
549.833	716.75
550.046	722.75
550.259	688.75
550.473	686.75
550.686	692.75
550.899	680.75
551.112	678.75
551.325	679.75
551.538	660.75
551.751	667.75
551.964	657.75
552.177	670.75
552.39	700.75
552.603	698.75
552.816	720.75
553.029	752.75
553.242	764.75
553.455	797.75
553.667	780.75
553.88	726.75
554.093	722.75
554.306	711.75
554.519	694.75
554.732	675.75
554.944	672.75
555.157	670.75
555.37	647.75
555.583	642.75
555.795	624.75
556.008	615.75
556.221	614.75
556.433	609.75
556.646	618.75
556.859	587.75
557.071	604.75
557.284	594.75
557.496	599.75
557.709	602.75
557.921	585.75
558.134	574.75
558.346	577.75
558.559	574.75
558.771	576.75
558.984	586.75
559.196	585.75
559.409	592.75
559.621	571.75
559.833	584.75
560.046	562.75
560.258	555.75
560.47	552.75
560.683	592.75
560.895	593.75
561.107	567.75
561.32	582.75
561.532	565.75
561.744	575.75
561.956	586.75
562.168	568.75
562.381	578.75
562.593	563.75
562.805	569.75
563.017	555.75
563.229	573.75
563.441	564.75
563.653	581.75
563.865	604.75
564.077	584.75
564.289	586.75
564.501	604.75
564.713	606.75
564.925	648.75
565.137	637.75
565.349	652.75
565.561	641.75
565.773	684.75
565.985	722.75
566.197	732.75
566.408	796.75
566.62	901.75
566.832	930.75
567.044	954.75
567.255	980.75
567.467	984.75
567.679	1034.75
567.891	1118.75
568.102	1160.75
568.314	1070.75
568.526	1006.75
568.737	892.75
568.949	811.75
569.161	753.75
569.372	695.75
569.584	640.75
569.795	649.75
570.007	595.75
570.218	586.75
570.43	596.75
570.641	600.75
570.853	591.75
571.064	613.75
571.276	617.75
571.487	584.75
571.698	565.75
571.91	548.75
572.121	536.75
572.333	527.75
572.544	512.75
572.755	521.75
572.966	495.75
573.178	512.75
573.389	492.75
573.6	491.75
573.811	483.75
574.023	493.75
574.234	503.75
574.445	482.75
574.656	481.75
574.867	503.75
575.078	485.75
575.289	495.75
575.501	475.75
575.712	478.75
575.923	459.75
576.134	453.75
576.345	452.75
576.556	463.75
576.767	452.75
576.978	478.75
577.188	463.75
577.399	450.75
577.61	443.75
577.821	430.75
578.032	435.75
578.243	434.75
578.454	431.75
578.665	444.75
578.875	421.75
579.086	423.75
579.297	425.75
579.508	430.75
579.718	428.75
579.929	420.75
580.14	426.75
580.35	441.75
580.561	419.75
580.772	432.75
580.982	412.75
581.193	422.75
581.403	406.75
581.614	402.75
581.825	406.75
582.035	410.75
582.246	388.75
582.456	404.75
582.667	437.75
582.877	432.75
583.087	419.75
583.298	402.75
583.508	402.75
583.719	392.75
583.929	399.75
584.139	383.75
584.35	394.75
584.56	407.75
584.77	395.75
584.981	409.75
585.191	397.75
585.401	401.75
585.611	387.75
585.821	398.75
586.032	381.75
586.242	391.75
586.452	399.75
586.662	386.75
586.872	396.75
587.082	380.75
587.292	399.75
587.502	410.75
587.713	404.75
587.923	384.75
588.133	394.75
588.343	382.75
588.553	390.75
588.762	376.75
588.972	389.75
589.182	375.75
589.392	393.75
589.602	411.75
589.812	384.75
590.022	391.75
590.232	411.75
590.441	395.75
590.651	418.75
590.861	397.75
591.071	410.75
591.281	408.75
591.49	407.75
591.7	408.75
591.91	406.75
592.119	414.75
592.329	431.75
592.539	481.75
592.748	478.75
592.958	474.75
593.167	487.75
593.377	480.75
593.587	487.75
593.796	484.75
594.006	509.75
594.215	514.75
594.424	526.75
594.634	499.75
594.843	489.75
595.053	487.75
595.262	435.75
595.472	431.75
595.681	397.75
595.89	397.75
596.1	382.75
596.309	395.75
596.518	397.75
596.727	395.75
596.937	363.75
597.146	370.75
597.355	369.75
597.564	363.75
597.774	373.75
597.983	339.75
598.192	359.75
598.401	348.75
598.61	337.75
598.819	354.75
599.028	339.75
599.237	352.75
599.446	336.75
599.655	344.75
599.864	335.75
600.073	332.75
600.282	340.75
600.491	357.75
600.7	339.75
600.909	334.75
601.118	339.75
601.327	324.75
601.536	328.75
601.745	327.75
601.953	322.75
602.162	307.75
602.371	336.75
602.58	326.75
602.789	335.75
602.997	323.75
603.206	308.75
603.415	329.75
603.623	322.75
603.832	314.75
604.041	306.75
604.249	304.75
604.458	317.75
604.666	309.75
604.875	317.75
605.084	313.75
605.292	298.75
605.501	308.75
605.709	312.75
605.918	309.75
606.126	288.75
606.334	293.75
606.543	315.75
606.751	321.75
606.96	304.75
607.168	302.75
607.376	299.75
607.585	302.75
607.793	313.75
608.001	318.75
608.21	313.75
608.418	303.75
608.626	282.75
608.834	295.75
609.043	303.75
609.251	296.75
609.459	290.75
609.667	292.75
609.875	304.75
610.083	303.75
610.291	316.75
610.499	311.75
610.707	293.75
610.916	280.75
611.124	286.75
611.332	288.75
611.54	297.75
611.748	297.75
611.955	293.75
612.163	280.75
612.371	284.75
612.579	300.75
612.787	297.75
612.995	310.75
613.203	286.75
613.411	293.75
613.618	289.75
613.826	283.75
614.034	294.75
614.242	288.75
614.449	286.75
614.657	288.75
614.865	277.75
615.072	294.75
615.28	298.75
615.488	294.75
615.695	271.75
615.903	290.75
616.111	283.75
616.318	278.75
616.526	278.75
616.733	285.75
616.941	286.75
617.148	283.75
617.356	280.75
617.563	295.75
617.771	297.75
617.978	284.75
618.185	285.75
618.393	293.75
618.6	287.75
618.807	292.75
619.015	284.75
619.222	299.75
619.429	282.75
619.637	280.75
619.844	278.75
620.051	288.75
620.258	274.75
620.466	272.75
620.673	253.75
620.88	275.75
621.087	278.75
621.294	269.75
621.501	260.75
621.708	266.75
621.915	260.75
622.122	280.75
622.329	254.75
622.536	259.75
622.743	282.75
622.95	260.75
623.157	261.75
623.364	283.75
623.571	250.75
623.778	266.75
623.985	264.75
624.192	272.75
624.399	252.75
624.606	259.75
624.812	257.75
625.019	263.75
625.226	246.75
625.433	263.75
625.639	247.75
625.846	245.75
626.053	249.75
626.259	251.75
626.466	255.75
626.673	258.75
626.879	240.75
627.086	251.75
627.293	253.75
627.499	244.75
627.706	257.75
627.912	249.75
628.119	246.75
628.325	254.75
628.532	258.75
628.738	217.75
628.945	226.75
629.151	237.75
629.357	231.75
629.564	246.75
629.77	232.75
629.976	224.75
630.183	236.75
630.389	236.75
630.595	241.75
630.802	211.75
631.008	236.75
631.214	240.75
631.42	234.75
631.627	232.75
631.833	241.75
632.039	237.75
632.245	234.75
632.451	226.75
632.657	203.75
632.863	223.75
633.069	227.75
633.275	226.75
633.481	222.75
633.688	227.75
633.893	219.75
634.099	229.75
634.305	226.75
634.511	201.75
634.717	235.75
634.923	203.75
635.129	207.75
635.335	207.75
635.541	223.75
635.747	226.75
635.952	222.75
636.158	215.75
636.364	201.75
636.57	224.75
636.775	207.75
636.981	210.75
637.187	224.75
637.392	223.75
637.598	196.75
637.804	193.75
638.009	213.75
638.215	208.75
638.421	218.75
638.626	199.75
638.832	213.75
639.037	204.75
639.243	207.75
639.448	192.75
639.654	207.75
639.859	203.75
640.065	207.75
640.27	192.75
640.475	204.75
640.681	198.75
640.886	197.75
641.091	205.75
641.297	218.75
641.502	201.75
641.707	205.75
641.913	203.75
642.118	188.75
642.323	200.75
642.528	193.75
642.733	200.75
642.939	190.75
643.144	196.75
643.349	180.75
643.554	202.75
643.759	191.75
643.964	191.75
644.169	182.75
644.374	180.75
644.579	194.75
644.784	193.75
644.989	194.75
645.194	185.75
645.399	180.75
645.604	194.75
645.809	208.75
646.014	190.75
646.219	209.75
646.423	188.75
646.628	194.75
646.833	191.75
647.038	201.75
647.243	198.75
647.447	192.75
647.652	208.75
647.857	193.75
648.062	191.75
648.266	211.75
648.471	213.75
648.676	209.75
648.88	211.75
649.085	197.75
649.289	187.75
649.494	205.75
649.698	210.75
649.903	188.75
650.107	191.75
650.312	203.75
650.516	192.75
650.721	186.75
650.925	184.75
651.13	177.75
651.334	161.75
651.539	170.75
651.743	195.75
651.947	183.75
652.152	178.75
652.356	179.75
652.56	162.75
652.764	156.75
652.969	166.75
653.173	170.75
653.377	163.75
653.581	172.75
653.785	173.75
653.99	166.75
654.194	156.75
654.398	160.75
654.602	154.75
654.806	149.75
655.01	157.75
655.214	156.75
655.418	156.75
655.622	155.75
655.826	149.75
656.03	152.75
656.234	146.75
656.438	163.75
656.642	160.75
656.846	134.75
657.049	155.75
657.253	143.75
657.457	136.75
657.661	120.75
657.865	133.75
658.068	125.75
658.272	120.75
658.476	125.75
658.68	114.75
658.883	117.75
659.087	112.75
659.291	111.75
659.494	118.75
659.698	111.75
659.901	113.75
660.105	92.75
660.309	118.75
660.512	106.75
660.716	100.75
660.919	97.75
661.123	93.75
661.326	86.75
661.53	103.75
661.733	87.75
661.936	98.75
662.14	78.75
662.343	80.75
662.546	87.75
662.75	87.75
662.953	83.75
663.156	86.75
663.36	87.75
663.563	88.75
663.766	77.75
663.969	81.75
664.173	80.75
664.376	80.75
664.579	86.75
664.782	81.75
664.985	83.75
665.188	89.75
665.391	89.75
665.594	80.75
665.797	90.75
666	85.75
666.203	85.75
666.406	80.75
666.609	70.75
666.812	68.75
667.015	83.75
667.218	94.75
667.421	70.75
667.624	79.75
667.827	81.75
668.03	89.75
668.232	60.75
668.435	80.75
668.638	86.75
668.841	72.75
669.043	94.75
669.246	75.75
669.449	75.75
669.651	95.75
669.854	78.75
670.057	94.75
670.259	93.75
670.462	82.75
670.665	84.75
670.867	75.75
671.07	82.75
671.272	86.75
671.475	79.75
671.677	90.75
671.88	70.75
672.082	79.75
672.284	87.75
672.487	88.75
672.689	80.75
672.892	89.75
