Data from NiCl2@0.25M.TitratingCurve.Agarose3%dH2O.NegLispCup.LampEnergy10.LIBS07252019_HRD10591_18-25-47-573.txt Node
Date: Thu Jul 25 18:25:47 EDT 2019
User: cochatt
Spectrometer: HR+D1059
Trigger mode: 1
Integration Time (sec): 1.000000E-1
Scans to average: 1
Electric dark correction enabled: true
Nonlinearity correction enabled: false
Boxcar width: 0
XAxis mode: Wavelengths
Number of Pixels in Spectrum: 2048
>>>>>Begin Spectral Data<<<<<
223.165	-22.94
223.4	-22.94
223.635	-22.94
223.869	-27.94
224.104	-24.94
224.338	-10.94
224.573	-19.94
224.808	-13.94
225.042	5.06
225.277	10.06
225.511	-12.94
225.746	15.06
225.98	8.06
226.215	4.06
226.449	10.06
226.683	18.06
226.918	21.06
227.152	42.06
227.387	18.06
227.621	44.06
227.856	59.06
228.09	54.06
228.324	51.06
228.559	54.06
228.793	64.06
229.027	113.06
229.262	116.06
229.496	106.06
229.73	126.06
229.964	126.06
230.199	120.06
230.433	124.06
230.667	137.06
230.901	148.06
231.136	145.06
231.37	140.06
231.604	126.06
231.838	143.06
232.072	139.06
232.306	163.06
232.541	169.06
232.775	155.06
233.009	144.06
233.243	170.06
233.477	167.06
233.711	150.06
233.945	158.06
234.179	163.06
234.413	159.06
234.647	166.06
234.881	155.06
235.115	160.06
235.349	167.06
235.583	172.06
235.817	181.06
236.051	166.06
236.285	159.06
236.519	172.06
236.753	172.06
236.987	182.06
237.221	171.06
237.455	170.06
237.689	168.06
237.922	179.06
238.156	176.06
238.39	167.06
238.624	163.06
238.858	178.06
239.091	184.06
239.325	192.06
239.559	184.06
239.793	164.06
240.027	181.06
240.26	203.06
240.494	185.06
240.728	195.06
240.961	207.06
241.195	202.06
241.429	201.06
241.662	197.06
241.896	209.06
242.13	212.06
242.363	208.06
242.597	214.06
242.83	222.06
243.064	219.06
243.298	213.06
243.531	224.06
243.765	231.06
243.998	240.06
244.232	233.06
244.465	218.06
244.699	241.06
244.932	232.06
245.166	241.06
245.399	246.06
245.633	235.06
245.866	225.06
246.099	240.06
246.333	253.06
246.566	239.06
246.8	259.06
247.033	262.06
247.266	257.06
247.5	248.06
247.733	263.06
247.966	263.06
248.2	269.06
248.433	272.06
248.666	259.06
248.899	260.06
249.133	271.06
249.366	280.06
249.599	278.06
249.832	272.06
250.066	275.06
250.299	273.06
250.532	275.06
250.765	274.06
250.998	287.06
251.231	271.06
251.465	288.06
251.698	273.06
251.931	293.06
252.164	284.06
252.397	306.06
252.63	294.06
252.863	291.06
253.096	279.06
253.329	314.06
253.562	318.06
253.795	291.06
254.028	299.06
254.261	321.06
254.494	303.06
254.727	298.06
254.96	288.06
255.193	303.06
255.426	306.06
255.659	311.06
255.892	322.06
256.124	304.06
256.357	318.06
256.59	327.06
256.823	311.06
257.056	321.06
257.289	314.06
257.521	328.06
257.754	337.06
257.987	312.06
258.22	332.06
258.452	337.06
258.685	336.06
258.918	340.06
259.151	348.06
259.383	336.06
259.616	360.06
259.849	338.06
260.081	357.06
260.314	363.06
260.547	347.06
260.779	355.06
261.012	367.06
261.244	358.06
261.477	354.06
261.71	355.06
261.942	373.06
262.175	371.06
262.407	354.06
262.64	364.06
262.872	364.06
263.105	347.06
263.337	368.06
263.57	378.06
263.802	363.06
264.035	378.06
264.267	359.06
264.499	374.06
264.732	390.06
264.964	379.06
265.197	383.06
265.429	396.06
265.661	381.06
265.894	407.06
266.126	388.06
266.358	397.06
266.591	390.06
266.823	397.06
267.055	402.06
267.287	404.06
267.52	396.06
267.752	406.06
267.984	408.06
268.216	396.06
268.448	390.06
268.681	413.06
268.913	402.06
269.145	397.06
269.377	402.06
269.609	419.06
269.841	412.06
270.073	408.06
270.306	419.06
270.538	417.06
270.77	418.06
271.002	423.06
271.234	442.06
271.466	434.06
271.698	421.06
271.93	428.06
272.162	454.06
272.394	427.06
272.626	439.06
272.858	428.06
273.09	445.06
273.322	439.06
273.553	449.06
273.785	425.06
274.017	438.06
274.249	455.06
274.481	456.06
274.713	447.06
274.945	454.06
275.176	452.06
275.408	440.06
275.64	473.06
275.872	467.06
276.104	467.06
276.335	476.06
276.567	471.06
276.799	464.06
277.031	485.06
277.262	486.06
277.494	479.06
277.726	470.06
277.957	475.06
278.189	468.06
278.421	469.06
278.652	454.06
278.884	495.06
279.115	510.06
279.347	500.06
279.579	501.06
279.81	492.06
280.042	510.06
280.273	497.06
280.505	510.06
280.736	500.06
280.968	506.06
281.199	502.06
281.431	522.06
281.662	532.06
281.894	526.06
282.125	518.06
282.356	538.06
282.588	550.06
282.819	515.06
283.051	528.06
283.282	493.06
283.513	549.06
283.745	539.06
283.976	529.06
284.207	518.06
284.439	547.06
284.67	520.06
284.901	534.06
285.132	544.06
285.364	567.06
285.595	542.06
285.826	556.06
286.057	568.06
286.288	565.06
286.52	531.06
286.751	538.06
286.982	561.06
287.213	549.06
287.444	574.06
287.675	566.06
287.906	562.06
288.138	570.06
288.369	579.06
288.6	580.06
288.831	580.06
289.062	587.06
289.293	566.06
289.524	580.06
289.755	570.06
289.986	578.06
290.217	584.06
290.448	595.06
290.679	580.06
290.91	580.06
291.141	587.06
291.371	600.06
291.602	574.06
291.833	570.06
292.064	599.06
292.295	571.06
292.526	597.06
292.757	587.06
292.987	582.06
293.218	607.06
293.449	601.06
293.68	596.06
293.91	601.06
294.141	592.06
294.372	588.06
294.603	592.06
294.833	600.06
295.064	574.06
295.295	552.06
295.525	588.06
295.756	599.06
295.987	608.06
296.217	615.06
296.448	600.06
296.679	617.06
296.909	601.06
297.14	618.06
297.37	635.06
297.601	627.06
297.831	656.06
298.062	649.06
298.292	640.06
298.523	658.06
298.753	680.06
298.984	640.06
299.214	638.06
299.445	645.06
299.675	643.06
299.905	643.06
300.136	616.06
300.366	666.06
300.597	642.06
300.827	678.06
301.057	661.06
301.288	692.06
301.518	675.06
301.748	665.06
301.979	673.06
302.209	692.06
302.439	697.06
302.669	683.06
302.9	646.06
303.13	658.06
303.36	676.06
303.59	666.06
303.82	655.06
304.051	666.06
304.281	674.06
304.511	676.06
304.741	674.06
304.971	675.06
305.201	684.06
305.431	659.06
305.661	686.06
305.891	663.06
306.121	660.06
306.352	684.06
306.582	631.06
306.812	647.06
307.042	661.06
307.272	666.06
307.502	644.06
307.731	662.06
307.961	652.06
308.191	648.06
308.421	652.06
308.651	638.06
308.881	640.06
309.111	641.06
309.341	659.06
309.571	647.06
309.8	670.06
310.03	666.06
310.26	652.06
310.49	642.06
310.72	652.06
310.949	641.06
311.179	663.06
311.409	658.06
311.639	664.06
311.868	655.06
312.098	686.06
312.328	708.06
312.557	681.06
312.787	694.06
313.017	694.06
313.246	691.06
313.476	684.06
313.706	704.06
313.935	712.06
314.165	688.06
314.394	701.06
314.624	699.06
314.853	698.06
315.083	683.06
315.312	722.06
315.542	732.06
315.771	709.06
316.001	692.06
316.23	712.06
316.46	670.06
316.689	694.06
316.919	674.06
317.148	695.06
317.377	686.06
317.607	681.06
317.836	674.06
318.065	690.06
318.295	702.06
318.524	671.06
318.753	693.06
318.983	697.06
319.212	671.06
319.441	696.06
319.67	716.06
319.9	678.06
320.129	682.06
320.358	689.06
320.587	681.06
320.816	692.06
321.046	698.06
321.275	700.06
321.504	691.06
321.733	707.06
321.962	700.06
322.191	683.06
322.42	722.06
322.649	696.06
322.878	692.06
323.108	705.06
323.337	725.06
323.566	720.06
323.795	721.06
324.024	713.06
324.253	703.06
324.482	690.06
324.71	716.06
324.939	717.06
325.168	709.06
325.397	700.06
325.626	734.06
325.855	734.06
326.084	756.06
326.313	786.06
326.542	746.06
326.77	784.06
326.999	732.06
327.228	750.06
327.457	737.06
327.686	742.06
327.914	754.06
328.143	768.06
328.372	760.06
328.6	764.06
328.829	762.06
329.058	768.06
329.287	754.06
329.515	776.06
329.744	736.06
329.972	768.06
330.201	773.06
330.43	790.06
330.658	782.06
330.887	789.06
331.115	798.06
331.344	805.06
331.572	837.06
331.801	819.06
332.03	863.06
332.258	863.06
332.486	869.06
332.715	896.06
332.943	916.06
333.172	951.06
333.4	999.06
333.629	999.06
333.857	1051.06
334.085	1068.06
334.314	1052.06
334.542	1019.06
334.771	975.06
334.999	977.06
335.227	971.06
335.455	936.06
335.684	982.06
335.912	934.06
336.14	905.06
336.369	954.06
336.597	921.06
336.825	926.06
337.053	915.06
337.281	916.06
337.51	866.06
337.738	904.06
337.966	841.06
338.194	844.06
338.422	824.06
338.65	821.06
338.878	834.06
339.106	819.06
339.334	856.06
339.562	851.06
339.79	821.06
340.018	805.06
340.246	786.06
340.474	773.06
340.702	782.06
340.93	786.06
341.158	822.06
341.386	798.06
341.614	811.06
341.842	778.06
342.07	780.06
342.298	798.06
342.526	802.06
342.754	763.06
342.981	802.06
343.209	814.06
343.437	850.06
343.665	899.06
343.893	962.06
344.12	1027.06
344.348	960.06
344.576	929.06
344.804	880.06
345.031	837.06
345.259	814.06
345.487	811.06
345.714	790.06
345.942	795.06
346.17	794.06
346.397	806.06
346.625	806.06
346.853	773.06
347.08	752.06
347.308	779.06
347.535	794.06
347.763	775.06
347.99	803.06
348.218	781.06
348.445	785.06
348.673	762.06
348.9	763.06
349.128	723.06
349.355	754.06
349.583	745.06
349.81	740.06
350.037	759.06
350.265	735.06
350.492	754.06
350.72	762.06
350.947	742.06
351.174	739.06
351.402	752.06
351.629	775.06
351.856	767.06
352.083	751.06
352.311	720.06
352.538	731.06
352.765	744.06
352.992	737.06
353.22	714.06
353.447	712.06
353.674	719.06
353.901	713.06
354.128	726.06
354.355	734.06
354.583	720.06
354.81	728.06
355.037	753.06
355.264	742.06
355.491	735.06
355.718	756.06
355.945	740.06
356.172	740.06
356.399	721.06
356.626	745.06
356.853	759.06
357.08	766.06
357.307	752.06
357.534	733.06
357.761	724.06
357.988	754.06
358.215	752.06
358.441	745.06
358.668	736.06
358.895	724.06
359.122	735.06
359.349	729.06
359.576	743.06
359.802	734.06
360.029	731.06
360.256	723.06
360.483	742.06
360.709	738.06
360.936	746.06
361.163	756.06
361.39	753.06
361.616	746.06
361.843	743.06
362.07	757.06
362.296	768.06
362.523	724.06
362.749	729.06
362.976	758.06
363.203	734.06
363.429	729.06
363.656	756.06
363.882	739.06
364.109	739.06
364.335	741.06
364.562	722.06
364.788	731.06
365.015	723.06
365.241	732.06
365.468	726.06
365.694	735.06
365.92	735.06
366.147	740.06
366.373	716.06
366.599	716.06
366.826	727.06
367.052	702.06
367.278	740.06
367.505	720.06
367.731	754.06
367.957	721.06
368.184	737.06
368.41	726.06
368.636	755.06
368.862	766.06
369.089	771.06
369.315	747.06
369.541	769.06
369.767	790.06
369.993	780.06
370.219	770.06
370.445	752.06
370.672	795.06
370.898	775.06
371.124	778.06
371.35	804.06
371.576	813.06
371.802	816.06
372.028	820.06
372.254	815.06
372.48	807.06
372.706	830.06
372.932	823.06
373.158	837.06
373.384	801.06
373.61	806.06
373.835	808.06
374.061	802.06
374.287	838.06
374.513	824.06
374.739	847.06
374.965	889.06
375.191	892.06
375.416	903.06
375.642	874.06
375.868	874.06
376.094	871.06
376.319	810.06
376.545	816.06
376.771	808.06
376.997	802.06
377.222	817.06
377.448	823.06
377.674	788.06
377.899	795.06
378.125	791.06
378.35	803.06
378.576	802.06
378.802	800.06
379.027	794.06
379.253	798.06
379.478	779.06
379.704	798.06
379.929	794.06
380.155	803.06
380.38	809.06
380.606	781.06
380.831	790.06
381.057	807.06
381.282	809.06
381.507	819.06
381.733	815.06
381.958	814.06
382.184	817.06
382.409	833.06
382.634	851.06
382.86	860.06
383.085	852.06
383.31	876.06
383.535	885.06
383.761	879.06
383.986	908.06
384.211	931.06
384.436	950.06
384.662	965.06
384.887	952.06
385.112	963.06
385.337	991.06
385.562	961.06
385.787	991.06
386.013	1011.06
386.238	1005.06
386.463	1008.06
386.688	982.06
386.913	995.06
387.138	993.06
387.363	987.06
387.588	957.06
387.813	980.06
388.038	994.06
388.263	967.06
388.488	1009.06
388.713	969.06
388.938	962.06
389.163	927.06
389.387	961.06
389.612	945.06
389.837	963.06
390.062	948.06
390.287	946.06
390.512	963.06
390.736	951.06
390.961	967.06
391.186	1040.06
391.411	1064.06
391.636	1055.06
391.86	1113.06
392.085	1112.06
392.31	1127.06
392.534	1101.06
392.759	1064.06
392.984	1071.06
393.208	1042.06
393.433	1036.06
393.658	1065.06
393.882	1080.06
394.107	1058.06
394.331	1095.06
394.556	1060.06
394.78	1056.06
395.005	1056.06
395.229	1086.06
395.454	1109.06
395.678	1138.06
395.903	1143.06
396.127	1112.06
396.352	1097.06
396.576	1054.06
396.801	1054.06
397.025	1055.06
397.249	1074.06
397.474	1124.06
397.698	1117.06
397.922	1107.06
398.147	1094.06
398.371	1150.06
398.595	1185.06
398.82	1216.06
399.044	1356.06
399.268	1459.06
399.492	1657.06
399.717	1881.06
399.941	1939.06
400.165	1760.06
400.389	1600.06
400.613	1430.06
400.837	1329.06
401.062	1317.06
401.286	1268.06
401.51	1264.06
401.734	1255.06
401.958	1263.06
402.182	1255.06
402.406	1278.06
402.63	1326.06
402.854	1324.06
403.078	1364.06
403.302	1393.06
403.526	1414.06
403.75	1418.06
403.974	1452.06
404.198	1396.06
404.422	1455.06
404.645	1446.06
404.869	1450.06
405.093	1426.06
405.317	1396.06
405.541	1384.06
405.765	1371.06
405.988	1379.06
406.212	1418.06
406.436	1402.06
406.66	1418.06
406.883	1423.06
407.107	1521.06
407.331	1590.06
407.555	1651.06
407.778	1610.06
408.002	1575.06
408.226	1558.06
408.449	1535.06
408.673	1440.06
408.896	1427.06
409.12	1375.06
409.344	1406.06
409.567	1400.06
409.791	1390.06
410.014	1434.06
410.238	1407.06
410.461	1395.06
410.685	1371.06
410.908	1324.06
411.132	1339.06
411.355	1279.06
411.578	1291.06
411.802	1298.06
412.025	1268.06
412.249	1341.06
412.472	1323.06
412.695	1294.06
412.919	1249.06
413.142	1303.06
413.365	1230.06
413.589	1253.06
413.812	1220.06
414.035	1248.06
414.258	1231.06
414.482	1238.06
414.705	1254.06
414.928	1281.06
415.151	1258.06
415.374	1252.06
415.597	1234.06
415.821	1236.06
416.044	1235.06
416.267	1199.06
416.49	1190.06
416.713	1243.06
416.936	1238.06
417.159	1188.06
417.382	1206.06
417.605	1211.06
417.828	1238.06
418.051	1252.06
418.274	1234.06
418.497	1239.06
418.72	1271.06
418.943	1256.06
419.166	1362.06
419.389	1445.06
419.611	1427.06
419.834	1349.06
420.057	1322.06
420.28	1252.06
420.503	1234.06
420.726	1216.06
420.948	1208.06
421.171	1235.06
421.394	1224.06
421.617	1214.06
421.839	1225.06
422.062	1208.06
422.285	1186.06
422.507	1259.06
422.73	1278.06
422.953	1268.06
423.175	1267.06
423.398	1295.06
423.621	1279.06
423.843	1287.06
424.066	1278.06
424.288	1256.06
424.511	1273.06
424.733	1242.06
424.956	1269.06
425.178	1229.06
425.401	1250.06
425.623	1247.06
425.846	1195.06
426.068	1185.06
426.291	1177.06
426.513	1186.06
426.735	1135.06
426.958	1147.06
427.18	1135.06
427.402	1118.06
427.625	1124.06
427.847	1094.06
428.069	1089.06
428.292	1111.06
428.514	1105.06
428.736	1120.06
428.958	1116.06
429.181	1058.06
429.403	1075.06
429.625	1051.06
429.847	1091.06
430.069	1046.06
430.292	1062.06
430.514	1051.06
430.736	1093.06
430.958	1048.06
431.18	1033.06
431.402	1068.06
431.624	1074.06
431.846	1118.06
432.068	1104.06
432.29	1118.06
432.512	1093.06
432.734	1094.06
432.956	1066.06
433.178	1119.06
433.4	1095.06
433.622	1100.06
433.844	1110.06
434.066	1094.06
434.287	1154.06
434.509	1168.06
434.731	1206.06
434.953	1200.06
435.175	1207.06
435.397	1192.06
435.618	1163.06
435.84	1176.06
436.062	1092.06
436.284	1094.06
436.505	1068.06
436.727	1091.06
436.949	1080.06
437.17	1118.06
437.392	1055.06
437.614	1063.06
437.835	1003.06
438.057	1045.06
438.278	1003.06
438.5	1043.06
438.721	1059.06
438.943	1072.06
439.165	1032.06
439.386	1059.06
439.608	1062.06
439.829	1057.06
440.05	1117.06
440.272	1078.06
440.493	1062.06
440.715	1094.06
440.936	1116.06
441.158	1137.06
441.379	1148.06
441.6	1201.06
441.822	1248.06
442.043	1263.06
442.264	1214.06
442.486	1164.06
442.707	1172.06
442.928	1203.06
443.149	1187.06
443.371	1188.06
443.592	1167.06
443.813	1239.06
444.034	1205.06
444.255	1302.06
444.476	1330.06
444.698	1402.06
444.919	1459.06
445.14	1542.06
445.361	1344.06
445.582	1273.06
445.803	1209.06
446.024	1174.06
446.245	1138.06
446.466	1109.06
446.687	1086.06
446.908	1082.06
447.129	1055.06
447.35	1067.06
447.571	1031.06
447.792	1002.06
448.013	1042.06
448.234	1031.06
448.455	985.06
448.675	988.06
448.896	987.06
449.117	1003.06
449.338	981.06
449.559	978.06
449.779	1000.06
450	992.06
450.221	968.06
450.442	1020.06
450.662	969.06
450.883	1017.06
451.104	1036.06
451.324	985.06
451.545	1004.06
451.766	1025.06
451.986	987.06
452.207	984.06
452.428	984.06
452.648	1003.06
452.869	926.06
453.089	953.06
453.31	975.06
453.53	966.06
453.751	960.06
453.971	958.06
454.192	945.06
454.412	918.06
454.633	935.06
454.853	926.06
455.073	915.06
455.294	936.06
455.514	914.06
455.734	935.06
455.955	906.06
456.175	924.06
456.395	915.06
456.616	910.06
456.836	916.06
457.056	918.06
457.276	902.06
457.497	953.06
457.717	937.06
457.937	934.06
458.157	948.06
458.377	968.06
458.598	968.06
458.818	994.06
459.038	1048.06
459.258	1036.06
459.478	1091.06
459.698	1122.06
459.918	1162.06
460.138	1238.06
460.358	1289.06
460.578	1296.06
460.798	1293.06
461.018	1331.06
461.238	1245.06
461.458	1321.06
461.678	1292.06
461.898	1305.06
462.118	1317.06
462.338	1347.06
462.558	1424.06
462.777	1490.06
462.997	1602.06
463.217	1692.06
463.437	1727.06
463.657	1614.06
463.876	1511.06
464.096	1482.06
464.316	1514.06
464.536	1553.06
464.755	1484.06
464.975	1422.06
465.195	1347.06
465.414	1278.06
465.634	1212.06
465.854	1166.06
466.073	1119.06
466.293	1080.06
466.512	1073.06
466.732	1051.06
466.951	1062.06
467.171	1061.06
467.391	1031.06
467.61	1034.06
467.829	1044.06
468.049	1058.06
468.268	1025.06
468.488	1011.06
468.707	980.06
468.927	1010.06
469.146	998.06
469.365	1041.06
469.585	1019.06
469.804	1025.06
470.023	1048.06
470.243	1061.06
470.462	1089.06
470.681	1090.06
470.901	1078.06
471.12	1081.06
471.339	1050.06
471.558	1044.06
471.777	1030.06
471.997	1016.06
472.216	984.06
472.435	982.06
472.654	972.06
472.873	961.06
473.092	977.06
473.311	979.06
473.53	994.06
473.749	992.06
473.968	952.06
474.187	950.06
474.406	954.06
474.625	974.06
474.844	961.06
475.063	960.06
475.282	979.06
475.501	988.06
475.72	1002.06
475.939	1007.06
476.158	1008.06
476.377	1028.06
476.596	1026.06
476.814	1033.06
477.033	1052.06
477.252	1039.06
477.471	1077.06
477.69	1099.06
477.908	1090.06
478.127	1155.06
478.346	1178.06
478.564	1197.06
478.783	1219.06
479.002	1270.06
479.22	1231.06
479.439	1235.06
479.658	1224.06
479.876	1219.06
480.095	1224.06
480.313	1309.06
480.532	1320.06
480.751	1334.06
480.969	1260.06
481.188	1219.06
481.406	1204.06
481.624	1156.06
481.843	1157.06
482.061	1116.06
482.28	1126.06
482.498	1124.06
482.717	1112.06
482.935	1098.06
483.153	1140.06
483.372	1127.06
483.59	1141.06
483.808	1116.06
484.027	1132.06
484.245	1153.06
484.463	1138.06
484.681	1128.06
484.9	1152.06
485.118	1153.06
485.336	1146.06
485.554	1170.06
485.772	1178.06
485.99	1184.06
486.209	1244.06
486.427	1191.06
486.645	1177.06
486.863	1175.06
487.081	1163.06
487.299	1171.06
487.517	1175.06
487.735	1196.06
487.953	1164.06
488.171	1149.06
488.389	1154.06
488.607	1144.06
488.825	1148.06
489.043	1178.06
489.261	1131.06
489.479	1158.06
489.696	1170.06
489.914	1185.06
490.132	1160.06
490.35	1176.06
490.568	1167.06
490.786	1176.06
491.003	1201.06
491.221	1210.06
491.439	1147.06
491.657	1173.06
491.874	1210.06
492.092	1187.06
492.31	1203.06
492.527	1242.06
492.745	1218.06
492.963	1210.06
493.18	1189.06
493.398	1217.06
493.615	1201.06
493.833	1240.06
494.05	1227.06
494.268	1228.06
494.485	1258.06
494.703	1307.06
494.92	1272.06
495.138	1247.06
495.355	1260.06
495.573	1266.06
495.79	1280.06
496.008	1265.06
496.225	1305.06
496.442	1280.06
496.66	1322.06
496.877	1348.06
497.094	1383.06
497.312	1381.06
497.529	1430.06
497.746	1454.06
497.963	1496.06
498.181	1591.06
498.398	1634.06
498.615	1747.06
498.832	1899.06
499.049	2050.06
499.267	2192.06
499.484	2468.06
499.701	2627.06
499.918	2934.06
500.135	3324.06
500.352	3689.06
500.569	3900.06
500.786	3874.06
501.003	3658.06
501.22	3322.06
501.437	2989.06
501.654	2608.06
501.871	2348.06
502.088	2184.06
502.305	1994.06
502.522	1914.06
502.739	1842.06
502.956	1714.06
503.172	1613.06
503.389	1565.06
503.606	1518.06
503.823	1502.06
504.04	1479.06
504.256	1478.06
504.473	1550.06
504.69	1538.06
504.907	1514.06
505.123	1414.06
505.34	1332.06
505.557	1290.06
505.773	1280.06
505.99	1194.06
506.207	1170.06
506.423	1200.06
506.64	1178.06
506.856	1110.06
507.073	1134.06
507.289	1128.06
507.506	1092.06
507.722	1101.06
507.939	1103.06
508.155	1091.06
508.372	1078.06
508.588	1094.06
508.805	1080.06
509.021	1030.06
509.238	1044.06
509.454	1051.06
509.67	1049.06
509.887	1015.06
510.103	1020.06
510.319	1034.06
510.536	1053.06
510.752	995.06
510.968	982.06
511.184	977.06
511.401	1010.06
511.617	1038.06
511.833	1013.06
512.049	1008.06
512.265	1011.06
512.481	1017.06
512.698	1022.06
512.914	1006.06
513.13	1008.06
513.346	1010.06
513.562	998.06
513.778	1021.06
513.994	1006.06
514.21	1010.06
514.426	1032.06
514.642	1030.06
514.858	1021.06
515.074	999.06
515.29	1032.06
515.506	1044.06
515.721	1075.06
515.937	1121.06
516.153	1127.06
516.369	1147.06
516.585	1164.06
516.801	1222.06
517.016	1246.06
517.232	1312.06
517.448	1376.06
517.664	1428.06
517.879	1438.06
518.095	1430.06
518.311	1414.06
518.527	1368.06
518.742	1276.06
518.958	1238.06
519.173	1195.06
519.389	1167.06
519.605	1119.06
519.82	1126.06
520.036	1080.06
520.251	1052.06
520.467	1047.06
520.682	996.06
520.898	1010.06
521.113	1001.06
521.329	1012.06
521.544	1000.06
521.76	999.06
521.975	995.06
522.19	983.06
522.406	963.06
522.621	946.06
522.836	958.06
523.052	934.06
523.267	926.06
523.482	919.06
523.698	932.06
523.913	918.06
524.128	952.06
524.343	933.06
524.559	940.06
524.774	904.06
524.989	926.06
525.204	918.06
525.419	924.06
525.634	917.06
525.849	918.06
526.064	936.06
526.28	904.06
526.495	906.06
526.71	919.06
526.925	891.06
527.14	919.06
527.355	892.06
527.57	924.06
527.785	872.06
527.999	915.06
528.214	921.06
528.429	918.06
528.644	886.06
528.859	900.06
529.074	900.06
529.289	920.06
529.503	902.06
529.718	890.06
529.933	913.06
530.148	907.06
530.363	905.06
530.577	904.06
530.792	915.06
531.007	890.06
531.221	917.06
531.436	903.06
531.651	925.06
531.865	895.06
532.08	922.06
532.295	889.06
532.509	917.06
532.724	898.06
532.938	906.06
533.153	891.06
533.367	894.06
533.582	931.06
533.796	904.06
534.011	902.06
534.225	883.06
534.44	874.06
534.654	888.06
534.868	887.06
535.083	889.06
535.297	884.06
535.511	869.06
535.726	873.06
535.94	867.06
536.154	854.06
536.369	863.06
536.583	858.06
536.797	827.06
537.011	851.06
537.225	850.06
537.44	814.06
537.654	818.06
537.868	825.06
538.082	826.06
538.296	851.06
538.51	835.06
538.724	826.06
538.938	828.06
539.153	834.06
539.367	842.06
539.581	816.06
539.795	822.06
540.009	826.06
540.222	811.06
540.436	815.06
540.65	807.06
540.864	788.06
541.078	794.06
541.292	792.06
541.506	827.06
541.72	830.06
541.934	820.06
542.147	814.06
542.361	803.06
542.575	793.06
542.789	786.06
543.002	786.06
543.216	795.06
543.43	810.06
543.644	804.06
543.857	787.06
544.071	799.06
544.285	830.06
544.498	816.06
544.712	830.06
544.925	834.06
545.139	803.06
545.352	788.06
545.566	819.06
545.779	852.06
545.993	830.06
546.206	825.06
546.42	810.06
546.633	855.06
546.847	839.06
547.06	817.06
547.274	815.06
547.487	818.06
547.7	849.06
547.914	832.06
548.127	838.06
548.34	841.06
548.554	827.06
548.767	825.06
548.98	839.06
549.193	805.06
549.407	841.06
549.62	865.06
549.833	855.06
550.046	863.06
550.259	852.06
550.473	859.06
550.686	814.06
550.899	806.06
551.112	803.06
551.325	824.06
551.538	832.06
551.751	839.06
551.964	793.06
552.177	804.06
552.39	835.06
552.603	898.06
552.816	871.06
553.029	885.06
553.242	930.06
553.455	915.06
553.667	941.06
553.88	910.06
554.093	888.06
554.306	863.06
554.519	848.06
554.732	820.06
554.944	848.06
555.157	823.06
555.37	783.06
555.583	766.06
555.795	760.06
556.008	764.06
556.221	729.06
556.433	722.06
556.646	729.06
556.859	725.06
557.071	729.06
557.284	717.06
557.496	734.06
557.709	708.06
557.921	743.06
558.134	693.06
558.346	688.06
558.559	671.06
558.771	703.06
558.984	702.06
559.196	683.06
559.409	706.06
559.621	686.06
559.833	698.06
560.046	676.06
560.258	679.06
560.47	679.06
560.683	687.06
560.895	695.06
561.107	644.06
561.32	704.06
561.532	673.06
561.744	683.06
561.956	688.06
562.168	681.06
562.381	681.06
562.593	667.06
562.805	672.06
563.017	680.06
563.229	659.06
563.441	681.06
563.653	694.06
563.865	710.06
564.077	727.06
564.289	720.06
564.501	720.06
564.713	731.06
564.925	735.06
565.137	772.06
565.349	792.06
565.561	835.06
565.773	852.06
565.985	875.06
566.197	918.06
566.408	986.06
566.62	1060.06
566.832	1129.06
567.044	1150.06
567.255	1164.06
567.467	1198.06
567.679	1240.06
567.891	1322.06
568.102	1317.06
568.314	1299.06
568.526	1163.06
568.737	1069.06
568.949	971.06
569.161	940.06
569.372	850.06
569.584	792.06
569.795	784.06
570.007	763.06
570.218	725.06
570.43	704.06
570.641	736.06
570.853	720.06
571.064	722.06
571.276	734.06
571.487	700.06
571.698	688.06
571.91	640.06
572.121	640.06
572.333	639.06
572.544	614.06
572.755	630.06
572.966	599.06
573.178	587.06
573.389	563.06
573.6	573.06
573.811	599.06
574.023	567.06
574.234	579.06
574.445	552.06
574.656	546.06
574.867	566.06
575.078	558.06
575.289	571.06
575.501	546.06
575.712	558.06
575.923	539.06
576.134	528.06
576.345	566.06
576.556	551.06
576.767	532.06
576.978	560.06
577.188	534.06
577.399	530.06
577.61	523.06
577.821	512.06
578.032	510.06
578.243	492.06
578.454	514.06
578.665	502.06
578.875	512.06
579.086	484.06
579.297	513.06
579.508	487.06
579.718	482.06
579.929	497.06
580.14	487.06
580.35	492.06
580.561	468.06
580.772	485.06
580.982	475.06
581.193	454.06
581.403	480.06
581.614	464.06
581.825	469.06
582.035	463.06
582.246	464.06
582.456	470.06
582.667	467.06
582.877	479.06
583.087	476.06
583.298	470.06
583.508	447.06
583.719	463.06
583.929	465.06
584.139	457.06
584.35	442.06
584.56	465.06
584.77	464.06
584.981	457.06
585.191	448.06
585.401	430.06
585.611	440.06
585.821	461.06
586.032	485.06
586.242	459.06
586.452	454.06
586.662	443.06
586.872	450.06
587.082	451.06
587.292	434.06
587.502	451.06
587.713	444.06
587.923	458.06
588.133	458.06
588.343	436.06
588.553	453.06
588.762	452.06
588.972	454.06
589.182	482.06
589.392	451.06
589.602	472.06
589.812	455.06
590.022	462.06
590.232	446.06
590.441	448.06
590.651	457.06
590.861	464.06
591.071	475.06
591.281	469.06
591.49	481.06
591.7	480.06
591.91	467.06
592.119	505.06
592.329	519.06
592.539	511.06
592.748	550.06
592.958	550.06
593.167	571.06
593.377	570.06
593.587	576.06
593.796	566.06
594.006	593.06
594.215	584.06
594.424	608.06
594.634	591.06
594.843	568.06
595.053	539.06
595.262	532.06
595.472	503.06
595.681	475.06
595.89	478.06
596.1	465.06
596.309	447.06
596.518	444.06
596.727	446.06
596.937	437.06
597.146	438.06
597.355	440.06
597.564	422.06
597.774	412.06
597.983	395.06
598.192	397.06
598.401	384.06
598.61	400.06
598.819	386.06
599.028	398.06
599.237	396.06
599.446	387.06
599.655	368.06
599.864	370.06
600.073	375.06
600.282	370.06
600.491	392.06
600.7	360.06
600.909	363.06
601.118	376.06
601.327	378.06
601.536	351.06
601.745	374.06
601.953	378.06
602.162	386.06
602.371	369.06
602.58	355.06
602.789	368.06
602.997	382.06
603.206	356.06
603.415	356.06
603.623	372.06
603.832	363.06
604.041	373.06
604.249	375.06
604.458	358.06
604.666	342.06
604.875	361.06
605.084	360.06
605.292	347.06
605.501	332.06
605.709	353.06
605.918	352.06
606.126	339.06
606.334	345.06
606.543	336.06
606.751	330.06
606.96	334.06
607.168	319.06
607.376	355.06
607.585	342.06
607.793	342.06
608.001	334.06
608.21	336.06
608.418	351.06
608.626	338.06
608.834	338.06
609.043	327.06
609.251	323.06
609.459	343.06
609.667	332.06
609.875	336.06
610.083	351.06
610.291	341.06
610.499	338.06
610.707	338.06
610.916	332.06
611.124	320.06
611.332	327.06
611.54	324.06
611.748	319.06
611.955	326.06
612.163	344.06
612.371	324.06
612.579	304.06
612.787	294.06
612.995	338.06
613.203	322.06
613.411	334.06
613.618	326.06
613.826	321.06
614.034	321.06
614.242	327.06
614.449	306.06
614.657	319.06
614.865	334.06
615.072	328.06
615.28	324.06
615.488	312.06
615.695	310.06
615.903	328.06
616.111	325.06
616.318	310.06
616.526	313.06
616.733	316.06
616.941	313.06
617.148	318.06
617.356	305.06
617.563	310.06
617.771	314.06
617.978	320.06
618.185	314.06
618.393	312.06
618.6	330.06
618.807	318.06
619.015	310.06
619.222	298.06
619.429	311.06
619.637	328.06
619.844	297.06
620.051	291.06
620.258	292.06
620.466	302.06
620.673	289.06
620.88	295.06
621.087	284.06
621.294	304.06
621.501	297.06
621.708	320.06
621.915	303.06
622.122	279.06
622.329	283.06
622.536	295.06
622.743	304.06
622.95	263.06
623.157	267.06
623.364	282.06
623.571	279.06
623.778	295.06
623.985	291.06
624.192	289.06
624.399	276.06
624.606	284.06
624.812	285.06
625.019	286.06
625.226	271.06
625.433	275.06
625.639	274.06
625.846	285.06
626.053	284.06
626.259	267.06
626.466	280.06
626.673	275.06
626.879	256.06
627.086	262.06
627.293	267.06
627.499	268.06
627.706	281.06
627.912	255.06
628.119	274.06
628.325	272.06
628.532	259.06
628.738	267.06
628.945	259.06
629.151	263.06
629.357	255.06
629.564	256.06
629.77	255.06
629.976	252.06
630.183	245.06
630.389	246.06
630.595	239.06
630.802	234.06
631.008	247.06
631.214	244.06
631.42	253.06
631.627	257.06
631.833	259.06
632.039	250.06
632.245	229.06
632.451	235.06
632.657	241.06
632.863	225.06
633.069	234.06
633.275	248.06
633.481	251.06
633.688	254.06
633.893	239.06
634.099	256.06
634.305	244.06
634.511	233.06
634.717	231.06
634.923	240.06
635.129	252.06
635.335	254.06
635.541	223.06
635.747	232.06
635.952	240.06
636.158	232.06
636.364	236.06
636.57	220.06
636.775	230.06
636.981	229.06
637.187	238.06
637.392	212.06
637.598	222.06
637.804	208.06
638.009	214.06
638.215	242.06
638.421	223.06
638.626	221.06
638.832	224.06
639.037	218.06
639.243	228.06
639.448	226.06
639.654	240.06
639.859	223.06
640.065	235.06
640.27	207.06
640.475	204.06
640.681	224.06
640.886	220.06
641.091	208.06
641.297	219.06
641.502	200.06
641.707	197.06
641.913	189.06
642.118	202.06
642.323	196.06
642.528	223.06
642.733	204.06
642.939	221.06
643.144	209.06
643.349	193.06
643.554	217.06
643.759	206.06
643.964	198.06
644.169	210.06
644.374	195.06
644.579	186.06
644.784	180.06
644.989	192.06
645.194	203.06
645.399	182.06
645.604	201.06
645.809	183.06
646.014	195.06
646.219	203.06
646.423	198.06
646.628	194.06
646.833	206.06
647.038	209.06
647.243	202.06
647.447	203.06
647.652	214.06
647.857	208.06
648.062	238.06
648.266	207.06
648.471	214.06
648.676	230.06
648.88	199.06
649.085	199.06
649.289	213.06
649.494	204.06
649.698	186.06
649.903	207.06
650.107	199.06
650.312	217.06
650.516	199.06
650.721	190.06
650.925	178.06
651.13	190.06
651.334	171.06
651.539	188.06
651.743	187.06
651.947	190.06
652.152	176.06
652.356	164.06
652.56	170.06
652.764	165.06
652.969	154.06
653.173	163.06
653.377	166.06
653.581	160.06
653.785	161.06
653.99	156.06
654.194	159.06
654.398	143.06
654.602	144.06
654.806	144.06
655.01	136.06
655.214	145.06
655.418	137.06
655.622	156.06
655.826	156.06
656.03	152.06
656.234	146.06
656.438	148.06
656.642	133.06
656.846	134.06
657.049	129.06
657.253	141.06
657.457	144.06
657.661	130.06
657.865	126.06
658.068	111.06
658.272	113.06
658.476	130.06
658.68	106.06
658.883	117.06
659.087	105.06
659.291	111.06
659.494	116.06
659.698	110.06
659.901	106.06
660.105	93.06
660.309	94.06
660.512	94.06
660.716	96.06
660.919	88.06
661.123	99.06
661.326	87.06
661.53	89.06
661.733	105.06
661.936	76.06
662.14	87.06
662.343	79.06
662.546	89.06
662.75	99.06
662.953	88.06
663.156	93.06
663.36	83.06
663.563	85.06
663.766	79.06
663.969	89.06
664.173	67.06
664.376	91.06
664.579	92.06
664.782	65.06
664.985	83.06
665.188	79.06
665.391	73.06
665.594	82.06
665.797	71.06
666	81.06
666.203	83.06
666.406	77.06
666.609	83.06
666.812	83.06
667.015	83.06
667.218	88.06
667.421	82.06
667.624	78.06
667.827	68.06
668.03	92.06
668.232	96.06
668.435	69.06
668.638	88.06
668.841	91.06
669.043	81.06
669.246	74.06
669.449	72.06
669.651	76.06
669.854	75.06
670.057	76.06
670.259	87.06
670.462	88.06
670.665	62.06
670.867	91.06
671.07	78.06
671.272	80.06
671.475	79.06
671.677	81.06
671.88	83.06
672.082	72.06
672.284	82.06
672.487	85.06
672.689	80.06
672.892	84.06
