Data from NiCl2@0.125M.TitratingCurve.Agarose3%dH2O.NegLispCup.LampEnergy10.LIBS07252019_HRD10591_18-30-02-578.txt Node
Date: Thu Jul 25 18:30:02 EDT 2019
User: cochatt
Spectrometer: HR+D1059
Trigger mode: 1
Integration Time (sec): 1.000000E-1
Scans to average: 1
Electric dark correction enabled: true
Nonlinearity correction enabled: false
Boxcar width: 0
XAxis mode: Wavelengths
Number of Pixels in Spectrum: 2048
>>>>>Begin Spectral Data<<<<<
223.165	-28.94
223.4	-28.94
223.635	-28.94
223.869	-23.94
224.104	-22.94
224.338	-13.94
224.573	-12.94
224.808	-8.94
225.042	-7.94
225.277	3.06
225.511	5.06
225.746	13.06
225.98	16.06
226.215	15.06
226.449	4.06
226.683	15.06
226.918	12.06
227.152	36.06
227.387	31.06
227.621	26.06
227.856	45.06
228.09	49.06
228.324	58.06
228.559	49.06
228.793	67.06
229.027	110.06
229.262	106.06
229.496	127.06
229.73	115.06
229.964	133.06
230.199	133.06
230.433	147.06
230.667	134.06
230.901	146.06
231.136	141.06
231.37	143.06
231.604	146.06
231.838	143.06
232.072	133.06
232.306	152.06
232.541	150.06
232.775	148.06
233.009	166.06
233.243	166.06
233.477	149.06
233.711	179.06
233.945	147.06
234.179	157.06
234.413	157.06
234.647	150.06
234.881	154.06
235.115	152.06
235.349	162.06
235.583	167.06
235.817	153.06
236.051	158.06
236.285	157.06
236.519	161.06
236.753	153.06
236.987	166.06
237.221	166.06
237.455	166.06
237.689	175.06
237.922	183.06
238.156	172.06
238.39	172.06
238.624	191.06
238.858	173.06
239.091	167.06
239.325	163.06
239.559	177.06
239.793	189.06
240.027	196.06
240.26	181.06
240.494	174.06
240.728	174.06
240.961	202.06
241.195	197.06
241.429	199.06
241.662	200.06
241.896	205.06
242.13	199.06
242.363	204.06
242.597	208.06
242.83	208.06
243.064	211.06
243.298	196.06
243.531	210.06
243.765	217.06
243.998	228.06
244.232	227.06
244.465	219.06
244.699	214.06
244.932	227.06
245.166	211.06
245.399	237.06
245.633	234.06
245.866	234.06
246.099	225.06
246.333	228.06
246.566	239.06
246.8	229.06
247.033	229.06
247.266	218.06
247.5	228.06
247.733	240.06
247.966	242.06
248.2	235.06
248.433	249.06
248.666	264.06
248.899	259.06
249.133	245.06
249.366	248.06
249.599	261.06
249.832	249.06
250.066	261.06
250.299	248.06
250.532	249.06
250.765	255.06
250.998	272.06
251.231	276.06
251.465	272.06
251.698	280.06
251.931	276.06
252.164	265.06
252.397	295.06
252.63	262.06
252.863	299.06
253.096	281.06
253.329	290.06
253.562	309.06
253.795	299.06
254.028	296.06
254.261	294.06
254.494	305.06
254.727	280.06
254.96	292.06
255.193	293.06
255.426	291.06
255.659	290.06
255.892	312.06
256.124	296.06
256.357	309.06
256.59	321.06
256.823	298.06
257.056	291.06
257.289	299.06
257.521	303.06
257.754	317.06
257.987	322.06
258.22	307.06
258.452	320.06
258.685	326.06
258.918	319.06
259.151	316.06
259.383	320.06
259.616	339.06
259.849	334.06
260.081	315.06
260.314	345.06
260.547	343.06
260.779	332.06
261.012	330.06
261.244	336.06
261.477	307.06
261.71	325.06
261.942	345.06
262.175	336.06
262.407	352.06
262.64	343.06
262.872	339.06
263.105	359.06
263.337	358.06
263.57	348.06
263.802	359.06
264.035	366.06
264.267	364.06
264.499	378.06
264.732	369.06
264.964	375.06
265.197	392.06
265.429	364.06
265.661	349.06
265.894	352.06
266.126	363.06
266.358	390.06
266.591	394.06
266.823	386.06
267.055	372.06
267.287	398.06
267.52	386.06
267.752	393.06
267.984	363.06
268.216	363.06
268.448	385.06
268.681	399.06
268.913	402.06
269.145	392.06
269.377	383.06
269.609	402.06
269.841	393.06
270.073	393.06
270.306	365.06
270.538	403.06
270.77	415.06
271.002	399.06
271.234	388.06
271.466	379.06
271.698	403.06
271.93	406.06
272.162	406.06
272.394	387.06
272.626	425.06
272.858	406.06
273.09	410.06
273.322	428.06
273.553	417.06
273.785	413.06
274.017	431.06
274.249	425.06
274.481	425.06
274.713	407.06
274.945	424.06
275.176	423.06
275.408	425.06
275.64	428.06
275.872	404.06
276.104	441.06
276.335	416.06
276.567	418.06
276.799	442.06
277.031	442.06
277.262	444.06
277.494	447.06
277.726	446.06
277.957	440.06
278.189	453.06
278.421	449.06
278.652	443.06
278.884	439.06
279.115	458.06
279.347	465.06
279.579	433.06
279.81	457.06
280.042	464.06
280.273	473.06
280.505	459.06
280.736	476.06
280.968	485.06
281.199	463.06
281.431	470.06
281.662	475.06
281.894	463.06
282.125	482.06
282.356	519.06
282.588	493.06
282.819	496.06
283.051	467.06
283.282	490.06
283.513	497.06
283.745	498.06
283.976	515.06
284.207	483.06
284.439	492.06
284.67	508.06
284.901	515.06
285.132	516.06
285.364	500.06
285.595	510.06
285.826	497.06
286.057	535.06
286.288	522.06
286.52	519.06
286.751	517.06
286.982	531.06
287.213	525.06
287.444	517.06
287.675	522.06
287.906	520.06
288.138	546.06
288.369	514.06
288.6	519.06
288.831	570.06
289.062	514.06
289.293	539.06
289.524	524.06
289.755	544.06
289.986	543.06
290.217	529.06
290.448	517.06
290.679	538.06
290.91	541.06
291.141	542.06
291.371	520.06
291.602	553.06
291.833	553.06
292.064	568.06
292.295	557.06
292.526	567.06
292.757	545.06
292.987	551.06
293.218	557.06
293.449	546.06
293.68	581.06
293.91	573.06
294.141	540.06
294.372	539.06
294.603	558.06
294.833	550.06
295.064	555.06
295.295	566.06
295.525	561.06
295.756	574.06
295.987	569.06
296.217	558.06
296.448	568.06
296.679	570.06
296.909	595.06
297.14	590.06
297.37	591.06
297.601	607.06
297.831	589.06
298.062	596.06
298.292	580.06
298.523	622.06
298.753	622.06
298.984	597.06
299.214	598.06
299.445	614.06
299.675	595.06
299.905	590.06
300.136	588.06
300.366	606.06
300.597	618.06
300.827	632.06
301.057	631.06
301.288	641.06
301.518	642.06
301.748	645.06
301.979	661.06
302.209	630.06
302.439	646.06
302.669	638.06
302.9	647.06
303.13	611.06
303.36	609.06
303.59	628.06
303.82	603.06
304.051	638.06
304.281	615.06
304.511	618.06
304.741	631.06
304.971	611.06
305.201	609.06
305.431	639.06
305.661	610.06
305.891	596.06
306.121	627.06
306.352	622.06
306.582	590.06
306.812	606.06
307.042	586.06
307.272	620.06
307.502	622.06
307.731	598.06
307.961	602.06
308.191	602.06
308.421	590.06
308.651	593.06
308.881	595.06
309.111	603.06
309.341	626.06
309.571	603.06
309.8	608.06
310.03	610.06
310.26	617.06
310.49	617.06
310.72	595.06
310.949	622.06
311.179	612.06
311.409	615.06
311.639	615.06
311.868	607.06
312.098	633.06
312.328	637.06
312.557	613.06
312.787	619.06
313.017	631.06
313.246	645.06
313.476	666.06
313.706	664.06
313.935	650.06
314.165	646.06
314.394	642.06
314.624	671.06
314.853	643.06
315.083	629.06
315.312	653.06
315.542	637.06
315.771	646.06
316.001	651.06
316.23	639.06
316.46	642.06
316.689	641.06
316.919	638.06
317.148	622.06
317.377	627.06
317.607	625.06
317.836	617.06
318.065	611.06
318.295	657.06
318.524	620.06
318.753	625.06
318.983	637.06
319.212	637.06
319.441	621.06
319.67	636.06
319.9	606.06
320.129	632.06
320.358	641.06
320.587	643.06
320.816	626.06
321.046	639.06
321.275	643.06
321.504	641.06
321.733	641.06
321.962	638.06
322.191	612.06
322.42	631.06
322.649	637.06
322.878	660.06
323.108	656.06
323.337	630.06
323.566	651.06
323.795	662.06
324.024	634.06
324.253	659.06
324.482	636.06
324.71	632.06
324.939	645.06
325.168	659.06
325.397	658.06
325.626	648.06
325.855	681.06
326.084	676.06
326.313	707.06
326.542	723.06
326.77	703.06
326.999	712.06
327.228	684.06
327.457	689.06
327.686	676.06
327.914	707.06
328.143	687.06
328.372	690.06
328.6	691.06
328.829	676.06
329.058	694.06
329.287	696.06
329.515	700.06
329.744	705.06
329.972	693.06
330.201	691.06
330.43	676.06
330.658	691.06
330.887	722.06
331.115	711.06
331.344	737.06
331.572	745.06
331.801	760.06
332.03	765.06
332.258	793.06
332.486	802.06
332.715	819.06
332.943	845.06
333.172	887.06
333.4	940.06
333.629	940.06
333.857	932.06
334.085	940.06
334.314	935.06
334.542	893.06
334.771	874.06
334.999	879.06
335.227	865.06
335.455	905.06
335.684	861.06
335.912	840.06
336.14	858.06
336.369	819.06
336.597	846.06
336.825	853.06
337.053	812.06
337.281	805.06
337.51	784.06
337.738	769.06
337.966	745.06
338.194	753.06
338.422	731.06
338.65	749.06
338.878	738.06
339.106	757.06
339.334	755.06
339.562	726.06
339.79	734.06
340.018	710.06
340.246	717.06
340.474	726.06
340.702	709.06
340.93	716.06
341.158	738.06
341.386	743.06
341.614	733.06
341.842	739.06
342.07	709.06
342.298	691.06
342.526	714.06
342.754	711.06
342.981	714.06
343.209	747.06
343.437	779.06
343.665	802.06
343.893	860.06
344.12	923.06
344.348	886.06
344.576	823.06
344.804	785.06
345.031	749.06
345.259	735.06
345.487	717.06
345.714	708.06
345.942	684.06
346.17	728.06
346.397	733.06
346.625	723.06
346.853	700.06
347.08	726.06
347.308	695.06
347.535	703.06
347.763	722.06
347.99	733.06
348.218	699.06
348.445	707.06
348.673	689.06
348.9	710.06
349.128	691.06
349.355	689.06
349.583	692.06
349.81	674.06
350.037	678.06
350.265	658.06
350.492	675.06
350.72	677.06
350.947	680.06
351.174	672.06
351.402	683.06
351.629	662.06
351.856	663.06
352.083	682.06
352.311	669.06
352.538	664.06
352.765	669.06
352.992	676.06
353.22	677.06
353.447	660.06
353.674	669.06
353.901	681.06
354.128	683.06
354.355	654.06
354.583	680.06
354.81	668.06
355.037	706.06
355.264	675.06
355.491	662.06
355.718	684.06
355.945	694.06
356.172	669.06
356.399	688.06
356.626	670.06
356.853	702.06
357.08	691.06
357.307	659.06
357.534	670.06
357.761	689.06
357.988	689.06
358.215	693.06
358.441	689.06
358.668	669.06
358.895	694.06
359.122	654.06
359.349	655.06
359.576	689.06
359.802	653.06
360.029	700.06
360.256	679.06
360.483	656.06
360.709	660.06
360.936	680.06
361.163	664.06
361.39	680.06
361.616	692.06
361.843	683.06
362.07	667.06
362.296	667.06
362.523	675.06
362.749	671.06
362.976	676.06
363.203	667.06
363.429	663.06
363.656	671.06
363.882	671.06
364.109	673.06
364.335	643.06
364.562	666.06
364.788	661.06
365.015	667.06
365.241	673.06
365.468	657.06
365.694	701.06
365.92	666.06
366.147	671.06
366.373	682.06
366.599	670.06
366.826	665.06
367.052	655.06
367.278	654.06
367.505	676.06
367.731	677.06
367.957	663.06
368.184	683.06
368.41	693.06
368.636	674.06
368.862	695.06
369.089	691.06
369.315	700.06
369.541	681.06
369.767	691.06
369.993	711.06
370.219	727.06
370.445	697.06
370.672	723.06
370.898	716.06
371.124	751.06
371.35	739.06
371.576	740.06
371.802	756.06
372.028	739.06
372.254	739.06
372.48	758.06
372.706	749.06
372.932	775.06
373.158	769.06
373.384	733.06
373.61	749.06
373.835	718.06
374.061	734.06
374.287	728.06
374.513	723.06
374.739	758.06
374.965	789.06
375.191	841.06
375.416	807.06
375.642	812.06
375.868	768.06
376.094	788.06
376.319	757.06
376.545	753.06
376.771	746.06
376.997	753.06
377.222	736.06
377.448	753.06
377.674	743.06
377.899	714.06
378.125	719.06
378.35	699.06
378.576	717.06
378.802	712.06
379.027	710.06
379.253	735.06
379.478	721.06
379.704	738.06
379.929	738.06
380.155	736.06
380.38	736.06
380.606	714.06
380.831	739.06
381.057	712.06
381.282	716.06
381.507	718.06
381.733	742.06
381.958	701.06
382.184	733.06
382.409	789.06
382.634	800.06
382.86	791.06
383.085	761.06
383.31	803.06
383.535	802.06
383.761	824.06
383.986	836.06
384.211	842.06
384.436	864.06
384.662	886.06
384.887	907.06
385.112	890.06
385.337	913.06
385.562	903.06
385.787	889.06
386.013	902.06
386.238	909.06
386.463	876.06
386.688	931.06
386.913	887.06
387.138	888.06
387.363	876.06
387.588	874.06
387.813	893.06
388.038	851.06
388.263	886.06
388.488	881.06
388.713	870.06
388.938	898.06
389.163	854.06
389.387	862.06
389.612	854.06
389.837	845.06
390.062	853.06
390.287	846.06
390.512	839.06
390.736	887.06
390.961	885.06
391.186	868.06
391.411	925.06
391.636	933.06
391.86	982.06
392.085	1031.06
392.31	991.06
392.534	947.06
392.759	970.06
392.984	939.06
393.208	928.06
393.433	939.06
393.658	925.06
393.882	932.06
394.107	974.06
394.331	973.06
394.556	909.06
394.78	926.06
395.005	958.06
395.229	930.06
395.454	950.06
395.678	1001.06
395.903	990.06
396.127	978.06
396.352	950.06
396.576	961.06
396.801	932.06
397.025	927.06
397.249	954.06
397.474	990.06
397.698	955.06
397.922	995.06
398.147	998.06
398.371	1005.06
398.595	1005.06
398.82	1043.06
399.044	1132.06
399.268	1260.06
399.492	1484.06
399.717	1731.06
399.941	1738.06
400.165	1526.06
400.389	1363.06
400.613	1246.06
400.837	1171.06
401.062	1105.06
401.286	1115.06
401.51	1085.06
401.734	1125.06
401.958	1093.06
402.182	1111.06
402.406	1157.06
402.63	1175.06
402.854	1186.06
403.078	1217.06
403.302	1258.06
403.526	1259.06
403.75	1321.06
403.974	1337.06
404.198	1312.06
404.422	1317.06
404.645	1295.06
404.869	1291.06
405.093	1279.06
405.317	1244.06
405.541	1263.06
405.765	1208.06
405.988	1217.06
406.212	1234.06
406.436	1221.06
406.66	1256.06
406.883	1255.06
407.107	1365.06
407.331	1388.06
407.555	1453.06
407.778	1474.06
408.002	1443.06
408.226	1365.06
408.449	1339.06
408.673	1293.06
408.896	1247.06
409.12	1259.06
409.344	1281.06
409.567	1271.06
409.791	1298.06
410.014	1273.06
410.238	1246.06
410.461	1249.06
410.685	1251.06
410.908	1201.06
411.132	1163.06
411.355	1149.06
411.578	1164.06
411.802	1169.06
412.025	1157.06
412.249	1183.06
412.472	1202.06
412.695	1148.06
412.919	1136.06
413.142	1104.06
413.365	1134.06
413.589	1127.06
413.812	1140.06
414.035	1113.06
414.258	1112.06
414.482	1095.06
414.705	1116.06
414.928	1117.06
415.151	1129.06
415.374	1101.06
415.597	1133.06
415.821	1101.06
416.044	1084.06
416.267	1089.06
416.49	1079.06
416.713	1105.06
416.936	1077.06
417.159	1106.06
417.382	1090.06
417.605	1121.06
417.828	1089.06
418.051	1098.06
418.274	1138.06
418.497	1113.06
418.72	1146.06
418.943	1119.06
419.166	1209.06
419.389	1314.06
419.611	1244.06
419.834	1199.06
420.057	1169.06
420.28	1145.06
420.503	1130.06
420.726	1075.06
420.948	1104.06
421.171	1090.06
421.394	1117.06
421.617	1101.06
421.839	1077.06
422.062	1103.06
422.285	1096.06
422.507	1138.06
422.73	1134.06
422.953	1130.06
423.175	1147.06
423.398	1203.06
423.621	1165.06
423.843	1201.06
424.066	1185.06
424.288	1197.06
424.511	1163.06
424.733	1150.06
424.956	1154.06
425.178	1139.06
425.401	1142.06
425.623	1128.06
425.846	1107.06
426.068	1098.06
426.291	1067.06
426.513	1058.06
426.735	1049.06
426.958	1027.06
427.18	1009.06
427.402	1007.06
427.625	1001.06
427.847	987.06
428.069	991.06
428.292	978.06
428.514	977.06
428.736	983.06
428.958	988.06
429.181	967.06
429.403	966.06
429.625	970.06
429.847	989.06
430.069	950.06
430.292	969.06
430.514	965.06
430.736	953.06
430.958	985.06
431.18	945.06
431.402	965.06
431.624	964.06
431.846	971.06
432.068	1014.06
432.29	1030.06
432.512	970.06
432.734	986.06
432.956	984.06
433.178	1013.06
433.4	991.06
433.622	1013.06
433.844	1011.06
434.066	986.06
434.287	1025.06
434.509	1045.06
434.731	1105.06
434.953	1110.06
435.175	1155.06
435.397	1115.06
435.618	1080.06
435.84	1047.06
436.062	995.06
436.284	985.06
436.505	970.06
436.727	985.06
436.949	1022.06
437.17	980.06
437.392	992.06
437.614	991.06
437.835	932.06
438.057	959.06
438.278	977.06
438.5	938.06
438.721	953.06
438.943	967.06
439.165	967.06
439.386	956.06
439.608	1007.06
439.829	1000.06
440.05	971.06
440.272	989.06
440.493	1012.06
440.715	1005.06
440.936	1062.06
441.158	1078.06
441.379	1084.06
441.6	1116.06
441.822	1163.06
442.043	1130.06
442.264	1093.06
442.486	1098.06
442.707	1120.06
442.928	1107.06
443.149	1095.06
443.371	1117.06
443.592	1115.06
443.813	1131.06
444.034	1153.06
444.255	1192.06
444.476	1243.06
444.698	1313.06
444.919	1359.06
445.14	1469.06
445.361	1316.06
445.582	1187.06
445.803	1086.06
446.024	1073.06
446.245	1069.06
446.466	1026.06
446.687	1017.06
446.908	1020.06
447.129	1000.06
447.35	965.06
447.571	982.06
447.792	933.06
448.013	947.06
448.234	931.06
448.455	936.06
448.675	914.06
448.896	933.06
449.117	897.06
449.338	892.06
449.559	885.06
449.779	889.06
450	896.06
450.221	906.06
450.442	924.06
450.662	942.06
450.883	971.06
451.104	972.06
451.324	926.06
451.545	941.06
451.766	951.06
451.986	947.06
452.207	942.06
452.428	936.06
452.648	940.06
452.869	907.06
453.089	904.06
453.31	904.06
453.53	905.06
453.751	897.06
453.971	873.06
454.192	889.06
454.412	874.06
454.633	845.06
454.853	867.06
455.073	878.06
455.294	861.06
455.514	858.06
455.734	847.06
455.955	873.06
456.175	878.06
456.395	851.06
456.616	877.06
456.836	870.06
457.056	860.06
457.276	858.06
457.497	851.06
457.717	862.06
457.937	853.06
458.157	887.06
458.377	878.06
458.598	912.06
458.818	923.06
459.038	930.06
459.258	957.06
459.478	1008.06
459.698	1041.06
459.918	1062.06
460.138	1097.06
460.358	1166.06
460.578	1189.06
460.798	1196.06
461.018	1214.06
461.238	1228.06
461.458	1150.06
461.678	1181.06
461.898	1177.06
462.118	1189.06
462.338	1278.06
462.558	1308.06
462.777	1359.06
462.997	1483.06
463.217	1633.06
463.437	1669.06
463.657	1515.06
463.876	1421.06
464.096	1419.06
464.316	1391.06
464.536	1406.06
464.755	1370.06
464.975	1312.06
465.195	1249.06
465.414	1204.06
465.634	1093.06
465.854	1073.06
466.073	1014.06
466.293	998.06
466.512	977.06
466.732	980.06
466.951	969.06
467.171	987.06
467.391	990.06
467.61	969.06
467.829	940.06
468.049	974.06
468.268	918.06
468.488	910.06
468.707	930.06
468.927	957.06
469.146	917.06
469.365	926.06
469.585	951.06
469.804	978.06
470.023	970.06
470.243	990.06
470.462	1019.06
470.681	1022.06
470.901	977.06
471.12	975.06
471.339	967.06
471.558	975.06
471.777	949.06
471.997	920.06
472.216	949.06
472.435	923.06
472.654	858.06
472.873	872.06
473.092	888.06
473.311	899.06
473.53	881.06
473.749	894.06
473.968	922.06
474.187	882.06
474.406	895.06
474.625	918.06
474.844	889.06
475.063	908.06
475.282	912.06
475.501	905.06
475.72	912.06
475.939	924.06
476.158	959.06
476.377	942.06
476.596	934.06
476.814	941.06
477.033	939.06
477.252	934.06
477.471	1001.06
477.69	997.06
477.908	1003.06
478.127	1076.06
478.346	1103.06
478.564	1096.06
478.783	1109.06
479.002	1167.06
479.22	1167.06
479.439	1150.06
479.658	1113.06
479.876	1121.06
480.095	1133.06
480.313	1191.06
480.532	1223.06
480.751	1215.06
480.969	1160.06
481.188	1109.06
481.406	1112.06
481.624	1049.06
481.843	1058.06
482.061	1039.06
482.28	1046.06
482.498	1033.06
482.717	1059.06
482.935	1034.06
483.153	1049.06
483.372	1029.06
483.59	1063.06
483.808	1045.06
484.027	1044.06
484.245	1046.06
484.463	1062.06
484.681	1079.06
484.9	1070.06
485.118	1083.06
485.336	1089.06
485.554	1095.06
485.772	1111.06
485.99	1118.06
486.209	1109.06
486.427	1114.06
486.645	1111.06
486.863	1122.06
487.081	1087.06
487.299	1086.06
487.517	1084.06
487.735	1049.06
487.953	1092.06
488.171	1098.06
488.389	1100.06
488.607	1069.06
488.825	1088.06
489.043	1041.06
489.261	1078.06
489.479	1069.06
489.696	1075.06
489.914	1046.06
490.132	1085.06
490.35	1100.06
490.568	1062.06
490.786	1068.06
491.003	1105.06
491.221	1106.06
491.439	1085.06
491.657	1099.06
491.874	1091.06
492.092	1089.06
492.31	1104.06
492.527	1083.06
492.745	1116.06
492.963	1112.06
493.18	1115.06
493.398	1122.06
493.615	1108.06
493.833	1134.06
494.05	1102.06
494.268	1163.06
494.485	1168.06
494.703	1151.06
494.92	1149.06
495.138	1147.06
495.355	1119.06
495.573	1156.06
495.79	1118.06
496.008	1146.06
496.225	1153.06
496.442	1177.06
496.66	1190.06
496.877	1166.06
497.094	1219.06
497.312	1231.06
497.529	1227.06
497.746	1271.06
497.963	1332.06
498.181	1374.06
498.398	1429.06
498.615	1525.06
498.832	1633.06
499.049	1729.06
499.267	1882.06
499.484	2083.06
499.701	2291.06
499.918	2531.06
500.135	2922.06
500.352	3407.06
500.569	3626.06
500.786	3532.06
501.003	3306.06
501.22	2945.06
501.437	2570.06
501.654	2203.06
501.871	2027.06
502.088	1878.06
502.305	1741.06
502.522	1635.06
502.739	1581.06
502.956	1491.06
503.172	1427.06
503.389	1351.06
503.606	1329.06
503.823	1307.06
504.04	1295.06
504.256	1291.06
504.473	1365.06
504.69	1363.06
504.907	1359.06
505.123	1306.06
505.34	1219.06
505.557	1139.06
505.773	1108.06
505.99	1125.06
506.207	1051.06
506.423	1054.06
506.64	1066.06
506.856	1025.06
507.073	1025.06
507.289	1013.06
507.506	975.06
507.722	984.06
507.939	978.06
508.155	957.06
508.372	989.06
508.588	961.06
508.805	975.06
509.021	989.06
509.238	938.06
509.454	946.06
509.67	963.06
509.887	986.06
510.103	915.06
510.319	922.06
510.536	920.06
510.752	932.06
510.968	886.06
511.184	927.06
511.401	918.06
511.617	931.06
511.833	931.06
512.049	941.06
512.265	908.06
512.481	927.06
512.698	913.06
512.914	934.06
513.13	902.06
513.346	894.06
513.562	920.06
513.778	922.06
513.994	908.06
514.21	911.06
514.426	921.06
514.642	929.06
514.858	941.06
515.074	938.06
515.29	952.06
515.506	951.06
515.721	974.06
515.937	986.06
516.153	1007.06
516.369	1007.06
516.585	1053.06
516.801	1061.06
517.016	1113.06
517.232	1191.06
517.448	1242.06
517.664	1257.06
517.879	1324.06
518.095	1326.06
518.311	1291.06
518.527	1187.06
518.742	1171.06
518.958	1125.06
519.173	1045.06
519.389	1034.06
519.605	996.06
519.82	999.06
520.036	971.06
520.251	950.06
520.467	932.06
520.682	937.06
520.898	952.06
521.113	921.06
521.329	893.06
521.544	899.06
521.76	908.06
521.975	879.06
522.19	886.06
522.406	873.06
522.621	860.06
522.836	881.06
523.052	864.06
523.267	861.06
523.482	873.06
523.698	858.06
523.913	858.06
524.128	845.06
524.343	872.06
524.559	862.06
524.774	839.06
524.989	854.06
525.204	859.06
525.419	864.06
525.634	817.06
525.849	858.06
526.064	861.06
526.28	806.06
526.495	826.06
526.71	827.06
526.925	838.06
527.14	812.06
527.355	815.06
527.57	847.06
527.785	814.06
527.999	828.06
528.214	823.06
528.429	845.06
528.644	815.06
528.859	827.06
529.074	834.06
529.289	830.06
529.503	827.06
529.718	859.06
529.933	839.06
530.148	817.06
530.363	835.06
530.577	800.06
530.792	833.06
531.007	829.06
531.221	835.06
531.436	855.06
531.651	867.06
531.865	820.06
532.08	833.06
532.295	831.06
532.509	849.06
532.724	837.06
532.938	848.06
533.153	861.06
533.367	825.06
533.582	820.06
533.796	821.06
534.011	844.06
534.225	823.06
534.44	828.06
534.654	830.06
534.868	829.06
535.083	825.06
535.297	821.06
535.511	801.06
535.726	808.06
535.94	809.06
536.154	818.06
536.369	795.06
536.583	785.06
536.797	795.06
537.011	823.06
537.225	780.06
537.44	779.06
537.654	759.06
537.868	762.06
538.082	761.06
538.296	772.06
538.51	767.06
538.724	769.06
538.938	738.06
539.153	765.06
539.367	761.06
539.581	787.06
539.795	739.06
540.009	756.06
540.222	750.06
540.436	743.06
540.65	761.06
540.864	769.06
541.078	751.06
541.292	757.06
541.506	766.06
541.72	746.06
541.934	769.06
542.147	750.06
542.361	733.06
542.575	710.06
542.789	745.06
543.002	701.06
543.216	729.06
543.43	724.06
543.644	728.06
543.857	709.06
544.071	727.06
544.285	730.06
544.498	746.06
544.712	765.06
544.925	727.06
545.139	746.06
545.352	765.06
545.566	765.06
545.779	767.06
545.993	758.06
546.206	771.06
546.42	761.06
546.633	762.06
546.847	733.06
547.06	753.06
547.274	756.06
547.487	775.06
547.7	762.06
547.914	771.06
548.127	780.06
548.34	746.06
548.554	740.06
548.767	766.06
548.98	775.06
549.193	764.06
549.407	769.06
549.62	828.06
549.833	790.06
550.046	786.06
550.259	791.06
550.473	745.06
550.686	746.06
550.899	735.06
551.112	754.06
551.325	731.06
551.538	744.06
551.751	754.06
551.964	722.06
552.177	746.06
552.39	760.06
552.603	786.06
552.816	808.06
553.029	828.06
553.242	840.06
553.455	847.06
553.667	873.06
553.88	832.06
554.093	827.06
554.306	769.06
554.519	751.06
554.732	776.06
554.944	732.06
555.157	736.06
555.37	719.06
555.583	725.06
555.795	724.06
556.008	698.06
556.221	681.06
556.433	681.06
556.646	694.06
556.859	695.06
557.071	649.06
557.284	670.06
557.496	649.06
557.709	663.06
557.921	670.06
558.134	654.06
558.346	652.06
558.559	635.06
558.771	646.06
558.984	647.06
559.196	632.06
559.409	645.06
559.621	612.06
559.833	642.06
560.046	647.06
560.258	610.06
560.47	641.06
560.683	641.06
560.895	618.06
561.107	622.06
561.32	634.06
561.532	642.06
561.744	643.06
561.956	638.06
562.168	626.06
562.381	633.06
562.593	653.06
562.805	641.06
563.017	656.06
563.229	638.06
563.441	661.06
563.653	669.06
563.865	665.06
564.077	646.06
564.289	665.06
564.501	659.06
564.713	674.06
564.925	687.06
565.137	691.06
565.349	700.06
565.561	731.06
565.773	752.06
565.985	781.06
566.197	830.06
566.408	924.06
566.62	937.06
566.832	1050.06
567.044	1059.06
567.255	1068.06
567.467	1108.06
567.679	1170.06
567.891	1237.06
568.102	1272.06
568.314	1242.06
568.526	1065.06
568.737	992.06
568.949	897.06
569.161	812.06
569.372	734.06
569.584	717.06
569.795	689.06
570.007	683.06
570.218	675.06
570.43	644.06
570.641	647.06
570.853	657.06
571.064	698.06
571.276	655.06
571.487	676.06
571.698	648.06
571.91	591.06
572.121	581.06
572.333	556.06
572.544	555.06
572.755	546.06
572.966	553.06
573.178	551.06
573.389	555.06
573.6	529.06
573.811	518.06
574.023	530.06
574.234	526.06
574.445	524.06
574.656	534.06
574.867	508.06
575.078	543.06
575.289	547.06
575.501	527.06
575.712	525.06
575.923	479.06
576.134	499.06
576.345	485.06
576.556	519.06
576.767	497.06
576.978	463.06
577.188	492.06
577.399	487.06
577.61	499.06
577.821	467.06
578.032	465.06
578.243	497.06
578.454	495.06
578.665	481.06
578.875	463.06
579.086	474.06
579.297	483.06
579.508	465.06
579.718	479.06
579.929	457.06
580.14	450.06
580.35	461.06
580.561	460.06
580.772	458.06
580.982	468.06
581.193	451.06
581.403	455.06
581.614	455.06
581.825	458.06
582.035	436.06
582.246	433.06
582.456	426.06
582.667	442.06
582.877	425.06
583.087	449.06
583.298	448.06
583.508	426.06
583.719	441.06
583.929	429.06
584.139	434.06
584.35	430.06
584.56	435.06
584.77	423.06
584.981	449.06
585.191	430.06
585.401	435.06
585.611	421.06
585.821	403.06
586.032	427.06
586.242	443.06
586.452	436.06
586.662	433.06
586.872	419.06
587.082	420.06
587.292	440.06
587.502	421.06
587.713	414.06
587.923	420.06
588.133	413.06
588.343	412.06
588.553	428.06
588.762	440.06
588.972	423.06
589.182	446.06
589.392	419.06
589.602	430.06
589.812	434.06
590.022	415.06
590.232	443.06
590.441	406.06
590.651	435.06
590.861	435.06
591.071	445.06
591.281	446.06
591.49	447.06
591.7	465.06
591.91	461.06
592.119	483.06
592.329	471.06
592.539	499.06
592.748	533.06
592.958	525.06
593.167	535.06
593.377	541.06
593.587	571.06
593.796	547.06
594.006	556.06
594.215	555.06
594.424	555.06
594.634	556.06
594.843	540.06
595.053	494.06
595.262	505.06
595.472	481.06
595.681	455.06
595.89	434.06
596.1	428.06
596.309	436.06
596.518	418.06
596.727	408.06
596.937	396.06
597.146	372.06
597.355	380.06
597.564	387.06
597.774	403.06
597.983	379.06
598.192	384.06
598.401	359.06
598.61	365.06
598.819	371.06
599.028	371.06
599.237	377.06
599.446	374.06
599.655	372.06
599.864	349.06
600.073	375.06
600.282	353.06
600.491	361.06
600.7	351.06
600.909	359.06
601.118	359.06
601.327	364.06
601.536	361.06
601.745	338.06
601.953	371.06
602.162	358.06
602.371	332.06
602.58	348.06
602.789	345.06
602.997	347.06
603.206	358.06
603.415	359.06
603.623	359.06
603.832	342.06
604.041	348.06
604.249	360.06
604.458	355.06
604.666	363.06
604.875	332.06
605.084	336.06
605.292	347.06
605.501	342.06
605.709	335.06
605.918	358.06
606.126	343.06
606.334	341.06
606.543	347.06
606.751	339.06
606.96	317.06
607.168	319.06
607.376	323.06
607.585	318.06
607.793	323.06
608.001	324.06
608.21	336.06
608.418	345.06
608.626	317.06
608.834	323.06
609.043	319.06
609.251	309.06
609.459	309.06
609.667	335.06
609.875	318.06
610.083	341.06
610.291	320.06
610.499	328.06
610.707	326.06
610.916	319.06
611.124	330.06
611.332	321.06
611.54	319.06
611.748	327.06
611.955	303.06
612.163	315.06
612.371	313.06
612.579	316.06
612.787	327.06
612.995	317.06
613.203	326.06
613.411	308.06
613.618	298.06
613.826	318.06
614.034	317.06
614.242	311.06
614.449	294.06
614.657	317.06
614.865	303.06
615.072	305.06
615.28	314.06
615.488	298.06
615.695	326.06
615.903	308.06
616.111	309.06
616.318	313.06
616.526	313.06
616.733	317.06
616.941	321.06
617.148	321.06
617.356	317.06
617.563	311.06
617.771	329.06
617.978	314.06
618.185	324.06
618.393	307.06
618.6	306.06
618.807	319.06
619.015	327.06
619.222	312.06
619.429	305.06
619.637	302.06
619.844	303.06
620.051	301.06
620.258	316.06
620.466	286.06
620.673	291.06
620.88	284.06
621.087	292.06
621.294	285.06
621.501	295.06
621.708	305.06
621.915	284.06
622.122	283.06
622.329	293.06
622.536	309.06
622.743	283.06
622.95	283.06
623.157	279.06
623.364	281.06
623.571	278.06
623.778	288.06
623.985	275.06
624.192	302.06
624.399	261.06
624.606	294.06
624.812	275.06
625.019	279.06
625.226	271.06
625.433	274.06
625.639	275.06
625.846	257.06
626.053	283.06
626.259	263.06
626.466	266.06
626.673	239.06
626.879	245.06
627.086	265.06
627.293	277.06
627.499	261.06
627.706	278.06
627.912	253.06
628.119	269.06
628.325	274.06
628.532	257.06
628.738	269.06
628.945	256.06
629.151	262.06
629.357	262.06
629.564	249.06
629.77	243.06
629.976	237.06
630.183	251.06
630.389	246.06
630.595	234.06
630.802	261.06
631.008	256.06
631.214	259.06
631.42	238.06
631.627	246.06
631.833	231.06
632.039	225.06
632.245	231.06
632.451	254.06
632.657	223.06
632.863	242.06
633.069	214.06
633.275	234.06
633.481	229.06
633.688	237.06
633.893	242.06
634.099	243.06
634.305	249.06
634.511	225.06
634.717	230.06
634.923	230.06
635.129	243.06
635.335	228.06
635.541	241.06
635.747	237.06
635.952	235.06
636.158	235.06
636.364	227.06
636.57	218.06
636.775	237.06
636.981	234.06
637.187	216.06
637.392	228.06
637.598	223.06
637.804	216.06
638.009	221.06
638.215	209.06
638.421	221.06
638.626	220.06
638.832	232.06
639.037	219.06
639.243	215.06
639.448	224.06
639.654	223.06
639.859	210.06
640.065	218.06
640.27	220.06
640.475	213.06
640.681	198.06
640.886	202.06
641.091	205.06
641.297	214.06
641.502	206.06
641.707	216.06
641.913	197.06
642.118	219.06
642.323	195.06
642.528	203.06
642.733	206.06
642.939	216.06
643.144	215.06
643.349	222.06
643.554	212.06
643.759	199.06
643.964	210.06
644.169	202.06
644.374	212.06
644.579	206.06
644.784	217.06
644.989	209.06
645.194	215.06
645.399	204.06
645.604	211.06
645.809	222.06
646.014	199.06
646.219	205.06
646.423	209.06
646.628	212.06
646.833	215.06
647.038	213.06
647.243	207.06
647.447	223.06
647.652	212.06
647.857	198.06
648.062	220.06
648.266	214.06
648.471	233.06
648.676	225.06
648.88	216.06
649.085	225.06
649.289	219.06
649.494	205.06
649.698	222.06
649.903	203.06
650.107	194.06
650.312	207.06
650.516	195.06
650.721	183.06
650.925	190.06
651.13	190.06
651.334	197.06
651.539	196.06
651.743	163.06
651.947	202.06
652.152	191.06
652.356	173.06
652.56	189.06
652.764	185.06
652.969	187.06
653.173	160.06
653.377	169.06
653.581	181.06
653.785	185.06
653.99	174.06
654.194	169.06
654.398	167.06
654.602	169.06
654.806	177.06
655.01	166.06
655.214	163.06
655.418	177.06
655.622	164.06
655.826	155.06
656.03	162.06
656.234	172.06
656.438	160.06
656.642	143.06
656.846	157.06
657.049	146.06
657.253	155.06
657.457	144.06
657.661	133.06
657.865	124.06
658.068	120.06
658.272	126.06
658.476	112.06
658.68	120.06
658.883	115.06
659.087	129.06
659.291	106.06
659.494	122.06
659.698	114.06
659.901	113.06
660.105	93.06
660.309	110.06
660.512	113.06
660.716	92.06
660.919	93.06
661.123	94.06
661.326	94.06
661.53	93.06
661.733	86.06
661.936	94.06
662.14	86.06
662.343	94.06
662.546	84.06
662.75	86.06
662.953	81.06
663.156	83.06
663.36	90.06
663.563	82.06
663.766	76.06
663.969	89.06
664.173	93.06
664.376	93.06
664.579	91.06
664.782	84.06
664.985	83.06
665.188	93.06
665.391	87.06
665.594	91.06
665.797	86.06
666	86.06
666.203	75.06
666.406	78.06
666.609	72.06
666.812	67.06
667.015	83.06
667.218	94.06
667.421	73.06
667.624	77.06
667.827	84.06
668.03	74.06
668.232	81.06
668.435	78.06
668.638	87.06
668.841	84.06
669.043	77.06
669.246	81.06
669.449	84.06
669.651	86.06
669.854	89.06
670.057	92.06
670.259	92.06
670.462	76.06
670.665	87.06
670.867	81.06
671.07	79.06
671.272	87.06
671.475	87.06
671.677	78.06
671.88	82.06
672.082	84.06
672.284	78.06
672.487	90.06
672.689	81.06
672.892	83.06
