Data from NiCl2@0.5M.TitratingCurve.Agarose3%dH2O.NegLispCup.LampEnergy10.LIBS07252019_HRD10591_18-19-29-571.txt Node
Date: Thu Jul 25 18:19:29 EDT 2019
User: cochatt
Spectrometer: HR+D1059
Trigger mode: 1
Integration Time (sec): 1.000000E-1
Scans to average: 1
Electric dark correction enabled: true
Nonlinearity correction enabled: false
Boxcar width: 0
XAxis mode: Wavelengths
Number of Pixels in Spectrum: 2048
>>>>>Begin Spectral Data<<<<<
223.165	-13.62
223.4	-13.62
223.635	-13.62
223.869	-9.62
224.104	-17.62
224.338	-19.62
224.573	-7.62
224.808	-7.62
225.042	-18.62
225.277	7.38
225.511	-9.62
225.746	-6.62
225.98	4.38
226.215	25.38
226.449	12.38
226.683	12.38
226.918	24.38
227.152	24.38
227.387	33.38
227.621	34.38
227.856	43.38
228.09	49.38
228.324	61.38
228.559	43.38
228.793	69.38
229.027	107.38
229.262	91.38
229.496	109.38
229.73	104.38
229.964	106.38
230.199	121.38
230.433	128.38
230.667	127.38
230.901	130.38
231.136	134.38
231.37	126.38
231.604	133.38
231.838	132.38
232.072	136.38
232.306	133.38
232.541	132.38
232.775	136.38
233.009	122.38
233.243	135.38
233.477	116.38
233.711	121.38
233.945	126.38
234.179	147.38
234.413	128.38
234.647	142.38
234.881	132.38
235.115	142.38
235.349	127.38
235.583	125.38
235.817	132.38
236.051	137.38
236.285	124.38
236.519	126.38
236.753	131.38
236.987	136.38
237.221	142.38
237.455	138.38
237.689	145.38
237.922	142.38
238.156	139.38
238.39	125.38
238.624	132.38
238.858	154.38
239.091	156.38
239.325	150.38
239.559	151.38
239.793	143.38
240.027	166.38
240.26	156.38
240.494	140.38
240.728	159.38
240.961	157.38
241.195	148.38
241.429	153.38
241.662	138.38
241.896	165.38
242.13	169.38
242.363	156.38
242.597	161.38
242.83	150.38
243.064	156.38
243.298	163.38
243.531	168.38
243.765	172.38
243.998	168.38
244.232	171.38
244.465	169.38
244.699	158.38
244.932	180.38
245.166	158.38
245.399	186.38
245.633	176.38
245.866	172.38
246.099	172.38
246.333	178.38
246.566	176.38
246.8	162.38
247.033	181.38
247.266	186.38
247.5	176.38
247.733	193.38
247.966	182.38
248.2	189.38
248.433	192.38
248.666	171.38
248.899	190.38
249.133	193.38
249.366	193.38
249.599	213.38
249.832	190.38
250.066	199.38
250.299	189.38
250.532	200.38
250.765	203.38
250.998	208.38
251.231	207.38
251.465	216.38
251.698	208.38
251.931	199.38
252.164	209.38
252.397	219.38
252.63	208.38
252.863	213.38
253.096	212.38
253.329	217.38
253.562	212.38
253.795	219.38
254.028	217.38
254.261	220.38
254.494	211.38
254.727	240.38
254.96	227.38
255.193	225.38
255.426	240.38
255.659	219.38
255.892	214.38
256.124	226.38
256.357	232.38
256.59	238.38
256.823	234.38
257.056	227.38
257.289	228.38
257.521	237.38
257.754	227.38
257.987	238.38
258.22	219.38
258.452	223.38
258.685	236.38
258.918	246.38
259.151	236.38
259.383	256.38
259.616	228.38
259.849	258.38
260.081	249.38
260.314	248.38
260.547	245.38
260.779	266.38
261.012	258.38
261.244	257.38
261.477	237.38
261.71	260.38
261.942	256.38
262.175	249.38
262.407	250.38
262.64	242.38
262.872	244.38
263.105	251.38
263.337	256.38
263.57	281.38
263.802	265.38
264.035	289.38
264.267	279.38
264.499	279.38
264.732	277.38
264.964	268.38
265.197	276.38
265.429	270.38
265.661	262.38
265.894	279.38
266.126	280.38
266.358	275.38
266.591	258.38
266.823	277.38
267.055	278.38
267.287	260.38
267.52	259.38
267.752	273.38
267.984	272.38
268.216	291.38
268.448	305.38
268.681	302.38
268.913	306.38
269.145	290.38
269.377	275.38
269.609	282.38
269.841	307.38
270.073	291.38
270.306	294.38
270.538	300.38
270.77	295.38
271.002	303.38
271.234	297.38
271.466	301.38
271.698	300.38
271.93	301.38
272.162	306.38
272.394	309.38
272.626	309.38
272.858	284.38
273.09	315.38
273.322	297.38
273.553	320.38
273.785	322.38
274.017	308.38
274.249	326.38
274.481	324.38
274.713	313.38
274.945	341.38
275.176	319.38
275.408	306.38
275.64	310.38
275.872	335.38
276.104	331.38
276.335	342.38
276.567	330.38
276.799	323.38
277.031	330.38
277.262	343.38
277.494	341.38
277.726	321.38
277.957	321.38
278.189	330.38
278.421	338.38
278.652	329.38
278.884	331.38
279.115	362.38
279.347	355.38
279.579	331.38
279.81	347.38
280.042	343.38
280.273	337.38
280.505	365.38
280.736	372.38
280.968	370.38
281.199	354.38
281.431	354.38
281.662	361.38
281.894	334.38
282.125	378.38
282.356	350.38
282.588	348.38
282.819	359.38
283.051	362.38
283.282	372.38
283.513	379.38
283.745	385.38
283.976	373.38
284.207	376.38
284.439	386.38
284.67	365.38
284.901	386.38
285.132	382.38
285.364	378.38
285.595	390.38
285.826	377.38
286.057	350.38
286.288	392.38
286.52	382.38
286.751	381.38
286.982	390.38
287.213	396.38
287.444	411.38
287.675	394.38
287.906	400.38
288.138	381.38
288.369	396.38
288.6	408.38
288.831	394.38
289.062	397.38
289.293	386.38
289.524	393.38
289.755	392.38
289.986	410.38
290.217	413.38
290.448	395.38
290.679	418.38
290.91	386.38
291.141	406.38
291.371	409.38
291.602	412.38
291.833	406.38
292.064	420.38
292.295	407.38
292.526	414.38
292.757	408.38
292.987	406.38
293.218	403.38
293.449	412.38
293.68	425.38
293.91	400.38
294.141	430.38
294.372	408.38
294.603	413.38
294.833	415.38
295.064	416.38
295.295	417.38
295.525	410.38
295.756	423.38
295.987	396.38
296.217	432.38
296.448	450.38
296.679	433.38
296.909	426.38
297.14	419.38
297.37	406.38
297.601	432.38
297.831	426.38
298.062	451.38
298.292	463.38
298.523	442.38
298.753	453.38
298.984	448.38
299.214	455.38
299.445	426.38
299.675	435.38
299.905	434.38
300.136	440.38
300.366	445.38
300.597	473.38
300.827	471.38
301.057	474.38
301.288	463.38
301.518	456.38
301.748	474.38
301.979	485.38
302.209	450.38
302.439	468.38
302.669	473.38
302.9	456.38
303.13	457.38
303.36	456.38
303.59	475.38
303.82	486.38
304.051	493.38
304.281	472.38
304.511	498.38
304.741	489.38
304.971	482.38
305.201	490.38
305.431	480.38
305.661	498.38
305.891	474.38
306.121	462.38
306.352	491.38
306.582	476.38
306.812	442.38
307.042	463.38
307.272	470.38
307.502	460.38
307.731	457.38
307.961	482.38
308.191	467.38
308.421	483.38
308.651	489.38
308.881	473.38
309.111	459.38
309.341	471.38
309.571	475.38
309.8	469.38
310.03	496.38
310.26	498.38
310.49	503.38
310.72	511.38
310.949	505.38
311.179	504.38
311.409	464.38
311.639	487.38
311.868	461.38
312.098	471.38
312.328	510.38
312.557	485.38
312.787	488.38
313.017	492.38
313.246	502.38
313.476	496.38
313.706	527.38
313.935	510.38
314.165	525.38
314.394	495.38
314.624	511.38
314.853	523.38
315.083	508.38
315.312	505.38
315.542	496.38
315.771	529.38
316.001	512.38
316.23	497.38
316.46	529.38
316.689	508.38
316.919	488.38
317.148	506.38
317.377	502.38
317.607	506.38
317.836	516.38
318.065	489.38
318.295	508.38
318.524	506.38
318.753	506.38
318.983	515.38
319.212	512.38
319.441	501.38
319.67	512.38
319.9	507.38
320.129	517.38
320.358	514.38
320.587	532.38
320.816	527.38
321.046	491.38
321.275	494.38
321.504	529.38
321.733	515.38
321.962	524.38
322.191	524.38
322.42	521.38
322.649	541.38
322.878	526.38
323.108	526.38
323.337	520.38
323.566	500.38
323.795	538.38
324.024	534.38
324.253	518.38
324.482	525.38
324.71	521.38
324.939	536.38
325.168	539.38
325.397	537.38
325.626	562.38
325.855	557.38
326.084	551.38
326.313	574.38
326.542	541.38
326.77	570.38
326.999	552.38
327.228	547.38
327.457	567.38
327.686	573.38
327.914	552.38
328.143	552.38
328.372	547.38
328.6	557.38
328.829	562.38
329.058	572.38
329.287	544.38
329.515	571.38
329.744	552.38
329.972	566.38
330.201	582.38
330.43	568.38
330.658	569.38
330.887	569.38
331.115	571.38
331.344	596.38
331.572	571.38
331.801	582.38
332.03	567.38
332.258	585.38
332.486	588.38
332.715	608.38
332.943	634.38
333.172	660.38
333.4	645.38
333.629	673.38
333.857	675.38
334.085	646.38
334.314	669.38
334.542	660.38
334.771	679.38
334.999	658.38
335.227	660.38
335.455	655.38
335.684	649.38
335.912	679.38
336.14	651.38
336.369	645.38
336.597	674.38
336.825	658.38
337.053	653.38
337.281	654.38
337.51	641.38
337.738	648.38
337.966	635.38
338.194	628.38
338.422	627.38
338.65	620.38
338.878	617.38
339.106	587.38
339.334	636.38
339.562	600.38
339.79	609.38
340.018	592.38
340.246	595.38
340.474	587.38
340.702	577.38
340.93	584.38
341.158	580.38
341.386	626.38
341.614	633.38
341.842	612.38
342.07	572.38
342.298	582.38
342.526	617.38
342.754	591.38
342.981	606.38
343.209	595.38
343.437	628.38
343.665	628.38
343.893	642.38
344.12	661.38
344.348	634.38
344.576	630.38
344.804	638.38
345.031	633.38
345.259	590.38
345.487	610.38
345.714	598.38
345.942	586.38
346.17	607.38
346.397	596.38
346.625	592.38
346.853	569.38
347.08	578.38
347.308	587.38
347.535	595.38
347.763	561.38
347.99	565.38
348.218	548.38
348.445	574.38
348.673	564.38
348.9	560.38
349.128	575.38
349.355	573.38
349.583	591.38
349.81	556.38
350.037	566.38
350.265	566.38
350.492	551.38
350.72	553.38
350.947	545.38
351.174	562.38
351.402	569.38
351.629	570.38
351.856	598.38
352.083	550.38
352.311	556.38
352.538	553.38
352.765	570.38
352.992	553.38
353.22	512.38
353.447	554.38
353.674	557.38
353.901	544.38
354.128	561.38
354.355	543.38
354.583	541.38
354.81	534.38
355.037	536.38
355.264	532.38
355.491	512.38
355.718	549.38
355.945	536.38
356.172	542.38
356.399	540.38
356.626	559.38
356.853	566.38
357.08	543.38
357.307	554.38
357.534	530.38
357.761	524.38
357.988	527.38
358.215	526.38
358.441	539.38
358.668	517.38
358.895	527.38
359.122	525.38
359.349	516.38
359.576	530.38
359.802	534.38
360.029	551.38
360.256	505.38
360.483	530.38
360.709	517.38
360.936	528.38
361.163	546.38
361.39	534.38
361.616	524.38
361.843	550.38
362.07	558.38
362.296	569.38
362.523	553.38
362.749	518.38
362.976	520.38
363.203	548.38
363.429	518.38
363.656	545.38
363.882	520.38
364.109	521.38
364.335	521.38
364.562	530.38
364.788	505.38
365.015	549.38
365.241	513.38
365.468	530.38
365.694	526.38
365.92	522.38
366.147	513.38
366.373	496.38
366.599	524.38
366.826	522.38
367.052	494.38
367.278	530.38
367.505	525.38
367.731	538.38
367.957	537.38
368.184	527.38
368.41	529.38
368.636	539.38
368.862	534.38
369.089	533.38
369.315	537.38
369.541	537.38
369.767	529.38
369.993	521.38
370.219	520.38
370.445	538.38
370.672	556.38
370.898	532.38
371.124	552.38
371.35	575.38
371.576	554.38
371.802	537.38
372.028	553.38
372.254	544.38
372.48	568.38
372.706	572.38
372.932	556.38
373.158	588.38
373.384	574.38
373.61	541.38
373.835	555.38
374.061	552.38
374.287	568.38
374.513	562.38
374.739	590.38
374.965	597.38
375.191	585.38
375.416	596.38
375.642	561.38
375.868	554.38
376.094	557.38
376.319	561.38
376.545	560.38
376.771	551.38
376.997	568.38
377.222	526.38
377.448	549.38
377.674	551.38
377.899	577.38
378.125	515.38
378.35	540.38
378.576	535.38
378.802	515.38
379.027	537.38
379.253	523.38
379.478	531.38
379.704	534.38
379.929	545.38
380.155	533.38
380.38	555.38
380.606	539.38
380.831	545.38
381.057	557.38
381.282	567.38
381.507	553.38
381.733	537.38
381.958	541.38
382.184	524.38
382.409	558.38
382.634	542.38
382.86	566.38
383.085	556.38
383.31	575.38
383.535	561.38
383.761	569.38
383.986	597.38
384.211	587.38
384.436	587.38
384.662	591.38
384.887	603.38
385.112	595.38
385.337	613.38
385.562	615.38
385.787	628.38
386.013	623.38
386.238	649.38
386.463	612.38
386.688	604.38
386.913	631.38
387.138	591.38
387.363	630.38
387.588	610.38
387.813	622.38
388.038	596.38
388.263	596.38
388.488	606.38
388.713	602.38
388.938	608.38
389.163	600.38
389.387	621.38
389.612	608.38
389.837	636.38
390.062	603.38
390.287	635.38
390.512	612.38
390.736	604.38
390.961	616.38
391.186	648.38
391.411	632.38
391.636	641.38
391.86	674.38
392.085	677.38
392.31	658.38
392.534	652.38
392.759	662.38
392.984	652.38
393.208	657.38
393.433	666.38
393.658	646.38
393.882	646.38
394.107	653.38
394.331	645.38
394.556	651.38
394.78	660.38
395.005	684.38
395.229	673.38
395.454	662.38
395.678	680.38
395.903	682.38
396.127	686.38
396.352	693.38
396.576	684.38
396.801	636.38
397.025	651.38
397.249	715.38
397.474	701.38
397.698	661.38
397.922	680.38
398.147	677.38
398.371	706.38
398.595	730.38
398.82	757.38
399.044	789.38
399.268	821.38
399.492	896.38
399.717	957.38
399.941	950.38
400.165	924.38
400.389	884.38
400.613	817.38
400.837	804.38
401.062	777.38
401.286	756.38
401.51	760.38
401.734	737.38
401.958	760.38
402.182	785.38
402.406	745.38
402.63	772.38
402.854	783.38
403.078	795.38
403.302	791.38
403.526	796.38
403.75	781.38
403.974	822.38
404.198	815.38
404.422	841.38
404.645	817.38
404.869	826.38
405.093	801.38
405.317	794.38
405.541	817.38
405.765	824.38
405.988	801.38
406.212	842.38
406.436	827.38
406.66	852.38
406.883	841.38
407.107	872.38
407.331	905.38
407.555	905.38
407.778	905.38
408.002	914.38
408.226	880.38
408.449	865.38
408.673	860.38
408.896	851.38
409.12	847.38
409.344	867.38
409.567	861.38
409.791	853.38
410.014	837.38
410.238	847.38
410.461	851.38
410.685	821.38
410.908	816.38
411.132	813.38
411.355	783.38
411.578	808.38
411.802	802.38
412.025	819.38
412.249	818.38
412.472	791.38
412.695	791.38
412.919	778.38
413.142	812.38
413.365	789.38
413.589	776.38
413.812	767.38
414.035	729.38
414.258	762.38
414.482	767.38
414.705	759.38
414.928	791.38
415.151	769.38
415.374	780.38
415.597	784.38
415.821	761.38
416.044	767.38
416.267	773.38
416.49	754.38
416.713	758.38
416.936	768.38
417.159	729.38
417.382	755.38
417.605	752.38
417.828	737.38
418.051	753.38
418.274	736.38
418.497	731.38
418.72	796.38
418.943	768.38
419.166	800.38
419.389	862.38
419.611	837.38
419.834	812.38
420.057	814.38
420.28	797.38
420.503	750.38
420.726	746.38
420.948	763.38
421.171	764.38
421.394	769.38
421.617	762.38
421.839	753.38
422.062	768.38
422.285	744.38
422.507	779.38
422.73	780.38
422.953	771.38
423.175	809.38
423.398	783.38
423.621	798.38
423.843	788.38
424.066	784.38
424.288	772.38
424.511	786.38
424.733	784.38
424.956	788.38
425.178	777.38
425.401	788.38
425.623	764.38
425.846	762.38
426.068	748.38
426.291	743.38
426.513	773.38
426.735	749.38
426.958	741.38
427.18	747.38
427.402	749.38
427.625	743.38
427.847	744.38
428.069	729.38
428.292	731.38
428.514	744.38
428.736	749.38
428.958	729.38
429.181	721.38
429.403	723.38
429.625	716.38
429.847	744.38
430.069	700.38
430.292	746.38
430.514	726.38
430.736	734.38
430.958	728.38
431.18	755.38
431.402	730.38
431.624	731.38
431.846	722.38
432.068	747.38
432.29	735.38
432.512	737.38
432.734	731.38
432.956	736.38
433.178	750.38
433.4	758.38
433.622	759.38
433.844	777.38
434.066	768.38
434.287	756.38
434.509	761.38
434.731	774.38
434.953	782.38
435.175	798.38
435.397	788.38
435.618	760.38
435.84	759.38
436.062	769.38
436.284	734.38
436.505	734.38
436.727	725.38
436.949	770.38
437.17	737.38
437.392	738.38
437.614	716.38
437.835	703.38
438.057	700.38
438.278	705.38
438.5	711.38
438.721	707.38
438.943	715.38
439.165	720.38
439.386	728.38
439.608	749.38
439.829	740.38
440.05	751.38
440.272	764.38
440.493	768.38
440.715	739.38
440.936	750.38
441.158	789.38
441.379	778.38
441.6	818.38
441.822	811.38
442.043	797.38
442.264	800.38
442.486	789.38
442.707	785.38
442.928	798.38
443.149	770.38
443.371	784.38
443.592	835.38
443.813	835.38
444.034	830.38
444.255	841.38
444.476	838.38
444.698	900.38
444.919	905.38
445.14	993.38
445.361	952.38
445.582	854.38
445.803	820.38
446.024	797.38
446.245	772.38
446.466	783.38
446.687	790.38
446.908	781.38
447.129	750.38
447.35	741.38
447.571	725.38
447.792	734.38
448.013	738.38
448.234	736.38
448.455	717.38
448.675	712.38
448.896	702.38
449.117	701.38
449.338	706.38
449.559	698.38
449.779	681.38
450	688.38
450.221	709.38
450.442	711.38
450.662	721.38
450.883	717.38
451.104	715.38
451.324	695.38
451.545	697.38
451.766	702.38
451.986	714.38
452.207	696.38
452.428	698.38
452.648	697.38
452.869	680.38
453.089	682.38
453.31	683.38
453.53	656.38
453.751	653.38
453.971	668.38
454.192	669.38
454.412	691.38
454.633	694.38
454.853	672.38
455.073	678.38
455.294	683.38
455.514	694.38
455.734	666.38
455.955	676.38
456.175	677.38
456.395	699.38
456.616	690.38
456.836	656.38
457.056	673.38
457.276	678.38
457.497	683.38
457.717	686.38
457.937	682.38
458.157	698.38
458.377	717.38
458.598	704.38
458.818	713.38
459.038	732.38
459.258	710.38
459.478	724.38
459.698	791.38
459.918	812.38
460.138	826.38
460.358	852.38
460.578	833.38
460.798	866.38
461.018	857.38
461.238	850.38
461.458	883.38
461.678	858.38
461.898	846.38
462.118	888.38
462.338	908.38
462.558	903.38
462.777	948.38
462.997	984.38
463.217	1012.38
463.437	1024.38
463.657	981.38
463.876	950.38
464.096	979.38
464.316	979.38
464.536	981.38
464.755	931.38
464.975	930.38
465.195	871.38
465.414	846.38
465.634	791.38
465.854	792.38
466.073	804.38
466.293	772.38
466.512	755.38
466.732	752.38
466.951	779.38
467.171	773.38
467.391	738.38
467.61	765.38
467.829	749.38
468.049	776.38
468.268	700.38
468.488	727.38
468.707	709.38
468.927	750.38
469.146	732.38
469.365	746.38
469.585	737.38
469.804	771.38
470.023	772.38
470.243	756.38
470.462	766.38
470.681	756.38
470.901	754.38
471.12	781.38
471.339	731.38
471.558	719.38
471.777	752.38
471.997	719.38
472.216	728.38
472.435	713.38
472.654	709.38
472.873	715.38
473.092	722.38
473.311	711.38
473.53	727.38
473.749	743.38
473.968	725.38
474.187	714.38
474.406	730.38
474.625	730.38
474.844	720.38
475.063	730.38
475.282	752.38
475.501	757.38
475.72	738.38
475.939	731.38
476.158	759.38
476.377	762.38
476.596	729.38
476.814	765.38
477.033	772.38
477.252	776.38
477.471	804.38
477.69	793.38
477.908	829.38
478.127	844.38
478.346	820.38
478.564	850.38
478.783	840.38
479.002	874.38
479.22	885.38
479.439	898.38
479.658	869.38
479.876	890.38
480.095	860.38
480.313	910.38
480.532	894.38
480.751	908.38
480.969	855.38
481.188	857.38
481.406	859.38
481.624	847.38
481.843	836.38
482.061	831.38
482.28	841.38
482.498	841.38
482.717	835.38
482.935	851.38
483.153	837.38
483.372	855.38
483.59	849.38
483.808	866.38
484.027	851.38
484.245	850.38
484.463	846.38
484.681	848.38
484.9	866.38
485.118	850.38
485.336	840.38
485.554	853.38
485.772	853.38
485.99	844.38
486.209	876.38
486.427	873.38
486.645	874.38
486.863	858.38
487.081	866.38
487.299	885.38
487.517	885.38
487.735	877.38
487.953	871.38
488.171	895.38
488.389	886.38
488.607	872.38
488.825	870.38
489.043	849.38
489.261	859.38
489.479	892.38
489.696	860.38
489.914	868.38
490.132	871.38
490.35	873.38
490.568	891.38
490.786	891.38
491.003	916.38
491.221	901.38
491.439	911.38
491.657	906.38
491.874	901.38
492.092	945.38
492.31	923.38
492.527	916.38
492.745	931.38
492.963	925.38
493.18	902.38
493.398	930.38
493.615	920.38
493.833	934.38
494.05	930.38
494.268	964.38
494.485	933.38
494.703	972.38
494.92	946.38
495.138	955.38
495.355	941.38
495.573	969.38
495.79	962.38
496.008	961.38
496.225	991.38
496.442	975.38
496.66	990.38
496.877	1003.38
497.094	987.38
497.312	1025.38
497.529	1049.38
497.746	1027.38
497.963	1088.38
498.181	1094.38
498.398	1162.38
498.615	1228.38
498.832	1245.38
499.049	1271.38
499.267	1368.38
499.484	1443.38
499.701	1572.38
499.918	1637.38
500.135	1785.38
500.352	1948.38
500.569	2008.38
500.786	1960.38
501.003	1874.38
501.22	1765.38
501.437	1639.38
501.654	1497.38
501.871	1419.38
502.088	1394.38
502.305	1255.38
502.522	1243.38
502.739	1196.38
502.956	1120.38
503.172	1141.38
503.389	1061.38
503.606	1035.38
503.823	1038.38
504.04	1028.38
504.256	1032.38
504.473	1040.38
504.69	1041.38
504.907	1028.38
505.123	994.38
505.34	924.38
505.557	940.38
505.773	903.38
505.99	908.38
506.207	862.38
506.423	896.38
506.64	868.38
506.856	850.38
507.073	838.38
507.289	832.38
507.506	810.38
507.722	803.38
507.939	824.38
508.155	784.38
508.372	796.38
508.588	804.38
508.805	809.38
509.021	803.38
509.238	785.38
509.454	778.38
509.67	757.38
509.887	774.38
510.103	758.38
510.319	751.38
510.536	746.38
510.752	738.38
510.968	742.38
511.184	724.38
511.401	744.38
511.617	720.38
511.833	764.38
512.049	730.38
512.265	752.38
512.481	746.38
512.698	746.38
512.914	755.38
513.13	752.38
513.346	745.38
513.562	758.38
513.778	731.38
513.994	742.38
514.21	733.38
514.426	738.38
514.642	804.38
514.858	745.38
515.074	792.38
515.29	769.38
515.506	789.38
515.721	797.38
515.937	787.38
516.153	784.38
516.369	814.38
516.585	809.38
516.801	839.38
517.016	884.38
517.232	873.38
517.448	917.38
517.664	924.38
517.879	890.38
518.095	904.38
518.311	895.38
518.527	874.38
518.742	851.38
518.958	856.38
519.173	810.38
519.389	807.38
519.605	803.38
519.82	773.38
520.036	771.38
520.251	770.38
520.467	756.38
520.682	757.38
520.898	744.38
521.113	724.38
521.329	715.38
521.544	730.38
521.76	707.38
521.975	708.38
522.19	711.38
522.406	699.38
522.621	702.38
522.836	713.38
523.052	712.38
523.267	712.38
523.482	700.38
523.698	701.38
523.913	686.38
524.128	678.38
524.343	700.38
524.559	705.38
524.774	692.38
524.989	702.38
525.204	689.38
525.419	682.38
525.634	667.38
525.849	684.38
526.064	676.38
526.28	662.38
526.495	661.38
526.71	684.38
526.925	651.38
527.14	658.38
527.355	654.38
527.57	649.38
527.785	664.38
527.999	668.38
528.214	641.38
528.429	663.38
528.644	676.38
528.859	692.38
529.074	665.38
529.289	692.38
529.503	682.38
529.718	692.38
529.933	654.38
530.148	693.38
530.363	644.38
530.577	668.38
530.792	637.38
531.007	672.38
531.221	640.38
531.436	658.38
531.651	642.38
531.865	659.38
532.08	638.38
532.295	637.38
532.509	667.38
532.724	645.38
532.938	648.38
533.153	681.38
533.367	650.38
533.582	670.38
533.796	645.38
534.011	645.38
534.225	638.38
534.44	668.38
534.654	634.38
534.868	660.38
535.083	646.38
535.297	637.38
535.511	636.38
535.726	652.38
535.94	668.38
536.154	618.38
536.369	629.38
536.583	608.38
536.797	630.38
537.011	622.38
537.225	628.38
537.44	610.38
537.654	607.38
537.868	612.38
538.082	590.38
538.296	608.38
538.51	591.38
538.724	600.38
538.938	610.38
539.153	598.38
539.367	629.38
539.581	608.38
539.795	590.38
540.009	604.38
540.222	593.38
540.436	604.38
540.65	612.38
540.864	617.38
541.078	596.38
541.292	597.38
541.506	610.38
541.72	632.38
541.934	628.38
542.147	612.38
542.361	616.38
542.575	578.38
542.789	611.38
543.002	574.38
543.216	603.38
543.43	597.38
543.644	601.38
543.857	602.38
544.071	610.38
544.285	594.38
544.498	605.38
544.712	605.38
544.925	626.38
545.139	648.38
545.352	621.38
545.566	632.38
545.779	628.38
545.993	629.38
546.206	613.38
546.42	618.38
546.633	632.38
546.847	619.38
547.06	596.38
547.274	610.38
547.487	613.38
547.7	628.38
547.914	616.38
548.127	627.38
548.34	615.38
548.554	620.38
548.767	615.38
548.98	598.38
549.193	627.38
549.407	611.38
549.62	627.38
549.833	596.38
550.046	606.38
550.259	598.38
550.473	609.38
550.686	612.38
550.899	604.38
551.112	589.38
551.325	608.38
551.538	601.38
551.751	590.38
551.964	598.38
552.177	595.38
552.39	601.38
552.603	649.38
552.816	628.38
553.029	636.38
553.242	649.38
553.455	636.38
553.667	629.38
553.88	625.38
554.093	621.38
554.306	611.38
554.519	609.38
554.732	609.38
554.944	571.38
555.157	570.38
555.37	586.38
555.583	574.38
555.795	596.38
556.008	562.38
556.221	522.38
556.433	544.38
556.646	557.38
556.859	539.38
557.071	534.38
557.284	517.38
557.496	512.38
557.709	518.38
557.921	517.38
558.134	513.38
558.346	525.38
558.559	537.38
558.771	542.38
558.984	508.38
559.196	523.38
559.409	518.38
559.621	517.38
559.833	497.38
560.046	497.38
560.258	503.38
560.47	517.38
560.683	504.38
560.895	516.38
561.107	500.38
561.32	499.38
561.532	509.38
561.744	523.38
561.956	502.38
562.168	507.38
562.381	504.38
562.593	526.38
562.805	495.38
563.017	518.38
563.229	518.38
563.441	532.38
563.653	522.38
563.865	517.38
564.077	505.38
564.289	539.38
564.501	536.38
564.713	547.38
564.925	550.38
565.137	536.38
565.349	538.38
565.561	557.38
565.773	583.38
565.985	576.38
566.197	594.38
566.408	606.38
566.62	659.38
566.832	672.38
567.044	664.38
567.255	696.38
567.467	682.38
567.679	740.38
567.891	731.38
568.102	753.38
568.314	734.38
568.526	696.38
568.737	661.38
568.949	597.38
569.161	587.38
569.372	539.38
569.584	531.38
569.795	507.38
570.007	506.38
570.218	503.38
570.43	510.38
570.641	496.38
570.853	508.38
571.064	488.38
571.276	489.38
571.487	468.38
571.698	473.38
571.91	476.38
572.121	447.38
572.333	440.38
572.544	436.38
572.755	437.38
572.966	416.38
573.178	426.38
573.389	444.38
573.6	411.38
573.811	414.38
574.023	391.38
574.234	420.38
574.445	391.38
574.656	423.38
574.867	434.38
575.078	420.38
575.289	397.38
575.501	402.38
575.712	400.38
575.923	416.38
576.134	431.38
576.345	375.38
576.556	389.38
576.767	390.38
576.978	380.38
577.188	380.38
577.399	389.38
577.61	379.38
577.821	370.38
578.032	374.38
578.243	396.38
578.454	394.38
578.665	379.38
578.875	370.38
579.086	361.38
579.297	365.38
579.508	364.38
579.718	374.38
579.929	365.38
580.14	366.38
580.35	370.38
580.561	360.38
580.772	376.38
580.982	356.38
581.193	361.38
581.403	382.38
581.614	368.38
581.825	333.38
582.035	358.38
582.246	339.38
582.456	352.38
582.667	352.38
582.877	358.38
583.087	345.38
583.298	354.38
583.508	361.38
583.719	356.38
583.929	334.38
584.139	336.38
584.35	347.38
584.56	366.38
584.77	353.38
584.981	354.38
585.191	339.38
585.401	342.38
585.611	337.38
585.821	332.38
586.032	347.38
586.242	344.38
586.452	340.38
586.662	340.38
586.872	327.38
587.082	334.38
587.292	330.38
587.502	328.38
587.713	325.38
587.923	333.38
588.133	329.38
588.343	341.38
588.553	315.38
588.762	332.38
588.972	346.38
589.182	380.38
589.392	349.38
589.602	340.38
589.812	374.38
590.022	350.38
590.232	330.38
590.441	314.38
590.651	340.38
590.861	327.38
591.071	340.38
591.281	344.38
591.49	340.38
591.7	356.38
591.91	366.38
592.119	349.38
592.329	356.38
592.539	369.38
592.748	343.38
592.958	370.38
593.167	372.38
593.377	379.38
593.587	414.38
593.796	362.38
594.006	386.38
594.215	387.38
594.424	360.38
594.634	361.38
594.843	343.38
595.053	353.38
595.262	346.38
595.472	331.38
595.681	328.38
595.89	329.38
596.1	311.38
596.309	320.38
596.518	345.38
596.727	326.38
596.937	320.38
597.146	314.38
597.355	294.38
597.564	318.38
597.774	317.38
597.983	296.38
598.192	308.38
598.401	297.38
598.61	284.38
598.819	276.38
599.028	300.38
599.237	305.38
599.446	278.38
599.655	288.38
599.864	298.38
600.073	282.38
600.282	292.38
600.491	296.38
600.7	286.38
600.909	274.38
601.118	283.38
601.327	297.38
601.536	283.38
601.745	292.38
601.953	285.38
602.162	279.38
602.371	265.38
602.58	274.38
602.789	284.38
602.997	302.38
603.206	268.38
603.415	286.38
603.623	264.38
603.832	270.38
604.041	249.38
604.249	253.38
604.458	272.38
604.666	260.38
604.875	265.38
605.084	261.38
605.292	272.38
605.501	277.38
605.709	280.38
605.918	282.38
606.126	273.38
606.334	265.38
606.543	274.38
606.751	269.38
606.96	269.38
607.168	267.38
607.376	240.38
607.585	257.38
607.793	278.38
608.001	253.38
608.21	262.38
608.418	258.38
608.626	265.38
608.834	269.38
609.043	264.38
609.251	257.38
609.459	252.38
609.667	254.38
609.875	260.38
610.083	263.38
610.291	251.38
610.499	275.38
610.707	249.38
610.916	260.38
611.124	260.38
611.332	248.38
611.54	255.38
611.748	257.38
611.955	249.38
612.163	236.38
612.371	256.38
612.579	245.38
612.787	236.38
612.995	260.38
613.203	252.38
613.411	254.38
613.618	246.38
613.826	239.38
614.034	249.38
614.242	256.38
614.449	238.38
614.657	237.38
614.865	246.38
615.072	248.38
615.28	237.38
615.488	247.38
615.695	252.38
615.903	233.38
616.111	250.38
616.318	244.38
616.526	245.38
616.733	241.38
616.941	228.38
617.148	232.38
617.356	254.38
617.563	236.38
617.771	230.38
617.978	232.38
618.185	245.38
618.393	244.38
618.6	241.38
618.807	252.38
619.015	257.38
619.222	258.38
619.429	231.38
619.637	230.38
619.844	237.38
620.051	240.38
620.258	227.38
620.466	216.38
620.673	222.38
620.88	204.38
621.087	231.38
621.294	250.38
621.501	237.38
621.708	231.38
621.915	227.38
622.122	216.38
622.329	219.38
622.536	216.38
622.743	221.38
622.95	210.38
623.157	218.38
623.364	229.38
623.571	219.38
623.778	210.38
623.985	236.38
624.192	218.38
624.399	188.38
624.606	220.38
624.812	223.38
625.019	210.38
625.226	216.38
625.433	202.38
625.639	212.38
625.846	219.38
626.053	221.38
626.259	214.38
626.466	194.38
626.673	208.38
626.879	185.38
627.086	201.38
627.293	211.38
627.499	198.38
627.706	202.38
627.912	209.38
628.119	202.38
628.325	205.38
628.532	216.38
628.738	211.38
628.945	211.38
629.151	224.38
629.357	199.38
629.564	203.38
629.77	205.38
629.976	199.38
630.183	203.38
630.389	187.38
630.595	194.38
630.802	181.38
631.008	197.38
631.214	192.38
631.42	198.38
631.627	208.38
631.833	202.38
632.039	206.38
632.245	184.38
632.451	199.38
632.657	202.38
632.863	203.38
633.069	187.38
633.275	193.38
633.481	184.38
633.688	186.38
633.893	201.38
634.099	197.38
634.305	192.38
634.511	197.38
634.717	188.38
634.923	184.38
635.129	191.38
635.335	182.38
635.541	174.38
635.747	194.38
635.952	169.38
636.158	187.38
636.364	185.38
636.57	201.38
636.775	180.38
636.981	188.38
637.187	179.38
637.392	171.38
637.598	168.38
637.804	200.38
638.009	181.38
638.215	169.38
638.421	169.38
638.626	191.38
638.832	181.38
639.037	177.38
639.243	185.38
639.448	181.38
639.654	184.38
639.859	171.38
640.065	169.38
640.27	197.38
640.475	189.38
640.681	173.38
640.886	177.38
641.091	191.38
641.297	182.38
641.502	164.38
641.707	190.38
641.913	171.38
642.118	168.38
642.323	172.38
642.528	170.38
642.733	169.38
642.939	177.38
643.144	184.38
643.349	172.38
643.554	185.38
643.759	183.38
643.964	183.38
644.169	171.38
644.374	191.38
644.579	163.38
644.784	156.38
644.989	163.38
645.194	174.38
645.399	167.38
645.604	169.38
645.809	185.38
646.014	184.38
646.219	180.38
646.423	165.38
646.628	180.38
646.833	184.38
647.038	165.38
647.243	174.38
647.447	165.38
647.652	180.38
647.857	168.38
648.062	168.38
648.266	163.38
648.471	172.38
648.676	177.38
648.88	184.38
649.085	168.38
649.289	179.38
649.494	165.38
649.698	173.38
649.903	165.38
650.107	172.38
650.312	164.38
650.516	165.38
650.721	161.38
650.925	170.38
651.13	164.38
651.334	155.38
651.539	170.38
651.743	156.38
651.947	144.38
652.152	158.38
652.356	151.38
652.56	155.38
652.764	154.38
652.969	149.38
653.173	143.38
653.377	123.38
653.581	156.38
653.785	127.38
653.99	144.38
654.194	139.38
654.398	134.38
654.602	140.38
654.806	130.38
655.01	137.38
655.214	138.38
655.418	140.38
655.622	135.38
655.826	127.38
656.03	137.38
656.234	145.38
656.438	142.38
656.642	132.38
656.846	126.38
657.049	138.38
657.253	128.38
657.457	120.38
657.661	112.38
657.865	119.38
658.068	106.38
658.272	116.38
658.476	116.38
658.68	116.38
658.883	118.38
659.087	124.38
659.291	103.38
659.494	104.38
659.698	103.38
659.901	101.38
660.105	109.38
660.309	115.38
660.512	100.38
660.716	122.38
660.919	91.38
661.123	98.38
661.326	95.38
661.53	91.38
661.733	91.38
661.936	104.38
662.14	77.38
662.343	96.38
662.546	95.38
662.75	106.38
662.953	89.38
663.156	96.38
663.36	83.38
663.563	93.38
663.766	73.38
663.969	93.38
664.173	84.38
664.376	77.38
664.579	99.38
664.782	88.38
664.985	81.38
665.188	99.38
665.391	96.38
665.594	82.38
665.797	85.38
666	94.38
666.203	81.38
666.406	80.38
666.609	77.38
666.812	71.38
667.015	73.38
667.218	78.38
667.421	68.38
667.624	98.38
667.827	77.38
668.03	81.38
668.232	91.38
668.435	84.38
668.638	82.38
668.841	99.38
669.043	81.38
669.246	83.38
669.449	86.38
669.651	86.38
669.854	71.38
670.057	88.38
670.259	91.38
670.462	81.38
670.665	98.38
670.867	87.38
671.07	86.38
671.272	85.38
671.475	90.38
671.677	84.38
671.88	83.38
672.082	86.38
672.284	90.38
672.487	98.38
672.689	82.38
672.892	72.38
