Data from NiCl2@0.0625M.TitratingCurve.Agarose3%dH2O.NegLispCup.LampEnergy10.LIBS07252019_HRD10591_18-32-34-575.txt Node
Date: Thu Jul 25 18:32:34 EDT 2019
User: cochatt
Spectrometer: HR+D1059
Trigger mode: 1
Integration Time (sec): 1.000000E-1
Scans to average: 1
Electric dark correction enabled: true
Nonlinearity correction enabled: false
Boxcar width: 0
XAxis mode: Wavelengths
Number of Pixels in Spectrum: 2048
>>>>>Begin Spectral Data<<<<<
223.165	-21.12
223.4	-21.12
223.635	-21.12
223.869	-9.12
224.104	-9.12
224.338	-9.12
224.573	-33.12
224.808	-2.12
225.042	1.88
225.277	-14.12
225.511	2.88
225.746	-6.12
225.98	8.88
226.215	2.88
226.449	4.88
226.683	23.88
226.918	21.88
227.152	36.88
227.387	47.88
227.621	32.88
227.856	27.88
228.09	30.88
228.324	53.88
228.559	48.88
228.793	72.88
229.027	141.88
229.262	167.88
229.496	158.88
229.73	150.88
229.964	192.88
230.199	178.88
230.433	190.88
230.667	190.88
230.901	185.88
231.136	182.88
231.37	199.88
231.604	191.88
231.838	204.88
232.072	215.88
232.306	209.88
232.541	194.88
232.775	215.88
233.009	194.88
233.243	199.88
233.477	216.88
233.711	215.88
233.945	219.88
234.179	223.88
234.413	213.88
234.647	230.88
234.881	242.88
235.115	226.88
235.349	201.88
235.583	209.88
235.817	231.88
236.051	234.88
236.285	241.88
236.519	222.88
236.753	222.88
236.987	230.88
237.221	232.88
237.455	244.88
237.689	238.88
237.922	261.88
238.156	258.88
238.39	258.88
238.624	252.88
238.858	247.88
239.091	264.88
239.325	270.88
239.559	267.88
239.793	269.88
240.027	282.88
240.26	271.88
240.494	291.88
240.728	303.88
240.961	267.88
241.195	290.88
241.429	288.88
241.662	305.88
241.896	314.88
242.13	331.88
242.363	319.88
242.597	303.88
242.83	290.88
243.064	324.88
243.298	317.88
243.531	319.88
243.765	331.88
243.998	356.88
244.232	320.88
244.465	357.88
244.699	330.88
244.932	361.88
245.166	353.88
245.399	364.88
245.633	344.88
245.866	356.88
246.099	342.88
246.333	364.88
246.566	373.88
246.8	363.88
247.033	370.88
247.266	370.88
247.5	360.88
247.733	378.88
247.966	398.88
248.2	424.88
248.433	430.88
248.666	423.88
248.899	403.88
249.133	401.88
249.366	402.88
249.599	422.88
249.832	394.88
250.066	434.88
250.299	426.88
250.532	425.88
250.765	423.88
250.998	431.88
251.231	415.88
251.465	444.88
251.698	440.88
251.931	450.88
252.164	462.88
252.397	464.88
252.63	458.88
252.863	456.88
253.096	473.88
253.329	462.88
253.562	449.88
253.795	456.88
254.028	453.88
254.261	462.88
254.494	478.88
254.727	480.88
254.96	470.88
255.193	492.88
255.426	498.88
255.659	467.88
255.892	511.88
256.124	475.88
256.357	501.88
256.59	508.88
256.823	479.88
257.056	496.88
257.289	491.88
257.521	516.88
257.754	533.88
257.987	523.88
258.22	507.88
258.452	507.88
258.685	528.88
258.918	528.88
259.151	513.88
259.383	524.88
259.616	522.88
259.849	527.88
260.081	524.88
260.314	558.88
260.547	540.88
260.779	544.88
261.012	568.88
261.244	571.88
261.477	545.88
261.71	555.88
261.942	568.88
262.175	567.88
262.407	568.88
262.64	571.88
262.872	565.88
263.105	558.88
263.337	571.88
263.57	554.88
263.802	592.88
264.035	580.88
264.267	566.88
264.499	596.88
264.732	598.88
264.964	594.88
265.197	604.88
265.429	635.88
265.661	610.88
265.894	619.88
266.126	618.88
266.358	608.88
266.591	594.88
266.823	624.88
267.055	604.88
267.287	626.88
267.52	614.88
267.752	638.88
267.984	614.88
268.216	638.88
268.448	628.88
268.681	639.88
268.913	651.88
269.145	633.88
269.377	647.88
269.609	679.88
269.841	642.88
270.073	627.88
270.306	632.88
270.538	645.88
270.77	659.88
271.002	667.88
271.234	668.88
271.466	686.88
271.698	675.88
271.93	688.88
272.162	702.88
272.394	695.88
272.626	705.88
272.858	679.88
273.09	699.88
273.322	690.88
273.553	688.88
273.785	690.88
274.017	706.88
274.249	722.88
274.481	714.88
274.713	719.88
274.945	730.88
275.176	729.88
275.408	743.88
275.64	738.88
275.872	744.88
276.104	755.88
276.335	724.88
276.567	731.88
276.799	750.88
277.031	730.88
277.262	734.88
277.494	762.88
277.726	766.88
277.957	759.88
278.189	746.88
278.421	752.88
278.652	756.88
278.884	753.88
279.115	799.88
279.347	777.88
279.579	790.88
279.81	802.88
280.042	792.88
280.273	809.88
280.505	828.88
280.736	828.88
280.968	830.88
281.199	793.88
281.431	831.88
281.662	803.88
281.894	804.88
282.125	843.88
282.356	824.88
282.588	826.88
282.819	838.88
283.051	830.88
283.282	842.88
283.513	848.88
283.745	832.88
283.976	826.88
284.207	850.88
284.439	849.88
284.67	871.88
284.901	855.88
285.132	851.88
285.364	862.88
285.595	867.88
285.826	864.88
286.057	875.88
286.288	888.88
286.52	890.88
286.751	895.88
286.982	884.88
287.213	884.88
287.444	901.88
287.675	865.88
287.906	907.88
288.138	893.88
288.369	921.88
288.6	914.88
288.831	909.88
289.062	884.88
289.293	899.88
289.524	896.88
289.755	916.88
289.986	918.88
290.217	915.88
290.448	927.88
290.679	906.88
290.91	933.88
291.141	952.88
291.371	922.88
291.602	930.88
291.833	905.88
292.064	926.88
292.295	911.88
292.526	944.88
292.757	938.88
292.987	934.88
293.218	916.88
293.449	949.88
293.68	940.88
293.91	956.88
294.141	957.88
294.372	920.88
294.603	954.88
294.833	916.88
295.064	966.88
295.295	958.88
295.525	970.88
295.756	960.88
295.987	944.88
296.217	972.88
296.448	967.88
296.679	977.88
296.909	961.88
297.14	967.88
297.37	981.88
297.601	995.88
297.831	990.88
298.062	1011.88
298.292	978.88
298.523	989.88
298.753	1035.88
298.984	1012.88
299.214	1007.88
299.445	987.88
299.675	1011.88
299.905	1032.88
300.136	1012.88
300.366	1013.88
300.597	1040.88
300.827	1030.88
301.057	1047.88
301.288	1030.88
301.518	1051.88
301.748	1015.88
301.979	1074.88
302.209	1090.88
302.439	1077.88
302.669	1060.88
302.9	1064.88
303.13	1038.88
303.36	1082.88
303.59	1016.88
303.82	1027.88
304.051	1073.88
304.281	1087.88
304.511	1066.88
304.741	1089.88
304.971	1095.88
305.201	1064.88
305.431	1056.88
305.661	1036.88
305.891	1074.88
306.121	1041.88
306.352	1081.88
306.582	1055.88
306.812	1040.88
307.042	1056.88
307.272	1057.88
307.502	1044.88
307.731	1049.88
307.961	1039.88
308.191	1061.88
308.421	1063.88
308.651	1046.88
308.881	1040.88
309.111	1054.88
309.341	1048.88
309.571	1075.88
309.8	1072.88
310.03	1050.88
310.26	1063.88
310.49	1043.88
310.72	1067.88
310.949	1046.88
311.179	1059.88
311.409	1073.88
311.639	1097.88
311.868	1105.88
312.098	1099.88
312.328	1105.88
312.557	1091.88
312.787	1113.88
313.017	1111.88
313.246	1092.88
313.476	1110.88
313.706	1121.88
313.935	1103.88
314.165	1150.88
314.394	1162.88
314.624	1109.88
314.853	1121.88
315.083	1138.88
315.312	1153.88
315.542	1136.88
315.771	1139.88
316.001	1145.88
316.23	1131.88
316.46	1156.88
316.689	1121.88
316.919	1119.88
317.148	1138.88
317.377	1141.88
317.607	1134.88
317.836	1112.88
318.065	1160.88
318.295	1146.88
318.524	1139.88
318.753	1114.88
318.983	1140.88
319.212	1115.88
319.441	1114.88
319.67	1136.88
319.9	1117.88
320.129	1125.88
320.358	1123.88
320.587	1135.88
320.816	1109.88
321.046	1140.88
321.275	1140.88
321.504	1163.88
321.733	1154.88
321.962	1124.88
322.191	1142.88
322.42	1148.88
322.649	1169.88
322.878	1130.88
323.108	1129.88
323.337	1143.88
323.566	1153.88
323.795	1193.88
324.024	1177.88
324.253	1146.88
324.482	1165.88
324.71	1153.88
324.939	1161.88
325.168	1185.88
325.397	1186.88
325.626	1179.88
325.855	1209.88
326.084	1247.88
326.313	1234.88
326.542	1198.88
326.77	1246.88
326.999	1202.88
327.228	1238.88
327.457	1211.88
327.686	1210.88
327.914	1276.88
328.143	1238.88
328.372	1251.88
328.6	1217.88
328.829	1235.88
329.058	1254.88
329.287	1233.88
329.515	1235.88
329.744	1231.88
329.972	1235.88
330.201	1255.88
330.43	1232.88
330.658	1281.88
330.887	1270.88
331.115	1291.88
331.344	1282.88
331.572	1302.88
331.801	1322.88
332.03	1346.88
332.258	1401.88
332.486	1382.88
332.715	1449.88
332.943	1485.88
333.172	1555.88
333.4	1580.88
333.629	1583.88
333.857	1608.88
334.085	1592.88
334.314	1576.88
334.542	1571.88
334.771	1566.88
334.999	1507.88
335.227	1526.88
335.455	1550.88
335.684	1512.88
335.912	1496.88
336.14	1520.88
336.369	1496.88
336.597	1502.88
336.825	1459.88
337.053	1453.88
337.281	1478.88
337.51	1396.88
337.738	1420.88
337.966	1402.88
338.194	1396.88
338.422	1362.88
338.65	1350.88
338.878	1366.88
339.106	1350.88
339.334	1349.88
339.562	1351.88
339.79	1310.88
340.018	1321.88
340.246	1293.88
340.474	1271.88
340.702	1308.88
340.93	1334.88
341.158	1295.88
341.386	1292.88
341.614	1320.88
341.842	1308.88
342.07	1266.88
342.298	1283.88
342.526	1301.88
342.754	1319.88
342.981	1313.88
343.209	1337.88
343.437	1367.88
343.665	1409.88
343.893	1476.88
344.12	1536.88
344.348	1504.88
344.576	1449.88
344.804	1424.88
345.031	1347.88
345.259	1327.88
345.487	1330.88
345.714	1288.88
345.942	1316.88
346.17	1293.88
346.397	1293.88
346.625	1218.88
346.853	1247.88
347.08	1222.88
347.308	1234.88
347.535	1215.88
347.763	1236.88
347.99	1234.88
348.218	1215.88
348.445	1205.88
348.673	1200.88
348.9	1248.88
349.128	1239.88
349.355	1224.88
349.583	1229.88
349.81	1218.88
350.037	1243.88
350.265	1162.88
350.492	1203.88
350.72	1211.88
350.947	1206.88
351.174	1195.88
351.402	1228.88
351.629	1234.88
351.856	1207.88
352.083	1170.88
352.311	1208.88
352.538	1190.88
352.765	1203.88
352.992	1159.88
353.22	1183.88
353.447	1188.88
353.674	1196.88
353.901	1173.88
354.128	1175.88
354.355	1185.88
354.583	1160.88
354.81	1171.88
355.037	1223.88
355.264	1195.88
355.491	1209.88
355.718	1232.88
355.945	1191.88
356.172	1202.88
356.399	1178.88
356.626	1219.88
356.853	1210.88
357.08	1180.88
357.307	1212.88
357.534	1225.88
357.761	1214.88
357.988	1220.88
358.215	1183.88
358.441	1202.88
358.668	1175.88
358.895	1156.88
359.122	1202.88
359.349	1188.88
359.576	1186.88
359.802	1200.88
360.029	1193.88
360.256	1201.88
360.483	1204.88
360.709	1179.88
360.936	1205.88
361.163	1198.88
361.39	1219.88
361.616	1204.88
361.843	1204.88
362.07	1206.88
362.296	1200.88
362.523	1205.88
362.749	1213.88
362.976	1187.88
363.203	1201.88
363.429	1204.88
363.656	1183.88
363.882	1186.88
364.109	1207.88
364.335	1182.88
364.562	1190.88
364.788	1170.88
365.015	1211.88
365.241	1190.88
365.468	1202.88
365.694	1166.88
365.92	1181.88
366.147	1204.88
366.373	1205.88
366.599	1200.88
366.826	1222.88
367.052	1198.88
367.278	1213.88
367.505	1192.88
367.731	1201.88
367.957	1198.88
368.184	1208.88
368.41	1239.88
368.636	1220.88
368.862	1230.88
369.089	1216.88
369.315	1200.88
369.541	1235.88
369.767	1241.88
369.993	1234.88
370.219	1234.88
370.445	1227.88
370.672	1260.88
370.898	1266.88
371.124	1326.88
371.35	1284.88
371.576	1251.88
371.802	1292.88
372.028	1284.88
372.254	1295.88
372.48	1317.88
372.706	1354.88
372.932	1320.88
373.158	1353.88
373.384	1323.88
373.61	1307.88
373.835	1306.88
374.061	1311.88
374.287	1352.88
374.513	1327.88
374.739	1382.88
374.965	1403.88
375.191	1417.88
375.416	1426.88
375.642	1425.88
375.868	1374.88
376.094	1348.88
376.319	1306.88
376.545	1328.88
376.771	1319.88
376.997	1318.88
377.222	1306.88
377.448	1288.88
377.674	1294.88
377.899	1305.88
378.125	1302.88
378.35	1254.88
378.576	1280.88
378.802	1270.88
379.027	1275.88
379.253	1282.88
379.478	1296.88
379.704	1284.88
379.929	1318.88
380.155	1272.88
380.38	1265.88
380.606	1278.88
380.831	1296.88
381.057	1270.88
381.282	1292.88
381.507	1291.88
381.733	1311.88
381.958	1339.88
382.184	1339.88
382.409	1363.88
382.634	1396.88
382.86	1338.88
383.085	1350.88
383.31	1397.88
383.535	1415.88
383.761	1403.88
383.986	1400.88
384.211	1478.88
384.436	1490.88
384.662	1499.88
384.887	1503.88
385.112	1497.88
385.337	1524.88
385.562	1564.88
385.787	1564.88
386.013	1580.88
386.238	1560.88
386.463	1589.88
386.688	1602.88
386.913	1557.88
387.138	1507.88
387.363	1567.88
387.588	1515.88
387.813	1532.88
388.038	1521.88
388.263	1563.88
388.488	1583.88
388.713	1571.88
388.938	1541.88
389.163	1491.88
389.387	1491.88
389.612	1539.88
389.837	1520.88
390.062	1508.88
390.287	1586.88
390.512	1519.88
390.736	1582.88
390.961	1620.88
391.186	1577.88
391.411	1623.88
391.636	1674.88
391.86	1705.88
392.085	1727.88
392.31	1696.88
392.534	1690.88
392.759	1695.88
392.984	1640.88
393.208	1671.88
393.433	1786.88
393.658	1833.88
393.882	1707.88
394.107	1631.88
394.331	1652.88
394.556	1669.88
394.78	1666.88
395.005	1695.88
395.229	1676.88
395.454	1703.88
395.678	1750.88
395.903	1762.88
396.127	1744.88
396.352	1721.88
396.576	1678.88
396.801	1733.88
397.025	1830.88
397.249	1812.88
397.474	1760.88
397.698	1732.88
397.922	1791.88
398.147	1795.88
398.371	1782.88
398.595	1887.88
398.82	1910.88
399.044	2050.88
399.268	2257.88
399.492	2471.88
399.717	2693.88
399.941	2724.88
400.165	2520.88
400.389	2344.88
400.613	2151.88
400.837	2045.88
401.062	1996.88
401.286	1907.88
401.51	1945.88
401.734	1923.88
401.958	1956.88
402.182	1963.88
402.406	1975.88
402.63	1970.88
402.854	2009.88
403.078	2032.88
403.302	2057.88
403.526	2113.88
403.75	2108.88
403.974	2134.88
404.198	2107.88
404.422	2138.88
404.645	2121.88
404.869	2121.88
405.093	2113.88
405.317	2105.88
405.541	2116.88
405.765	2090.88
405.988	2087.88
406.212	2083.88
406.436	2100.88
406.66	2119.88
406.883	2135.88
407.107	2270.88
407.331	2369.88
407.555	2439.88
407.778	2404.88
408.002	2366.88
408.226	2319.88
408.449	2376.88
408.673	2202.88
408.896	2182.88
409.12	2126.88
409.344	2163.88
409.567	2131.88
409.791	2158.88
410.014	2135.88
410.238	2108.88
410.461	2155.88
410.685	2078.88
410.908	2063.88
411.132	2057.88
411.355	1986.88
411.578	2051.88
411.802	2016.88
412.025	2038.88
412.249	2050.88
412.472	2043.88
412.695	1993.88
412.919	1931.88
413.142	1954.88
413.365	2006.88
413.589	1936.88
413.812	1923.88
414.035	1864.88
414.258	1922.88
414.482	1919.88
414.705	1928.88
414.928	1923.88
415.151	1904.88
415.374	1877.88
415.597	1928.88
415.821	1863.88
416.044	1855.88
416.267	1839.88
416.49	1855.88
416.713	1844.88
416.936	1855.88
417.159	1865.88
417.382	1859.88
417.605	1819.88
417.828	1871.88
418.051	1867.88
418.274	1839.88
418.497	1849.88
418.72	1909.88
418.943	1904.88
419.166	1996.88
419.389	2143.88
419.611	2061.88
419.834	2038.88
420.057	1947.88
420.28	1901.88
420.503	1876.88
420.726	1850.88
420.948	1830.88
421.171	1839.88
421.394	1902.88
421.617	1847.88
421.839	1831.88
422.062	1870.88
422.285	1822.88
422.507	1874.88
422.73	1885.88
422.953	1900.88
423.175	1882.88
423.398	1936.88
423.621	1902.88
423.843	1924.88
424.066	1930.88
424.288	1920.88
424.511	1911.88
424.733	1915.88
424.956	1894.88
425.178	1889.88
425.401	1871.88
425.623	1893.88
425.846	1804.88
426.068	1790.88
426.291	1804.88
426.513	1804.88
426.735	1785.88
426.958	1759.88
427.18	1751.88
427.402	1733.88
427.625	1718.88
427.847	1730.88
428.069	1705.88
428.292	1670.88
428.514	1668.88
428.736	1693.88
428.958	1694.88
429.181	1680.88
429.403	1657.88
429.625	1668.88
429.847	1671.88
430.069	1657.88
430.292	1656.88
430.514	1642.88
430.736	1668.88
430.958	1686.88
431.18	1674.88
431.402	1712.88
431.624	1669.88
431.846	1681.88
432.068	1723.88
432.29	1714.88
432.512	1702.88
432.734	1695.88
432.956	1655.88
433.178	1726.88
433.4	1702.88
433.622	1722.88
433.844	1760.88
434.066	1708.88
434.287	1765.88
434.509	1770.88
434.731	1856.88
434.953	1873.88
435.175	1883.88
435.397	1890.88
435.618	1782.88
435.84	1738.88
436.062	1737.88
436.284	1727.88
436.505	1660.88
436.727	1669.88
436.949	1678.88
437.17	1684.88
437.392	1664.88
437.614	1651.88
437.835	1629.88
438.057	1618.88
438.278	1621.88
438.5	1619.88
438.721	1609.88
438.943	1636.88
439.165	1602.88
439.386	1618.88
439.608	1631.88
439.829	1680.88
440.05	1671.88
440.272	1710.88
440.493	1684.88
440.715	1682.88
440.936	1717.88
441.158	1751.88
441.379	1782.88
441.6	1846.88
441.822	1864.88
442.043	1844.88
442.264	1866.88
442.486	1798.88
442.707	1835.88
442.928	1800.88
443.149	1822.88
443.371	1783.88
443.592	1848.88
443.813	1867.88
444.034	1823.88
444.255	1915.88
444.476	1994.88
444.698	2064.88
444.919	2138.88
445.14	2111.88
445.361	2002.88
445.582	1886.88
445.803	1812.88
446.024	1744.88
446.245	1760.88
446.466	1754.88
446.687	1666.88
446.908	1689.88
447.129	1656.88
447.35	1623.88
447.571	1566.88
447.792	1531.88
448.013	1588.88
448.234	1556.88
448.455	1551.88
448.675	1543.88
448.896	1511.88
449.117	1536.88
449.338	1574.88
449.559	1515.88
449.779	1491.88
450	1477.88
450.221	1495.88
450.442	1488.88
450.662	1515.88
450.883	1540.88
451.104	1554.88
451.324	1576.88
451.545	1549.88
451.766	1544.88
451.986	1481.88
452.207	1503.88
452.428	1489.88
452.648	1473.88
452.869	1454.88
453.089	1470.88
453.31	1473.88
453.53	1475.88
453.751	1463.88
453.971	1460.88
454.192	1439.88
454.412	1396.88
454.633	1451.88
454.853	1417.88
455.073	1438.88
455.294	1450.88
455.514	1460.88
455.734	1430.88
455.955	1394.88
456.175	1403.88
456.395	1416.88
456.616	1410.88
456.836	1415.88
457.056	1412.88
457.276	1401.88
457.497	1438.88
457.717	1444.88
457.937	1477.88
458.157	1476.88
458.377	1492.88
458.598	1518.88
458.818	1516.88
459.038	1586.88
459.258	1634.88
459.478	1644.88
459.698	1724.88
459.918	1762.88
460.138	1808.88
460.358	1881.88
460.578	1931.88
460.798	1938.88
461.018	1912.88
461.238	1894.88
461.458	1946.88
461.678	1912.88
461.898	1920.88
462.118	1986.88
462.338	2021.88
462.558	2120.88
462.777	2146.88
462.997	2302.88
463.217	2432.88
463.437	2448.88
463.657	2320.88
463.876	2244.88
464.096	2229.88
464.316	2195.88
464.536	2190.88
464.755	2076.88
464.975	2081.88
465.195	1978.88
465.414	1910.88
465.634	1767.88
465.854	1742.88
466.073	1716.88
466.293	1666.88
466.512	1625.88
466.732	1606.88
466.951	1618.88
467.171	1582.88
467.391	1589.88
467.61	1619.88
467.829	1578.88
468.049	1582.88
468.268	1541.88
468.488	1505.88
468.707	1523.88
468.927	1524.88
469.146	1521.88
469.365	1549.88
469.585	1582.88
469.804	1608.88
470.023	1606.88
470.243	1605.88
470.462	1601.88
470.681	1648.88
470.901	1620.88
471.12	1600.88
471.339	1600.88
471.558	1550.88
471.777	1568.88
471.997	1564.88
472.216	1534.88
472.435	1536.88
472.654	1489.88
472.873	1512.88
473.092	1513.88
473.311	1480.88
473.53	1534.88
473.749	1482.88
473.968	1481.88
474.187	1532.88
474.406	1508.88
474.625	1528.88
474.844	1512.88
475.063	1537.88
475.282	1513.88
475.501	1526.88
475.72	1555.88
475.939	1541.88
476.158	1575.88
476.377	1583.88
476.596	1579.88
476.814	1638.88
477.033	1605.88
477.252	1651.88
477.471	1701.88
477.69	1714.88
477.908	1790.88
478.127	1768.88
478.346	1782.88
478.564	1813.88
478.783	1826.88
479.002	1897.88
479.22	1894.88
479.439	1908.88
479.658	1915.88
479.876	1912.88
480.095	1935.88
480.313	1988.88
480.532	2023.88
480.751	2023.88
480.969	1959.88
481.188	1892.88
481.406	1903.88
481.624	1845.88
481.843	1856.88
482.061	1802.88
482.28	1845.88
482.498	1825.88
482.717	1793.88
482.935	1803.88
483.153	1823.88
483.372	1834.88
483.59	1804.88
483.808	1827.88
484.027	1881.88
484.245	1858.88
484.463	1899.88
484.681	1920.88
484.9	1880.88
485.118	1924.88
485.336	1976.88
485.554	1940.88
485.772	1959.88
485.99	1970.88
486.209	1934.88
486.427	1953.88
486.645	1960.88
486.863	1936.88
487.081	1920.88
487.299	1914.88
487.517	1950.88
487.735	1946.88
487.953	1917.88
488.171	1942.88
488.389	1916.88
488.607	1880.88
488.825	1884.88
489.043	1913.88
489.261	1922.88
489.479	1878.88
489.696	1905.88
489.914	1866.88
490.132	1875.88
490.35	1903.88
490.568	1868.88
490.786	1898.88
491.003	1894.88
491.221	1872.88
491.439	1849.88
491.657	1878.88
491.874	1875.88
492.092	1879.88
492.31	1877.88
492.527	1922.88
492.745	1872.88
492.963	1863.88
493.18	1921.88
493.398	1908.88
493.615	1943.88
493.833	1915.88
494.05	1912.88
494.268	1929.88
494.485	1936.88
494.703	1947.88
494.92	1926.88
495.138	1948.88
495.355	1943.88
495.573	1973.88
495.79	1961.88
496.008	1995.88
496.225	1988.88
496.442	2049.88
496.66	2052.88
496.877	2046.88
497.094	2121.88
497.312	2097.88
497.529	2178.88
497.746	2205.88
497.963	2255.88
498.181	2339.88
498.398	2470.88
498.615	2594.88
498.832	2683.88
499.049	2891.88
499.267	3096.88
499.484	3368.88
499.701	3672.88
499.918	4002.88
500.135	4453.88
500.352	4862.88
500.569	4937.88
500.786	4976.88
501.003	4726.88
501.22	4331.88
501.437	3960.88
501.654	3555.88
501.871	3259.88
502.088	3052.88
502.305	2837.88
502.522	2736.88
502.739	2644.88
502.956	2507.88
503.172	2392.88
503.389	2290.88
503.606	2241.88
503.823	2158.88
504.04	2216.88
504.256	2202.88
504.473	2219.88
504.69	2207.88
504.907	2145.88
505.123	2040.88
505.34	1990.88
505.557	1908.88
505.773	1825.88
505.99	1794.88
506.207	1787.88
506.423	1785.88
506.64	1758.88
506.856	1712.88
507.073	1726.88
507.289	1690.88
507.506	1646.88
507.722	1674.88
507.939	1701.88
508.155	1601.88
508.372	1630.88
508.588	1593.88
508.805	1619.88
509.021	1592.88
509.238	1536.88
509.454	1573.88
509.67	1556.88
509.887	1547.88
510.103	1545.88
510.319	1490.88
510.536	1498.88
510.752	1514.88
510.968	1544.88
511.184	1507.88
511.401	1470.88
511.617	1544.88
511.833	1490.88
512.049	1496.88
512.265	1507.88
512.481	1502.88
512.698	1479.88
512.914	1525.88
513.13	1497.88
513.346	1510.88
513.562	1513.88
513.778	1505.88
513.994	1550.88
514.21	1538.88
514.426	1514.88
514.642	1514.88
514.858	1554.88
515.074	1548.88
515.29	1567.88
515.506	1563.88
515.721	1636.88
515.937	1622.88
516.153	1655.88
516.369	1716.88
516.585	1727.88
516.801	1774.88
517.016	1840.88
517.232	1923.88
517.448	1913.88
517.664	2037.88
517.879	2051.88
518.095	2023.88
518.311	1974.88
518.527	1896.88
518.742	1867.88
518.958	1798.88
519.173	1728.88
519.389	1691.88
519.605	1625.88
519.82	1586.88
520.036	1633.88
520.251	1535.88
520.467	1567.88
520.682	1535.88
520.898	1498.88
521.113	1488.88
521.329	1494.88
521.544	1484.88
521.76	1440.88
521.975	1446.88
522.19	1451.88
522.406	1436.88
522.621	1413.88
522.836	1423.88
523.052	1421.88
523.267	1400.88
523.482	1399.88
523.698	1425.88
523.913	1394.88
524.128	1400.88
524.343	1406.88
524.559	1369.88
524.774	1326.88
524.989	1350.88
525.204	1353.88
525.419	1371.88
525.634	1330.88
525.849	1357.88
526.064	1385.88
526.28	1336.88
526.495	1333.88
526.71	1318.88
526.925	1347.88
527.14	1348.88
527.355	1326.88
527.57	1346.88
527.785	1345.88
527.999	1332.88
528.214	1328.88
528.429	1327.88
528.644	1340.88
528.859	1339.88
529.074	1337.88
529.289	1318.88
529.503	1320.88
529.718	1321.88
529.933	1295.88
530.148	1306.88
530.363	1335.88
530.577	1334.88
530.792	1283.88
531.007	1333.88
531.221	1281.88
531.436	1343.88
531.651	1322.88
531.865	1338.88
532.08	1321.88
532.295	1321.88
532.509	1286.88
532.724	1306.88
532.938	1302.88
533.153	1331.88
533.367	1300.88
533.582	1326.88
533.796	1298.88
534.011	1313.88
534.225	1279.88
534.44	1262.88
534.654	1307.88
534.868	1280.88
535.083	1269.88
535.297	1256.88
535.511	1243.88
535.726	1264.88
535.94	1290.88
536.154	1241.88
536.369	1227.88
536.583	1243.88
536.797	1238.88
537.011	1203.88
537.225	1193.88
537.44	1219.88
537.654	1205.88
537.868	1218.88
538.082	1186.88
538.296	1208.88
538.51	1181.88
538.724	1203.88
538.938	1185.88
539.153	1193.88
539.367	1210.88
539.581	1193.88
539.795	1138.88
540.009	1178.88
540.222	1175.88
540.436	1180.88
540.65	1167.88
540.864	1187.88
541.078	1159.88
541.292	1189.88
541.506	1174.88
541.72	1156.88
541.934	1174.88
542.147	1168.88
542.361	1134.88
542.575	1160.88
542.789	1179.88
543.002	1134.88
543.216	1154.88
543.43	1152.88
543.644	1171.88
543.857	1164.88
544.071	1156.88
544.285	1147.88
544.498	1158.88
544.712	1154.88
544.925	1194.88
545.139	1163.88
545.352	1162.88
545.566	1196.88
545.779	1163.88
545.993	1162.88
546.206	1179.88
546.42	1188.88
546.633	1216.88
546.847	1178.88
547.06	1157.88
547.274	1129.88
547.487	1190.88
547.7	1200.88
547.914	1187.88
548.127	1193.88
548.34	1209.88
548.554	1168.88
548.767	1154.88
548.98	1200.88
549.193	1174.88
549.407	1205.88
549.62	1198.88
549.833	1223.88
550.046	1206.88
550.259	1211.88
550.473	1160.88
550.686	1186.88
550.899	1160.88
551.112	1176.88
551.325	1145.88
551.538	1146.88
551.751	1165.88
551.964	1157.88
552.177	1181.88
552.39	1210.88
552.603	1227.88
552.816	1231.88
553.029	1256.88
553.242	1304.88
553.455	1258.88
553.667	1282.88
553.88	1246.88
554.093	1223.88
554.306	1220.88
554.519	1180.88
554.732	1168.88
554.944	1147.88
555.157	1108.88
555.37	1133.88
555.583	1122.88
555.795	1078.88
556.008	1065.88
556.221	1061.88
556.433	1028.88
556.646	1040.88
556.859	1008.88
557.071	1015.88
557.284	1033.88
557.496	985.88
557.709	999.88
557.921	1020.88
558.134	979.88
558.346	978.88
558.559	1018.88
558.771	974.88
558.984	975.88
559.196	979.88
559.409	967.88
559.621	944.88
559.833	998.88
560.046	966.88
560.258	961.88
560.47	979.88
560.683	982.88
560.895	964.88
561.107	998.88
561.32	955.88
561.532	955.88
561.744	955.88
561.956	968.88
562.168	990.88
562.381	975.88
562.593	962.88
562.805	974.88
563.017	976.88
563.229	982.88
563.441	980.88
563.653	1010.88
563.865	986.88
564.077	993.88
564.289	1033.88
564.501	1031.88
564.713	1031.88
564.925	1041.88
565.137	1066.88
565.349	1035.88
565.561	1128.88
565.773	1189.88
565.985	1212.88
566.197	1225.88
566.408	1343.88
566.62	1384.88
566.832	1481.88
567.044	1584.88
567.255	1513.88
567.467	1595.88
567.679	1618.88
567.891	1714.88
568.102	1716.88
568.314	1636.88
568.526	1525.88
568.737	1426.88
568.949	1316.88
569.161	1230.88
569.372	1178.88
569.584	1086.88
569.795	1050.88
570.007	1047.88
570.218	1007.88
570.43	985.88
570.641	994.88
570.853	983.88
571.064	992.88
571.276	997.88
571.487	955.88
571.698	923.88
571.91	881.88
572.121	893.88
572.333	867.88
572.544	856.88
572.755	849.88
572.966	833.88
573.178	822.88
573.389	830.88
573.6	831.88
573.811	815.88
574.023	793.88
574.234	810.88
574.445	793.88
574.656	797.88
574.867	792.88
575.078	815.88
575.289	795.88
575.501	800.88
575.712	762.88
575.923	769.88
576.134	775.88
576.345	738.88
576.556	756.88
576.767	762.88
576.978	723.88
577.188	748.88
577.399	733.88
577.61	719.88
577.821	725.88
578.032	713.88
578.243	728.88
578.454	715.88
578.665	725.88
578.875	705.88
579.086	704.88
579.297	707.88
579.508	715.88
579.718	698.88
579.929	697.88
580.14	669.88
580.35	690.88
580.561	663.88
580.772	661.88
580.982	670.88
581.193	677.88
581.403	647.88
581.614	652.88
581.825	663.88
582.035	634.88
582.246	659.88
582.456	678.88
582.667	646.88
582.877	643.88
583.087	644.88
583.298	652.88
583.508	649.88
583.719	661.88
583.929	654.88
584.139	667.88
584.35	649.88
584.56	651.88
584.77	642.88
584.981	628.88
585.191	630.88
585.401	636.88
585.611	649.88
585.821	644.88
586.032	626.88
586.242	651.88
586.452	647.88
586.662	635.88
586.872	641.88
587.082	624.88
587.292	614.88
587.502	651.88
587.713	654.88
587.923	627.88
588.133	602.88
588.343	614.88
588.553	627.88
588.762	646.88
588.972	626.88
589.182	644.88
589.392	648.88
589.602	622.88
589.812	615.88
590.022	642.88
590.232	652.88
590.441	633.88
590.651	626.88
590.861	634.88
591.071	653.88
591.281	631.88
591.49	636.88
591.7	672.88
591.91	694.88
592.119	664.88
592.329	674.88
592.539	695.88
592.748	720.88
592.958	728.88
593.167	733.88
593.377	756.88
593.587	793.88
593.796	747.88
594.006	771.88
594.215	768.88
594.424	793.88
594.634	732.88
594.843	736.88
595.053	732.88
595.262	697.88
595.472	670.88
595.681	644.88
595.89	627.88
596.1	623.88
596.309	619.88
596.518	610.88
596.727	610.88
596.937	583.88
597.146	603.88
597.355	583.88
597.564	573.88
597.774	564.88
597.983	566.88
598.192	549.88
598.401	547.88
598.61	557.88
598.819	526.88
599.028	529.88
599.237	521.88
599.446	548.88
599.655	513.88
599.864	539.88
600.073	554.88
600.282	523.88
600.491	541.88
600.7	533.88
600.909	515.88
601.118	509.88
601.327	497.88
601.536	496.88
601.745	490.88
601.953	489.88
602.162	499.88
602.371	494.88
602.58	508.88
602.789	506.88
602.997	470.88
603.206	480.88
603.415	484.88
603.623	488.88
603.832	508.88
604.041	478.88
604.249	500.88
604.458	493.88
604.666	487.88
604.875	484.88
605.084	494.88
605.292	485.88
605.501	478.88
605.709	471.88
605.918	463.88
606.126	479.88
606.334	468.88
606.543	461.88
606.751	480.88
606.96	461.88
607.168	441.88
607.376	453.88
607.585	459.88
607.793	455.88
608.001	479.88
608.21	479.88
608.418	464.88
608.626	463.88
608.834	443.88
609.043	455.88
609.251	459.88
609.459	460.88
609.667	446.88
609.875	430.88
610.083	459.88
610.291	462.88
610.499	455.88
610.707	452.88
610.916	424.88
611.124	434.88
611.332	440.88
611.54	459.88
611.748	440.88
611.955	428.88
612.163	424.88
612.371	434.88
612.579	422.88
612.787	418.88
612.995	436.88
613.203	427.88
613.411	430.88
613.618	446.88
613.826	438.88
614.034	436.88
614.242	404.88
614.449	430.88
614.657	425.88
614.865	438.88
615.072	434.88
615.28	442.88
615.488	421.88
615.695	413.88
615.903	442.88
616.111	450.88
616.318	437.88
616.526	433.88
616.733	426.88
616.941	431.88
617.148	418.88
617.356	441.88
617.563	434.88
617.771	446.88
617.978	408.88
618.185	432.88
618.393	432.88
618.6	416.88
618.807	426.88
619.015	422.88
619.222	431.88
619.429	410.88
619.637	413.88
619.844	414.88
620.051	404.88
620.258	390.88
620.466	399.88
620.673	389.88
620.88	391.88
621.087	402.88
621.294	395.88
621.501	397.88
621.708	380.88
621.915	392.88
622.122	422.88
622.329	402.88
622.536	402.88
622.743	405.88
622.95	401.88
623.157	412.88
623.364	400.88
623.571	385.88
623.778	372.88
623.985	386.88
624.192	383.88
624.399	397.88
624.606	368.88
624.812	368.88
625.019	383.88
625.226	368.88
625.433	385.88
625.639	356.88
625.846	365.88
626.053	371.88
626.259	362.88
626.466	371.88
626.673	356.88
626.879	376.88
627.086	374.88
627.293	374.88
627.499	369.88
627.706	348.88
627.912	361.88
628.119	347.88
628.325	358.88
628.532	348.88
628.738	368.88
628.945	353.88
629.151	338.88
629.357	343.88
629.564	332.88
629.77	346.88
629.976	352.88
630.183	339.88
630.389	330.88
630.595	339.88
630.802	336.88
631.008	322.88
631.214	312.88
631.42	338.88
631.627	340.88
631.833	352.88
632.039	334.88
632.245	332.88
632.451	326.88
632.657	337.88
632.863	326.88
633.069	324.88
633.275	340.88
633.481	331.88
633.688	321.88
633.893	329.88
634.099	337.88
634.305	335.88
634.511	320.88
634.717	320.88
634.923	308.88
635.129	317.88
635.335	312.88
635.541	311.88
635.747	321.88
635.952	314.88
636.158	305.88
636.364	322.88
636.57	337.88
636.775	305.88
636.981	308.88
637.187	299.88
637.392	322.88
637.598	309.88
637.804	295.88
638.009	312.88
638.215	299.88
638.421	283.88
638.626	321.88
638.832	304.88
639.037	315.88
639.243	304.88
639.448	312.88
639.654	298.88
639.859	292.88
640.065	292.88
640.27	297.88
640.475	304.88
640.681	298.88
640.886	293.88
641.091	275.88
641.297	281.88
641.502	295.88
641.707	286.88
641.913	283.88
642.118	290.88
642.323	260.88
642.528	287.88
642.733	279.88
642.939	286.88
643.144	278.88
643.349	292.88
643.554	276.88
643.759	304.88
643.964	286.88
644.169	285.88
644.374	286.88
644.579	282.88
644.784	294.88
644.989	274.88
645.194	287.88
645.399	287.88
645.604	262.88
645.809	294.88
646.014	282.88
646.219	283.88
646.423	282.88
646.628	281.88
646.833	292.88
647.038	296.88
647.243	299.88
647.447	314.88
647.652	299.88
647.857	311.88
648.062	305.88
648.266	313.88
648.471	315.88
648.676	307.88
648.88	296.88
649.085	306.88
649.289	289.88
649.494	306.88
649.698	285.88
649.903	288.88
650.107	291.88
650.312	289.88
650.516	293.88
650.721	283.88
650.925	265.88
651.13	275.88
651.334	274.88
651.539	263.88
651.743	274.88
651.947	270.88
652.152	284.88
652.356	254.88
652.56	257.88
652.764	270.88
652.969	279.88
653.173	266.88
653.377	267.88
653.581	263.88
653.785	255.88
653.99	261.88
654.194	271.88
654.398	263.88
654.602	273.88
654.806	266.88
655.01	287.88
655.214	292.88
655.418	293.88
655.622	296.88
655.826	319.88
656.03	326.88
656.234	337.88
656.438	331.88
656.642	336.88
656.846	345.88
657.049	298.88
657.253	268.88
657.457	262.88
657.661	221.88
657.865	212.88
658.068	206.88
658.272	195.88
658.476	171.88
658.68	174.88
658.883	139.88
659.087	157.88
659.291	144.88
659.494	136.88
659.698	140.88
659.901	138.88
660.105	131.88
660.309	118.88
660.512	119.88
660.716	120.88
660.919	107.88
661.123	108.88
661.326	107.88
661.53	93.88
661.733	103.88
661.936	104.88
662.14	97.88
662.343	104.88
662.546	96.88
662.75	107.88
662.953	98.88
663.156	86.88
663.36	80.88
663.563	94.88
663.766	77.88
663.969	72.88
664.173	84.88
664.376	91.88
664.579	80.88
664.782	91.88
664.985	77.88
665.188	87.88
665.391	78.88
665.594	92.88
665.797	82.88
666	74.88
666.203	80.88
666.406	79.88
666.609	79.88
666.812	87.88
667.015	69.88
667.218	88.88
667.421	82.88
667.624	77.88
667.827	83.88
668.03	80.88
668.232	80.88
668.435	75.88
668.638	70.88
668.841	76.88
669.043	80.88
669.246	80.88
669.449	81.88
669.651	85.88
669.854	84.88
670.057	67.88
670.259	74.88
670.462	73.88
670.665	69.88
670.867	79.88
671.07	80.88
671.272	74.88
671.475	79.88
671.677	79.88
671.88	76.88
672.082	78.88
672.284	92.88
672.487	82.88
672.689	75.88
672.892	82.88
