Data from NiCl2@0.125M.TitratingCurve.Agarose3%dH2O.NegLispCup.LampEnergy10.LIBS07252019_HRD10591_18-28-48-574.txt Node
Date: Thu Jul 25 18:28:48 EDT 2019
User: cochatt
Spectrometer: HR+D1059
Trigger mode: 1
Integration Time (sec): 1.000000E-1
Scans to average: 1
Electric dark correction enabled: true
Nonlinearity correction enabled: false
Boxcar width: 0
XAxis mode: Wavelengths
Number of Pixels in Spectrum: 2048
>>>>>Begin Spectral Data<<<<<
223.165	-12.38
223.4	-12.38
223.635	-12.38
223.869	-28.38
224.104	-26.38
224.338	-1.38
224.573	-13.38
224.808	-25.38
225.042	-7.38
225.277	5.62
225.511	-11.38
225.746	5.62
225.98	9.62
226.215	21.62
226.449	17.62
226.683	19.62
226.918	17.62
227.152	28.62
227.387	26.62
227.621	36.62
227.856	46.62
228.09	46.62
228.324	46.62
228.559	59.62
228.793	62.62
229.027	114.62
229.262	123.62
229.496	118.62
229.73	116.62
229.964	126.62
230.199	115.62
230.433	138.62
230.667	137.62
230.901	139.62
231.136	150.62
231.37	130.62
231.604	150.62
231.838	154.62
232.072	155.62
232.306	160.62
232.541	162.62
232.775	160.62
233.009	161.62
233.243	151.62
233.477	154.62
233.711	155.62
233.945	132.62
234.179	142.62
234.413	152.62
234.647	163.62
234.881	156.62
235.115	156.62
235.349	151.62
235.583	150.62
235.817	167.62
236.051	170.62
236.285	170.62
236.519	150.62
236.753	169.62
236.987	150.62
237.221	171.62
237.455	181.62
237.689	157.62
237.922	166.62
238.156	190.62
238.39	178.62
238.624	169.62
238.858	169.62
239.091	180.62
239.325	201.62
239.559	171.62
239.793	190.62
240.027	178.62
240.26	191.62
240.494	208.62
240.728	185.62
240.961	198.62
241.195	194.62
241.429	198.62
241.662	214.62
241.896	212.62
242.13	191.62
242.363	214.62
242.597	210.62
242.83	202.62
243.064	203.62
243.298	222.62
243.531	222.62
243.765	232.62
243.998	223.62
244.232	226.62
244.465	206.62
244.699	223.62
244.932	238.62
245.166	258.62
245.399	231.62
245.633	230.62
245.866	236.62
246.099	219.62
246.333	227.62
246.566	236.62
246.8	233.62
247.033	251.62
247.266	245.62
247.5	239.62
247.733	255.62
247.966	241.62
248.2	242.62
248.433	241.62
248.666	245.62
248.899	249.62
249.133	259.62
249.366	250.62
249.599	265.62
249.832	249.62
250.066	281.62
250.299	270.62
250.532	272.62
250.765	275.62
250.998	288.62
251.231	279.62
251.465	288.62
251.698	277.62
251.931	279.62
252.164	315.62
252.397	293.62
252.63	301.62
252.863	298.62
253.096	286.62
253.329	302.62
253.562	294.62
253.795	302.62
254.028	308.62
254.261	306.62
254.494	297.62
254.727	290.62
254.96	289.62
255.193	283.62
255.426	304.62
255.659	293.62
255.892	299.62
256.124	302.62
256.357	306.62
256.59	298.62
256.823	336.62
257.056	322.62
257.289	326.62
257.521	336.62
257.754	332.62
257.987	328.62
258.22	321.62
258.452	323.62
258.685	314.62
258.918	341.62
259.151	346.62
259.383	328.62
259.616	337.62
259.849	350.62
260.081	321.62
260.314	337.62
260.547	332.62
260.779	337.62
261.012	340.62
261.244	344.62
261.477	352.62
261.71	365.62
261.942	332.62
262.175	338.62
262.407	349.62
262.64	350.62
262.872	351.62
263.105	347.62
263.337	369.62
263.57	363.62
263.802	350.62
264.035	381.62
264.267	366.62
264.499	369.62
264.732	377.62
264.964	372.62
265.197	386.62
265.429	366.62
265.661	401.62
265.894	376.62
266.126	372.62
266.358	382.62
266.591	395.62
266.823	373.62
267.055	357.62
267.287	393.62
267.52	388.62
267.752	384.62
267.984	391.62
268.216	396.62
268.448	384.62
268.681	403.62
268.913	409.62
269.145	383.62
269.377	403.62
269.609	431.62
269.841	416.62
270.073	402.62
270.306	380.62
270.538	424.62
270.77	392.62
271.002	421.62
271.234	411.62
271.466	432.62
271.698	420.62
271.93	417.62
272.162	423.62
272.394	431.62
272.626	432.62
272.858	441.62
273.09	414.62
273.322	433.62
273.553	444.62
273.785	438.62
274.017	434.62
274.249	449.62
274.481	451.62
274.713	424.62
274.945	439.62
275.176	454.62
275.408	452.62
275.64	443.62
275.872	447.62
276.104	444.62
276.335	446.62
276.567	459.62
276.799	462.62
277.031	470.62
277.262	483.62
277.494	476.62
277.726	472.62
277.957	476.62
278.189	457.62
278.421	467.62
278.652	463.62
278.884	465.62
279.115	476.62
279.347	474.62
279.579	459.62
279.81	488.62
280.042	459.62
280.273	480.62
280.505	503.62
280.736	492.62
280.968	503.62
281.199	501.62
281.431	498.62
281.662	503.62
281.894	516.62
282.125	481.62
282.356	498.62
282.588	507.62
282.819	501.62
283.051	512.62
283.282	518.62
283.513	512.62
283.745	506.62
283.976	510.62
284.207	546.62
284.439	507.62
284.67	506.62
284.901	513.62
285.132	522.62
285.364	537.62
285.595	534.62
285.826	543.62
286.057	541.62
286.288	537.62
286.52	521.62
286.751	530.62
286.982	534.62
287.213	522.62
287.444	559.62
287.675	564.62
287.906	549.62
288.138	549.62
288.369	565.62
288.6	556.62
288.831	566.62
289.062	559.62
289.293	571.62
289.524	583.62
289.755	560.62
289.986	563.62
290.217	588.62
290.448	554.62
290.679	554.62
290.91	586.62
291.141	580.62
291.371	572.62
291.602	583.62
291.833	573.62
292.064	571.62
292.295	567.62
292.526	570.62
292.757	572.62
292.987	583.62
293.218	570.62
293.449	578.62
293.68	576.62
293.91	574.62
294.141	572.62
294.372	577.62
294.603	585.62
294.833	578.62
295.064	593.62
295.295	594.62
295.525	591.62
295.756	575.62
295.987	577.62
296.217	600.62
296.448	596.62
296.679	608.62
296.909	598.62
297.14	619.62
297.37	618.62
297.601	610.62
297.831	599.62
298.062	630.62
298.292	636.62
298.523	626.62
298.753	665.62
298.984	606.62
299.214	610.62
299.445	603.62
299.675	604.62
299.905	627.62
300.136	644.62
300.366	643.62
300.597	643.62
300.827	656.62
301.057	648.62
301.288	642.62
301.518	647.62
301.748	670.62
301.979	647.62
302.209	653.62
302.439	643.62
302.669	639.62
302.9	649.62
303.13	635.62
303.36	645.62
303.59	665.62
303.82	640.62
304.051	640.62
304.281	643.62
304.511	647.62
304.741	649.62
304.971	641.62
305.201	643.62
305.431	646.62
305.661	646.62
305.891	645.62
306.121	620.62
306.352	638.62
306.582	632.62
306.812	614.62
307.042	656.62
307.272	638.62
307.502	624.62
307.731	629.62
307.961	643.62
308.191	626.62
308.421	645.62
308.651	636.62
308.881	621.62
309.111	620.62
309.341	634.62
309.571	632.62
309.8	613.62
310.03	625.62
310.26	636.62
310.49	649.62
310.72	645.62
310.949	644.62
311.179	640.62
311.409	652.62
311.639	629.62
311.868	662.62
312.098	658.62
312.328	678.62
312.557	662.62
312.787	656.62
313.017	631.62
313.246	643.62
313.476	662.62
313.706	659.62
313.935	675.62
314.165	691.62
314.394	669.62
314.624	676.62
314.853	671.62
315.083	691.62
315.312	680.62
315.542	668.62
315.771	662.62
316.001	670.62
316.23	657.62
316.46	651.62
316.689	666.62
316.919	668.62
317.148	656.62
317.377	656.62
317.607	659.62
317.836	663.62
318.065	663.62
318.295	653.62
318.524	655.62
318.753	694.62
318.983	651.62
319.212	646.62
319.441	659.62
319.67	641.62
319.9	664.62
320.129	633.62
320.358	652.62
320.587	668.62
320.816	658.62
321.046	650.62
321.275	658.62
321.504	653.62
321.733	638.62
321.962	664.62
322.191	673.62
322.42	653.62
322.649	632.62
322.878	652.62
323.108	647.62
323.337	671.62
323.566	678.62
323.795	701.62
324.024	676.62
324.253	696.62
324.482	697.62
324.71	674.62
324.939	693.62
325.168	674.62
325.397	681.62
325.626	690.62
325.855	704.62
326.084	719.62
326.313	734.62
326.542	718.62
326.77	729.62
326.999	734.62
327.228	705.62
327.457	699.62
327.686	707.62
327.914	737.62
328.143	754.62
328.372	729.62
328.6	728.62
328.829	709.62
329.058	729.62
329.287	705.62
329.515	714.62
329.744	741.62
329.972	743.62
330.201	753.62
330.43	730.62
330.658	724.62
330.887	756.62
331.115	736.62
331.344	755.62
331.572	771.62
331.801	776.62
332.03	807.62
332.258	783.62
332.486	824.62
332.715	867.62
332.943	882.62
333.172	926.62
333.4	977.62
333.629	995.62
333.857	1002.62
334.085	980.62
334.314	944.62
334.542	934.62
334.771	914.62
334.999	904.62
335.227	887.62
335.455	910.62
335.684	890.62
335.912	875.62
336.14	864.62
336.369	887.62
336.597	889.62
336.825	864.62
337.053	880.62
337.281	844.62
337.51	838.62
337.738	840.62
337.966	798.62
338.194	789.62
338.422	786.62
338.65	786.62
338.878	786.62
339.106	798.62
339.334	767.62
339.562	778.62
339.79	778.62
340.018	748.62
340.246	734.62
340.474	754.62
340.702	764.62
340.93	763.62
341.158	760.62
341.386	745.62
341.614	770.62
341.842	768.62
342.07	742.62
342.298	734.62
342.526	725.62
342.754	744.62
342.981	748.62
343.209	777.62
343.437	826.62
343.665	856.62
343.893	912.62
344.12	959.62
344.348	900.62
344.576	876.62
344.804	826.62
345.031	784.62
345.259	763.62
345.487	772.62
345.714	750.62
345.942	779.62
346.17	757.62
346.397	739.62
346.625	727.62
346.853	737.62
347.08	712.62
347.308	723.62
347.535	723.62
347.763	752.62
347.99	742.62
348.218	743.62
348.445	758.62
348.673	732.62
348.9	730.62
349.128	704.62
349.355	723.62
349.583	728.62
349.81	718.62
350.037	708.62
350.265	732.62
350.492	696.62
350.72	688.62
350.947	692.62
351.174	711.62
351.402	717.62
351.629	711.62
351.856	711.62
352.083	700.62
352.311	692.62
352.538	694.62
352.765	705.62
352.992	696.62
353.22	682.62
353.447	698.62
353.674	696.62
353.901	697.62
354.128	708.62
354.355	695.62
354.583	686.62
354.81	712.62
355.037	707.62
355.264	713.62
355.491	719.62
355.718	702.62
355.945	714.62
356.172	707.62
356.399	692.62
356.626	716.62
356.853	713.62
357.08	705.62
357.307	729.62
357.534	686.62
357.761	712.62
357.988	720.62
358.215	708.62
358.441	696.62
358.668	708.62
358.895	703.62
359.122	705.62
359.349	693.62
359.576	691.62
359.802	701.62
360.029	694.62
360.256	706.62
360.483	706.62
360.709	693.62
360.936	725.62
361.163	689.62
361.39	693.62
361.616	690.62
361.843	698.62
362.07	720.62
362.296	688.62
362.523	691.62
362.749	695.62
362.976	690.62
363.203	699.62
363.429	687.62
363.656	688.62
363.882	675.62
364.109	702.62
364.335	714.62
364.562	695.62
364.788	660.62
365.015	700.62
365.241	702.62
365.468	693.62
365.694	698.62
365.92	708.62
366.147	723.62
366.373	711.62
366.599	711.62
366.826	687.62
367.052	688.62
367.278	675.62
367.505	698.62
367.731	719.62
367.957	732.62
368.184	696.62
368.41	727.62
368.636	717.62
368.862	730.62
369.089	715.62
369.315	716.62
369.541	717.62
369.767	763.62
369.993	726.62
370.219	719.62
370.445	744.62
370.672	741.62
370.898	739.62
371.124	762.62
371.35	772.62
371.576	772.62
371.802	777.62
372.028	767.62
372.254	747.62
372.48	758.62
372.706	763.62
372.932	787.62
373.158	801.62
373.384	758.62
373.61	785.62
373.835	780.62
374.061	770.62
374.287	783.62
374.513	761.62
374.739	782.62
374.965	836.62
375.191	863.62
375.416	842.62
375.642	833.62
375.868	800.62
376.094	826.62
376.319	783.62
376.545	798.62
376.771	797.62
376.997	774.62
377.222	793.62
377.448	774.62
377.674	764.62
377.899	776.62
378.125	764.62
378.35	754.62
378.576	780.62
378.802	767.62
379.027	750.62
379.253	750.62
379.478	751.62
379.704	788.62
379.929	744.62
380.155	722.62
380.38	734.62
380.606	764.62
380.831	744.62
381.057	743.62
381.282	779.62
381.507	770.62
381.733	770.62
381.958	755.62
382.184	786.62
382.409	826.62
382.634	814.62
382.86	811.62
383.085	792.62
383.31	809.62
383.535	823.62
383.761	849.62
383.986	881.62
384.211	884.62
384.436	857.62
384.662	904.62
384.887	904.62
385.112	924.62
385.337	949.62
385.562	926.62
385.787	924.62
386.013	963.62
386.238	947.62
386.463	938.62
386.688	918.62
386.913	912.62
387.138	911.62
387.363	897.62
387.588	910.62
387.813	915.62
388.038	893.62
388.263	930.62
388.488	898.62
388.713	907.62
388.938	907.62
389.163	904.62
389.387	921.62
389.612	900.62
389.837	918.62
390.062	910.62
390.287	923.62
390.512	928.62
390.736	910.62
390.961	922.62
391.186	942.62
391.411	964.62
391.636	988.62
391.86	1003.62
392.085	1055.62
392.31	1057.62
392.534	1008.62
392.759	995.62
392.984	1007.62
393.208	968.62
393.433	960.62
393.658	991.62
393.882	986.62
394.107	951.62
394.331	1012.62
394.556	1002.62
394.78	1001.62
395.005	989.62
395.229	982.62
395.454	1026.62
395.678	1050.62
395.903	1059.62
396.127	1034.62
396.352	1024.62
396.576	948.62
396.801	966.62
397.025	968.62
397.249	993.62
397.474	1055.62
397.698	1034.62
397.922	1036.62
398.147	1049.62
398.371	1035.62
398.595	1082.62
398.82	1137.62
399.044	1202.62
399.268	1351.62
399.492	1547.62
399.717	1819.62
399.941	1828.62
400.165	1589.62
400.389	1405.62
400.613	1287.62
400.837	1201.62
401.062	1201.62
401.286	1168.62
401.51	1166.62
401.734	1163.62
401.958	1195.62
402.182	1190.62
402.406	1195.62
402.63	1200.62
402.854	1232.62
403.078	1281.62
403.302	1286.62
403.526	1305.62
403.75	1368.62
403.974	1385.62
404.198	1379.62
404.422	1358.62
404.645	1366.62
404.869	1320.62
405.093	1351.62
405.317	1313.62
405.541	1305.62
405.765	1304.62
405.988	1309.62
406.212	1297.62
406.436	1263.62
406.66	1319.62
406.883	1321.62
407.107	1392.62
407.331	1468.62
407.555	1547.62
407.778	1558.62
408.002	1502.62
408.226	1473.62
408.449	1428.62
408.673	1326.62
408.896	1356.62
409.12	1318.62
409.344	1350.62
409.567	1349.62
409.791	1345.62
410.014	1354.62
410.238	1300.62
410.461	1272.62
410.685	1267.62
410.908	1274.62
411.132	1272.62
411.355	1223.62
411.578	1224.62
411.802	1217.62
412.025	1210.62
412.249	1228.62
412.472	1231.62
412.695	1178.62
412.919	1186.62
413.142	1167.62
413.365	1162.62
413.589	1179.62
413.812	1164.62
414.035	1119.62
414.258	1162.62
414.482	1160.62
414.705	1147.62
414.928	1146.62
415.151	1173.62
415.374	1169.62
415.597	1186.62
415.821	1176.62
416.044	1169.62
416.267	1131.62
416.49	1136.62
416.713	1137.62
416.936	1148.62
417.159	1142.62
417.382	1151.62
417.605	1120.62
417.828	1136.62
418.051	1144.62
418.274	1175.62
418.497	1200.62
418.72	1172.62
418.943	1174.62
419.166	1247.62
419.389	1355.62
419.611	1307.62
419.834	1227.62
420.057	1213.62
420.28	1180.62
420.503	1140.62
420.726	1156.62
420.948	1126.62
421.171	1154.62
421.394	1136.62
421.617	1120.62
421.839	1152.62
422.062	1139.62
422.285	1146.62
422.507	1184.62
422.73	1165.62
422.953	1208.62
423.175	1231.62
423.398	1238.62
423.621	1212.62
423.843	1247.62
424.066	1250.62
424.288	1235.62
424.511	1210.62
424.733	1232.62
424.956	1202.62
425.178	1187.62
425.401	1170.62
425.623	1184.62
425.846	1134.62
426.068	1118.62
426.291	1090.62
426.513	1073.62
426.735	1095.62
426.958	1090.62
427.18	1028.62
427.402	1056.62
427.625	1040.62
427.847	1046.62
428.069	1030.62
428.292	1038.62
428.514	993.62
428.736	1035.62
428.958	1042.62
429.181	1010.62
429.403	998.62
429.625	980.62
429.847	992.62
430.069	993.62
430.292	990.62
430.514	979.62
430.736	997.62
430.958	1029.62
431.18	996.62
431.402	988.62
431.624	983.62
431.846	1015.62
432.068	1035.62
432.29	1046.62
432.512	1028.62
432.734	1054.62
432.956	1026.62
433.178	1023.62
433.4	1015.62
433.622	1070.62
433.844	1052.62
434.066	1048.62
434.287	1060.62
434.509	1102.62
434.731	1143.62
434.953	1165.62
435.175	1196.62
435.397	1179.62
435.618	1073.62
435.84	1068.62
436.062	1050.62
436.284	1030.62
436.505	1020.62
436.727	1048.62
436.949	1033.62
437.17	1051.62
437.392	1009.62
437.614	1010.62
437.835	968.62
438.057	974.62
438.278	983.62
438.5	1014.62
438.721	1007.62
438.943	984.62
439.165	1002.62
439.386	990.62
439.608	1003.62
439.829	1052.62
440.05	1029.62
440.272	1065.62
440.493	1040.62
440.715	1050.62
440.936	1076.62
441.158	1085.62
441.379	1115.62
441.6	1155.62
441.822	1226.62
442.043	1186.62
442.264	1159.62
442.486	1131.62
442.707	1145.62
442.928	1141.62
443.149	1189.62
443.371	1128.62
443.592	1129.62
443.813	1190.62
444.034	1177.62
444.255	1221.62
444.476	1292.62
444.698	1367.62
444.919	1429.62
445.14	1476.62
445.361	1337.62
445.582	1226.62
445.803	1145.62
446.024	1112.62
446.245	1118.62
446.466	1061.62
446.687	1051.62
446.908	1065.62
447.129	1035.62
447.35	1024.62
447.571	1000.62
447.792	972.62
448.013	994.62
448.234	980.62
448.455	998.62
448.675	997.62
448.896	948.62
449.117	904.62
449.338	966.62
449.559	940.62
449.779	953.62
450	943.62
450.221	939.62
450.442	961.62
450.662	929.62
450.883	976.62
451.104	997.62
451.324	994.62
451.545	991.62
451.766	978.62
451.986	967.62
452.207	942.62
452.428	979.62
452.648	939.62
452.869	934.62
453.089	934.62
453.31	937.62
453.53	927.62
453.751	918.62
453.971	900.62
454.192	943.62
454.412	910.62
454.633	917.62
454.853	931.62
455.073	942.62
455.294	898.62
455.514	893.62
455.734	912.62
455.955	878.62
456.175	853.62
456.395	875.62
456.616	886.62
456.836	898.62
457.056	860.62
457.276	843.62
457.497	878.62
457.717	900.62
457.937	889.62
458.157	908.62
458.377	895.62
458.598	936.62
458.818	948.62
459.038	971.62
459.258	1020.62
459.478	1070.62
459.698	1066.62
459.918	1116.62
460.138	1143.62
460.358	1218.62
460.578	1233.62
460.798	1236.62
461.018	1246.62
461.238	1193.62
461.458	1216.62
461.678	1220.62
461.898	1240.62
462.118	1254.62
462.338	1310.62
462.558	1349.62
462.777	1429.62
462.997	1561.62
463.217	1677.62
463.437	1738.62
463.657	1569.62
463.876	1494.62
464.096	1458.62
464.316	1467.62
464.536	1473.62
464.755	1404.62
464.975	1368.62
465.195	1312.62
465.414	1229.62
465.634	1140.62
465.854	1100.62
466.073	1059.62
466.293	1063.62
466.512	1010.62
466.732	980.62
466.951	1016.62
467.171	992.62
467.391	1014.62
467.61	1007.62
467.829	965.62
468.049	1004.62
468.268	952.62
468.488	971.62
468.707	927.62
468.927	944.62
469.146	939.62
469.365	973.62
469.585	960.62
469.804	981.62
470.023	1020.62
470.243	1026.62
470.462	1039.62
470.681	1030.62
470.901	1072.62
471.12	1013.62
471.339	1007.62
471.558	960.62
471.777	965.62
471.997	967.62
472.216	954.62
472.435	935.62
472.654	953.62
472.873	935.62
473.092	908.62
473.311	922.62
473.53	900.62
473.749	902.62
473.968	901.62
474.187	947.62
474.406	903.62
474.625	919.62
474.844	906.62
475.063	934.62
475.282	920.62
475.501	929.62
475.72	926.62
475.939	945.62
476.158	972.62
476.377	978.62
476.596	960.62
476.814	996.62
477.033	982.62
477.252	980.62
477.471	1023.62
477.69	1046.62
477.908	1057.62
478.127	1119.62
478.346	1110.62
478.564	1116.62
478.783	1154.62
479.002	1162.62
479.22	1171.62
479.439	1163.62
479.658	1154.62
479.876	1165.62
480.095	1170.62
480.313	1230.62
480.532	1256.62
480.751	1302.62
480.969	1195.62
481.188	1162.62
481.406	1147.62
481.624	1114.62
481.843	1072.62
482.061	1041.62
482.28	1066.62
482.498	1061.62
482.717	1033.62
482.935	1079.62
483.153	1045.62
483.372	1076.62
483.59	1061.62
483.808	1071.62
484.027	1061.62
484.245	1065.62
484.463	1082.62
484.681	1082.62
484.9	1107.62
485.118	1106.62
485.336	1110.62
485.554	1112.62
485.772	1086.62
485.99	1079.62
486.209	1121.62
486.427	1108.62
486.645	1122.62
486.863	1119.62
487.081	1107.62
487.299	1125.62
487.517	1096.62
487.735	1102.62
487.953	1152.62
488.171	1130.62
488.389	1096.62
488.607	1090.62
488.825	1107.62
489.043	1059.62
489.261	1101.62
489.479	1095.62
489.696	1094.62
489.914	1140.62
490.132	1106.62
490.35	1134.62
490.568	1126.62
490.786	1112.62
491.003	1123.62
491.221	1115.62
491.439	1123.62
491.657	1122.62
491.874	1137.62
492.092	1116.62
492.31	1126.62
492.527	1137.62
492.745	1130.62
492.963	1146.62
493.18	1186.62
493.398	1147.62
493.615	1146.62
493.833	1156.62
494.05	1171.62
494.268	1180.62
494.485	1198.62
494.703	1185.62
494.92	1181.62
495.138	1185.62
495.355	1195.62
495.573	1180.62
495.79	1185.62
496.008	1199.62
496.225	1187.62
496.442	1206.62
496.66	1204.62
496.877	1210.62
497.094	1254.62
497.312	1263.62
497.529	1291.62
497.746	1307.62
497.963	1367.62
498.181	1448.62
498.398	1484.62
498.615	1577.62
498.832	1695.62
499.049	1836.62
499.267	1987.62
499.484	2195.62
499.701	2396.62
499.918	2688.62
500.135	3106.62
500.352	3528.62
500.569	3788.62
500.786	3738.62
501.003	3455.62
501.22	3046.62
501.437	2672.62
501.654	2330.62
501.871	2122.62
502.088	1912.62
502.305	1818.62
502.522	1689.62
502.739	1624.62
502.956	1566.62
503.172	1513.62
503.389	1411.62
503.606	1380.62
503.823	1376.62
504.04	1349.62
504.256	1361.62
504.473	1414.62
504.69	1442.62
504.907	1424.62
505.123	1321.62
505.34	1236.62
505.557	1158.62
505.773	1160.62
505.99	1138.62
506.207	1094.62
506.423	1089.62
506.64	1073.62
506.856	1087.62
507.073	1041.62
507.289	1058.62
507.506	1051.62
507.722	1026.62
507.939	1031.62
508.155	1014.62
508.372	1009.62
508.588	993.62
508.805	975.62
509.021	976.62
509.238	973.62
509.454	965.62
509.67	967.62
509.887	963.62
510.103	958.62
510.319	981.62
510.536	963.62
510.752	943.62
510.968	962.62
511.184	935.62
511.401	946.62
511.617	954.62
511.833	937.62
512.049	929.62
512.265	948.62
512.481	953.62
512.698	952.62
512.914	970.62
513.13	932.62
513.346	956.62
513.562	938.62
513.778	939.62
513.994	965.62
514.21	964.62
514.426	956.62
514.642	975.62
514.858	977.62
515.074	980.62
515.29	980.62
515.506	1003.62
515.721	980.62
515.937	1030.62
516.153	1020.62
516.369	1049.62
516.585	1107.62
516.801	1130.62
517.016	1161.62
517.232	1209.62
517.448	1286.62
517.664	1309.62
517.879	1338.62
518.095	1332.62
518.311	1323.62
518.527	1268.62
518.742	1204.62
518.958	1144.62
519.173	1096.62
519.389	1082.62
519.605	1058.62
519.82	1024.62
520.036	991.62
520.251	981.62
520.467	960.62
520.682	978.62
520.898	944.62
521.113	922.62
521.329	927.62
521.544	923.62
521.76	920.62
521.975	931.62
522.19	920.62
522.406	895.62
522.621	891.62
522.836	898.62
523.052	913.62
523.267	869.62
523.482	908.62
523.698	914.62
523.913	871.62
524.128	882.62
524.343	890.62
524.559	917.62
524.774	895.62
524.989	898.62
525.204	885.62
525.419	871.62
525.634	835.62
525.849	868.62
526.064	899.62
526.28	863.62
526.495	864.62
526.71	869.62
526.925	839.62
527.14	862.62
527.355	836.62
527.57	848.62
527.785	853.62
527.999	851.62
528.214	837.62
528.429	870.62
528.644	878.62
528.859	843.62
529.074	872.62
529.289	880.62
529.503	868.62
529.718	845.62
529.933	842.62
530.148	832.62
530.363	860.62
530.577	850.62
530.792	870.62
531.007	861.62
531.221	837.62
531.436	879.62
531.651	844.62
531.865	850.62
532.08	843.62
532.295	877.62
532.509	888.62
532.724	855.62
532.938	871.62
533.153	877.62
533.367	839.62
533.582	857.62
533.796	849.62
534.011	891.62
534.225	854.62
534.44	869.62
534.654	847.62
534.868	875.62
535.083	864.62
535.297	844.62
535.511	836.62
535.726	867.62
535.94	816.62
536.154	830.62
536.369	819.62
536.583	790.62
536.797	802.62
537.011	790.62
537.225	793.62
537.44	793.62
537.654	792.62
537.868	779.62
538.082	765.62
538.296	767.62
538.51	770.62
538.724	788.62
538.938	784.62
539.153	777.62
539.367	775.62
539.581	807.62
539.795	740.62
540.009	785.62
540.222	772.62
540.436	778.62
540.65	768.62
540.864	765.62
541.078	773.62
541.292	775.62
541.506	779.62
541.72	737.62
541.934	752.62
542.147	788.62
542.361	747.62
542.575	750.62
542.789	746.62
543.002	743.62
543.216	755.62
543.43	744.62
543.644	761.62
543.857	746.62
544.071	757.62
544.285	760.62
544.498	779.62
544.712	787.62
544.925	787.62
545.139	775.62
545.352	803.62
545.566	798.62
545.779	786.62
545.993	806.62
546.206	765.62
546.42	787.62
546.633	793.62
546.847	770.62
547.06	774.62
547.274	785.62
547.487	764.62
547.7	783.62
547.914	811.62
548.127	819.62
548.34	814.62
548.554	783.62
548.767	803.62
548.98	788.62
549.193	790.62
549.407	799.62
549.62	790.62
549.833	816.62
550.046	796.62
550.259	811.62
550.473	780.62
550.686	787.62
550.899	782.62
551.112	763.62
551.325	752.62
551.538	763.62
551.751	770.62
551.964	758.62
552.177	778.62
552.39	801.62
552.603	835.62
552.816	809.62
553.029	859.62
553.242	846.62
553.455	870.62
553.667	895.62
553.88	826.62
554.093	832.62
554.306	820.62
554.519	799.62
554.732	792.62
554.944	787.62
555.157	748.62
555.37	750.62
555.583	728.62
555.795	769.62
556.008	710.62
556.221	702.62
556.433	707.62
556.646	721.62
556.859	697.62
557.071	703.62
557.284	681.62
557.496	681.62
557.709	675.62
557.921	651.62
558.134	647.62
558.346	667.62
558.559	661.62
558.771	680.62
558.984	644.62
559.196	663.62
559.409	638.62
559.621	642.62
559.833	636.62
560.046	648.62
560.258	665.62
560.47	658.62
560.683	652.62
560.895	649.62
561.107	648.62
561.32	634.62
561.532	652.62
561.744	646.62
561.956	679.62
562.168	645.62
562.381	670.62
562.593	646.62
562.805	639.62
563.017	659.62
563.229	648.62
563.441	659.62
563.653	667.62
563.865	658.62
564.077	666.62
564.289	676.62
564.501	685.62
564.713	682.62
564.925	683.62
565.137	687.62
565.349	733.62
565.561	741.62
565.773	794.62
565.985	821.62
566.197	847.62
566.408	926.62
566.62	1006.62
566.832	1058.62
567.044	1125.62
567.255	1103.62
567.467	1104.62
567.679	1200.62
567.891	1269.62
568.102	1358.62
568.314	1286.62
568.526	1141.62
568.737	1023.62
568.949	978.62
569.161	852.62
569.372	822.62
569.584	764.62
569.795	720.62
570.007	709.62
570.218	693.62
570.43	667.62
570.641	680.62
570.853	663.62
571.064	699.62
571.276	688.62
571.487	676.62
571.698	656.62
571.91	609.62
572.121	614.62
572.333	604.62
572.544	593.62
572.755	598.62
572.966	580.62
573.178	572.62
573.389	557.62
573.6	561.62
573.811	556.62
574.023	565.62
574.234	550.62
574.445	560.62
574.656	560.62
574.867	539.62
575.078	548.62
575.289	542.62
575.501	543.62
575.712	536.62
575.923	519.62
576.134	502.62
576.345	521.62
576.556	522.62
576.767	517.62
576.978	529.62
577.188	507.62
577.399	499.62
577.61	505.62
577.821	521.62
578.032	503.62
578.243	470.62
578.454	481.62
578.665	496.62
578.875	510.62
579.086	475.62
579.297	460.62
579.508	480.62
579.718	488.62
579.929	494.62
580.14	474.62
580.35	455.62
580.561	467.62
580.772	466.62
580.982	465.62
581.193	473.62
581.403	452.62
581.614	481.62
581.825	462.62
582.035	461.62
582.246	461.62
582.456	441.62
582.667	443.62
582.877	450.62
583.087	473.62
583.298	444.62
583.508	458.62
583.719	469.62
583.929	458.62
584.139	481.62
584.35	449.62
584.56	451.62
584.77	444.62
584.981	441.62
585.191	444.62
585.401	425.62
585.611	462.62
585.821	465.62
586.032	425.62
586.242	433.62
586.452	433.62
586.662	447.62
586.872	437.62
587.082	463.62
587.292	442.62
587.502	441.62
587.713	425.62
587.923	437.62
588.133	439.62
588.343	431.62
588.553	420.62
588.762	438.62
588.972	432.62
589.182	461.62
589.392	459.62
589.602	449.62
589.812	432.62
590.022	432.62
590.232	435.62
590.441	447.62
590.651	460.62
590.861	429.62
591.071	451.62
591.281	458.62
591.49	458.62
591.7	474.62
591.91	490.62
592.119	474.62
592.329	486.62
592.539	490.62
592.748	528.62
592.958	539.62
593.167	550.62
593.377	547.62
593.587	564.62
593.796	579.62
594.006	549.62
594.215	573.62
594.424	575.62
594.634	553.62
594.843	534.62
595.053	505.62
595.262	483.62
595.472	493.62
595.681	477.62
595.89	446.62
596.1	450.62
596.309	454.62
596.518	431.62
596.727	418.62
596.937	419.62
597.146	407.62
597.355	405.62
597.564	411.62
597.774	398.62
597.983	409.62
598.192	394.62
598.401	402.62
598.61	387.62
598.819	376.62
599.028	372.62
599.237	346.62
599.446	372.62
599.655	373.62
599.864	378.62
600.073	369.62
600.282	374.62
600.491	362.62
600.7	358.62
600.909	366.62
601.118	363.62
601.327	366.62
601.536	354.62
601.745	362.62
601.953	352.62
602.162	362.62
602.371	345.62
602.58	356.62
602.789	370.62
602.997	352.62
603.206	352.62
603.415	377.62
603.623	334.62
603.832	366.62
604.041	368.62
604.249	372.62
604.458	367.62
604.666	350.62
604.875	324.62
605.084	354.62
605.292	342.62
605.501	339.62
605.709	351.62
605.918	339.62
606.126	333.62
606.334	332.62
606.543	342.62
606.751	339.62
606.96	355.62
607.168	346.62
607.376	343.62
607.585	346.62
607.793	328.62
608.001	332.62
608.21	339.62
608.418	351.62
608.626	318.62
608.834	330.62
609.043	338.62
609.251	335.62
609.459	325.62
609.667	345.62
609.875	338.62
610.083	317.62
610.291	332.62
610.499	316.62
610.707	322.62
610.916	336.62
611.124	345.62
611.332	331.62
611.54	309.62
611.748	320.62
611.955	319.62
612.163	302.62
612.371	329.62
612.579	321.62
612.787	327.62
612.995	314.62
613.203	326.62
613.411	311.62
613.618	304.62
613.826	303.62
614.034	304.62
614.242	321.62
614.449	314.62
614.657	338.62
614.865	326.62
615.072	314.62
615.28	326.62
615.488	317.62
615.695	309.62
615.903	299.62
616.111	319.62
616.318	315.62
616.526	320.62
616.733	315.62
616.941	315.62
617.148	332.62
617.356	330.62
617.563	319.62
617.771	330.62
617.978	323.62
618.185	311.62
618.393	310.62
618.6	316.62
618.807	322.62
619.015	318.62
619.222	306.62
619.429	299.62
619.637	296.62
619.844	307.62
620.051	287.62
620.258	272.62
620.466	286.62
620.673	293.62
620.88	298.62
621.087	303.62
621.294	316.62
621.501	301.62
621.708	302.62
621.915	304.62
622.122	284.62
622.329	293.62
622.536	297.62
622.743	284.62
622.95	295.62
623.157	272.62
623.364	276.62
623.571	281.62
623.778	286.62
623.985	274.62
624.192	292.62
624.399	296.62
624.606	289.62
624.812	283.62
625.019	275.62
625.226	276.62
625.433	268.62
625.639	286.62
625.846	281.62
626.053	269.62
626.259	272.62
626.466	282.62
626.673	279.62
626.879	255.62
627.086	255.62
627.293	263.62
627.499	252.62
627.706	279.62
627.912	277.62
628.119	262.62
628.325	276.62
628.532	250.62
628.738	244.62
628.945	245.62
629.151	260.62
629.357	240.62
629.564	247.62
629.77	250.62
629.976	242.62
630.183	263.62
630.389	256.62
630.595	250.62
630.802	246.62
631.008	236.62
631.214	246.62
631.42	260.62
631.627	270.62
631.833	242.62
632.039	233.62
632.245	260.62
632.451	240.62
632.657	257.62
632.863	231.62
633.069	258.62
633.275	245.62
633.481	230.62
633.688	224.62
633.893	231.62
634.099	225.62
634.305	254.62
634.511	240.62
634.717	245.62
634.923	230.62
635.129	210.62
635.335	226.62
635.541	239.62
635.747	222.62
635.952	227.62
636.158	226.62
636.364	231.62
636.57	207.62
636.775	218.62
636.981	244.62
637.187	240.62
637.392	215.62
637.598	243.62
637.804	228.62
638.009	233.62
638.215	230.62
638.421	212.62
638.626	218.62
638.832	225.62
639.037	215.62
639.243	226.62
639.448	227.62
639.654	217.62
639.859	229.62
640.065	214.62
640.27	236.62
640.475	210.62
640.681	222.62
640.886	218.62
641.091	220.62
641.297	217.62
641.502	223.62
641.707	216.62
641.913	216.62
642.118	231.62
642.323	199.62
642.528	218.62
642.733	208.62
642.939	200.62
643.144	217.62
643.349	195.62
643.554	217.62
643.759	207.62
643.964	205.62
644.169	199.62
644.374	203.62
644.579	214.62
644.784	218.62
644.989	205.62
645.194	206.62
645.399	208.62
645.604	201.62
645.809	237.62
646.014	203.62
646.219	206.62
646.423	203.62
646.628	209.62
646.833	196.62
647.038	199.62
647.243	209.62
647.447	201.62
647.652	216.62
647.857	201.62
648.062	210.62
648.266	208.62
648.471	217.62
648.676	218.62
648.88	220.62
649.085	194.62
649.289	219.62
649.494	214.62
649.698	209.62
649.903	203.62
650.107	204.62
650.312	186.62
650.516	182.62
650.721	199.62
650.925	193.62
651.13	161.62
651.334	191.62
651.539	183.62
651.743	186.62
651.947	172.62
652.152	179.62
652.356	162.62
652.56	173.62
652.764	183.62
652.969	184.62
653.173	172.62
653.377	172.62
653.581	177.62
653.785	175.62
653.99	157.62
654.194	179.62
654.398	162.62
654.602	157.62
654.806	144.62
655.01	159.62
655.214	146.62
655.418	142.62
655.622	151.62
655.826	154.62
656.03	143.62
656.234	141.62
656.438	141.62
656.642	140.62
656.846	141.62
657.049	135.62
657.253	126.62
657.457	127.62
657.661	120.62
657.865	112.62
658.068	126.62
658.272	116.62
658.476	122.62
658.68	105.62
658.883	114.62
659.087	105.62
659.291	98.62
659.494	101.62
659.698	87.62
659.901	87.62
660.105	100.62
660.309	94.62
660.512	92.62
660.716	107.62
660.919	93.62
661.123	100.62
661.326	104.62
661.53	95.62
661.733	77.62
661.936	100.62
662.14	72.62
662.343	96.62
662.546	75.62
662.75	94.62
662.953	82.62
663.156	85.62
663.36	88.62
663.563	77.62
663.766	76.62
663.969	71.62
664.173	78.62
664.376	81.62
664.579	91.62
664.782	89.62
664.985	92.62
665.188	91.62
665.391	79.62
665.594	76.62
665.797	78.62
666	69.62
666.203	75.62
666.406	89.62
666.609	81.62
666.812	93.62
667.015	90.62
667.218	65.62
667.421	73.62
667.624	67.62
667.827	63.62
668.03	91.62
668.232	87.62
668.435	75.62
668.638	76.62
668.841	83.62
669.043	80.62
669.246	71.62
669.449	80.62
669.651	78.62
669.854	71.62
670.057	69.62
670.259	84.62
670.462	87.62
670.665	90.62
670.867	80.62
671.07	78.62
671.272	91.62
671.475	74.62
671.677	87.62
671.88	91.62
672.082	86.62
672.284	84.62
672.487	72.62
672.689	82.62
672.892	71.62
