Data from NiCl2@0.5M.TitratingCurve.Agarose3%dH2O.NegLispCup.LampEnergy10.LIBS07252019_HRD10591_18-20-27-571.txt Node
Date: Thu Jul 25 18:20:27 EDT 2019
User: cochatt
Spectrometer: HR+D1059
Trigger mode: 1
Integration Time (sec): 1.000000E-1
Scans to average: 1
Electric dark correction enabled: true
Nonlinearity correction enabled: false
Boxcar width: 0
XAxis mode: Wavelengths
Number of Pixels in Spectrum: 2048
>>>>>Begin Spectral Data<<<<<
223.165	-14.12
223.4	-14.12
223.635	-14.12
223.869	-12.12
224.104	-23.12
224.338	-19.12
224.573	-9.12
224.808	-18.12
225.042	-6.12
225.277	-5.12
225.511	5.88
225.746	19.88
225.98	-6.12
226.215	4.88
226.449	21.88
226.683	23.88
226.918	19.88
227.152	16.88
227.387	24.88
227.621	28.88
227.856	37.88
228.09	39.88
228.324	42.88
228.559	57.88
228.793	60.88
229.027	91.88
229.262	120.88
229.496	110.88
229.73	121.88
229.964	119.88
230.199	111.88
230.433	115.88
230.667	139.88
230.901	124.88
231.136	127.88
231.37	140.88
231.604	132.88
231.838	137.88
232.072	158.88
232.306	145.88
232.541	144.88
232.775	132.88
233.009	129.88
233.243	129.88
233.477	137.88
233.711	137.88
233.945	128.88
234.179	143.88
234.413	141.88
234.647	138.88
234.881	144.88
235.115	137.88
235.349	127.88
235.583	137.88
235.817	143.88
236.051	147.88
236.285	149.88
236.519	133.88
236.753	159.88
236.987	145.88
237.221	153.88
237.455	128.88
237.689	158.88
237.922	166.88
238.156	157.88
238.39	148.88
238.624	157.88
238.858	160.88
239.091	157.88
239.325	166.88
239.559	146.88
239.793	171.88
240.027	184.88
240.26	172.88
240.494	183.88
240.728	179.88
240.961	169.88
241.195	175.88
241.429	159.88
241.662	176.88
241.896	181.88
242.13	180.88
242.363	179.88
242.597	183.88
242.83	192.88
243.064	186.88
243.298	170.88
243.531	176.88
243.765	189.88
243.998	204.88
244.232	187.88
244.465	200.88
244.699	208.88
244.932	210.88
245.166	201.88
245.399	207.88
245.633	197.88
245.866	202.88
246.099	201.88
246.333	194.88
246.566	211.88
246.8	217.88
247.033	215.88
247.266	232.88
247.5	225.88
247.733	220.88
247.966	204.88
248.2	214.88
248.433	226.88
248.666	232.88
248.899	225.88
249.133	232.88
249.366	224.88
249.599	221.88
249.832	225.88
250.066	229.88
250.299	232.88
250.532	228.88
250.765	226.88
250.998	244.88
251.231	251.88
251.465	241.88
251.698	239.88
251.931	231.88
252.164	249.88
252.397	244.88
252.63	253.88
252.863	251.88
253.096	244.88
253.329	277.88
253.562	244.88
253.795	272.88
254.028	246.88
254.261	257.88
254.494	272.88
254.727	263.88
254.96	224.88
255.193	251.88
255.426	259.88
255.659	270.88
255.892	260.88
256.124	282.88
256.357	263.88
256.59	281.88
256.823	267.88
257.056	274.88
257.289	250.88
257.521	268.88
257.754	280.88
257.987	281.88
258.22	283.88
258.452	286.88
258.685	280.88
258.918	274.88
259.151	281.88
259.383	289.88
259.616	293.88
259.849	294.88
260.081	298.88
260.314	285.88
260.547	296.88
260.779	286.88
261.012	301.88
261.244	284.88
261.477	308.88
261.71	291.88
261.942	314.88
262.175	277.88
262.407	304.88
262.64	303.88
262.872	284.88
263.105	308.88
263.337	309.88
263.57	299.88
263.802	325.88
264.035	314.88
264.267	313.88
264.499	317.88
264.732	314.88
264.964	316.88
265.197	332.88
265.429	323.88
265.661	338.88
265.894	339.88
266.126	334.88
266.358	319.88
266.591	320.88
266.823	314.88
267.055	342.88
267.287	348.88
267.52	351.88
267.752	339.88
267.984	336.88
268.216	340.88
268.448	353.88
268.681	340.88
268.913	348.88
269.145	350.88
269.377	347.88
269.609	355.88
269.841	384.88
270.073	345.88
270.306	361.88
270.538	344.88
270.77	351.88
271.002	350.88
271.234	343.88
271.466	367.88
271.698	360.88
271.93	364.88
272.162	379.88
272.394	369.88
272.626	364.88
272.858	353.88
273.09	368.88
273.322	395.88
273.553	365.88
273.785	383.88
274.017	379.88
274.249	380.88
274.481	382.88
274.713	382.88
274.945	365.88
275.176	376.88
275.408	397.88
275.64	396.88
275.872	391.88
276.104	403.88
276.335	385.88
276.567	414.88
276.799	394.88
277.031	397.88
277.262	390.88
277.494	390.88
277.726	407.88
277.957	417.88
278.189	410.88
278.421	405.88
278.652	392.88
278.884	403.88
279.115	417.88
279.347	435.88
279.579	431.88
279.81	418.88
280.042	418.88
280.273	416.88
280.505	431.88
280.736	415.88
280.968	434.88
281.199	427.88
281.431	440.88
281.662	437.88
281.894	445.88
282.125	448.88
282.356	422.88
282.588	438.88
282.819	446.88
283.051	442.88
283.282	453.88
283.513	439.88
283.745	440.88
283.976	453.88
284.207	454.88
284.439	442.88
284.67	433.88
284.901	454.88
285.132	471.88
285.364	453.88
285.595	459.88
285.826	484.88
286.057	473.88
286.288	468.88
286.52	474.88
286.751	458.88
286.982	487.88
287.213	476.88
287.444	478.88
287.675	476.88
287.906	481.88
288.138	476.88
288.369	498.88
288.6	469.88
288.831	482.88
289.062	491.88
289.293	475.88
289.524	493.88
289.755	483.88
289.986	486.88
290.217	507.88
290.448	500.88
290.679	499.88
290.91	478.88
291.141	503.88
291.371	497.88
291.602	524.88
291.833	508.88
292.064	495.88
292.295	502.88
292.526	481.88
292.757	475.88
292.987	489.88
293.218	504.88
293.449	488.88
293.68	489.88
293.91	494.88
294.141	495.88
294.372	486.88
294.603	499.88
294.833	523.88
295.064	505.88
295.295	520.88
295.525	511.88
295.756	514.88
295.987	504.88
296.217	539.88
296.448	512.88
296.679	523.88
296.909	518.88
297.14	531.88
297.37	542.88
297.601	528.88
297.831	546.88
298.062	520.88
298.292	548.88
298.523	560.88
298.753	554.88
298.984	550.88
299.214	549.88
299.445	564.88
299.675	564.88
299.905	549.88
300.136	550.88
300.366	556.88
300.597	566.88
300.827	574.88
301.057	578.88
301.288	592.88
301.518	583.88
301.748	571.88
301.979	580.88
302.209	592.88
302.439	578.88
302.669	572.88
302.9	568.88
303.13	565.88
303.36	556.88
303.59	574.88
303.82	575.88
304.051	578.88
304.281	578.88
304.511	544.88
304.741	571.88
304.971	597.88
305.201	591.88
305.431	576.88
305.661	581.88
305.891	553.88
306.121	562.88
306.352	567.88
306.582	571.88
306.812	548.88
307.042	584.88
307.272	570.88
307.502	548.88
307.731	581.88
307.961	556.88
308.191	575.88
308.421	559.88
308.651	583.88
308.881	563.88
309.111	569.88
309.341	580.88
309.571	573.88
309.8	570.88
310.03	585.88
310.26	584.88
310.49	586.88
310.72	586.88
310.949	556.88
311.179	565.88
311.409	569.88
311.639	578.88
311.868	586.88
312.098	580.88
312.328	607.88
312.557	603.88
312.787	597.88
313.017	605.88
313.246	604.88
313.476	619.88
313.706	626.88
313.935	627.88
314.165	617.88
314.394	642.88
314.624	618.88
314.853	616.88
315.083	620.88
315.312	620.88
315.542	621.88
315.771	633.88
316.001	621.88
316.23	586.88
316.46	589.88
316.689	593.88
316.919	607.88
317.148	608.88
317.377	606.88
317.607	603.88
317.836	598.88
318.065	612.88
318.295	611.88
318.524	608.88
318.753	579.88
318.983	620.88
319.212	586.88
319.441	620.88
319.67	586.88
319.9	601.88
320.129	608.88
320.358	587.88
320.587	595.88
320.816	608.88
321.046	601.88
321.275	606.88
321.504	610.88
321.733	631.88
321.962	628.88
322.191	611.88
322.42	611.88
322.649	615.88
322.878	606.88
323.108	621.88
323.337	620.88
323.566	611.88
323.795	612.88
324.024	633.88
324.253	629.88
324.482	628.88
324.71	625.88
324.939	644.88
325.168	636.88
325.397	661.88
325.626	639.88
325.855	632.88
326.084	651.88
326.313	671.88
326.542	663.88
326.77	661.88
326.999	657.88
327.228	665.88
327.457	672.88
327.686	661.88
327.914	661.88
328.143	664.88
328.372	686.88
328.6	673.88
328.829	666.88
329.058	675.88
329.287	689.88
329.515	703.88
329.744	683.88
329.972	708.88
330.201	671.88
330.43	668.88
330.658	707.88
330.887	689.88
331.115	701.88
331.344	715.88
331.572	693.88
331.801	706.88
332.03	740.88
332.258	740.88
332.486	756.88
332.715	776.88
332.943	823.88
333.172	869.88
333.4	853.88
333.629	889.88
333.857	897.88
334.085	919.88
334.314	884.88
334.542	829.88
334.771	855.88
334.999	828.88
335.227	826.88
335.455	843.88
335.684	803.88
335.912	809.88
336.14	818.88
336.369	801.88
336.597	806.88
336.825	802.88
337.053	785.88
337.281	780.88
337.51	751.88
337.738	767.88
337.966	758.88
338.194	746.88
338.422	744.88
338.65	704.88
338.878	716.88
339.106	722.88
339.334	739.88
339.562	723.88
339.79	701.88
340.018	696.88
340.246	690.88
340.474	682.88
340.702	703.88
340.93	731.88
341.158	694.88
341.386	702.88
341.614	704.88
341.842	683.88
342.07	687.88
342.298	707.88
342.526	700.88
342.754	695.88
342.981	687.88
343.209	737.88
343.437	753.88
343.665	789.88
343.893	834.88
344.12	839.88
344.348	811.88
344.576	782.88
344.804	776.88
345.031	711.88
345.259	711.88
345.487	689.88
345.714	690.88
345.942	689.88
346.17	696.88
346.397	696.88
346.625	692.88
346.853	656.88
347.08	681.88
347.308	680.88
347.535	646.88
347.763	646.88
347.99	682.88
348.218	682.88
348.445	687.88
348.673	648.88
348.9	676.88
349.128	665.88
349.355	663.88
349.583	642.88
349.81	647.88
350.037	637.88
350.265	620.88
350.492	653.88
350.72	644.88
350.947	641.88
351.174	637.88
351.402	651.88
351.629	637.88
351.856	647.88
352.083	643.88
352.311	630.88
352.538	643.88
352.765	647.88
352.992	655.88
353.22	630.88
353.447	625.88
353.674	626.88
353.901	623.88
354.128	618.88
354.355	625.88
354.583	639.88
354.81	643.88
355.037	656.88
355.264	633.88
355.491	619.88
355.718	641.88
355.945	645.88
356.172	643.88
356.399	650.88
356.626	641.88
356.853	634.88
357.08	639.88
357.307	647.88
357.534	619.88
357.761	647.88
357.988	629.88
358.215	645.88
358.441	629.88
358.668	632.88
358.895	639.88
359.122	642.88
359.349	645.88
359.576	650.88
359.802	629.88
360.029	619.88
360.256	649.88
360.483	634.88
360.709	627.88
360.936	642.88
361.163	596.88
361.39	634.88
361.616	657.88
361.843	629.88
362.07	664.88
362.296	654.88
362.523	617.88
362.749	635.88
362.976	633.88
363.203	652.88
363.429	610.88
363.656	643.88
363.882	651.88
364.109	628.88
364.335	614.88
364.562	614.88
364.788	615.88
365.015	640.88
365.241	605.88
365.468	612.88
365.694	614.88
365.92	639.88
366.147	611.88
366.373	616.88
366.599	611.88
366.826	622.88
367.052	627.88
367.278	631.88
367.505	648.88
367.731	620.88
367.957	626.88
368.184	635.88
368.41	637.88
368.636	651.88
368.862	616.88
369.089	612.88
369.315	630.88
369.541	626.88
369.767	645.88
369.993	644.88
370.219	635.88
370.445	629.88
370.672	656.88
370.898	656.88
371.124	659.88
371.35	682.88
371.576	671.88
371.802	666.88
372.028	651.88
372.254	676.88
372.48	689.88
372.706	672.88
372.932	699.88
373.158	700.88
373.384	685.88
373.61	673.88
373.835	685.88
374.061	671.88
374.287	678.88
374.513	689.88
374.739	721.88
374.965	763.88
375.191	767.88
375.416	726.88
375.642	713.88
375.868	695.88
376.094	692.88
376.319	685.88
376.545	671.88
376.771	695.88
376.997	662.88
377.222	674.88
377.448	669.88
377.674	675.88
377.899	666.88
378.125	676.88
378.35	657.88
378.576	651.88
378.802	669.88
379.027	658.88
379.253	661.88
379.478	630.88
379.704	634.88
379.929	657.88
380.155	651.88
380.38	639.88
380.606	649.88
380.831	646.88
381.057	652.88
381.282	654.88
381.507	652.88
381.733	659.88
381.958	667.88
382.184	665.88
382.409	688.88
382.634	708.88
382.86	699.88
383.085	699.88
383.31	707.88
383.535	714.88
383.761	714.88
383.986	755.88
384.211	757.88
384.436	765.88
384.662	776.88
384.887	785.88
385.112	808.88
385.337	786.88
385.562	784.88
385.787	774.88
386.013	788.88
386.238	801.88
386.463	796.88
386.688	790.88
386.913	797.88
387.138	792.88
387.363	779.88
387.588	783.88
387.813	770.88
388.038	770.88
388.263	773.88
388.488	798.88
388.713	776.88
388.938	773.88
389.163	768.88
389.387	780.88
389.612	759.88
389.837	751.88
390.062	745.88
390.287	771.88
390.512	752.88
390.736	771.88
390.961	803.88
391.186	802.88
391.411	828.88
391.636	850.88
391.86	867.88
392.085	880.88
392.31	871.88
392.534	852.88
392.759	851.88
392.984	822.88
393.208	833.88
393.433	819.88
393.658	835.88
393.882	852.88
394.107	827.88
394.331	826.88
394.556	856.88
394.78	863.88
395.005	849.88
395.229	880.88
395.454	874.88
395.678	885.88
395.903	879.88
396.127	840.88
396.352	851.88
396.576	848.88
396.801	826.88
397.025	866.88
397.249	862.88
397.474	910.88
397.698	874.88
397.922	899.88
398.147	897.88
398.371	919.88
398.595	929.88
398.82	946.88
399.044	1019.88
399.268	1156.88
399.492	1337.88
399.717	1528.88
399.941	1447.88
400.165	1281.88
400.389	1157.88
400.613	1068.88
400.837	1041.88
401.062	987.88
401.286	988.88
401.51	983.88
401.734	957.88
401.958	994.88
402.182	1024.88
402.406	1027.88
402.63	1032.88
402.854	1076.88
403.078	1079.88
403.302	1113.88
403.526	1135.88
403.75	1151.88
403.974	1133.88
404.198	1147.88
404.422	1145.88
404.645	1158.88
404.869	1128.88
405.093	1105.88
405.317	1083.88
405.541	1073.88
405.765	1086.88
405.988	1107.88
406.212	1060.88
406.436	1090.88
406.66	1116.88
406.883	1115.88
407.107	1193.88
407.331	1244.88
407.555	1296.88
407.778	1289.88
408.002	1226.88
408.226	1165.88
408.449	1189.88
408.673	1153.88
408.896	1124.88
409.12	1095.88
409.344	1100.88
409.567	1101.88
409.791	1129.88
410.014	1131.88
410.238	1120.88
410.461	1072.88
410.685	1084.88
410.908	1100.88
411.132	1065.88
411.355	1031.88
411.578	1044.88
411.802	1018.88
412.025	1046.88
412.249	1047.88
412.472	1056.88
412.695	1032.88
412.919	998.88
413.142	989.88
413.365	988.88
413.589	1030.88
413.812	1004.88
414.035	964.88
414.258	976.88
414.482	980.88
414.705	1042.88
414.928	1027.88
415.151	1010.88
415.374	1012.88
415.597	1003.88
415.821	966.88
416.044	985.88
416.267	980.88
416.49	970.88
416.713	982.88
416.936	992.88
417.159	988.88
417.382	971.88
417.605	1019.88
417.828	987.88
418.051	1015.88
418.274	992.88
418.497	986.88
418.72	1021.88
418.943	1045.88
419.166	1064.88
419.389	1109.88
419.611	1107.88
419.834	1072.88
420.057	1051.88
420.28	1010.88
420.503	986.88
420.726	982.88
420.948	1000.88
421.171	990.88
421.394	993.88
421.617	980.88
421.839	974.88
422.062	972.88
422.285	990.88
422.507	996.88
422.73	1009.88
422.953	1036.88
423.175	1049.88
423.398	1063.88
423.621	1045.88
423.843	1049.88
424.066	1095.88
424.288	1100.88
424.511	1101.88
424.733	1063.88
424.956	1023.88
425.178	1007.88
425.401	1003.88
425.623	1014.88
425.846	979.88
426.068	981.88
426.291	975.88
426.513	965.88
426.735	953.88
426.958	921.88
427.18	927.88
427.402	925.88
427.625	912.88
427.847	901.88
428.069	918.88
428.292	895.88
428.514	881.88
428.736	902.88
428.958	918.88
429.181	906.88
429.403	885.88
429.625	933.88
429.847	921.88
430.069	895.88
430.292	876.88
430.514	863.88
430.736	881.88
430.958	900.88
431.18	883.88
431.402	891.88
431.624	913.88
431.846	886.88
432.068	924.88
432.29	925.88
432.512	894.88
432.734	920.88
432.956	913.88
433.178	899.88
433.4	916.88
433.622	915.88
433.844	909.88
434.066	913.88
434.287	957.88
434.509	943.88
434.731	987.88
434.953	1024.88
435.175	993.88
435.397	991.88
435.618	962.88
435.84	943.88
436.062	928.88
436.284	917.88
436.505	921.88
436.727	918.88
436.949	927.88
437.17	910.88
437.392	888.88
437.614	897.88
437.835	864.88
438.057	913.88
438.278	880.88
438.5	862.88
438.721	868.88
438.943	917.88
439.165	862.88
439.386	891.88
439.608	907.88
439.829	897.88
440.05	913.88
440.272	931.88
440.493	916.88
440.715	908.88
440.936	948.88
441.158	969.88
441.379	977.88
441.6	1036.88
441.822	1050.88
442.043	1040.88
442.264	997.88
442.486	999.88
442.707	1008.88
442.928	995.88
443.149	999.88
443.371	995.88
443.592	986.88
443.813	1040.88
444.034	1039.88
444.255	1060.88
444.476	1131.88
444.698	1173.88
444.919	1211.88
445.14	1280.88
445.361	1162.88
445.582	1065.88
445.803	1014.88
446.024	953.88
446.245	966.88
446.466	935.88
446.687	933.88
446.908	911.88
447.129	903.88
447.35	912.88
447.571	880.88
447.792	854.88
448.013	874.88
448.234	876.88
448.455	873.88
448.675	848.88
448.896	857.88
449.117	840.88
449.338	823.88
449.559	865.88
449.779	847.88
450	836.88
450.221	842.88
450.442	851.88
450.662	856.88
450.883	836.88
451.104	889.88
451.324	865.88
451.545	856.88
451.766	856.88
451.986	842.88
452.207	854.88
452.428	854.88
452.648	855.88
452.869	845.88
453.089	800.88
453.31	826.88
453.53	813.88
453.751	834.88
453.971	804.88
454.192	803.88
454.412	805.88
454.633	812.88
454.853	792.88
455.073	807.88
455.294	801.88
455.514	802.88
455.734	779.88
455.955	800.88
456.175	794.88
456.395	776.88
456.616	785.88
456.836	785.88
457.056	783.88
457.276	805.88
457.497	815.88
457.717	794.88
457.937	808.88
458.157	793.88
458.377	815.88
458.598	839.88
458.818	847.88
459.038	868.88
459.258	894.88
459.478	941.88
459.698	938.88
459.918	973.88
460.138	1018.88
460.358	1089.88
460.578	1063.88
460.798	1086.88
461.018	1086.88
461.238	1085.88
461.458	1100.88
461.678	1079.88
461.898	1108.88
462.118	1084.88
462.338	1173.88
462.558	1176.88
462.777	1245.88
462.997	1341.88
463.217	1446.88
463.437	1479.88
463.657	1296.88
463.876	1260.88
464.096	1241.88
464.316	1268.88
464.536	1244.88
464.755	1213.88
464.975	1166.88
465.195	1124.88
465.414	1057.88
465.634	983.88
465.854	975.88
466.073	928.88
466.293	917.88
466.512	915.88
466.732	888.88
466.951	935.88
467.171	890.88
467.391	924.88
467.61	904.88
467.829	905.88
468.049	895.88
468.268	886.88
468.488	855.88
468.707	853.88
468.927	870.88
469.146	865.88
469.365	870.88
469.585	853.88
469.804	887.88
470.023	901.88
470.243	911.88
470.462	938.88
470.681	914.88
470.901	916.88
471.12	930.88
471.339	917.88
471.558	904.88
471.777	893.88
471.997	847.88
472.216	855.88
472.435	877.88
472.654	815.88
472.873	848.88
473.092	814.88
473.311	845.88
473.53	844.88
473.749	855.88
473.968	843.88
474.187	834.88
474.406	814.88
474.625	854.88
474.844	848.88
475.063	835.88
475.282	833.88
475.501	836.88
475.72	864.88
475.939	876.88
476.158	871.88
476.377	848.88
476.596	879.88
476.814	902.88
477.033	881.88
477.252	914.88
477.471	913.88
477.69	925.88
477.908	971.88
478.127	994.88
478.346	997.88
478.564	1019.88
478.783	1025.88
479.002	1064.88
479.22	1063.88
479.439	1061.88
479.658	1063.88
479.876	1050.88
480.095	1075.88
480.313	1097.88
480.532	1139.88
480.751	1135.88
480.969	1058.88
481.188	1036.88
481.406	1027.88
481.624	1000.88
481.843	951.88
482.061	981.88
482.28	945.88
482.498	960.88
482.717	951.88
482.935	983.88
483.153	967.88
483.372	970.88
483.59	981.88
483.808	984.88
484.027	980.88
484.245	979.88
484.463	999.88
484.681	1002.88
484.9	987.88
485.118	988.88
485.336	1001.88
485.554	985.88
485.772	987.88
485.99	1016.88
486.209	992.88
486.427	1001.88
486.645	1032.88
486.863	1043.88
487.081	1039.88
487.299	1004.88
487.517	1003.88
487.735	1021.88
487.953	1045.88
488.171	1025.88
488.389	993.88
488.607	989.88
488.825	1004.88
489.043	962.88
489.261	1033.88
489.479	1007.88
489.696	1008.88
489.914	1041.88
490.132	1025.88
490.35	1024.88
490.568	1012.88
490.786	1031.88
491.003	1035.88
491.221	1013.88
491.439	1033.88
491.657	1035.88
491.874	1030.88
492.092	1025.88
492.31	1076.88
492.527	1076.88
492.745	1064.88
492.963	1067.88
493.18	1060.88
493.398	1048.88
493.615	1056.88
493.833	1092.88
494.05	1068.88
494.268	1082.88
494.485	1066.88
494.703	1095.88
494.92	1089.88
495.138	1073.88
495.355	1108.88
495.573	1098.88
495.79	1106.88
496.008	1110.88
496.225	1105.88
496.442	1097.88
496.66	1125.88
496.877	1142.88
497.094	1177.88
497.312	1203.88
497.529	1185.88
497.746	1209.88
497.963	1233.88
498.181	1281.88
498.398	1375.88
498.615	1449.88
498.832	1572.88
499.049	1658.88
499.267	1739.88
499.484	1932.88
499.701	2107.88
499.918	2361.88
500.135	2658.88
500.352	3036.88
500.569	3202.88
500.786	3175.88
501.003	2873.88
501.22	2578.88
501.437	2295.88
501.654	2005.88
501.871	1832.88
502.088	1727.88
502.305	1596.88
502.522	1550.88
502.739	1476.88
502.956	1384.88
503.172	1338.88
503.389	1256.88
503.606	1254.88
503.823	1217.88
504.04	1209.88
504.256	1234.88
504.473	1207.88
504.69	1284.88
504.907	1263.88
505.123	1178.88
505.34	1147.88
505.557	1045.88
505.773	1034.88
505.99	1035.88
506.207	1002.88
506.423	989.88
506.64	957.88
506.856	993.88
507.073	979.88
507.289	951.88
507.506	952.88
507.722	907.88
507.939	937.88
508.155	914.88
508.372	896.88
508.588	897.88
508.805	893.88
509.021	890.88
509.238	884.88
509.454	884.88
509.67	882.88
509.887	880.88
510.103	862.88
510.319	888.88
510.536	883.88
510.752	854.88
510.968	853.88
511.184	854.88
511.401	853.88
511.617	843.88
511.833	875.88
512.049	852.88
512.265	837.88
512.481	861.88
512.698	852.88
512.914	879.88
513.13	876.88
513.346	847.88
513.562	850.88
513.778	859.88
513.994	860.88
514.21	864.88
514.426	892.88
514.642	869.88
514.858	893.88
515.074	865.88
515.29	876.88
515.506	894.88
515.721	921.88
515.937	943.88
516.153	938.88
516.369	929.88
516.585	985.88
516.801	1023.88
517.016	1056.88
517.232	1110.88
517.448	1148.88
517.664	1197.88
517.879	1191.88
518.095	1196.88
518.311	1152.88
518.527	1122.88
518.742	1045.88
518.958	1011.88
519.173	1003.88
519.389	963.88
519.605	925.88
519.82	903.88
520.036	928.88
520.251	886.88
520.467	873.88
520.682	858.88
520.898	861.88
521.113	841.88
521.329	856.88
521.544	832.88
521.76	830.88
521.975	841.88
522.19	826.88
522.406	817.88
522.621	779.88
522.836	793.88
523.052	817.88
523.267	818.88
523.482	817.88
523.698	810.88
523.913	791.88
524.128	758.88
524.343	797.88
524.559	783.88
524.774	785.88
524.989	795.88
525.204	784.88
525.419	784.88
525.634	769.88
525.849	783.88
526.064	777.88
526.28	774.88
526.495	743.88
526.71	759.88
526.925	788.88
527.14	795.88
527.355	742.88
527.57	745.88
527.785	745.88
527.999	743.88
528.214	767.88
528.429	777.88
528.644	804.88
528.859	760.88
529.074	778.88
529.289	767.88
529.503	765.88
529.718	756.88
529.933	747.88
530.148	756.88
530.363	775.88
530.577	757.88
530.792	743.88
531.007	752.88
531.221	770.88
531.436	772.88
531.651	727.88
531.865	759.88
532.08	757.88
532.295	785.88
532.509	746.88
532.724	751.88
532.938	765.88
533.153	755.88
533.367	744.88
533.582	750.88
533.796	773.88
534.011	769.88
534.225	740.88
534.44	730.88
534.654	733.88
534.868	730.88
535.083	760.88
535.297	716.88
535.511	719.88
535.726	752.88
535.94	728.88
536.154	704.88
536.369	701.88
536.583	717.88
536.797	721.88
537.011	698.88
537.225	676.88
537.44	704.88
537.654	709.88
537.868	699.88
538.082	694.88
538.296	698.88
538.51	680.88
538.724	711.88
538.938	689.88
539.153	699.88
539.367	673.88
539.581	673.88
539.795	673.88
540.009	684.88
540.222	684.88
540.436	695.88
540.65	691.88
540.864	685.88
541.078	699.88
541.292	695.88
541.506	676.88
541.72	677.88
541.934	671.88
542.147	703.88
542.361	696.88
542.575	705.88
542.789	683.88
543.002	683.88
543.216	679.88
543.43	670.88
543.644	667.88
543.857	685.88
544.071	685.88
544.285	675.88
544.498	683.88
544.712	693.88
544.925	705.88
545.139	687.88
545.352	691.88
545.566	701.88
545.779	728.88
545.993	723.88
546.206	706.88
546.42	693.88
546.633	692.88
546.847	691.88
547.06	697.88
547.274	683.88
547.487	704.88
547.7	696.88
547.914	721.88
548.127	719.88
548.34	713.88
548.554	703.88
548.767	692.88
548.98	707.88
549.193	711.88
549.407	710.88
549.62	732.88
549.833	713.88
550.046	728.88
550.259	722.88
550.473	714.88
550.686	699.88
550.899	676.88
551.112	674.88
551.325	707.88
551.538	691.88
551.751	678.88
551.964	669.88
552.177	689.88
552.39	699.88
552.603	716.88
552.816	705.88
553.029	756.88
553.242	780.88
553.455	738.88
553.667	783.88
553.88	744.88
554.093	722.88
554.306	729.88
554.519	711.88
554.732	691.88
554.944	691.88
555.157	660.88
555.37	663.88
555.583	640.88
555.795	652.88
556.008	638.88
556.221	620.88
556.433	611.88
556.646	619.88
556.859	632.88
557.071	627.88
557.284	610.88
557.496	590.88
557.709	599.88
557.921	604.88
558.134	595.88
558.346	595.88
558.559	588.88
558.771	603.88
558.984	575.88
559.196	584.88
559.409	575.88
559.621	558.88
559.833	595.88
560.046	585.88
560.258	576.88
560.47	573.88
560.683	575.88
560.895	570.88
561.107	577.88
561.32	599.88
561.532	572.88
561.744	588.88
561.956	561.88
562.168	577.88
562.381	561.88
562.593	572.88
562.805	601.88
563.017	580.88
563.229	580.88
563.441	588.88
563.653	589.88
563.865	601.88
564.077	600.88
564.289	607.88
564.501	609.88
564.713	600.88
564.925	627.88
565.137	619.88
565.349	612.88
565.561	641.88
565.773	680.88
565.985	658.88
566.197	732.88
566.408	784.88
566.62	857.88
566.832	902.88
567.044	923.88
567.255	922.88
567.467	933.88
567.679	1008.88
567.891	1066.88
568.102	1134.88
568.314	1057.88
568.526	967.88
568.737	855.88
568.949	785.88
569.161	705.88
569.372	677.88
569.584	639.88
569.795	637.88
570.007	608.88
570.218	594.88
570.43	597.88
570.641	597.88
570.853	576.88
571.064	572.88
571.276	597.88
571.487	574.88
571.698	557.88
571.91	522.88
572.121	512.88
572.333	512.88
572.544	516.88
572.755	487.88
572.966	487.88
573.178	509.88
573.389	490.88
573.6	484.88
573.811	474.88
574.023	475.88
574.234	480.88
574.445	481.88
574.656	478.88
574.867	466.88
575.078	456.88
575.289	468.88
575.501	454.88
575.712	454.88
575.923	441.88
576.134	447.88
576.345	444.88
576.556	447.88
576.767	441.88
576.978	461.88
577.188	445.88
577.399	420.88
577.61	434.88
577.821	418.88
578.032	427.88
578.243	435.88
578.454	427.88
578.665	428.88
578.875	420.88
579.086	428.88
579.297	421.88
579.508	411.88
579.718	389.88
579.929	411.88
580.14	432.88
580.35	417.88
580.561	399.88
580.772	401.88
580.982	403.88
581.193	385.88
581.403	404.88
581.614	399.88
581.825	405.88
582.035	388.88
582.246	403.88
582.456	405.88
582.667	408.88
582.877	412.88
583.087	405.88
583.298	407.88
583.508	394.88
583.719	384.88
583.929	374.88
584.139	395.88
584.35	387.88
584.56	381.88
584.77	400.88
584.981	367.88
585.191	387.88
585.401	385.88
585.611	396.88
585.821	368.88
586.032	389.88
586.242	385.88
586.452	367.88
586.662	374.88
586.872	361.88
587.082	383.88
587.292	373.88
587.502	369.88
587.713	369.88
587.923	360.88
588.133	361.88
588.343	373.88
588.553	373.88
588.762	376.88
588.972	383.88
589.182	425.88
589.392	409.88
589.602	392.88
589.812	427.88
590.022	387.88
590.232	376.88
590.441	380.88
590.651	376.88
590.861	380.88
591.071	373.88
591.281	410.88
591.49	399.88
591.7	387.88
591.91	401.88
592.119	415.88
592.329	417.88
592.539	418.88
592.748	431.88
592.958	448.88
593.167	459.88
593.377	478.88
593.587	480.88
593.796	496.88
594.006	473.88
594.215	476.88
594.424	488.88
594.634	477.88
594.843	450.88
595.053	439.88
595.262	417.88
595.472	424.88
595.681	401.88
595.89	391.88
596.1	367.88
596.309	383.88
596.518	377.88
596.727	351.88
596.937	351.88
597.146	355.88
597.355	341.88
597.564	339.88
597.774	328.88
597.983	319.88
598.192	338.88
598.401	348.88
598.61	326.88
598.819	332.88
599.028	322.88
599.237	311.88
599.446	322.88
599.655	330.88
599.864	319.88
600.073	317.88
600.282	303.88
600.491	323.88
600.7	308.88
600.909	295.88
601.118	303.88
601.327	294.88
601.536	300.88
601.745	319.88
601.953	311.88
602.162	308.88
602.371	302.88
602.58	295.88
602.789	305.88
602.997	306.88
603.206	311.88
603.415	291.88
603.623	296.88
603.832	282.88
604.041	303.88
604.249	295.88
604.458	298.88
604.666	271.88
604.875	300.88
605.084	287.88
605.292	289.88
605.501	300.88
605.709	291.88
605.918	311.88
606.126	303.88
606.334	287.88
606.543	262.88
606.751	278.88
606.96	274.88
607.168	289.88
607.376	292.88
607.585	299.88
607.793	299.88
608.001	295.88
608.21	284.88
608.418	275.88
608.626	289.88
608.834	297.88
609.043	289.88
609.251	280.88
609.459	289.88
609.667	275.88
609.875	267.88
610.083	290.88
610.291	283.88
610.499	281.88
610.707	282.88
610.916	261.88
611.124	282.88
611.332	269.88
611.54	276.88
611.748	284.88
611.955	299.88
612.163	279.88
612.371	265.88
612.579	276.88
612.787	274.88
612.995	273.88
613.203	274.88
613.411	265.88
613.618	287.88
613.826	270.88
614.034	273.88
614.242	276.88
614.449	268.88
614.657	260.88
614.865	262.88
615.072	287.88
615.28	267.88
615.488	254.88
615.695	247.88
615.903	282.88
616.111	271.88
616.318	277.88
616.526	265.88
616.733	281.88
616.941	260.88
617.148	276.88
617.356	263.88
617.563	257.88
617.771	282.88
617.978	255.88
618.185	278.88
618.393	259.88
618.6	263.88
618.807	280.88
619.015	265.88
619.222	255.88
619.429	284.88
619.637	282.88
619.844	250.88
620.051	267.88
620.258	260.88
620.466	252.88
620.673	270.88
620.88	244.88
621.087	249.88
621.294	254.88
621.501	261.88
621.708	247.88
621.915	245.88
622.122	257.88
622.329	259.88
622.536	266.88
622.743	245.88
622.95	231.88
623.157	239.88
623.364	247.88
623.571	252.88
623.778	248.88
623.985	244.88
624.192	241.88
624.399	247.88
624.606	244.88
624.812	234.88
625.019	255.88
625.226	255.88
625.433	245.88
625.639	251.88
625.846	241.88
626.053	230.88
626.259	234.88
626.466	220.88
626.673	246.88
626.879	228.88
627.086	226.88
627.293	222.88
627.499	227.88
627.706	227.88
627.912	229.88
628.119	230.88
628.325	230.88
628.532	224.88
628.738	240.88
628.945	225.88
629.151	224.88
629.357	232.88
629.564	226.88
629.77	226.88
629.976	224.88
630.183	230.88
630.389	207.88
630.595	209.88
630.802	211.88
631.008	217.88
631.214	228.88
631.42	223.88
631.627	216.88
631.833	209.88
632.039	211.88
632.245	207.88
632.451	216.88
632.657	216.88
632.863	215.88
633.069	208.88
633.275	213.88
633.481	209.88
633.688	200.88
633.893	207.88
634.099	202.88
634.305	201.88
634.511	213.88
634.717	199.88
634.923	195.88
635.129	203.88
635.335	205.88
635.541	190.88
635.747	215.88
635.952	200.88
636.158	204.88
636.364	211.88
636.57	206.88
636.775	197.88
636.981	201.88
637.187	195.88
637.392	188.88
637.598	185.88
637.804	195.88
638.009	212.88
638.215	197.88
638.421	179.88
638.626	180.88
638.832	191.88
639.037	196.88
639.243	195.88
639.448	201.88
639.654	181.88
639.859	167.88
640.065	186.88
640.27	203.88
640.475	170.88
640.681	194.88
640.886	173.88
641.091	197.88
641.297	194.88
641.502	182.88
641.707	180.88
641.913	192.88
642.118	192.88
642.323	177.88
642.528	195.88
642.733	186.88
642.939	181.88
643.144	192.88
643.349	183.88
643.554	194.88
643.759	173.88
643.964	180.88
644.169	178.88
644.374	185.88
644.579	192.88
644.784	175.88
644.989	187.88
645.194	186.88
645.399	187.88
645.604	187.88
645.809	177.88
646.014	172.88
646.219	186.88
646.423	185.88
646.628	160.88
646.833	179.88
647.038	188.88
647.243	182.88
647.447	168.88
647.652	172.88
647.857	176.88
648.062	188.88
648.266	202.88
648.471	183.88
648.676	197.88
648.88	205.88
649.085	209.88
649.289	198.88
649.494	177.88
649.698	168.88
649.903	180.88
650.107	178.88
650.312	156.88
650.516	163.88
650.721	169.88
650.925	162.88
651.13	160.88
651.334	171.88
651.539	162.88
651.743	152.88
651.947	167.88
652.152	154.88
652.356	163.88
652.56	152.88
652.764	159.88
652.969	170.88
653.173	155.88
653.377	154.88
653.581	155.88
653.785	163.88
653.99	147.88
654.194	147.88
654.398	147.88
654.602	140.88
654.806	145.88
655.01	156.88
655.214	144.88
655.418	151.88
655.622	161.88
655.826	134.88
656.03	141.88
656.234	156.88
656.438	140.88
656.642	144.88
656.846	142.88
657.049	140.88
657.253	135.88
657.457	127.88
657.661	129.88
657.865	120.88
658.068	136.88
658.272	122.88
658.476	114.88
658.68	106.88
658.883	93.88
659.087	113.88
659.291	114.88
659.494	120.88
659.698	102.88
659.901	108.88
660.105	102.88
660.309	104.88
660.512	102.88
660.716	99.88
660.919	104.88
661.123	108.88
661.326	101.88
661.53	82.88
661.733	71.88
661.936	91.88
662.14	83.88
662.343	83.88
662.546	91.88
662.75	92.88
662.953	90.88
663.156	82.88
663.36	78.88
663.563	89.88
663.766	76.88
663.969	90.88
664.173	88.88
664.376	76.88
664.579	68.88
664.782	77.88
664.985	75.88
665.188	83.88
665.391	60.88
665.594	68.88
665.797	69.88
666	105.88
666.203	93.88
666.406	76.88
666.609	94.88
666.812	89.88
667.015	75.88
667.218	83.88
667.421	79.88
667.624	86.88
667.827	72.88
668.03	91.88
668.232	80.88
668.435	84.88
668.638	80.88
668.841	73.88
669.043	83.88
669.246	78.88
669.449	91.88
669.651	86.88
669.854	92.88
670.057	91.88
670.259	71.88
670.462	84.88
670.665	77.88
670.867	78.88
671.07	87.88
671.272	92.88
671.475	88.88
671.677	95.88
671.88	80.88
672.082	83.88
672.284	60.88
672.487	71.88
672.689	92.88
672.892	84.88
