Data from NiCl2@0.25M.TitratingCurve.Agarose3%dH2O.NegLispCup.LampEnergy10.LIBS07252019_HRD10591_18-25-19-573.txt Node
Date: Thu Jul 25 18:25:19 EDT 2019
User: cochatt
Spectrometer: HR+D1059
Trigger mode: 1
Integration Time (sec): 1.000000E-1
Scans to average: 1
Electric dark correction enabled: true
Nonlinearity correction enabled: false
Boxcar width: 0
XAxis mode: Wavelengths
Number of Pixels in Spectrum: 2048
>>>>>Begin Spectral Data<<<<<
223.165	-15.31
223.4	-15.31
223.635	-15.31
223.869	-7.31
224.104	-20.31
224.338	-11.31
224.573	-12.31
224.808	-11.31
225.042	-25.31
225.277	-3.31
225.511	-17.31
225.746	5.69
225.98	16.69
226.215	13.69
226.449	8.69
226.683	27.69
226.918	25.69
227.152	25.69
227.387	29.69
227.621	38.69
227.856	35.69
228.09	39.69
228.324	42.69
228.559	46.69
228.793	77.69
229.027	138.69
229.262	126.69
229.496	141.69
229.73	132.69
229.964	134.69
230.199	151.69
230.433	154.69
230.667	141.69
230.901	136.69
231.136	158.69
231.37	157.69
231.604	147.69
231.838	170.69
232.072	162.69
232.306	179.69
232.541	174.69
232.775	165.69
233.009	162.69
233.243	157.69
233.477	184.69
233.711	176.69
233.945	186.69
234.179	163.69
234.413	183.69
234.647	186.69
234.881	188.69
235.115	166.69
235.349	184.69
235.583	169.69
235.817	180.69
236.051	200.69
236.285	180.69
236.519	191.69
236.753	187.69
236.987	184.69
237.221	196.69
237.455	203.69
237.689	202.69
237.922	189.69
238.156	200.69
238.39	200.69
238.624	195.69
238.858	203.69
239.091	212.69
239.325	212.69
239.559	209.69
239.793	221.69
240.027	222.69
240.26	204.69
240.494	217.69
240.728	224.69
240.961	240.69
241.195	230.69
241.429	227.69
241.662	229.69
241.896	246.69
242.13	242.69
242.363	241.69
242.597	221.69
242.83	225.69
243.064	238.69
243.298	243.69
243.531	254.69
243.765	290.69
243.998	273.69
244.232	249.69
244.465	264.69
244.699	263.69
244.932	284.69
245.166	267.69
245.399	279.69
245.633	283.69
245.866	285.69
246.099	281.69
246.333	275.69
246.566	279.69
246.8	282.69
247.033	276.69
247.266	286.69
247.5	281.69
247.733	296.69
247.966	297.69
248.2	282.69
248.433	307.69
248.666	308.69
248.899	309.69
249.133	319.69
249.366	309.69
249.599	309.69
249.832	300.69
250.066	314.69
250.299	317.69
250.532	317.69
250.765	321.69
250.998	325.69
251.231	322.69
251.465	335.69
251.698	333.69
251.931	336.69
252.164	353.69
252.397	337.69
252.63	349.69
252.863	338.69
253.096	346.69
253.329	342.69
253.562	343.69
253.795	352.69
254.028	348.69
254.261	347.69
254.494	352.69
254.727	357.69
254.96	357.69
255.193	372.69
255.426	356.69
255.659	352.69
255.892	361.69
256.124	360.69
256.357	374.69
256.59	354.69
256.823	367.69
257.056	364.69
257.289	371.69
257.521	366.69
257.754	378.69
257.987	390.69
258.22	382.69
258.452	376.69
258.685	394.69
258.918	395.69
259.151	385.69
259.383	401.69
259.616	395.69
259.849	399.69
260.081	387.69
260.314	388.69
260.547	395.69
260.779	407.69
261.012	419.69
261.244	424.69
261.477	400.69
261.71	409.69
261.942	424.69
262.175	432.69
262.407	436.69
262.64	412.69
262.872	410.69
263.105	434.69
263.337	417.69
263.57	434.69
263.802	437.69
264.035	439.69
264.267	449.69
264.499	430.69
264.732	462.69
264.964	434.69
265.197	425.69
265.429	436.69
265.661	452.69
265.894	429.69
266.126	447.69
266.358	456.69
266.591	459.69
266.823	448.69
267.055	451.69
267.287	450.69
267.52	476.69
267.752	474.69
267.984	467.69
268.216	486.69
268.448	485.69
268.681	466.69
268.913	458.69
269.145	466.69
269.377	453.69
269.609	473.69
269.841	483.69
270.073	472.69
270.306	474.69
270.538	485.69
270.77	473.69
271.002	476.69
271.234	484.69
271.466	512.69
271.698	480.69
271.93	491.69
272.162	512.69
272.394	487.69
272.626	488.69
272.858	514.69
273.09	512.69
273.322	499.69
273.553	516.69
273.785	512.69
274.017	491.69
274.249	502.69
274.481	522.69
274.713	524.69
274.945	506.69
275.176	540.69
275.408	517.69
275.64	506.69
275.872	541.69
276.104	547.69
276.335	538.69
276.567	536.69
276.799	569.69
277.031	545.69
277.262	550.69
277.494	551.69
277.726	549.69
277.957	534.69
278.189	574.69
278.421	554.69
278.652	573.69
278.884	568.69
279.115	569.69
279.347	560.69
279.579	581.69
279.81	605.69
280.042	570.69
280.273	574.69
280.505	573.69
280.736	589.69
280.968	579.69
281.199	599.69
281.431	591.69
281.662	591.69
281.894	596.69
282.125	608.69
282.356	626.69
282.588	616.69
282.819	613.69
283.051	579.69
283.282	611.69
283.513	613.69
283.745	630.69
283.976	612.69
284.207	612.69
284.439	638.69
284.67	611.69
284.901	611.69
285.132	610.69
285.364	629.69
285.595	630.69
285.826	649.69
286.057	624.69
286.288	654.69
286.52	616.69
286.751	656.69
286.982	655.69
287.213	642.69
287.444	636.69
287.675	641.69
287.906	659.69
288.138	660.69
288.369	638.69
288.6	655.69
288.831	667.69
289.062	674.69
289.293	674.69
289.524	668.69
289.755	665.69
289.986	694.69
290.217	676.69
290.448	700.69
290.679	666.69
290.91	670.69
291.141	696.69
291.371	698.69
291.602	694.69
291.833	696.69
292.064	660.69
292.295	666.69
292.526	674.69
292.757	667.69
292.987	682.69
293.218	656.69
293.449	672.69
293.68	659.69
293.91	677.69
294.141	685.69
294.372	673.69
294.603	686.69
294.833	702.69
295.064	703.69
295.295	691.69
295.525	700.69
295.756	691.69
295.987	690.69
296.217	729.69
296.448	718.69
296.679	720.69
296.909	717.69
297.14	694.69
297.37	711.69
297.601	716.69
297.831	732.69
298.062	716.69
298.292	732.69
298.523	764.69
298.753	746.69
298.984	763.69
299.214	733.69
299.445	722.69
299.675	744.69
299.905	734.69
300.136	741.69
300.366	760.69
300.597	749.69
300.827	746.69
301.057	774.69
301.288	782.69
301.518	787.69
301.748	782.69
301.979	792.69
302.209	818.69
302.439	787.69
302.669	772.69
302.9	769.69
303.13	778.69
303.36	791.69
303.59	763.69
303.82	772.69
304.051	763.69
304.281	804.69
304.511	771.69
304.741	773.69
304.971	801.69
305.201	792.69
305.431	791.69
305.661	754.69
305.891	775.69
306.121	762.69
306.352	752.69
306.582	771.69
306.812	756.69
307.042	791.69
307.272	742.69
307.502	756.69
307.731	754.69
307.961	756.69
308.191	769.69
308.421	756.69
308.651	738.69
308.881	750.69
309.111	742.69
309.341	736.69
309.571	728.69
309.8	754.69
310.03	758.69
310.26	758.69
310.49	780.69
310.72	775.69
310.949	753.69
311.179	756.69
311.409	786.69
311.639	776.69
311.868	764.69
312.098	780.69
312.328	785.69
312.557	790.69
312.787	789.69
313.017	795.69
313.246	798.69
313.476	761.69
313.706	797.69
313.935	814.69
314.165	788.69
314.394	832.69
314.624	829.69
314.853	832.69
315.083	831.69
315.312	802.69
315.542	820.69
315.771	822.69
316.001	788.69
316.23	799.69
316.46	796.69
316.689	792.69
316.919	795.69
317.148	801.69
317.377	800.69
317.607	803.69
317.836	779.69
318.065	757.69
318.295	800.69
318.524	801.69
318.753	794.69
318.983	787.69
319.212	798.69
319.441	787.69
319.67	791.69
319.9	791.69
320.129	800.69
320.358	784.69
320.587	801.69
320.816	791.69
321.046	787.69
321.275	808.69
321.504	790.69
321.733	794.69
321.962	809.69
322.191	803.69
322.42	790.69
322.649	800.69
322.878	822.69
323.108	810.69
323.337	814.69
323.566	810.69
323.795	834.69
324.024	812.69
324.253	809.69
324.482	809.69
324.71	821.69
324.939	840.69
325.168	820.69
325.397	839.69
325.626	844.69
325.855	850.69
326.084	843.69
326.313	872.69
326.542	874.69
326.77	888.69
326.999	850.69
327.228	866.69
327.457	874.69
327.686	873.69
327.914	840.69
328.143	855.69
328.372	845.69
328.6	858.69
328.829	856.69
329.058	893.69
329.287	881.69
329.515	885.69
329.744	875.69
329.972	868.69
330.201	877.69
330.43	902.69
330.658	893.69
330.887	920.69
331.115	914.69
331.344	959.69
331.572	939.69
331.801	945.69
332.03	948.69
332.258	982.69
332.486	1009.69
332.715	1028.69
332.943	1058.69
333.172	1124.69
333.4	1136.69
333.629	1152.69
333.857	1195.69
334.085	1185.69
334.314	1179.69
334.542	1158.69
334.771	1164.69
334.999	1131.69
335.227	1120.69
335.455	1125.69
335.684	1112.69
335.912	1067.69
336.14	1113.69
336.369	1077.69
336.597	1065.69
336.825	1053.69
337.053	1041.69
337.281	1047.69
337.51	1016.69
337.738	1015.69
337.966	969.69
338.194	975.69
338.422	960.69
338.65	968.69
338.878	957.69
339.106	968.69
339.334	961.69
339.562	932.69
339.79	922.69
340.018	897.69
340.246	904.69
340.474	939.69
340.702	891.69
340.93	924.69
341.158	921.69
341.386	925.69
341.614	946.69
341.842	899.69
342.07	904.69
342.298	906.69
342.526	883.69
342.754	892.69
342.981	920.69
343.209	934.69
343.437	972.69
343.665	1027.69
343.893	1072.69
344.12	1150.69
344.348	1095.69
344.576	1039.69
344.804	997.69
345.031	947.69
345.259	967.69
345.487	914.69
345.714	914.69
345.942	900.69
346.17	890.69
346.397	881.69
346.625	887.69
346.853	898.69
347.08	888.69
347.308	883.69
347.535	870.69
347.763	890.69
347.99	886.69
348.218	886.69
348.445	869.69
348.673	859.69
348.9	861.69
349.128	870.69
349.355	874.69
349.583	862.69
349.81	844.69
350.037	872.69
350.265	846.69
350.492	849.69
350.72	845.69
350.947	859.69
351.174	847.69
351.402	836.69
351.629	869.69
351.856	847.69
352.083	840.69
352.311	837.69
352.538	853.69
352.765	893.69
352.992	824.69
353.22	822.69
353.447	808.69
353.674	827.69
353.901	830.69
354.128	860.69
354.355	799.69
354.583	856.69
354.81	824.69
355.037	841.69
355.264	839.69
355.491	834.69
355.718	836.69
355.945	858.69
356.172	877.69
356.399	883.69
356.626	833.69
356.853	859.69
357.08	838.69
357.307	856.69
357.534	842.69
357.761	837.69
357.988	863.69
358.215	853.69
358.441	828.69
358.668	839.69
358.895	850.69
359.122	831.69
359.349	820.69
359.576	858.69
359.802	841.69
360.029	870.69
360.256	855.69
360.483	868.69
360.709	858.69
360.936	862.69
361.163	848.69
361.39	853.69
361.616	856.69
361.843	858.69
362.07	838.69
362.296	845.69
362.523	848.69
362.749	842.69
362.976	820.69
363.203	832.69
363.429	825.69
363.656	842.69
363.882	829.69
364.109	824.69
364.335	825.69
364.562	836.69
364.788	822.69
365.015	834.69
365.241	837.69
365.468	829.69
365.694	829.69
365.92	829.69
366.147	827.69
366.373	852.69
366.599	837.69
366.826	819.69
367.052	836.69
367.278	825.69
367.505	822.69
367.731	825.69
367.957	851.69
368.184	837.69
368.41	836.69
368.636	844.69
368.862	858.69
369.089	857.69
369.315	876.69
369.541	880.69
369.767	869.69
369.993	882.69
370.219	863.69
370.445	897.69
370.672	889.69
370.898	917.69
371.124	926.69
371.35	885.69
371.576	904.69
371.802	924.69
372.028	902.69
372.254	922.69
372.48	916.69
372.706	950.69
372.932	951.69
373.158	939.69
373.384	961.69
373.61	935.69
373.835	920.69
374.061	908.69
374.287	938.69
374.513	929.69
374.739	966.69
374.965	1022.69
375.191	1044.69
375.416	1020.69
375.642	989.69
375.868	960.69
376.094	952.69
376.319	965.69
376.545	950.69
376.771	917.69
376.997	940.69
377.222	916.69
377.448	917.69
377.674	953.69
377.899	948.69
378.125	916.69
378.35	914.69
378.576	901.69
378.802	902.69
379.027	922.69
379.253	923.69
379.478	896.69
379.704	915.69
379.929	913.69
380.155	893.69
380.38	895.69
380.606	890.69
380.831	886.69
381.057	915.69
381.282	890.69
381.507	932.69
381.733	907.69
381.958	939.69
382.184	944.69
382.409	932.69
382.634	960.69
382.86	962.69
383.085	965.69
383.31	988.69
383.535	980.69
383.761	1005.69
383.986	1002.69
384.211	1015.69
384.436	1048.69
384.662	1051.69
384.887	1058.69
385.112	1087.69
385.337	1096.69
385.562	1109.69
385.787	1115.69
386.013	1156.69
386.238	1112.69
386.463	1114.69
386.688	1133.69
386.913	1108.69
387.138	1072.69
387.363	1104.69
387.588	1109.69
387.813	1065.69
388.038	1100.69
388.263	1096.69
388.488	1090.69
388.713	1107.69
388.938	1070.69
389.163	1065.69
389.387	1088.69
389.612	1073.69
389.837	1071.69
390.062	1067.69
390.287	1056.69
390.512	1074.69
390.736	1046.69
390.961	1144.69
391.186	1145.69
391.411	1155.69
391.636	1235.69
391.86	1253.69
392.085	1263.69
392.31	1259.69
392.534	1208.69
392.759	1210.69
392.984	1190.69
393.208	1195.69
393.433	1178.69
393.658	1163.69
393.882	1184.69
394.107	1190.69
394.331	1216.69
394.556	1158.69
394.78	1206.69
395.005	1177.69
395.229	1193.69
395.454	1250.69
395.678	1252.69
395.903	1248.69
396.127	1252.69
396.352	1210.69
396.576	1224.69
396.801	1187.69
397.025	1250.69
397.249	1218.69
397.474	1289.69
397.698	1245.69
397.922	1278.69
398.147	1270.69
398.371	1289.69
398.595	1345.69
398.82	1396.69
399.044	1504.69
399.268	1626.69
399.492	1895.69
399.717	2066.69
399.941	2110.69
400.165	1952.69
400.389	1782.69
400.613	1609.69
400.837	1508.69
401.062	1468.69
401.286	1429.69
401.51	1440.69
401.734	1443.69
401.958	1414.69
402.182	1430.69
402.406	1433.69
402.63	1482.69
402.854	1480.69
403.078	1534.69
403.302	1530.69
403.526	1590.69
403.75	1591.69
403.974	1609.69
404.198	1578.69
404.422	1635.69
404.645	1593.69
404.869	1600.69
405.093	1589.69
405.317	1536.69
405.541	1580.69
405.765	1564.69
405.988	1549.69
406.212	1579.69
406.436	1556.69
406.66	1623.69
406.883	1611.69
407.107	1724.69
407.331	1808.69
407.555	1846.69
407.778	1859.69
408.002	1793.69
408.226	1743.69
408.449	1682.69
408.673	1642.69
408.896	1594.69
409.12	1598.69
409.344	1608.69
409.567	1592.69
409.791	1602.69
410.014	1644.69
410.238	1551.69
410.461	1564.69
410.685	1513.69
410.908	1536.69
411.132	1504.69
411.355	1467.69
411.578	1469.69
411.802	1452.69
412.025	1482.69
412.249	1481.69
412.472	1510.69
412.695	1445.69
412.919	1406.69
413.142	1454.69
413.365	1410.69
413.589	1402.69
413.812	1358.69
414.035	1388.69
414.258	1390.69
414.482	1401.69
414.705	1426.69
414.928	1411.69
415.151	1445.69
415.374	1375.69
415.597	1369.69
415.821	1390.69
416.044	1364.69
416.267	1355.69
416.49	1336.69
416.713	1347.69
416.936	1356.69
417.159	1350.69
417.382	1355.69
417.605	1338.69
417.828	1372.69
418.051	1379.69
418.274	1348.69
418.497	1405.69
418.72	1444.69
418.943	1410.69
419.166	1501.69
419.389	1601.69
419.611	1562.69
419.834	1498.69
420.057	1469.69
420.28	1413.69
420.503	1419.69
420.726	1376.69
420.948	1356.69
421.171	1372.69
421.394	1376.69
421.617	1408.69
421.839	1357.69
422.062	1390.69
422.285	1349.69
422.507	1398.69
422.73	1396.69
422.953	1398.69
423.175	1437.69
423.398	1465.69
423.621	1416.69
423.843	1482.69
424.066	1410.69
424.288	1413.69
424.511	1441.69
424.733	1422.69
424.956	1378.69
425.178	1353.69
425.401	1412.69
425.623	1356.69
425.846	1327.69
426.068	1333.69
426.291	1350.69
426.513	1272.69
426.735	1298.69
426.958	1280.69
427.18	1219.69
427.402	1245.69
427.625	1291.69
427.847	1235.69
428.069	1254.69
428.292	1300.69
428.514	1200.69
428.736	1232.69
428.958	1261.69
429.181	1218.69
429.403	1193.69
429.625	1204.69
429.847	1163.69
430.069	1174.69
430.292	1180.69
430.514	1171.69
430.736	1185.69
430.958	1185.69
431.18	1205.69
431.402	1224.69
431.624	1187.69
431.846	1207.69
432.068	1222.69
432.29	1230.69
432.512	1242.69
432.734	1249.69
432.956	1226.69
433.178	1223.69
433.4	1207.69
433.622	1235.69
433.844	1229.69
434.066	1224.69
434.287	1253.69
434.509	1292.69
434.731	1324.69
434.953	1385.69
435.175	1379.69
435.397	1358.69
435.618	1290.69
435.84	1261.69
436.062	1241.69
436.284	1209.69
436.505	1228.69
436.727	1227.69
436.949	1212.69
437.17	1200.69
437.392	1165.69
437.614	1173.69
437.835	1121.69
438.057	1136.69
438.278	1187.69
438.5	1127.69
438.721	1148.69
438.943	1174.69
439.165	1155.69
439.386	1176.69
439.608	1208.69
439.829	1202.69
440.05	1224.69
440.272	1256.69
440.493	1217.69
440.715	1237.69
440.936	1252.69
441.158	1278.69
441.379	1324.69
441.6	1341.69
441.822	1358.69
442.043	1400.69
442.264	1350.69
442.486	1340.69
442.707	1342.69
442.928	1313.69
443.149	1334.69
443.371	1330.69
443.592	1337.69
443.813	1340.69
444.034	1384.69
444.255	1381.69
444.476	1504.69
444.698	1618.69
444.919	1596.69
445.14	1669.69
445.361	1547.69
445.582	1435.69
445.803	1326.69
446.024	1282.69
446.245	1300.69
446.466	1262.69
446.687	1225.69
446.908	1258.69
447.129	1198.69
447.35	1187.69
447.571	1153.69
447.792	1162.69
448.013	1141.69
448.234	1127.69
448.455	1106.69
448.675	1122.69
448.896	1139.69
449.117	1098.69
449.338	1081.69
449.559	1082.69
449.779	1087.69
450	1082.69
450.221	1110.69
450.442	1112.69
450.662	1087.69
450.883	1108.69
451.104	1121.69
451.324	1146.69
451.545	1146.69
451.766	1117.69
451.986	1145.69
452.207	1105.69
452.428	1129.69
452.648	1121.69
452.869	1072.69
453.089	1047.69
453.31	1089.69
453.53	1076.69
453.751	1081.69
453.971	1074.69
454.192	1056.69
454.412	1062.69
454.633	1039.69
454.853	1050.69
455.073	1052.69
455.294	1049.69
455.514	1043.69
455.734	1023.69
455.955	1031.69
456.175	1033.69
456.395	1033.69
456.616	1009.69
456.836	1052.69
457.056	1042.69
457.276	1002.69
457.497	1037.69
457.717	1048.69
457.937	1051.69
458.157	1043.69
458.377	1098.69
458.598	1105.69
458.818	1142.69
459.038	1181.69
459.258	1183.69
459.478	1237.69
459.698	1277.69
459.918	1281.69
460.138	1355.69
460.358	1387.69
460.578	1436.69
460.798	1434.69
461.018	1488.69
461.238	1468.69
461.458	1440.69
461.678	1408.69
461.898	1485.69
462.118	1464.69
462.338	1544.69
462.558	1577.69
462.777	1653.69
462.997	1722.69
463.217	1916.69
463.437	1896.69
463.657	1777.69
463.876	1730.69
464.096	1748.69
464.316	1705.69
464.536	1709.69
464.755	1658.69
464.975	1577.69
465.195	1504.69
465.414	1444.69
465.634	1344.69
465.854	1290.69
466.073	1230.69
466.293	1239.69
466.512	1212.69
466.732	1171.69
466.951	1175.69
467.171	1168.69
467.391	1164.69
467.61	1168.69
467.829	1129.69
468.049	1141.69
468.268	1128.69
468.488	1094.69
468.707	1089.69
468.927	1113.69
469.146	1120.69
469.365	1140.69
469.585	1123.69
469.804	1196.69
470.023	1196.69
470.243	1168.69
470.462	1195.69
470.681	1200.69
470.901	1186.69
471.12	1192.69
471.339	1184.69
471.558	1158.69
471.777	1129.69
471.997	1120.69
472.216	1148.69
472.435	1111.69
472.654	1116.69
472.873	1095.69
473.092	1098.69
473.311	1120.69
473.53	1096.69
473.749	1080.69
473.968	1104.69
474.187	1095.69
474.406	1079.69
474.625	1096.69
474.844	1119.69
475.063	1101.69
475.282	1089.69
475.501	1118.69
475.72	1113.69
475.939	1114.69
476.158	1124.69
476.377	1140.69
476.596	1128.69
476.814	1158.69
477.033	1131.69
477.252	1178.69
477.471	1206.69
477.69	1210.69
477.908	1233.69
478.127	1298.69
478.346	1316.69
478.564	1316.69
478.783	1359.69
479.002	1364.69
479.22	1340.69
479.439	1367.69
479.658	1353.69
479.876	1359.69
480.095	1404.69
480.313	1452.69
480.532	1462.69
480.751	1460.69
480.969	1456.69
481.188	1346.69
481.406	1328.69
481.624	1295.69
481.843	1284.69
482.061	1276.69
482.28	1253.69
482.498	1226.69
482.717	1252.69
482.935	1260.69
483.153	1234.69
483.372	1247.69
483.59	1203.69
483.808	1237.69
484.027	1242.69
484.245	1278.69
484.463	1270.69
484.681	1280.69
484.9	1278.69
485.118	1301.69
485.336	1315.69
485.554	1321.69
485.772	1288.69
485.99	1319.69
486.209	1330.69
486.427	1382.69
486.645	1299.69
486.863	1338.69
487.081	1293.69
487.299	1333.69
487.517	1296.69
487.735	1299.69
487.953	1299.69
488.171	1355.69
488.389	1325.69
488.607	1295.69
488.825	1274.69
489.043	1239.69
489.261	1282.69
489.479	1303.69
489.696	1300.69
489.914	1318.69
490.132	1307.69
490.35	1334.69
490.568	1340.69
490.786	1311.69
491.003	1331.69
491.221	1325.69
491.439	1325.69
491.657	1319.69
491.874	1319.69
492.092	1321.69
492.31	1337.69
492.527	1362.69
492.745	1360.69
492.963	1371.69
493.18	1381.69
493.398	1386.69
493.615	1374.69
493.833	1386.69
494.05	1381.69
494.268	1397.69
494.485	1416.69
494.703	1382.69
494.92	1400.69
495.138	1410.69
495.355	1412.69
495.573	1408.69
495.79	1446.69
496.008	1427.69
496.225	1456.69
496.442	1451.69
496.66	1433.69
496.877	1477.69
497.094	1527.69
497.312	1562.69
497.529	1573.69
497.746	1600.69
497.963	1669.69
498.181	1749.69
498.398	1830.69
498.615	1934.69
498.832	2072.69
499.049	2220.69
499.267	2432.69
499.484	2684.69
499.701	2964.69
499.918	3212.69
500.135	3636.69
500.352	4074.69
500.569	4213.69
500.786	4192.69
501.003	3952.69
501.22	3637.69
501.437	3264.69
501.654	2889.69
501.871	2611.69
502.088	2406.69
502.305	2231.69
502.522	2115.69
502.739	1993.69
502.956	1929.69
503.172	1827.69
503.389	1751.69
503.606	1691.69
503.823	1674.69
504.04	1648.69
504.256	1661.69
504.473	1651.69
504.69	1673.69
504.907	1638.69
505.123	1603.69
505.34	1503.69
505.557	1418.69
505.773	1378.69
505.99	1343.69
506.207	1292.69
506.423	1316.69
506.64	1308.69
506.856	1282.69
507.073	1266.69
507.289	1249.69
507.506	1219.69
507.722	1230.69
507.939	1190.69
508.155	1207.69
508.372	1227.69
508.588	1166.69
508.805	1178.69
509.021	1173.69
509.238	1165.69
509.454	1145.69
509.67	1163.69
509.887	1148.69
510.103	1169.69
510.319	1126.69
510.536	1156.69
510.752	1132.69
510.968	1119.69
511.184	1146.69
511.401	1130.69
511.617	1133.69
511.833	1101.69
512.049	1129.69
512.265	1087.69
512.481	1130.69
512.698	1112.69
512.914	1089.69
513.13	1110.69
513.346	1146.69
513.562	1136.69
513.778	1115.69
513.994	1146.69
514.21	1149.69
514.426	1164.69
514.642	1161.69
514.858	1098.69
515.074	1168.69
515.29	1165.69
515.506	1164.69
515.721	1200.69
515.937	1200.69
516.153	1242.69
516.369	1267.69
516.585	1310.69
516.801	1374.69
517.016	1426.69
517.232	1458.69
517.448	1549.69
517.664	1614.69
517.879	1591.69
518.095	1596.69
518.311	1556.69
518.527	1549.69
518.742	1411.69
518.958	1406.69
519.173	1341.69
519.389	1305.69
519.605	1261.69
519.82	1211.69
520.036	1226.69
520.251	1171.69
520.467	1150.69
520.682	1145.69
520.898	1138.69
521.113	1106.69
521.329	1112.69
521.544	1097.69
521.76	1097.69
521.975	1074.69
522.19	1062.69
522.406	1062.69
522.621	1066.69
522.836	1066.69
523.052	1028.69
523.267	1060.69
523.482	1040.69
523.698	1045.69
523.913	1022.69
524.128	1063.69
524.343	1038.69
524.559	1013.69
524.774	1042.69
524.989	1026.69
525.204	1004.69
525.419	984.69
525.634	993.69
525.849	1019.69
526.064	1000.69
526.28	1005.69
526.495	1011.69
526.71	1044.69
526.925	1004.69
527.14	988.69
527.355	1048.69
527.57	993.69
527.785	1032.69
527.999	986.69
528.214	997.69
528.429	1001.69
528.644	1005.69
528.859	1005.69
529.074	983.69
529.289	1017.69
529.503	988.69
529.718	1032.69
529.933	997.69
530.148	1008.69
530.363	994.69
530.577	974.69
530.792	989.69
531.007	984.69
531.221	994.69
531.436	1020.69
531.651	1011.69
531.865	986.69
532.08	1024.69
532.295	1035.69
532.509	998.69
532.724	979.69
532.938	1027.69
533.153	976.69
533.367	994.69
533.582	990.69
533.796	990.69
534.011	1015.69
534.225	981.69
534.44	965.69
534.654	974.69
534.868	968.69
535.083	972.69
535.297	976.69
535.511	953.69
535.726	970.69
535.94	949.69
536.154	943.69
536.369	944.69
536.583	933.69
536.797	935.69
537.011	921.69
537.225	915.69
537.44	950.69
537.654	924.69
537.868	888.69
538.082	907.69
538.296	878.69
538.51	900.69
538.724	934.69
538.938	883.69
539.153	884.69
539.367	935.69
539.581	939.69
539.795	899.69
540.009	896.69
540.222	861.69
540.436	905.69
540.65	915.69
540.864	876.69
541.078	888.69
541.292	918.69
541.506	898.69
541.72	883.69
541.934	895.69
542.147	892.69
542.361	905.69
542.575	873.69
542.789	884.69
543.002	866.69
543.216	877.69
543.43	882.69
543.644	866.69
543.857	881.69
544.071	890.69
544.285	920.69
544.498	900.69
544.712	888.69
544.925	898.69
545.139	897.69
545.352	908.69
545.566	910.69
545.779	896.69
545.993	937.69
546.206	926.69
546.42	914.69
546.633	917.69
546.847	915.69
547.06	945.69
547.274	907.69
547.487	910.69
547.7	915.69
547.914	923.69
548.127	923.69
548.34	924.69
548.554	912.69
548.767	941.69
548.98	970.69
549.193	916.69
549.407	943.69
549.62	958.69
549.833	982.69
550.046	961.69
550.259	905.69
550.473	901.69
550.686	909.69
550.899	902.69
551.112	916.69
551.325	892.69
551.538	876.69
551.751	902.69
551.964	896.69
552.177	932.69
552.39	941.69
552.603	930.69
552.816	985.69
553.029	992.69
553.242	989.69
553.455	1030.69
553.667	999.69
553.88	976.69
554.093	973.69
554.306	927.69
554.519	936.69
554.732	899.69
554.944	922.69
555.157	910.69
555.37	852.69
555.583	874.69
555.795	830.69
556.008	846.69
556.221	803.69
556.433	803.69
556.646	807.69
556.859	791.69
557.071	778.69
557.284	774.69
557.496	782.69
557.709	795.69
557.921	782.69
558.134	771.69
558.346	778.69
558.559	789.69
558.771	759.69
558.984	756.69
559.196	748.69
559.409	774.69
559.621	774.69
559.833	745.69
560.046	761.69
560.258	766.69
560.47	758.69
560.683	739.69
560.895	750.69
561.107	743.69
561.32	745.69
561.532	765.69
561.744	771.69
561.956	738.69
562.168	752.69
562.381	719.69
562.593	747.69
562.805	768.69
563.017	739.69
563.229	737.69
563.441	745.69
563.653	752.69
563.865	758.69
564.077	772.69
564.289	766.69
564.501	807.69
564.713	834.69
564.925	845.69
565.137	819.69
565.349	862.69
565.561	889.69
565.773	922.69
565.985	919.69
566.197	1008.69
566.408	1082.69
566.62	1140.69
566.832	1215.69
567.044	1248.69
567.255	1267.69
567.467	1324.69
567.679	1386.69
567.891	1453.69
568.102	1442.69
568.314	1382.69
568.526	1266.69
568.737	1145.69
568.949	1082.69
569.161	991.69
569.372	905.69
569.584	881.69
569.795	850.69
570.007	820.69
570.218	790.69
570.43	796.69
570.641	790.69
570.853	803.69
571.064	780.69
571.276	773.69
571.487	749.69
571.698	740.69
571.91	733.69
572.121	711.69
572.333	668.69
572.544	672.69
572.755	638.69
572.966	668.69
573.178	634.69
573.389	631.69
573.6	643.69
573.811	621.69
574.023	631.69
574.234	620.69
574.445	614.69
574.656	625.69
574.867	624.69
575.078	607.69
575.289	598.69
575.501	603.69
575.712	578.69
575.923	574.69
576.134	589.69
576.345	566.69
576.556	575.69
576.767	571.69
576.978	577.69
577.188	577.69
577.399	579.69
577.61	557.69
577.821	555.69
578.032	563.69
578.243	549.69
578.454	549.69
578.665	548.69
578.875	560.69
579.086	550.69
579.297	552.69
579.508	533.69
579.718	533.69
579.929	526.69
580.14	527.69
580.35	537.69
580.561	543.69
580.772	524.69
580.982	536.69
581.193	524.69
581.403	516.69
581.614	518.69
581.825	503.69
582.035	508.69
582.246	498.69
582.456	509.69
582.667	518.69
582.877	519.69
583.087	527.69
583.298	513.69
583.508	489.69
583.719	501.69
583.929	512.69
584.139	525.69
584.35	513.69
584.56	526.69
584.77	518.69
584.981	496.69
585.191	485.69
585.401	489.69
585.611	508.69
585.821	503.69
586.032	503.69
586.242	496.69
586.452	497.69
586.662	499.69
586.872	508.69
587.082	510.69
587.292	504.69
587.502	496.69
587.713	482.69
587.923	500.69
588.133	496.69
588.343	492.69
588.553	485.69
588.762	523.69
588.972	476.69
589.182	487.69
589.392	473.69
589.602	501.69
589.812	497.69
590.022	499.69
590.232	472.69
590.441	509.69
590.651	498.69
590.861	479.69
591.071	474.69
591.281	520.69
591.49	503.69
591.7	529.69
591.91	544.69
592.119	542.69
592.329	555.69
592.539	568.69
592.748	586.69
592.958	610.69
593.167	617.69
593.377	612.69
593.587	656.69
593.796	653.69
594.006	632.69
594.215	642.69
594.424	631.69
594.634	635.69
594.843	610.69
595.053	581.69
595.262	533.69
595.472	554.69
595.681	532.69
595.89	509.69
596.1	500.69
596.309	475.69
596.518	486.69
596.727	461.69
596.937	449.69
597.146	451.69
597.355	444.69
597.564	444.69
597.774	440.69
597.983	434.69
598.192	426.69
598.401	432.69
598.61	437.69
598.819	450.69
599.028	419.69
599.237	441.69
599.446	428.69
599.655	422.69
599.864	413.69
600.073	433.69
600.282	402.69
600.491	410.69
600.7	393.69
600.909	413.69
601.118	394.69
601.327	404.69
601.536	402.69
601.745	382.69
601.953	386.69
602.162	416.69
602.371	404.69
602.58	391.69
602.789	399.69
602.997	410.69
603.206	399.69
603.415	386.69
603.623	377.69
603.832	398.69
604.041	403.69
604.249	376.69
604.458	380.69
604.666	379.69
604.875	385.69
605.084	373.69
605.292	376.69
605.501	381.69
605.709	360.69
605.918	386.69
606.126	363.69
606.334	384.69
606.543	374.69
606.751	374.69
606.96	380.69
607.168	364.69
607.376	375.69
607.585	370.69
607.793	372.69
608.001	370.69
608.21	385.69
608.418	373.69
608.626	344.69
608.834	353.69
609.043	359.69
609.251	334.69
609.459	364.69
609.667	348.69
609.875	323.69
610.083	356.69
610.291	357.69
610.499	362.69
610.707	365.69
610.916	378.69
611.124	359.69
611.332	373.69
611.54	373.69
611.748	352.69
611.955	343.69
612.163	368.69
612.371	351.69
612.579	353.69
612.787	334.69
612.995	366.69
613.203	362.69
613.411	360.69
613.618	322.69
613.826	359.69
614.034	341.69
614.242	340.69
614.449	332.69
614.657	337.69
614.865	347.69
615.072	332.69
615.28	326.69
615.488	357.69
615.695	353.69
615.903	322.69
616.111	330.69
616.318	353.69
616.526	372.69
616.733	339.69
616.941	332.69
617.148	340.69
617.356	333.69
617.563	347.69
617.771	338.69
617.978	337.69
618.185	334.69
618.393	330.69
618.6	323.69
618.807	341.69
619.015	338.69
619.222	318.69
619.429	344.69
619.637	330.69
619.844	336.69
620.051	316.69
620.258	326.69
620.466	320.69
620.673	308.69
620.88	324.69
621.087	307.69
621.294	309.69
621.501	320.69
621.708	317.69
621.915	305.69
622.122	321.69
622.329	316.69
622.536	329.69
622.743	325.69
622.95	317.69
623.157	303.69
623.364	307.69
623.571	313.69
623.778	310.69
623.985	301.69
624.192	318.69
624.399	304.69
624.606	308.69
624.812	294.69
625.019	307.69
625.226	291.69
625.433	309.69
625.639	298.69
625.846	284.69
626.053	272.69
626.259	284.69
626.466	294.69
626.673	294.69
626.879	308.69
627.086	279.69
627.293	296.69
627.499	297.69
627.706	275.69
627.912	290.69
628.119	281.69
628.325	284.69
628.532	270.69
628.738	270.69
628.945	289.69
629.151	266.69
629.357	258.69
629.564	277.69
629.77	276.69
629.976	280.69
630.183	277.69
630.389	256.69
630.595	293.69
630.802	276.69
631.008	289.69
631.214	263.69
631.42	279.69
631.627	249.69
631.833	264.69
632.039	273.69
632.245	256.69
632.451	261.69
632.657	274.69
632.863	260.69
633.069	263.69
633.275	254.69
633.481	260.69
633.688	234.69
633.893	258.69
634.099	260.69
634.305	252.69
634.511	264.69
634.717	273.69
634.923	250.69
635.129	251.69
635.335	256.69
635.541	235.69
635.747	263.69
635.952	250.69
636.158	238.69
636.364	254.69
636.57	268.69
636.775	245.69
636.981	248.69
637.187	237.69
637.392	244.69
637.598	237.69
637.804	258.69
638.009	245.69
638.215	235.69
638.421	240.69
638.626	235.69
638.832	253.69
639.037	243.69
639.243	244.69
639.448	217.69
639.654	244.69
639.859	238.69
640.065	224.69
640.27	236.69
640.475	224.69
640.681	230.69
640.886	228.69
641.091	216.69
641.297	241.69
641.502	225.69
641.707	222.69
641.913	229.69
642.118	227.69
642.323	215.69
642.528	221.69
642.733	224.69
642.939	231.69
643.144	227.69
643.349	216.69
643.554	219.69
643.759	214.69
643.964	223.69
644.169	207.69
644.374	206.69
644.579	223.69
644.784	200.69
644.989	200.69
645.194	223.69
645.399	224.69
645.604	234.69
645.809	231.69
646.014	217.69
646.219	211.69
646.423	231.69
646.628	225.69
646.833	220.69
647.038	221.69
647.243	216.69
647.447	212.69
647.652	218.69
647.857	237.69
648.062	233.69
648.266	233.69
648.471	230.69
648.676	229.69
648.88	220.69
649.085	243.69
649.289	208.69
649.494	226.69
649.698	200.69
649.903	198.69
650.107	197.69
650.312	211.69
650.516	200.69
650.721	202.69
650.925	186.69
651.13	197.69
651.334	201.69
651.539	179.69
651.743	180.69
651.947	199.69
652.152	193.69
652.356	201.69
652.56	196.69
652.764	186.69
652.969	179.69
653.173	173.69
653.377	168.69
653.581	187.69
653.785	184.69
653.99	164.69
654.194	177.69
654.398	159.69
654.602	152.69
654.806	152.69
655.01	155.69
655.214	162.69
655.418	164.69
655.622	139.69
655.826	149.69
656.03	155.69
656.234	154.69
656.438	141.69
656.642	137.69
656.846	141.69
657.049	137.69
657.253	139.69
657.457	130.69
657.661	134.69
657.865	145.69
658.068	144.69
658.272	123.69
658.476	120.69
658.68	129.69
658.883	124.69
659.087	95.69
659.291	104.69
659.494	116.69
659.698	121.69
659.901	112.69
660.105	99.69
660.309	121.69
660.512	96.69
660.716	99.69
660.919	100.69
661.123	92.69
661.326	101.69
661.53	91.69
661.733	81.69
661.936	98.69
662.14	91.69
662.343	87.69
662.546	69.69
662.75	72.69
662.953	77.69
663.156	86.69
663.36	87.69
663.563	103.69
663.766	81.69
663.969	77.69
664.173	84.69
664.376	76.69
664.579	86.69
664.782	87.69
664.985	85.69
665.188	83.69
665.391	75.69
665.594	84.69
665.797	92.69
666	86.69
666.203	81.69
666.406	75.69
666.609	71.69
666.812	82.69
667.015	87.69
667.218	91.69
667.421	85.69
667.624	85.69
667.827	93.69
668.03	74.69
668.232	76.69
668.435	84.69
668.638	85.69
668.841	84.69
669.043	81.69
669.246	73.69
669.449	87.69
669.651	85.69
669.854	83.69
670.057	85.69
670.259	85.69
670.462	81.69
670.665	84.69
670.867	84.69
671.07	77.69
671.272	93.69
671.475	87.69
671.677	101.69
671.88	79.69
672.082	100.69
672.284	96.69
672.487	85.69
672.689	82.69
672.892	68.69
