Data from NiCl2@0.25M.TitratingCurve.Agarose3%dH2O.NegLispCup.LampEnergy10.LIBS07252019_HRD10591_18-25-04-574.txt Node
Date: Thu Jul 25 18:25:04 EDT 2019
User: cochatt
Spectrometer: HR+D1059
Trigger mode: 1
Integration Time (sec): 1.000000E-1
Scans to average: 1
Electric dark correction enabled: true
Nonlinearity correction enabled: false
Boxcar width: 0
XAxis mode: Wavelengths
Number of Pixels in Spectrum: 2048
>>>>>Begin Spectral Data<<<<<
223.165	-22.06
223.4	-22.06
223.635	-22.06
223.869	-24.06
224.104	-13.06
224.338	-21.06
224.573	-5.06
224.808	-10.06
225.042	0.94
225.277	-3.06
225.511	-2.06
225.746	7.94
225.98	17.94
226.215	8.94
226.449	9.94
226.683	5.94
226.918	24.94
227.152	23.94
227.387	24.94
227.621	32.94
227.856	29.94
228.09	44.94
228.324	39.94
228.559	63.94
228.793	80.94
229.027	111.94
229.262	116.94
229.496	130.94
229.73	133.94
229.964	142.94
230.199	141.94
230.433	151.94
230.667	150.94
230.901	151.94
231.136	145.94
231.37	172.94
231.604	154.94
231.838	154.94
232.072	170.94
232.306	164.94
232.541	157.94
232.775	157.94
233.009	164.94
233.243	176.94
233.477	159.94
233.711	155.94
233.945	154.94
234.179	170.94
234.413	177.94
234.647	153.94
234.881	173.94
235.115	175.94
235.349	177.94
235.583	181.94
235.817	181.94
236.051	176.94
236.285	160.94
236.519	169.94
236.753	194.94
236.987	170.94
237.221	180.94
237.455	180.94
237.689	178.94
237.922	199.94
238.156	203.94
238.39	197.94
238.624	184.94
238.858	201.94
239.091	196.94
239.325	196.94
239.559	197.94
239.793	206.94
240.027	197.94
240.26	194.94
240.494	202.94
240.728	218.94
240.961	205.94
241.195	231.94
241.429	220.94
241.662	243.94
241.896	232.94
242.13	228.94
242.363	231.94
242.597	220.94
242.83	223.94
243.064	231.94
243.298	229.94
243.531	236.94
243.765	253.94
243.998	253.94
244.232	246.94
244.465	231.94
244.699	249.94
244.932	259.94
245.166	234.94
245.399	236.94
245.633	269.94
245.866	269.94
246.099	248.94
246.333	256.94
246.566	245.94
246.8	265.94
247.033	276.94
247.266	257.94
247.5	244.94
247.733	267.94
247.966	278.94
248.2	281.94
248.433	278.94
248.666	284.94
248.899	280.94
249.133	276.94
249.366	295.94
249.599	300.94
249.832	275.94
250.066	295.94
250.299	291.94
250.532	305.94
250.765	295.94
250.998	289.94
251.231	312.94
251.465	295.94
251.698	323.94
251.931	326.94
252.164	328.94
252.397	331.94
252.63	307.94
252.863	320.94
253.096	313.94
253.329	320.94
253.562	338.94
253.795	324.94
254.028	336.94
254.261	334.94
254.494	330.94
254.727	338.94
254.96	341.94
255.193	317.94
255.426	341.94
255.659	324.94
255.892	340.94
256.124	351.94
256.357	355.94
256.59	332.94
256.823	336.94
257.056	371.94
257.289	347.94
257.521	341.94
257.754	355.94
257.987	375.94
258.22	375.94
258.452	342.94
258.685	371.94
258.918	378.94
259.151	373.94
259.383	341.94
259.616	361.94
259.849	355.94
260.081	345.94
260.314	386.94
260.547	381.94
260.779	380.94
261.012	391.94
261.244	377.94
261.477	379.94
261.71	368.94
261.942	395.94
262.175	383.94
262.407	400.94
262.64	388.94
262.872	391.94
263.105	397.94
263.337	393.94
263.57	393.94
263.802	425.94
264.035	416.94
264.267	393.94
264.499	415.94
264.732	420.94
264.964	411.94
265.197	431.94
265.429	409.94
265.661	408.94
265.894	428.94
266.126	437.94
266.358	426.94
266.591	424.94
266.823	436.94
267.055	420.94
267.287	417.94
267.52	434.94
267.752	454.94
267.984	461.94
268.216	435.94
268.448	433.94
268.681	450.94
268.913	445.94
269.145	449.94
269.377	459.94
269.609	452.94
269.841	443.94
270.073	474.94
270.306	455.94
270.538	443.94
270.77	460.94
271.002	470.94
271.234	462.94
271.466	459.94
271.698	458.94
271.93	458.94
272.162	478.94
272.394	490.94
272.626	459.94
272.858	460.94
273.09	473.94
273.322	469.94
273.553	492.94
273.785	497.94
274.017	511.94
274.249	503.94
274.481	472.94
274.713	482.94
274.945	485.94
275.176	493.94
275.408	488.94
275.64	502.94
275.872	482.94
276.104	487.94
276.335	499.94
276.567	503.94
276.799	507.94
277.031	507.94
277.262	504.94
277.494	507.94
277.726	523.94
277.957	513.94
278.189	496.94
278.421	529.94
278.652	500.94
278.884	552.94
279.115	554.94
279.347	544.94
279.579	549.94
279.81	539.94
280.042	534.94
280.273	520.94
280.505	514.94
280.736	560.94
280.968	544.94
281.199	569.94
281.431	571.94
281.662	557.94
281.894	553.94
282.125	559.94
282.356	569.94
282.588	573.94
282.819	585.94
283.051	549.94
283.282	579.94
283.513	593.94
283.745	595.94
283.976	582.94
284.207	604.94
284.439	605.94
284.67	577.94
284.901	607.94
285.132	589.94
285.364	560.94
285.595	609.94
285.826	585.94
286.057	604.94
286.288	612.94
286.52	625.94
286.751	601.94
286.982	601.94
287.213	599.94
287.444	618.94
287.675	603.94
287.906	606.94
288.138	633.94
288.369	620.94
288.6	632.94
288.831	623.94
289.062	643.94
289.293	629.94
289.524	607.94
289.755	639.94
289.986	623.94
290.217	628.94
290.448	649.94
290.679	635.94
290.91	634.94
291.141	631.94
291.371	639.94
291.602	634.94
291.833	615.94
292.064	641.94
292.295	621.94
292.526	649.94
292.757	640.94
292.987	660.94
293.218	641.94
293.449	653.94
293.68	644.94
293.91	616.94
294.141	648.94
294.372	665.94
294.603	632.94
294.833	647.94
295.064	631.94
295.295	647.94
295.525	652.94
295.756	651.94
295.987	635.94
296.217	660.94
296.448	661.94
296.679	659.94
296.909	665.94
297.14	656.94
297.37	691.94
297.601	697.94
297.831	676.94
298.062	695.94
298.292	712.94
298.523	701.94
298.753	693.94
298.984	723.94
299.214	677.94
299.445	704.94
299.675	721.94
299.905	709.94
300.136	688.94
300.366	716.94
300.597	710.94
300.827	740.94
301.057	719.94
301.288	725.94
301.518	726.94
301.748	741.94
301.979	722.94
302.209	735.94
302.439	720.94
302.669	725.94
302.9	732.94
303.13	727.94
303.36	731.94
303.59	726.94
303.82	746.94
304.051	731.94
304.281	741.94
304.511	732.94
304.741	728.94
304.971	738.94
305.201	721.94
305.431	717.94
305.661	746.94
305.891	731.94
306.121	739.94
306.352	730.94
306.582	687.94
306.812	716.94
307.042	736.94
307.272	737.94
307.502	699.94
307.731	709.94
307.961	727.94
308.191	712.94
308.421	705.94
308.651	717.94
308.881	702.94
309.111	716.94
309.341	705.94
309.571	718.94
309.8	713.94
310.03	699.94
310.26	715.94
310.49	724.94
310.72	739.94
310.949	713.94
311.179	725.94
311.409	726.94
311.639	723.94
311.868	728.94
312.098	752.94
312.328	739.94
312.557	747.94
312.787	736.94
313.017	717.94
313.246	739.94
313.476	751.94
313.706	763.94
313.935	773.94
314.165	753.94
314.394	794.94
314.624	787.94
314.853	772.94
315.083	786.94
315.312	781.94
315.542	760.94
315.771	773.94
316.001	771.94
316.23	753.94
316.46	757.94
316.689	737.94
316.919	745.94
317.148	758.94
317.377	773.94
317.607	745.94
317.836	748.94
318.065	724.94
318.295	743.94
318.524	772.94
318.753	751.94
318.983	741.94
319.212	744.94
319.441	728.94
319.67	724.94
319.9	763.94
320.129	733.94
320.358	755.94
320.587	731.94
320.816	743.94
321.046	746.94
321.275	759.94
321.504	745.94
321.733	765.94
321.962	751.94
322.191	773.94
322.42	762.94
322.649	799.94
322.878	767.94
323.108	737.94
323.337	787.94
323.566	790.94
323.795	785.94
324.024	789.94
324.253	769.94
324.482	787.94
324.71	771.94
324.939	783.94
325.168	807.94
325.397	783.94
325.626	768.94
325.855	824.94
326.084	821.94
326.313	813.94
326.542	827.94
326.77	819.94
326.999	835.94
327.228	791.94
327.457	793.94
327.686	839.94
327.914	822.94
328.143	829.94
328.372	820.94
328.6	844.94
328.829	817.94
329.058	833.94
329.287	841.94
329.515	839.94
329.744	843.94
329.972	832.94
330.201	851.94
330.43	856.94
330.658	851.94
330.887	863.94
331.115	859.94
331.344	886.94
331.572	893.94
331.801	902.94
332.03	885.94
332.258	950.94
332.486	951.94
332.715	956.94
332.943	1031.94
333.172	1047.94
333.4	1094.94
333.629	1091.94
333.857	1134.94
334.085	1123.94
334.314	1115.94
334.542	1130.94
334.771	1112.94
334.999	1096.94
335.227	1058.94
335.455	1040.94
335.684	1046.94
335.912	1044.94
336.14	1019.94
336.369	1024.94
336.597	1000.94
336.825	993.94
337.053	998.94
337.281	981.94
337.51	959.94
337.738	964.94
337.966	945.94
338.194	957.94
338.422	929.94
338.65	914.94
338.878	912.94
339.106	920.94
339.334	913.94
339.562	932.94
339.79	884.94
340.018	895.94
340.246	866.94
340.474	863.94
340.702	857.94
340.93	870.94
341.158	915.94
341.386	893.94
341.614	914.94
341.842	885.94
342.07	847.94
342.298	870.94
342.526	865.94
342.754	863.94
342.981	869.94
343.209	900.94
343.437	927.94
343.665	1017.94
343.893	1022.94
344.12	1100.94
344.348	1045.94
344.576	1001.94
344.804	970.94
345.031	910.94
345.259	873.94
345.487	906.94
345.714	860.94
345.942	863.94
346.17	849.94
346.397	836.94
346.625	837.94
346.853	815.94
347.08	815.94
347.308	838.94
347.535	857.94
347.763	831.94
347.99	839.94
348.218	845.94
348.445	854.94
348.673	830.94
348.9	844.94
349.128	808.94
349.355	845.94
349.583	829.94
349.81	825.94
350.037	815.94
350.265	816.94
350.492	804.94
350.72	819.94
350.947	823.94
351.174	822.94
351.402	808.94
351.629	820.94
351.856	839.94
352.083	812.94
352.311	773.94
352.538	814.94
352.765	837.94
352.992	772.94
353.22	801.94
353.447	792.94
353.674	744.94
353.901	793.94
354.128	794.94
354.355	799.94
354.583	779.94
354.81	773.94
355.037	812.94
355.264	827.94
355.491	817.94
355.718	825.94
355.945	829.94
356.172	812.94
356.399	809.94
356.626	829.94
356.853	819.94
357.08	819.94
357.307	818.94
357.534	768.94
357.761	802.94
357.988	791.94
358.215	801.94
358.441	800.94
358.668	807.94
358.895	820.94
359.122	796.94
359.349	826.94
359.576	803.94
359.802	802.94
360.029	821.94
360.256	803.94
360.483	789.94
360.709	809.94
360.936	800.94
361.163	790.94
361.39	787.94
361.616	822.94
361.843	810.94
362.07	812.94
362.296	811.94
362.523	805.94
362.749	795.94
362.976	803.94
363.203	802.94
363.429	814.94
363.656	819.94
363.882	776.94
364.109	787.94
364.335	792.94
364.562	792.94
364.788	794.94
365.015	798.94
365.241	807.94
365.468	802.94
365.694	796.94
365.92	798.94
366.147	775.94
366.373	807.94
366.599	809.94
366.826	816.94
367.052	810.94
367.278	777.94
367.505	819.94
367.731	831.94
367.957	815.94
368.184	815.94
368.41	851.94
368.636	799.94
368.862	811.94
369.089	807.94
369.315	817.94
369.541	825.94
369.767	840.94
369.993	816.94
370.219	849.94
370.445	851.94
370.672	873.94
370.898	839.94
371.124	865.94
371.35	866.94
371.576	896.94
371.802	863.94
372.028	852.94
372.254	845.94
372.48	885.94
372.706	913.94
372.932	915.94
373.158	898.94
373.384	899.94
373.61	881.94
373.835	883.94
374.061	871.94
374.287	847.94
374.513	895.94
374.739	937.94
374.965	950.94
375.191	988.94
375.416	976.94
375.642	954.94
375.868	937.94
376.094	908.94
376.319	906.94
376.545	921.94
376.771	908.94
376.997	879.94
377.222	897.94
377.448	864.94
377.674	881.94
377.899	874.94
378.125	851.94
378.35	849.94
378.576	863.94
378.802	846.94
379.027	863.94
379.253	884.94
379.478	900.94
379.704	858.94
379.929	876.94
380.155	857.94
380.38	854.94
380.606	872.94
380.831	871.94
381.057	863.94
381.282	887.94
381.507	869.94
381.733	872.94
381.958	917.94
382.184	914.94
382.409	907.94
382.634	899.94
382.86	914.94
383.085	933.94
383.31	898.94
383.535	939.94
383.761	935.94
383.986	961.94
384.211	998.94
384.436	980.94
384.662	1039.94
384.887	1045.94
385.112	1038.94
385.337	1075.94
385.562	1100.94
385.787	1100.94
386.013	1055.94
386.238	1094.94
386.463	1081.94
386.688	1067.94
386.913	1091.94
387.138	1081.94
387.363	1076.94
387.588	1043.94
387.813	1054.94
388.038	1032.94
388.263	1074.94
388.488	1077.94
388.713	1065.94
388.938	1060.94
389.163	1028.94
389.387	1063.94
389.612	1015.94
389.837	1030.94
390.062	1015.94
390.287	1041.94
390.512	1045.94
390.736	1067.94
390.961	1100.94
391.186	1080.94
391.411	1113.94
391.636	1145.94
391.86	1173.94
392.085	1203.94
392.31	1196.94
392.534	1195.94
392.759	1177.94
392.984	1135.94
393.208	1134.94
393.433	1141.94
393.658	1114.94
393.882	1107.94
394.107	1135.94
394.331	1155.94
394.556	1101.94
394.78	1150.94
395.005	1155.94
395.229	1159.94
395.454	1199.94
395.678	1223.94
395.903	1182.94
396.127	1187.94
396.352	1155.94
396.576	1123.94
396.801	1116.94
397.025	1139.94
397.249	1219.94
397.474	1208.94
397.698	1196.94
397.922	1231.94
398.147	1215.94
398.371	1275.94
398.595	1299.94
398.82	1374.94
399.044	1449.94
399.268	1572.94
399.492	1795.94
399.717	2000.94
399.941	2047.94
400.165	1889.94
400.389	1708.94
400.613	1553.94
400.837	1480.94
401.062	1424.94
401.286	1418.94
401.51	1389.94
401.734	1365.94
401.958	1384.94
402.182	1415.94
402.406	1403.94
402.63	1365.94
402.854	1411.94
403.078	1457.94
403.302	1487.94
403.526	1472.94
403.75	1536.94
403.974	1558.94
404.198	1527.94
404.422	1567.94
404.645	1556.94
404.869	1516.94
405.093	1508.94
405.317	1488.94
405.541	1506.94
405.765	1501.94
405.988	1461.94
406.212	1527.94
406.436	1526.94
406.66	1558.94
406.883	1587.94
407.107	1649.94
407.331	1697.94
407.555	1790.94
407.778	1765.94
408.002	1721.94
408.226	1669.94
408.449	1642.94
408.673	1573.94
408.896	1539.94
409.12	1522.94
409.344	1582.94
409.567	1514.94
409.791	1561.94
410.014	1512.94
410.238	1482.94
410.461	1505.94
410.685	1489.94
410.908	1473.94
411.132	1444.94
411.355	1414.94
411.578	1422.94
411.802	1386.94
412.025	1434.94
412.249	1415.94
412.472	1462.94
412.695	1397.94
412.919	1352.94
413.142	1345.94
413.365	1376.94
413.589	1372.94
413.812	1347.94
414.035	1358.94
414.258	1309.94
414.482	1362.94
414.705	1386.94
414.928	1374.94
415.151	1337.94
415.374	1400.94
415.597	1321.94
415.821	1321.94
416.044	1298.94
416.267	1292.94
416.49	1304.94
416.713	1336.94
416.936	1331.94
417.159	1307.94
417.382	1291.94
417.605	1296.94
417.828	1300.94
418.051	1340.94
418.274	1344.94
418.497	1337.94
418.72	1328.94
418.943	1371.94
419.166	1464.94
419.389	1529.94
419.611	1537.94
419.834	1465.94
420.057	1399.94
420.28	1344.94
420.503	1299.94
420.726	1300.94
420.948	1295.94
421.171	1336.94
421.394	1335.94
421.617	1311.94
421.839	1279.94
422.062	1307.94
422.285	1315.94
422.507	1353.94
422.73	1361.94
422.953	1336.94
423.175	1353.94
423.398	1367.94
423.621	1398.94
423.843	1388.94
424.066	1403.94
424.288	1377.94
424.511	1371.94
424.733	1349.94
424.956	1363.94
425.178	1336.94
425.401	1317.94
425.623	1321.94
425.846	1295.94
426.068	1271.94
426.291	1254.94
426.513	1273.94
426.735	1265.94
426.958	1252.94
427.18	1188.94
427.402	1228.94
427.625	1243.94
427.847	1210.94
428.069	1203.94
428.292	1193.94
428.514	1192.94
428.736	1177.94
428.958	1183.94
429.181	1139.94
429.403	1138.94
429.625	1155.94
429.847	1128.94
430.069	1132.94
430.292	1151.94
430.514	1138.94
430.736	1139.94
430.958	1152.94
431.18	1131.94
431.402	1156.94
431.624	1183.94
431.846	1179.94
432.068	1204.94
432.29	1179.94
432.512	1177.94
432.734	1189.94
432.956	1173.94
433.178	1197.94
433.4	1153.94
433.622	1180.94
433.844	1167.94
434.066	1207.94
434.287	1210.94
434.509	1241.94
434.731	1262.94
434.953	1283.94
435.175	1325.94
435.397	1312.94
435.618	1265.94
435.84	1197.94
436.062	1173.94
436.284	1176.94
436.505	1153.94
436.727	1192.94
436.949	1170.94
437.17	1171.94
437.392	1114.94
437.614	1128.94
437.835	1097.94
438.057	1114.94
438.278	1105.94
438.5	1121.94
438.721	1114.94
438.943	1142.94
439.165	1139.94
439.386	1156.94
439.608	1149.94
439.829	1143.94
440.05	1175.94
440.272	1190.94
440.493	1154.94
440.715	1192.94
440.936	1210.94
441.158	1232.94
441.379	1248.94
441.6	1311.94
441.822	1334.94
442.043	1311.94
442.264	1292.94
442.486	1231.94
442.707	1279.94
442.928	1283.94
443.149	1288.94
443.371	1282.94
443.592	1323.94
443.813	1322.94
444.034	1317.94
444.255	1351.94
444.476	1385.94
444.698	1501.94
444.919	1529.94
445.14	1631.94
445.361	1494.94
445.582	1380.94
445.803	1263.94
446.024	1270.94
446.245	1213.94
446.466	1211.94
446.687	1229.94
446.908	1171.94
447.129	1141.94
447.35	1131.94
447.571	1139.94
447.792	1115.94
448.013	1122.94
448.234	1074.94
448.455	1062.94
448.675	1067.94
448.896	1062.94
449.117	1085.94
449.338	1077.94
449.559	1059.94
449.779	1028.94
450	1057.94
450.221	1047.94
450.442	1075.94
450.662	1078.94
450.883	1075.94
451.104	1091.94
451.324	1056.94
451.545	1080.94
451.766	1094.94
451.986	1066.94
452.207	1038.94
452.428	1048.94
452.648	1058.94
452.869	1050.94
453.089	1043.94
453.31	1045.94
453.53	1030.94
453.751	1045.94
453.971	1012.94
454.192	1015.94
454.412	989.94
454.633	1027.94
454.853	1007.94
455.073	999.94
455.294	988.94
455.514	1027.94
455.734	985.94
455.955	982.94
456.175	967.94
456.395	981.94
456.616	975.94
456.836	1022.94
457.056	1013.94
457.276	998.94
457.497	999.94
457.717	992.94
457.937	995.94
458.157	1037.94
458.377	1029.94
458.598	1058.94
458.818	1088.94
459.038	1105.94
459.258	1140.94
459.478	1241.94
459.698	1232.94
459.918	1247.94
460.138	1297.94
460.358	1368.94
460.578	1386.94
460.798	1405.94
461.018	1413.94
461.238	1414.94
461.458	1383.94
461.678	1427.94
461.898	1415.94
462.118	1414.94
462.338	1461.94
462.558	1537.94
462.777	1624.94
462.997	1755.94
463.217	1871.94
463.437	1884.94
463.657	1753.94
463.876	1650.94
464.096	1655.94
464.316	1670.94
464.536	1651.94
464.755	1585.94
464.975	1565.94
465.195	1455.94
465.414	1393.94
465.634	1290.94
465.854	1283.94
466.073	1228.94
466.293	1196.94
466.512	1183.94
466.732	1139.94
466.951	1135.94
467.171	1099.94
467.391	1119.94
467.61	1112.94
467.829	1136.94
468.049	1084.94
468.268	1100.94
468.488	1075.94
468.707	1080.94
468.927	1092.94
469.146	1067.94
469.365	1108.94
469.585	1098.94
469.804	1153.94
470.023	1157.94
470.243	1173.94
470.462	1183.94
470.681	1177.94
470.901	1204.94
471.12	1132.94
471.339	1131.94
471.558	1109.94
471.777	1097.94
471.997	1101.94
472.216	1105.94
472.435	1091.94
472.654	1049.94
472.873	1036.94
473.092	1067.94
473.311	1078.94
473.53	1057.94
473.749	1021.94
473.968	1043.94
474.187	1041.94
474.406	1030.94
474.625	1067.94
474.844	1046.94
475.063	1073.94
475.282	1063.94
475.501	1068.94
475.72	1073.94
475.939	1063.94
476.158	1079.94
476.377	1110.94
476.596	1096.94
476.814	1109.94
477.033	1093.94
477.252	1123.94
477.471	1167.94
477.69	1176.94
477.908	1208.94
478.127	1239.94
478.346	1251.94
478.564	1283.94
478.783	1295.94
479.002	1310.94
479.22	1338.94
479.439	1357.94
479.658	1333.94
479.876	1285.94
480.095	1371.94
480.313	1384.94
480.532	1378.94
480.751	1430.94
480.969	1336.94
481.188	1287.94
481.406	1268.94
481.624	1235.94
481.843	1248.94
482.061	1225.94
482.28	1231.94
482.498	1175.94
482.717	1194.94
482.935	1187.94
483.153	1162.94
483.372	1196.94
483.59	1200.94
483.808	1224.94
484.027	1235.94
484.245	1239.94
484.463	1220.94
484.681	1248.94
484.9	1276.94
485.118	1263.94
485.336	1251.94
485.554	1235.94
485.772	1282.94
485.99	1261.94
486.209	1279.94
486.427	1288.94
486.645	1251.94
486.863	1254.94
487.081	1268.94
487.299	1252.94
487.517	1253.94
487.735	1251.94
487.953	1254.94
488.171	1256.94
488.389	1252.94
488.607	1259.94
488.825	1228.94
489.043	1222.94
489.261	1243.94
489.479	1247.94
489.696	1256.94
489.914	1260.94
490.132	1266.94
490.35	1286.94
490.568	1271.94
490.786	1267.94
491.003	1290.94
491.221	1257.94
491.439	1277.94
491.657	1293.94
491.874	1312.94
492.092	1288.94
492.31	1301.94
492.527	1308.94
492.745	1319.94
492.963	1295.94
493.18	1289.94
493.398	1313.94
493.615	1295.94
493.833	1349.94
494.05	1330.94
494.268	1336.94
494.485	1346.94
494.703	1349.94
494.92	1333.94
495.138	1320.94
495.355	1362.94
495.573	1345.94
495.79	1353.94
496.008	1377.94
496.225	1404.94
496.442	1393.94
496.66	1455.94
496.877	1433.94
497.094	1493.94
497.312	1491.94
497.529	1543.94
497.746	1596.94
497.963	1634.94
498.181	1701.94
498.398	1787.94
498.615	1905.94
498.832	2047.94
499.049	2167.94
499.267	2367.94
499.484	2619.94
499.701	2835.94
499.918	3158.94
500.135	3529.94
500.352	3932.94
500.569	4138.94
500.786	4119.94
501.003	3886.94
501.22	3507.94
501.437	3151.94
501.654	2831.94
501.871	2550.94
502.088	2325.94
502.305	2149.94
502.522	2059.94
502.739	1980.94
502.956	1856.94
503.172	1764.94
503.389	1674.94
503.606	1638.94
503.823	1606.94
504.04	1612.94
504.256	1616.94
504.473	1619.94
504.69	1666.94
504.907	1602.94
505.123	1541.94
505.34	1453.94
505.557	1422.94
505.773	1333.94
505.99	1313.94
506.207	1320.94
506.423	1279.94
506.64	1279.94
506.856	1207.94
507.073	1211.94
507.289	1220.94
507.506	1207.94
507.722	1195.94
507.939	1162.94
508.155	1157.94
508.372	1140.94
508.588	1162.94
508.805	1147.94
509.021	1119.94
509.238	1121.94
509.454	1125.94
509.67	1105.94
509.887	1104.94
510.103	1128.94
510.319	1100.94
510.536	1096.94
510.752	1077.94
510.968	1060.94
511.184	1091.94
511.401	1068.94
511.617	1094.94
511.833	1094.94
512.049	1092.94
512.265	1066.94
512.481	1097.94
512.698	1063.94
512.914	1098.94
513.13	1087.94
513.346	1083.94
513.562	1079.94
513.778	1089.94
513.994	1086.94
514.21	1092.94
514.426	1115.94
514.642	1115.94
514.858	1128.94
515.074	1155.94
515.29	1143.94
515.506	1199.94
515.721	1176.94
515.937	1172.94
516.153	1215.94
516.369	1217.94
516.585	1292.94
516.801	1301.94
517.016	1361.94
517.232	1433.94
517.448	1488.94
517.664	1559.94
517.879	1549.94
518.095	1545.94
518.311	1549.94
518.527	1469.94
518.742	1379.94
518.958	1347.94
519.173	1294.94
519.389	1266.94
519.605	1234.94
519.82	1183.94
520.036	1175.94
520.251	1132.94
520.467	1133.94
520.682	1115.94
520.898	1077.94
521.113	1083.94
521.329	1078.94
521.544	1099.94
521.76	1061.94
521.975	1032.94
522.19	1036.94
522.406	1011.94
522.621	1004.94
522.836	1020.94
523.052	1007.94
523.267	1013.94
523.482	1015.94
523.698	1007.94
523.913	984.94
524.128	1033.94
524.343	1005.94
524.559	995.94
524.774	986.94
524.989	987.94
525.204	1010.94
525.419	999.94
525.634	944.94
525.849	984.94
526.064	969.94
526.28	950.94
526.495	955.94
526.71	986.94
526.925	973.94
527.14	994.94
527.355	991.94
527.57	946.94
527.785	978.94
527.999	982.94
528.214	981.94
528.429	989.94
528.644	951.94
528.859	961.94
529.074	947.94
529.289	966.94
529.503	963.94
529.718	972.94
529.933	946.94
530.148	963.94
530.363	920.94
530.577	983.94
530.792	940.94
531.007	981.94
531.221	965.94
531.436	955.94
531.651	996.94
531.865	985.94
532.08	945.94
532.295	987.94
532.509	961.94
532.724	970.94
532.938	953.94
533.153	984.94
533.367	981.94
533.582	965.94
533.796	960.94
534.011	933.94
534.225	935.94
534.44	945.94
534.654	924.94
534.868	939.94
535.083	927.94
535.297	953.94
535.511	909.94
535.726	915.94
535.94	926.94
536.154	933.94
536.369	903.94
536.583	903.94
536.797	906.94
537.011	899.94
537.225	901.94
537.44	917.94
537.654	896.94
537.868	880.94
538.082	883.94
538.296	891.94
538.51	916.94
538.724	868.94
538.938	897.94
539.153	863.94
539.367	867.94
539.581	853.94
539.795	863.94
540.009	864.94
540.222	893.94
540.436	874.94
540.65	876.94
540.864	873.94
541.078	848.94
541.292	864.94
541.506	832.94
541.72	856.94
541.934	833.94
542.147	885.94
542.361	888.94
542.575	843.94
542.789	851.94
543.002	872.94
543.216	867.94
543.43	893.94
543.644	857.94
543.857	827.94
544.071	844.94
544.285	840.94
544.498	885.94
544.712	860.94
544.925	876.94
545.139	880.94
545.352	879.94
545.566	900.94
545.779	933.94
545.993	888.94
546.206	899.94
546.42	877.94
546.633	860.94
546.847	883.94
547.06	889.94
547.274	912.94
547.487	890.94
547.7	842.94
547.914	904.94
548.127	885.94
548.34	928.94
548.554	887.94
548.767	903.94
548.98	885.94
549.193	905.94
549.407	914.94
549.62	931.94
549.833	941.94
550.046	900.94
550.259	885.94
550.473	908.94
550.686	904.94
550.899	873.94
551.112	870.94
551.325	865.94
551.538	846.94
551.751	877.94
551.964	890.94
552.177	904.94
552.39	899.94
552.603	938.94
552.816	946.94
553.029	966.94
553.242	966.94
553.455	981.94
553.667	989.94
553.88	947.94
554.093	931.94
554.306	906.94
554.519	892.94
554.732	879.94
554.944	879.94
555.157	847.94
555.37	839.94
555.583	825.94
555.795	790.94
556.008	785.94
556.221	819.94
556.433	771.94
556.646	797.94
556.859	792.94
557.071	776.94
557.284	754.94
557.496	777.94
557.709	755.94
557.921	742.94
558.134	780.94
558.346	746.94
558.559	749.94
558.771	752.94
558.984	755.94
559.196	735.94
559.409	755.94
559.621	738.94
559.833	748.94
560.046	714.94
560.258	737.94
560.47	720.94
560.683	725.94
560.895	714.94
561.107	723.94
561.32	740.94
561.532	705.94
561.744	737.94
561.956	735.94
562.168	739.94
562.381	733.94
562.593	738.94
562.805	735.94
563.017	732.94
563.229	740.94
563.441	714.94
563.653	731.94
563.865	732.94
564.077	767.94
564.289	774.94
564.501	780.94
564.713	795.94
564.925	815.94
565.137	813.94
565.349	818.94
565.561	870.94
565.773	889.94
565.985	954.94
566.197	992.94
566.408	1075.94
566.62	1119.94
566.832	1186.94
567.044	1225.94
567.255	1235.94
567.467	1292.94
567.679	1310.94
567.891	1422.94
568.102	1388.94
568.314	1331.94
568.526	1226.94
568.737	1132.94
568.949	1046.94
569.161	953.94
569.372	885.94
569.584	871.94
569.795	809.94
570.007	803.94
570.218	785.94
570.43	776.94
570.641	808.94
570.853	760.94
571.064	782.94
571.276	755.94
571.487	753.94
571.698	699.94
571.91	693.94
572.121	672.94
572.333	676.94
572.544	635.94
572.755	649.94
572.966	644.94
573.178	617.94
573.389	618.94
573.6	602.94
573.811	639.94
574.023	598.94
574.234	596.94
574.445	611.94
574.656	569.94
574.867	634.94
575.078	588.94
575.289	580.94
575.501	591.94
575.712	569.94
575.923	584.94
576.134	570.94
576.345	574.94
576.556	586.94
576.767	597.94
576.978	569.94
577.188	559.94
577.399	552.94
577.61	555.94
577.821	533.94
578.032	547.94
578.243	551.94
578.454	539.94
578.665	549.94
578.875	521.94
579.086	523.94
579.297	532.94
579.508	525.94
579.718	533.94
579.929	515.94
580.14	498.94
580.35	518.94
580.561	514.94
580.772	512.94
580.982	516.94
581.193	504.94
581.403	522.94
581.614	528.94
581.825	513.94
582.035	519.94
582.246	497.94
582.456	525.94
582.667	487.94
582.877	493.94
583.087	489.94
583.298	482.94
583.508	498.94
583.719	487.94
583.929	515.94
584.139	475.94
584.35	487.94
584.56	477.94
584.77	502.94
584.981	497.94
585.191	473.94
585.401	484.94
585.611	470.94
585.821	467.94
586.032	497.94
586.242	471.94
586.452	483.94
586.662	477.94
586.872	480.94
587.082	475.94
587.292	504.94
587.502	473.94
587.713	444.94
587.923	498.94
588.133	486.94
588.343	482.94
588.553	475.94
588.762	481.94
588.972	450.94
589.182	487.94
589.392	500.94
589.602	458.94
589.812	484.94
590.022	504.94
590.232	478.94
590.441	487.94
590.651	477.94
590.861	493.94
591.071	505.94
591.281	488.94
591.49	495.94
591.7	510.94
591.91	528.94
592.119	538.94
592.329	543.94
592.539	537.94
592.748	588.94
592.958	593.94
593.167	583.94
593.377	604.94
593.587	634.94
593.796	636.94
594.006	581.94
594.215	625.94
594.424	616.94
594.634	581.94
594.843	579.94
595.053	572.94
595.262	543.94
595.472	529.94
595.681	524.94
595.89	490.94
596.1	487.94
596.309	475.94
596.518	461.94
596.727	467.94
596.937	475.94
597.146	451.94
597.355	427.94
597.564	435.94
597.774	438.94
597.983	425.94
598.192	414.94
598.401	397.94
598.61	410.94
598.819	421.94
599.028	399.94
599.237	415.94
599.446	419.94
599.655	386.94
599.864	388.94
600.073	416.94
600.282	405.94
600.491	403.94
600.7	392.94
600.909	393.94
601.118	393.94
601.327	392.94
601.536	389.94
601.745	411.94
601.953	394.94
602.162	378.94
602.371	391.94
602.58	390.94
602.789	385.94
602.997	371.94
603.206	391.94
603.415	370.94
603.623	371.94
603.832	384.94
604.041	374.94
604.249	373.94
604.458	380.94
604.666	391.94
604.875	359.94
605.084	372.94
605.292	352.94
605.501	346.94
605.709	371.94
605.918	355.94
606.126	369.94
606.334	364.94
606.543	371.94
606.751	375.94
606.96	362.94
607.168	363.94
607.376	348.94
607.585	364.94
607.793	347.94
608.001	364.94
608.21	377.94
608.418	360.94
608.626	351.94
608.834	355.94
609.043	359.94
609.251	379.94
609.459	361.94
609.667	339.94
609.875	343.94
610.083	351.94
610.291	331.94
610.499	358.94
610.707	338.94
610.916	340.94
611.124	355.94
611.332	347.94
611.54	347.94
611.748	336.94
611.955	340.94
612.163	344.94
612.371	345.94
612.579	345.94
612.787	335.94
612.995	352.94
613.203	349.94
613.411	348.94
613.618	337.94
613.826	337.94
614.034	332.94
614.242	352.94
614.449	331.94
614.657	334.94
614.865	351.94
615.072	352.94
615.28	349.94
615.488	332.94
615.695	308.94
615.903	329.94
616.111	343.94
616.318	322.94
616.526	337.94
616.733	347.94
616.941	346.94
617.148	355.94
617.356	332.94
617.563	321.94
617.771	350.94
617.978	332.94
618.185	329.94
618.393	341.94
618.6	339.94
618.807	324.94
619.015	350.94
619.222	340.94
619.429	325.94
619.637	321.94
619.844	303.94
620.051	319.94
620.258	320.94
620.466	306.94
620.673	314.94
620.88	318.94
621.087	331.94
621.294	313.94
621.501	310.94
621.708	312.94
621.915	320.94
622.122	311.94
622.329	307.94
622.536	309.94
622.743	322.94
622.95	309.94
623.157	311.94
623.364	303.94
623.571	300.94
623.778	319.94
623.985	298.94
624.192	297.94
624.399	308.94
624.606	300.94
624.812	308.94
625.019	307.94
625.226	299.94
625.433	296.94
625.639	298.94
625.846	280.94
626.053	276.94
626.259	275.94
626.466	295.94
626.673	294.94
626.879	270.94
627.086	304.94
627.293	267.94
627.499	247.94
627.706	270.94
627.912	291.94
628.119	285.94
628.325	281.94
628.532	268.94
628.738	284.94
628.945	287.94
629.151	263.94
629.357	269.94
629.564	271.94
629.77	262.94
629.976	287.94
630.183	263.94
630.389	257.94
630.595	264.94
630.802	267.94
631.008	267.94
631.214	259.94
631.42	272.94
631.627	296.94
631.833	263.94
632.039	262.94
632.245	238.94
632.451	254.94
632.657	250.94
632.863	258.94
633.069	263.94
633.275	255.94
633.481	246.94
633.688	244.94
633.893	256.94
634.099	253.94
634.305	247.94
634.511	251.94
634.717	243.94
634.923	245.94
635.129	232.94
635.335	241.94
635.541	263.94
635.747	229.94
635.952	220.94
636.158	248.94
636.364	235.94
636.57	239.94
636.775	231.94
636.981	253.94
637.187	247.94
637.392	236.94
637.598	220.94
637.804	248.94
638.009	243.94
638.215	248.94
638.421	236.94
638.626	234.94
638.832	241.94
639.037	228.94
639.243	243.94
639.448	231.94
639.654	220.94
639.859	223.94
640.065	228.94
640.27	232.94
640.475	253.94
640.681	222.94
640.886	231.94
641.091	222.94
641.297	217.94
641.502	205.94
641.707	214.94
641.913	222.94
642.118	222.94
642.323	219.94
642.528	220.94
642.733	225.94
642.939	214.94
643.144	223.94
643.349	222.94
643.554	206.94
643.759	215.94
643.964	220.94
644.169	228.94
644.374	207.94
644.579	194.94
644.784	226.94
644.989	215.94
645.194	210.94
645.399	212.94
645.604	204.94
645.809	227.94
646.014	213.94
646.219	198.94
646.423	216.94
646.628	233.94
646.833	215.94
647.038	207.94
647.243	219.94
647.447	216.94
647.652	229.94
647.857	223.94
648.062	207.94
648.266	244.94
648.471	229.94
648.676	237.94
648.88	200.94
649.085	216.94
649.289	207.94
649.494	225.94
649.698	211.94
649.903	216.94
650.107	196.94
650.312	205.94
650.516	193.94
650.721	204.94
650.925	191.94
651.13	175.94
651.334	176.94
651.539	196.94
651.743	180.94
651.947	211.94
652.152	194.94
652.356	191.94
652.56	178.94
652.764	183.94
652.969	173.94
653.173	164.94
653.377	169.94
653.581	161.94
653.785	163.94
653.99	162.94
654.194	159.94
654.398	159.94
654.602	152.94
654.806	156.94
655.01	144.94
655.214	153.94
655.418	154.94
655.622	141.94
655.826	159.94
656.03	164.94
656.234	164.94
656.438	139.94
656.642	142.94
656.846	139.94
657.049	149.94
657.253	145.94
657.457	130.94
657.661	133.94
657.865	124.94
658.068	116.94
658.272	115.94
658.476	106.94
658.68	115.94
658.883	129.94
659.087	106.94
659.291	115.94
659.494	112.94
659.698	100.94
659.901	90.94
660.105	100.94
660.309	103.94
660.512	97.94
660.716	88.94
660.919	92.94
661.123	109.94
661.326	97.94
661.53	78.94
661.733	97.94
661.936	102.94
662.14	86.94
662.343	69.94
662.546	77.94
662.75	89.94
662.953	80.94
663.156	97.94
663.36	86.94
663.563	84.94
663.766	85.94
663.969	78.94
664.173	71.94
664.376	74.94
664.579	75.94
664.782	81.94
664.985	78.94
665.188	86.94
665.391	90.94
665.594	80.94
665.797	75.94
666	80.94
666.203	74.94
666.406	63.94
666.609	76.94
666.812	75.94
667.015	85.94
667.218	76.94
667.421	89.94
667.624	68.94
667.827	79.94
668.03	84.94
668.232	76.94
668.435	75.94
668.638	69.94
668.841	74.94
669.043	71.94
669.246	85.94
669.449	81.94
669.651	88.94
669.854	81.94
670.057	77.94
670.259	98.94
670.462	76.94
670.665	82.94
670.867	83.94
671.07	85.94
671.272	75.94
671.475	86.94
671.677	85.94
671.88	75.94
672.082	77.94
672.284	87.94
672.487	84.94
672.689	87.94
672.892	77.94
