Data from NiCl2@0.5M.TitratingCurve.Agarose3%dH2O.NegLispCup.LampEnergy10.LIBS07252019_HRD10591_18-19-33-571.txt Node
Date: Thu Jul 25 18:19:33 EDT 2019
User: cochatt
Spectrometer: HR+D1059
Trigger mode: 1
Integration Time (sec): 1.000000E-1
Scans to average: 1
Electric dark correction enabled: true
Nonlinearity correction enabled: false
Boxcar width: 0
XAxis mode: Wavelengths
Number of Pixels in Spectrum: 2048
>>>>>Begin Spectral Data<<<<<
223.165	-11.5
223.4	-11.5
223.635	-11.5
223.869	-18.5
224.104	-17.5
224.338	-4.5
224.573	-12.5
224.808	-19.5
225.042	-12.5
225.277	-9.5
225.511	3.5
225.746	-1.5
225.98	7.5
226.215	-2.5
226.449	13.5
226.683	28.5
226.918	18.5
227.152	38.5
227.387	40.5
227.621	56.5
227.856	46.5
228.09	40.5
228.324	45.5
228.559	66.5
228.793	62.5
229.027	104.5
229.262	106.5
229.496	111.5
229.73	105.5
229.964	104.5
230.199	122.5
230.433	124.5
230.667	132.5
230.901	124.5
231.136	110.5
231.37	124.5
231.604	118.5
231.838	122.5
232.072	126.5
232.306	132.5
232.541	133.5
232.775	123.5
233.009	132.5
233.243	142.5
233.477	148.5
233.711	132.5
233.945	141.5
234.179	154.5
234.413	136.5
234.647	118.5
234.881	145.5
235.115	138.5
235.349	140.5
235.583	130.5
235.817	128.5
236.051	127.5
236.285	123.5
236.519	136.5
236.753	149.5
236.987	140.5
237.221	124.5
237.455	131.5
237.689	143.5
237.922	140.5
238.156	140.5
238.39	149.5
238.624	138.5
238.858	147.5
239.091	133.5
239.325	150.5
239.559	156.5
239.793	152.5
240.027	155.5
240.26	158.5
240.494	151.5
240.728	150.5
240.961	148.5
241.195	154.5
241.429	145.5
241.662	157.5
241.896	184.5
242.13	158.5
242.363	166.5
242.597	156.5
242.83	160.5
243.064	153.5
243.298	173.5
243.531	168.5
243.765	158.5
243.998	165.5
244.232	170.5
244.465	146.5
244.699	174.5
244.932	185.5
245.166	169.5
245.399	181.5
245.633	165.5
245.866	160.5
246.099	188.5
246.333	167.5
246.566	184.5
246.8	190.5
247.033	189.5
247.266	186.5
247.5	186.5
247.733	198.5
247.966	181.5
248.2	190.5
248.433	184.5
248.666	183.5
248.899	200.5
249.133	195.5
249.366	200.5
249.599	220.5
249.832	206.5
250.066	190.5
250.299	198.5
250.532	202.5
250.765	199.5
250.998	202.5
251.231	209.5
251.465	212.5
251.698	216.5
251.931	206.5
252.164	203.5
252.397	220.5
252.63	221.5
252.863	211.5
253.096	206.5
253.329	214.5
253.562	205.5
253.795	221.5
254.028	219.5
254.261	204.5
254.494	214.5
254.727	234.5
254.96	247.5
255.193	228.5
255.426	216.5
255.659	211.5
255.892	221.5
256.124	226.5
256.357	235.5
256.59	228.5
256.823	227.5
257.056	239.5
257.289	248.5
257.521	224.5
257.754	248.5
257.987	240.5
258.22	243.5
258.452	220.5
258.685	246.5
258.918	241.5
259.151	256.5
259.383	237.5
259.616	241.5
259.849	248.5
260.081	268.5
260.314	245.5
260.547	254.5
260.779	239.5
261.012	234.5
261.244	249.5
261.477	246.5
261.71	270.5
261.942	247.5
262.175	257.5
262.407	254.5
262.64	252.5
262.872	245.5
263.105	252.5
263.337	272.5
263.57	260.5
263.802	265.5
264.035	286.5
264.267	282.5
264.499	257.5
264.732	288.5
264.964	280.5
265.197	253.5
265.429	275.5
265.661	288.5
265.894	281.5
266.126	260.5
266.358	278.5
266.591	284.5
266.823	286.5
267.055	281.5
267.287	268.5
267.52	280.5
267.752	282.5
267.984	284.5
268.216	298.5
268.448	284.5
268.681	293.5
268.913	286.5
269.145	293.5
269.377	310.5
269.609	292.5
269.841	290.5
270.073	293.5
270.306	293.5
270.538	322.5
270.77	310.5
271.002	318.5
271.234	300.5
271.466	295.5
271.698	296.5
271.93	323.5
272.162	328.5
272.394	311.5
272.626	311.5
272.858	302.5
273.09	322.5
273.322	304.5
273.553	316.5
273.785	310.5
274.017	314.5
274.249	313.5
274.481	316.5
274.713	313.5
274.945	322.5
275.176	320.5
275.408	335.5
275.64	327.5
275.872	330.5
276.104	330.5
276.335	318.5
276.567	325.5
276.799	337.5
277.031	344.5
277.262	339.5
277.494	341.5
277.726	337.5
277.957	338.5
278.189	326.5
278.421	331.5
278.652	334.5
278.884	333.5
279.115	350.5
279.347	355.5
279.579	349.5
279.81	352.5
280.042	362.5
280.273	334.5
280.505	340.5
280.736	359.5
280.968	344.5
281.199	355.5
281.431	373.5
281.662	352.5
281.894	358.5
282.125	368.5
282.356	361.5
282.588	356.5
282.819	354.5
283.051	368.5
283.282	378.5
283.513	377.5
283.745	373.5
283.976	382.5
284.207	375.5
284.439	373.5
284.67	374.5
284.901	365.5
285.132	396.5
285.364	390.5
285.595	365.5
285.826	372.5
286.057	388.5
286.288	384.5
286.52	411.5
286.751	388.5
286.982	384.5
287.213	380.5
287.444	380.5
287.675	388.5
287.906	386.5
288.138	414.5
288.369	399.5
288.6	400.5
288.831	402.5
289.062	401.5
289.293	408.5
289.524	396.5
289.755	402.5
289.986	403.5
290.217	406.5
290.448	406.5
290.679	413.5
290.91	417.5
291.141	403.5
291.371	411.5
291.602	420.5
291.833	406.5
292.064	407.5
292.295	390.5
292.526	408.5
292.757	410.5
292.987	424.5
293.218	414.5
293.449	425.5
293.68	423.5
293.91	412.5
294.141	428.5
294.372	417.5
294.603	412.5
294.833	419.5
295.064	426.5
295.295	444.5
295.525	411.5
295.756	426.5
295.987	419.5
296.217	406.5
296.448	439.5
296.679	421.5
296.909	424.5
297.14	430.5
297.37	441.5
297.601	453.5
297.831	467.5
298.062	449.5
298.292	456.5
298.523	474.5
298.753	453.5
298.984	462.5
299.214	454.5
299.445	454.5
299.675	424.5
299.905	453.5
300.136	462.5
300.366	456.5
300.597	475.5
300.827	475.5
301.057	487.5
301.288	500.5
301.518	476.5
301.748	468.5
301.979	503.5
302.209	469.5
302.439	482.5
302.669	484.5
302.9	486.5
303.13	489.5
303.36	460.5
303.59	456.5
303.82	473.5
304.051	503.5
304.281	474.5
304.511	489.5
304.741	496.5
304.971	492.5
305.201	494.5
305.431	525.5
305.661	493.5
305.891	483.5
306.121	467.5
306.352	466.5
306.582	469.5
306.812	484.5
307.042	468.5
307.272	473.5
307.502	476.5
307.731	467.5
307.961	461.5
308.191	466.5
308.421	453.5
308.651	453.5
308.881	489.5
309.111	480.5
309.341	469.5
309.571	491.5
309.8	484.5
310.03	500.5
310.26	488.5
310.49	508.5
310.72	480.5
310.949	475.5
311.179	489.5
311.409	475.5
311.639	502.5
311.868	476.5
312.098	479.5
312.328	520.5
312.557	521.5
312.787	497.5
313.017	497.5
313.246	513.5
313.476	506.5
313.706	505.5
313.935	516.5
314.165	527.5
314.394	526.5
314.624	509.5
314.853	486.5
315.083	522.5
315.312	522.5
315.542	508.5
315.771	493.5
316.001	499.5
316.23	512.5
316.46	502.5
316.689	512.5
316.919	509.5
317.148	510.5
317.377	517.5
317.607	513.5
317.836	519.5
318.065	536.5
318.295	517.5
318.524	508.5
318.753	524.5
318.983	505.5
319.212	492.5
319.441	512.5
319.67	500.5
319.9	494.5
320.129	516.5
320.358	520.5
320.587	516.5
320.816	516.5
321.046	512.5
321.275	530.5
321.504	516.5
321.733	516.5
321.962	517.5
322.191	524.5
322.42	513.5
322.649	525.5
322.878	532.5
323.108	518.5
323.337	539.5
323.566	544.5
323.795	536.5
324.024	531.5
324.253	524.5
324.482	529.5
324.71	558.5
324.939	542.5
325.168	565.5
325.397	564.5
325.626	557.5
325.855	542.5
326.084	567.5
326.313	580.5
326.542	555.5
326.77	568.5
326.999	553.5
327.228	557.5
327.457	546.5
327.686	562.5
327.914	574.5
328.143	547.5
328.372	578.5
328.6	554.5
328.829	578.5
329.058	552.5
329.287	586.5
329.515	551.5
329.744	553.5
329.972	580.5
330.201	564.5
330.43	582.5
330.658	588.5
330.887	584.5
331.115	567.5
331.344	580.5
331.572	592.5
331.801	582.5
332.03	579.5
332.258	588.5
332.486	627.5
332.715	644.5
332.943	636.5
333.172	667.5
333.4	709.5
333.629	697.5
333.857	698.5
334.085	683.5
334.314	696.5
334.542	704.5
334.771	674.5
334.999	671.5
335.227	661.5
335.455	654.5
335.684	689.5
335.912	643.5
336.14	653.5
336.369	668.5
336.597	670.5
336.825	680.5
337.053	688.5
337.281	658.5
337.51	642.5
337.738	634.5
337.966	630.5
338.194	617.5
338.422	618.5
338.65	607.5
338.878	600.5
339.106	586.5
339.334	646.5
339.562	621.5
339.79	589.5
340.018	572.5
340.246	587.5
340.474	578.5
340.702	589.5
340.93	574.5
341.158	589.5
341.386	613.5
341.614	616.5
341.842	610.5
342.07	586.5
342.298	569.5
342.526	575.5
342.754	587.5
342.981	587.5
343.209	571.5
343.437	624.5
343.665	646.5
343.893	642.5
344.12	692.5
344.348	636.5
344.576	659.5
344.804	635.5
345.031	621.5
345.259	617.5
345.487	597.5
345.714	609.5
345.942	582.5
346.17	613.5
346.397	584.5
346.625	566.5
346.853	578.5
347.08	565.5
347.308	582.5
347.535	579.5
347.763	586.5
347.99	580.5
348.218	564.5
348.445	568.5
348.673	554.5
348.9	566.5
349.128	570.5
349.355	550.5
349.583	577.5
349.81	550.5
350.037	556.5
350.265	537.5
350.492	564.5
350.72	558.5
350.947	574.5
351.174	562.5
351.402	567.5
351.629	578.5
351.856	568.5
352.083	540.5
352.311	566.5
352.538	566.5
352.765	583.5
352.992	540.5
353.22	501.5
353.447	530.5
353.674	531.5
353.901	538.5
354.128	511.5
354.355	531.5
354.583	534.5
354.81	505.5
355.037	534.5
355.264	540.5
355.491	535.5
355.718	555.5
355.945	534.5
356.172	539.5
356.399	550.5
356.626	532.5
356.853	568.5
357.08	553.5
357.307	546.5
357.534	556.5
357.761	523.5
357.988	546.5
358.215	528.5
358.441	538.5
358.668	541.5
358.895	530.5
359.122	517.5
359.349	532.5
359.576	534.5
359.802	538.5
360.029	534.5
360.256	540.5
360.483	516.5
360.709	522.5
360.936	523.5
361.163	542.5
361.39	532.5
361.616	529.5
361.843	543.5
362.07	564.5
362.296	561.5
362.523	517.5
362.749	534.5
362.976	521.5
363.203	527.5
363.429	517.5
363.656	538.5
363.882	554.5
364.109	540.5
364.335	533.5
364.562	527.5
364.788	524.5
365.015	538.5
365.241	539.5
365.468	532.5
365.694	510.5
365.92	530.5
366.147	544.5
366.373	520.5
366.599	515.5
366.826	501.5
367.052	511.5
367.278	533.5
367.505	522.5
367.731	518.5
367.957	516.5
368.184	525.5
368.41	546.5
368.636	530.5
368.862	525.5
369.089	528.5
369.315	517.5
369.541	536.5
369.767	530.5
369.993	526.5
370.219	562.5
370.445	555.5
370.672	551.5
370.898	562.5
371.124	556.5
371.35	576.5
371.576	558.5
371.802	549.5
372.028	552.5
372.254	539.5
372.48	551.5
372.706	580.5
372.932	573.5
373.158	576.5
373.384	548.5
373.61	554.5
373.835	542.5
374.061	524.5
374.287	581.5
374.513	568.5
374.739	586.5
374.965	589.5
375.191	601.5
375.416	617.5
375.642	596.5
375.868	591.5
376.094	565.5
376.319	553.5
376.545	555.5
376.771	550.5
376.997	549.5
377.222	533.5
377.448	563.5
377.674	532.5
377.899	548.5
378.125	556.5
378.35	554.5
378.576	535.5
378.802	532.5
379.027	526.5
379.253	521.5
379.478	541.5
379.704	528.5
379.929	530.5
380.155	528.5
380.38	530.5
380.606	525.5
380.831	552.5
381.057	539.5
381.282	543.5
381.507	541.5
381.733	526.5
381.958	536.5
382.184	552.5
382.409	536.5
382.634	549.5
382.86	570.5
383.085	548.5
383.31	570.5
383.535	568.5
383.761	589.5
383.986	600.5
384.211	599.5
384.436	602.5
384.662	601.5
384.887	593.5
385.112	610.5
385.337	605.5
385.562	639.5
385.787	624.5
386.013	638.5
386.238	610.5
386.463	614.5
386.688	618.5
386.913	610.5
387.138	618.5
387.363	612.5
387.588	630.5
387.813	613.5
388.038	591.5
388.263	622.5
388.488	636.5
388.713	608.5
388.938	578.5
389.163	613.5
389.387	613.5
389.612	595.5
389.837	595.5
390.062	628.5
390.287	620.5
390.512	612.5
390.736	599.5
390.961	632.5
391.186	632.5
391.411	660.5
391.636	669.5
391.86	674.5
392.085	679.5
392.31	674.5
392.534	669.5
392.759	642.5
392.984	607.5
393.208	640.5
393.433	644.5
393.658	655.5
393.882	646.5
394.107	676.5
394.331	653.5
394.556	663.5
394.78	678.5
395.005	652.5
395.229	648.5
395.454	659.5
395.678	668.5
395.903	669.5
396.127	675.5
396.352	660.5
396.576	662.5
396.801	639.5
397.025	658.5
397.249	692.5
397.474	694.5
397.698	703.5
397.922	712.5
398.147	706.5
398.371	678.5
398.595	724.5
398.82	745.5
399.044	806.5
399.268	845.5
399.492	924.5
399.717	1046.5
399.941	1021.5
400.165	931.5
400.389	864.5
400.613	830.5
400.837	798.5
401.062	796.5
401.286	762.5
401.51	748.5
401.734	773.5
401.958	776.5
402.182	758.5
402.406	774.5
402.63	783.5
402.854	807.5
403.078	802.5
403.302	813.5
403.526	826.5
403.75	836.5
403.974	851.5
404.198	829.5
404.422	851.5
404.645	838.5
404.869	849.5
405.093	854.5
405.317	821.5
405.541	829.5
405.765	827.5
405.988	836.5
406.212	836.5
406.436	835.5
406.66	868.5
406.883	873.5
407.107	892.5
407.331	914.5
407.555	944.5
407.778	949.5
408.002	928.5
408.226	924.5
408.449	910.5
408.673	854.5
408.896	873.5
409.12	843.5
409.344	905.5
409.567	840.5
409.791	856.5
410.014	867.5
410.238	859.5
410.461	851.5
410.685	843.5
410.908	841.5
411.132	811.5
411.355	792.5
411.578	808.5
411.802	810.5
412.025	806.5
412.249	841.5
412.472	817.5
412.695	794.5
412.919	783.5
413.142	772.5
413.365	801.5
413.589	797.5
413.812	776.5
414.035	765.5
414.258	787.5
414.482	772.5
414.705	776.5
414.928	785.5
415.151	786.5
415.374	735.5
415.597	800.5
415.821	792.5
416.044	757.5
416.267	771.5
416.49	768.5
416.713	788.5
416.936	791.5
417.159	774.5
417.382	752.5
417.605	774.5
417.828	765.5
418.051	769.5
418.274	802.5
418.497	775.5
418.72	826.5
418.943	781.5
419.166	835.5
419.389	880.5
419.611	878.5
419.834	841.5
420.057	819.5
420.28	792.5
420.503	799.5
420.726	756.5
420.948	756.5
421.171	785.5
421.394	796.5
421.617	751.5
421.839	825.5
422.062	789.5
422.285	783.5
422.507	764.5
422.73	776.5
422.953	805.5
423.175	814.5
423.398	843.5
423.621	798.5
423.843	831.5
424.066	824.5
424.288	821.5
424.511	830.5
424.733	796.5
424.956	788.5
425.178	806.5
425.401	783.5
425.623	809.5
425.846	779.5
426.068	787.5
426.291	766.5
426.513	773.5
426.735	749.5
426.958	741.5
427.18	741.5
427.402	767.5
427.625	754.5
427.847	724.5
428.069	733.5
428.292	749.5
428.514	730.5
428.736	748.5
428.958	721.5
429.181	696.5
429.403	715.5
429.625	729.5
429.847	729.5
430.069	745.5
430.292	749.5
430.514	745.5
430.736	731.5
430.958	724.5
431.18	747.5
431.402	740.5
431.624	721.5
431.846	733.5
432.068	722.5
432.29	748.5
432.512	726.5
432.734	726.5
432.956	757.5
433.178	768.5
433.4	759.5
433.622	756.5
433.844	787.5
434.066	758.5
434.287	790.5
434.509	775.5
434.731	786.5
434.953	810.5
435.175	796.5
435.397	835.5
435.618	757.5
435.84	792.5
436.062	764.5
436.284	774.5
436.505	745.5
436.727	762.5
436.949	746.5
437.17	763.5
437.392	762.5
437.614	741.5
437.835	710.5
438.057	724.5
438.278	715.5
438.5	733.5
438.721	724.5
438.943	729.5
439.165	737.5
439.386	733.5
439.608	737.5
439.829	762.5
440.05	753.5
440.272	784.5
440.493	767.5
440.715	764.5
440.936	787.5
441.158	771.5
441.379	791.5
441.6	813.5
441.822	832.5
442.043	821.5
442.264	822.5
442.486	828.5
442.707	819.5
442.928	807.5
443.149	838.5
443.371	824.5
443.592	828.5
443.813	832.5
444.034	826.5
444.255	876.5
444.476	874.5
444.698	915.5
444.919	950.5
445.14	1036.5
445.361	913.5
445.582	845.5
445.803	828.5
446.024	809.5
446.245	804.5
446.466	790.5
446.687	786.5
446.908	758.5
447.129	787.5
447.35	775.5
447.571	759.5
447.792	731.5
448.013	718.5
448.234	741.5
448.455	731.5
448.675	692.5
448.896	722.5
449.117	707.5
449.338	717.5
449.559	730.5
449.779	719.5
450	696.5
450.221	707.5
450.442	719.5
450.662	716.5
450.883	724.5
451.104	744.5
451.324	738.5
451.545	706.5
451.766	724.5
451.986	711.5
452.207	697.5
452.428	693.5
452.648	730.5
452.869	690.5
453.089	677.5
453.31	708.5
453.53	676.5
453.751	683.5
453.971	678.5
454.192	688.5
454.412	680.5
454.633	696.5
454.853	694.5
455.073	677.5
455.294	704.5
455.514	681.5
455.734	663.5
455.955	682.5
456.175	683.5
456.395	650.5
456.616	658.5
456.836	681.5
457.056	668.5
457.276	631.5
457.497	648.5
457.717	686.5
457.937	682.5
458.157	686.5
458.377	709.5
458.598	702.5
458.818	702.5
459.038	727.5
459.258	733.5
459.478	776.5
459.698	792.5
459.918	813.5
460.138	809.5
460.358	844.5
460.578	856.5
460.798	883.5
461.018	896.5
461.238	880.5
461.458	862.5
461.678	856.5
461.898	892.5
462.118	904.5
462.338	914.5
462.558	941.5
462.777	978.5
462.997	1021.5
463.217	1082.5
463.437	1086.5
463.657	1038.5
463.876	996.5
464.096	973.5
464.316	979.5
464.536	991.5
464.755	977.5
464.975	928.5
465.195	911.5
465.414	870.5
465.634	821.5
465.854	803.5
466.073	765.5
466.293	793.5
466.512	780.5
466.732	751.5
466.951	739.5
467.171	750.5
467.391	787.5
467.61	756.5
467.829	749.5
468.049	758.5
468.268	724.5
468.488	730.5
468.707	743.5
468.927	757.5
469.146	734.5
469.365	745.5
469.585	788.5
469.804	768.5
470.023	779.5
470.243	738.5
470.462	778.5
470.681	745.5
470.901	776.5
471.12	779.5
471.339	772.5
471.558	761.5
471.777	770.5
471.997	745.5
472.216	727.5
472.435	730.5
472.654	721.5
472.873	717.5
473.092	724.5
473.311	719.5
473.53	702.5
473.749	715.5
473.968	732.5
474.187	722.5
474.406	729.5
474.625	727.5
474.844	709.5
475.063	726.5
475.282	737.5
475.501	739.5
475.72	758.5
475.939	737.5
476.158	760.5
476.377	748.5
476.596	744.5
476.814	741.5
477.033	724.5
477.252	762.5
477.471	791.5
477.69	792.5
477.908	843.5
478.127	830.5
478.346	839.5
478.564	866.5
478.783	860.5
479.002	877.5
479.22	889.5
479.439	874.5
479.658	873.5
479.876	863.5
480.095	898.5
480.313	926.5
480.532	916.5
480.751	916.5
480.969	901.5
481.188	869.5
481.406	852.5
481.624	835.5
481.843	836.5
482.061	839.5
482.28	822.5
482.498	834.5
482.717	812.5
482.935	834.5
483.153	836.5
483.372	853.5
483.59	854.5
483.808	841.5
484.027	852.5
484.245	862.5
484.463	869.5
484.681	865.5
484.9	838.5
485.118	868.5
485.336	880.5
485.554	866.5
485.772	874.5
485.99	859.5
486.209	880.5
486.427	878.5
486.645	877.5
486.863	877.5
487.081	881.5
487.299	886.5
487.517	859.5
487.735	900.5
487.953	899.5
488.171	868.5
488.389	898.5
488.607	872.5
488.825	862.5
489.043	870.5
489.261	868.5
489.479	866.5
489.696	868.5
489.914	846.5
490.132	881.5
490.35	901.5
490.568	890.5
490.786	897.5
491.003	910.5
491.221	900.5
491.439	898.5
491.657	902.5
491.874	913.5
492.092	937.5
492.31	942.5
492.527	901.5
492.745	944.5
492.963	926.5
493.18	910.5
493.398	915.5
493.615	936.5
493.833	914.5
494.05	952.5
494.268	934.5
494.485	920.5
494.703	968.5
494.92	945.5
495.138	939.5
495.355	915.5
495.573	943.5
495.79	970.5
496.008	970.5
496.225	964.5
496.442	948.5
496.66	972.5
496.877	994.5
497.094	1022.5
497.312	1035.5
497.529	1052.5
497.746	1047.5
497.963	1073.5
498.181	1097.5
498.398	1109.5
498.615	1163.5
498.832	1258.5
499.049	1322.5
499.267	1369.5
499.484	1517.5
499.701	1650.5
499.918	1760.5
500.135	1918.5
500.352	2130.5
500.569	2168.5
500.786	2160.5
501.003	2037.5
501.22	1885.5
501.437	1700.5
501.654	1542.5
501.871	1462.5
502.088	1388.5
502.305	1287.5
502.522	1242.5
502.739	1168.5
502.956	1140.5
503.172	1109.5
503.389	1072.5
503.606	1041.5
503.823	1024.5
504.04	1025.5
504.256	1024.5
504.473	1050.5
504.69	1067.5
504.907	978.5
505.123	985.5
505.34	939.5
505.557	912.5
505.773	891.5
505.99	889.5
506.207	885.5
506.423	854.5
506.64	859.5
506.856	815.5
507.073	825.5
507.289	821.5
507.506	812.5
507.722	803.5
507.939	818.5
508.155	828.5
508.372	818.5
508.588	790.5
508.805	777.5
509.021	781.5
509.238	780.5
509.454	781.5
509.67	754.5
509.887	772.5
510.103	774.5
510.319	752.5
510.536	749.5
510.752	728.5
510.968	752.5
511.184	740.5
511.401	745.5
511.617	750.5
511.833	731.5
512.049	765.5
512.265	727.5
512.481	762.5
512.698	733.5
512.914	760.5
513.13	764.5
513.346	762.5
513.562	754.5
513.778	749.5
513.994	768.5
514.21	761.5
514.426	733.5
514.642	730.5
514.858	746.5
515.074	766.5
515.29	758.5
515.506	780.5
515.721	780.5
515.937	784.5
516.153	794.5
516.369	813.5
516.585	837.5
516.801	863.5
517.016	882.5
517.232	908.5
517.448	948.5
517.664	949.5
517.879	955.5
518.095	941.5
518.311	929.5
518.527	899.5
518.742	870.5
518.958	845.5
519.173	832.5
519.389	811.5
519.605	821.5
519.82	781.5
520.036	745.5
520.251	756.5
520.467	739.5
520.682	757.5
520.898	727.5
521.113	723.5
521.329	741.5
521.544	721.5
521.76	715.5
521.975	717.5
522.19	726.5
522.406	692.5
522.621	696.5
522.836	712.5
523.052	700.5
523.267	685.5
523.482	729.5
523.698	695.5
523.913	676.5
524.128	715.5
524.343	712.5
524.559	692.5
524.774	685.5
524.989	702.5
525.204	688.5
525.419	658.5
525.634	699.5
525.849	725.5
526.064	694.5
526.28	675.5
526.495	649.5
526.71	689.5
526.925	685.5
527.14	660.5
527.355	658.5
527.57	677.5
527.785	656.5
527.999	681.5
528.214	692.5
528.429	692.5
528.644	685.5
528.859	698.5
529.074	668.5
529.289	698.5
529.503	676.5
529.718	660.5
529.933	681.5
530.148	665.5
530.363	677.5
530.577	632.5
530.792	651.5
531.007	635.5
531.221	669.5
531.436	673.5
531.651	672.5
531.865	642.5
532.08	665.5
532.295	664.5
532.509	657.5
532.724	646.5
532.938	659.5
533.153	681.5
533.367	678.5
533.582	647.5
533.796	666.5
534.011	676.5
534.225	672.5
534.44	642.5
534.654	658.5
534.868	638.5
535.083	657.5
535.297	650.5
535.511	626.5
535.726	623.5
535.94	631.5
536.154	630.5
536.369	629.5
536.583	630.5
536.797	608.5
537.011	605.5
537.225	622.5
537.44	615.5
537.654	616.5
537.868	619.5
538.082	613.5
538.296	607.5
538.51	610.5
538.724	633.5
538.938	594.5
539.153	601.5
539.367	617.5
539.581	591.5
539.795	607.5
540.009	577.5
540.222	606.5
540.436	592.5
540.65	601.5
540.864	601.5
541.078	597.5
541.292	598.5
541.506	610.5
541.72	614.5
541.934	615.5
542.147	628.5
542.361	589.5
542.575	603.5
542.789	614.5
543.002	620.5
543.216	597.5
543.43	595.5
543.644	610.5
543.857	610.5
544.071	597.5
544.285	621.5
544.498	621.5
544.712	637.5
544.925	628.5
545.139	618.5
545.352	608.5
545.566	610.5
545.779	629.5
545.993	646.5
546.206	603.5
546.42	630.5
546.633	603.5
546.847	612.5
547.06	632.5
547.274	619.5
547.487	628.5
547.7	619.5
547.914	621.5
548.127	631.5
548.34	628.5
548.554	621.5
548.767	628.5
548.98	581.5
549.193	616.5
549.407	646.5
549.62	640.5
549.833	635.5
550.046	627.5
550.259	609.5
550.473	594.5
550.686	606.5
550.899	625.5
551.112	608.5
551.325	602.5
551.538	602.5
551.751	593.5
551.964	591.5
552.177	605.5
552.39	624.5
552.603	624.5
552.816	659.5
553.029	636.5
553.242	663.5
553.455	629.5
553.667	650.5
553.88	655.5
554.093	626.5
554.306	643.5
554.519	632.5
554.732	588.5
554.944	584.5
555.157	580.5
555.37	589.5
555.583	576.5
555.795	572.5
556.008	545.5
556.221	553.5
556.433	572.5
556.646	544.5
556.859	540.5
557.071	538.5
557.284	530.5
557.496	527.5
557.709	545.5
557.921	538.5
558.134	520.5
558.346	532.5
558.559	525.5
558.771	510.5
558.984	531.5
559.196	523.5
559.409	507.5
559.621	515.5
559.833	525.5
560.046	509.5
560.258	510.5
560.47	540.5
560.683	511.5
560.895	519.5
561.107	520.5
561.32	510.5
561.532	509.5
561.744	524.5
561.956	524.5
562.168	488.5
562.381	480.5
562.593	510.5
562.805	515.5
563.017	518.5
563.229	509.5
563.441	512.5
563.653	491.5
563.865	498.5
564.077	531.5
564.289	512.5
564.501	518.5
564.713	539.5
564.925	553.5
565.137	560.5
565.349	560.5
565.561	548.5
565.773	579.5
565.985	595.5
566.197	642.5
566.408	651.5
566.62	655.5
566.832	724.5
567.044	709.5
567.255	723.5
567.467	730.5
567.679	771.5
567.891	800.5
568.102	792.5
568.314	782.5
568.526	701.5
568.737	668.5
568.949	642.5
569.161	586.5
569.372	588.5
569.584	532.5
569.795	526.5
570.007	528.5
570.218	491.5
570.43	510.5
570.641	510.5
570.853	485.5
571.064	493.5
571.276	486.5
571.487	472.5
571.698	464.5
571.91	459.5
572.121	456.5
572.333	448.5
572.544	435.5
572.755	440.5
572.966	438.5
573.178	450.5
573.389	420.5
573.6	398.5
573.811	403.5
574.023	413.5
574.234	430.5
574.445	423.5
574.656	416.5
574.867	416.5
575.078	415.5
575.289	418.5
575.501	407.5
575.712	417.5
575.923	400.5
576.134	404.5
576.345	390.5
576.556	389.5
576.767	374.5
576.978	404.5
577.188	395.5
577.399	373.5
577.61	396.5
577.821	367.5
578.032	385.5
578.243	402.5
578.454	375.5
578.665	378.5
578.875	380.5
579.086	376.5
579.297	363.5
579.508	374.5
579.718	373.5
579.929	356.5
580.14	357.5
580.35	363.5
580.561	369.5
580.772	352.5
580.982	358.5
581.193	365.5
581.403	365.5
581.614	362.5
581.825	353.5
582.035	357.5
582.246	346.5
582.456	344.5
582.667	363.5
582.877	356.5
583.087	353.5
583.298	349.5
583.508	357.5
583.719	346.5
583.929	355.5
584.139	362.5
584.35	348.5
584.56	348.5
584.77	364.5
584.981	349.5
585.191	340.5
585.401	342.5
585.611	332.5
585.821	354.5
586.032	339.5
586.242	344.5
586.452	330.5
586.662	337.5
586.872	320.5
587.082	334.5
587.292	339.5
587.502	328.5
587.713	347.5
587.923	340.5
588.133	333.5
588.343	331.5
588.553	338.5
588.762	331.5
588.972	355.5
589.182	386.5
589.392	388.5
589.602	342.5
589.812	359.5
590.022	354.5
590.232	327.5
590.441	322.5
590.651	341.5
590.861	339.5
591.071	335.5
591.281	327.5
591.49	332.5
591.7	351.5
591.91	335.5
592.119	346.5
592.329	342.5
592.539	363.5
592.748	378.5
592.958	372.5
593.167	388.5
593.377	377.5
593.587	397.5
593.796	369.5
594.006	369.5
594.215	386.5
594.424	396.5
594.634	379.5
594.843	372.5
595.053	374.5
595.262	337.5
595.472	346.5
595.681	336.5
595.89	330.5
596.1	299.5
596.309	322.5
596.518	322.5
596.727	342.5
596.937	323.5
597.146	306.5
597.355	315.5
597.564	301.5
597.774	293.5
597.983	282.5
598.192	293.5
598.401	296.5
598.61	295.5
598.819	302.5
599.028	300.5
599.237	297.5
599.446	279.5
599.655	298.5
599.864	293.5
600.073	281.5
600.282	276.5
600.491	291.5
600.7	280.5
600.909	284.5
601.118	270.5
601.327	275.5
601.536	272.5
601.745	280.5
601.953	274.5
602.162	300.5
602.371	273.5
602.58	270.5
602.789	275.5
602.997	286.5
603.206	272.5
603.415	268.5
603.623	267.5
603.832	266.5
604.041	262.5
604.249	272.5
604.458	265.5
604.666	278.5
604.875	268.5
605.084	252.5
605.292	256.5
605.501	244.5
605.709	272.5
605.918	260.5
606.126	282.5
606.334	260.5
606.543	270.5
606.751	270.5
606.96	258.5
607.168	264.5
607.376	261.5
607.585	256.5
607.793	260.5
608.001	270.5
608.21	268.5
608.418	275.5
608.626	271.5
608.834	261.5
609.043	272.5
609.251	260.5
609.459	248.5
609.667	258.5
609.875	260.5
610.083	247.5
610.291	264.5
610.499	240.5
610.707	257.5
610.916	244.5
611.124	243.5
611.332	237.5
611.54	270.5
611.748	278.5
611.955	258.5
612.163	253.5
612.371	258.5
612.579	249.5
612.787	244.5
612.995	226.5
613.203	255.5
613.411	262.5
613.618	220.5
613.826	252.5
614.034	233.5
614.242	248.5
614.449	250.5
614.657	244.5
614.865	230.5
615.072	224.5
615.28	240.5
615.488	230.5
615.695	234.5
615.903	244.5
616.111	225.5
616.318	232.5
616.526	241.5
616.733	246.5
616.941	261.5
617.148	253.5
617.356	249.5
617.563	245.5
617.771	241.5
617.978	232.5
618.185	242.5
618.393	236.5
618.6	247.5
618.807	254.5
619.015	236.5
619.222	245.5
619.429	224.5
619.637	240.5
619.844	241.5
620.051	234.5
620.258	241.5
620.466	220.5
620.673	221.5
620.88	224.5
621.087	230.5
621.294	244.5
621.501	237.5
621.708	235.5
621.915	232.5
622.122	215.5
622.329	222.5
622.536	216.5
622.743	221.5
622.95	209.5
623.157	216.5
623.364	215.5
623.571	213.5
623.778	206.5
623.985	203.5
624.192	215.5
624.399	233.5
624.606	240.5
624.812	208.5
625.019	213.5
625.226	205.5
625.433	204.5
625.639	206.5
625.846	221.5
626.053	219.5
626.259	206.5
626.466	217.5
626.673	227.5
626.879	216.5
627.086	209.5
627.293	211.5
627.499	215.5
627.706	210.5
627.912	198.5
628.119	216.5
628.325	212.5
628.532	199.5
628.738	203.5
628.945	201.5
629.151	191.5
629.357	198.5
629.564	210.5
629.77	184.5
629.976	207.5
630.183	200.5
630.389	190.5
630.595	183.5
630.802	226.5
631.008	198.5
631.214	205.5
631.42	200.5
631.627	188.5
631.833	192.5
632.039	189.5
632.245	195.5
632.451	199.5
632.657	202.5
632.863	196.5
633.069	194.5
633.275	199.5
633.481	182.5
633.688	187.5
633.893	199.5
634.099	188.5
634.305	182.5
634.511	177.5
634.717	188.5
634.923	190.5
635.129	178.5
635.335	205.5
635.541	185.5
635.747	180.5
635.952	188.5
636.158	183.5
636.364	179.5
636.57	168.5
636.775	187.5
636.981	186.5
637.187	196.5
637.392	191.5
637.598	182.5
637.804	198.5
638.009	176.5
638.215	186.5
638.421	180.5
638.626	177.5
638.832	188.5
639.037	192.5
639.243	171.5
639.448	169.5
639.654	188.5
639.859	184.5
640.065	162.5
640.27	193.5
640.475	178.5
640.681	181.5
640.886	170.5
641.091	160.5
641.297	171.5
641.502	167.5
641.707	178.5
641.913	161.5
642.118	179.5
642.323	178.5
642.528	170.5
642.733	176.5
642.939	173.5
643.144	170.5
643.349	169.5
643.554	160.5
643.759	168.5
643.964	164.5
644.169	180.5
644.374	167.5
644.579	166.5
644.784	162.5
644.989	160.5
645.194	157.5
645.399	170.5
645.604	174.5
645.809	170.5
646.014	163.5
646.219	161.5
646.423	177.5
646.628	192.5
646.833	185.5
647.038	161.5
647.243	186.5
647.447	167.5
647.652	179.5
647.857	177.5
648.062	180.5
648.266	174.5
648.471	193.5
648.676	167.5
648.88	177.5
649.085	171.5
649.289	160.5
649.494	169.5
649.698	169.5
649.903	176.5
650.107	149.5
650.312	180.5
650.516	167.5
650.721	166.5
650.925	155.5
651.13	160.5
651.334	150.5
651.539	173.5
651.743	155.5
651.947	150.5
652.152	150.5
652.356	154.5
652.56	149.5
652.764	143.5
652.969	164.5
653.173	162.5
653.377	164.5
653.581	144.5
653.785	134.5
653.99	148.5
654.194	152.5
654.398	148.5
654.602	145.5
654.806	143.5
655.01	134.5
655.214	138.5
655.418	145.5
655.622	140.5
655.826	136.5
656.03	138.5
656.234	146.5
656.438	141.5
656.642	130.5
656.846	137.5
657.049	136.5
657.253	132.5
657.457	121.5
657.661	110.5
657.865	117.5
658.068	120.5
658.272	122.5
658.476	131.5
658.68	122.5
658.883	121.5
659.087	120.5
659.291	102.5
659.494	105.5
659.698	114.5
659.901	113.5
660.105	100.5
660.309	111.5
660.512	91.5
660.716	85.5
660.919	95.5
661.123	98.5
661.326	98.5
661.53	84.5
661.733	86.5
661.936	93.5
662.14	98.5
662.343	101.5
662.546	89.5
662.75	93.5
662.953	91.5
663.156	93.5
663.36	73.5
663.563	85.5
663.766	80.5
663.969	92.5
664.173	82.5
664.376	85.5
664.579	91.5
664.782	94.5
664.985	84.5
665.188	95.5
665.391	75.5
665.594	73.5
665.797	92.5
666	69.5
666.203	96.5
666.406	74.5
666.609	73.5
666.812	83.5
667.015	82.5
667.218	67.5
667.421	78.5
667.624	77.5
667.827	85.5
668.03	72.5
668.232	76.5
668.435	93.5
668.638	90.5
668.841	69.5
669.043	84.5
669.246	73.5
669.449	72.5
669.651	82.5
669.854	80.5
670.057	91.5
670.259	78.5
670.462	92.5
670.665	68.5
670.867	80.5
671.07	81.5
671.272	88.5
671.475	75.5
671.677	76.5
671.88	88.5
672.082	74.5
672.284	89.5
672.487	68.5
672.689	79.5
672.892	87.5
