Data from NiCl2@0.125M.TitratingCurve.Agarose3%dH2O.NegLispCup.LampEnergy10.LIBS07252019_HRD10591_18-30-16-575.txt Node
Date: Thu Jul 25 18:30:16 EDT 2019
User: cochatt
Spectrometer: HR+D1059
Trigger mode: 1
Integration Time (sec): 1.000000E-1
Scans to average: 1
Electric dark correction enabled: true
Nonlinearity correction enabled: false
Boxcar width: 0
XAxis mode: Wavelengths
Number of Pixels in Spectrum: 2048
>>>>>Begin Spectral Data<<<<<
223.165	-11.06
223.4	-11.06
223.635	-11.06
223.869	-28.06
224.104	-24.06
224.338	-13.06
224.573	-37.06
224.808	-4.06
225.042	-8.06
225.277	6.94
225.511	-2.06
225.746	3.94
225.98	6.94
226.215	5.94
226.449	27.94
226.683	28.94
226.918	19.94
227.152	26.94
227.387	41.94
227.621	38.94
227.856	45.94
228.09	32.94
228.324	50.94
228.559	51.94
228.793	85.94
229.027	105.94
229.262	108.94
229.496	106.94
229.73	113.94
229.964	133.94
230.199	126.94
230.433	140.94
230.667	145.94
230.901	128.94
231.136	130.94
231.37	140.94
231.604	139.94
231.838	152.94
232.072	128.94
232.306	149.94
232.541	154.94
232.775	151.94
233.009	146.94
233.243	151.94
233.477	155.94
233.711	156.94
233.945	140.94
234.179	143.94
234.413	156.94
234.647	142.94
234.881	141.94
235.115	146.94
235.349	155.94
235.583	160.94
235.817	150.94
236.051	148.94
236.285	155.94
236.519	164.94
236.753	169.94
236.987	169.94
237.221	159.94
237.455	156.94
237.689	146.94
237.922	161.94
238.156	180.94
238.39	178.94
238.624	175.94
238.858	168.94
239.091	191.94
239.325	176.94
239.559	176.94
239.793	170.94
240.027	180.94
240.26	158.94
240.494	186.94
240.728	174.94
240.961	203.94
241.195	207.94
241.429	190.94
241.662	187.94
241.896	190.94
242.13	198.94
242.363	190.94
242.597	202.94
242.83	191.94
243.064	213.94
243.298	212.94
243.531	210.94
243.765	210.94
243.998	214.94
244.232	207.94
244.465	223.94
244.699	199.94
244.932	229.94
245.166	227.94
245.399	213.94
245.633	219.94
245.866	232.94
246.099	220.94
246.333	211.94
246.566	234.94
246.8	228.94
247.033	232.94
247.266	233.94
247.5	227.94
247.733	243.94
247.966	240.94
248.2	258.94
248.433	230.94
248.666	238.94
248.899	217.94
249.133	246.94
249.366	236.94
249.599	245.94
249.832	259.94
250.066	248.94
250.299	274.94
250.532	254.94
250.765	259.94
250.998	255.94
251.231	275.94
251.465	277.94
251.698	259.94
251.931	246.94
252.164	268.94
252.397	256.94
252.63	269.94
252.863	278.94
253.096	278.94
253.329	282.94
253.562	275.94
253.795	285.94
254.028	281.94
254.261	287.94
254.494	281.94
254.727	290.94
254.96	271.94
255.193	276.94
255.426	296.94
255.659	310.94
255.892	291.94
256.124	297.94
256.357	303.94
256.59	298.94
256.823	312.94
257.056	308.94
257.289	283.94
257.521	309.94
257.754	314.94
257.987	283.94
258.22	301.94
258.452	317.94
258.685	323.94
258.918	295.94
259.151	297.94
259.383	321.94
259.616	320.94
259.849	306.94
260.081	308.94
260.314	338.94
260.547	313.94
260.779	320.94
261.012	344.94
261.244	340.94
261.477	322.94
261.71	356.94
261.942	332.94
262.175	326.94
262.407	345.94
262.64	328.94
262.872	328.94
263.105	339.94
263.337	337.94
263.57	348.94
263.802	344.94
264.035	356.94
264.267	333.94
264.499	352.94
264.732	316.94
264.964	350.94
265.197	347.94
265.429	348.94
265.661	340.94
265.894	361.94
266.126	356.94
266.358	373.94
266.591	388.94
266.823	371.94
267.055	353.94
267.287	361.94
267.52	371.94
267.752	360.94
267.984	363.94
268.216	373.94
268.448	363.94
268.681	361.94
268.913	372.94
269.145	384.94
269.377	396.94
269.609	379.94
269.841	352.94
270.073	368.94
270.306	372.94
270.538	375.94
270.77	381.94
271.002	397.94
271.234	360.94
271.466	393.94
271.698	395.94
271.93	383.94
272.162	379.94
272.394	412.94
272.626	373.94
272.858	390.94
273.09	394.94
273.322	419.94
273.553	407.94
273.785	392.94
274.017	388.94
274.249	417.94
274.481	412.94
274.713	408.94
274.945	406.94
275.176	407.94
275.408	432.94
275.64	404.94
275.872	404.94
276.104	401.94
276.335	424.94
276.567	424.94
276.799	423.94
277.031	424.94
277.262	438.94
277.494	416.94
277.726	430.94
277.957	434.94
278.189	443.94
278.421	418.94
278.652	425.94
278.884	421.94
279.115	442.94
279.347	440.94
279.579	455.94
279.81	465.94
280.042	451.94
280.273	451.94
280.505	444.94
280.736	448.94
280.968	460.94
281.199	456.94
281.431	457.94
281.662	474.94
281.894	431.94
282.125	465.94
282.356	476.94
282.588	475.94
282.819	471.94
283.051	470.94
283.282	472.94
283.513	488.94
283.745	475.94
283.976	447.94
284.207	495.94
284.439	485.94
284.67	517.94
284.901	475.94
285.132	472.94
285.364	479.94
285.595	484.94
285.826	491.94
286.057	511.94
286.288	496.94
286.52	494.94
286.751	506.94
286.982	500.94
287.213	489.94
287.444	504.94
287.675	492.94
287.906	498.94
288.138	514.94
288.369	501.94
288.6	523.94
288.831	518.94
289.062	517.94
289.293	536.94
289.524	501.94
289.755	530.94
289.986	514.94
290.217	515.94
290.448	520.94
290.679	516.94
290.91	545.94
291.141	525.94
291.371	552.94
291.602	524.94
291.833	521.94
292.064	536.94
292.295	546.94
292.526	534.94
292.757	532.94
292.987	535.94
293.218	519.94
293.449	528.94
293.68	512.94
293.91	519.94
294.141	520.94
294.372	547.94
294.603	543.94
294.833	571.94
295.064	550.94
295.295	556.94
295.525	540.94
295.756	524.94
295.987	556.94
296.217	571.94
296.448	531.94
296.679	549.94
296.909	545.94
297.14	558.94
297.37	569.94
297.601	590.94
297.831	570.94
298.062	582.94
298.292	590.94
298.523	605.94
298.753	572.94
298.984	608.94
299.214	572.94
299.445	572.94
299.675	601.94
299.905	570.94
300.136	586.94
300.366	603.94
300.597	592.94
300.827	599.94
301.057	609.94
301.288	598.94
301.518	602.94
301.748	602.94
301.979	599.94
302.209	604.94
302.439	606.94
302.669	614.94
302.9	605.94
303.13	617.94
303.36	583.94
303.59	580.94
303.82	576.94
304.051	593.94
304.281	601.94
304.511	564.94
304.741	590.94
304.971	579.94
305.201	595.94
305.431	588.94
305.661	588.94
305.891	584.94
306.121	552.94
306.352	589.94
306.582	580.94
306.812	576.94
307.042	592.94
307.272	595.94
307.502	559.94
307.731	588.94
307.961	589.94
308.191	570.94
308.421	569.94
308.651	582.94
308.881	596.94
309.111	569.94
309.341	556.94
309.571	595.94
309.8	585.94
310.03	603.94
310.26	603.94
310.49	570.94
310.72	592.94
310.949	573.94
311.179	581.94
311.409	596.94
311.639	579.94
311.868	604.94
312.098	592.94
312.328	578.94
312.557	589.94
312.787	615.94
313.017	621.94
313.246	632.94
313.476	601.94
313.706	619.94
313.935	634.94
314.165	630.94
314.394	599.94
314.624	627.94
314.853	619.94
315.083	618.94
315.312	623.94
315.542	629.94
315.771	619.94
316.001	637.94
316.23	619.94
316.46	633.94
316.689	611.94
316.919	601.94
317.148	615.94
317.377	609.94
317.607	617.94
317.836	596.94
318.065	603.94
318.295	587.94
318.524	600.94
318.753	601.94
318.983	606.94
319.212	603.94
319.441	610.94
319.67	628.94
319.9	609.94
320.129	587.94
320.358	593.94
320.587	605.94
320.816	606.94
321.046	615.94
321.275	602.94
321.504	604.94
321.733	616.94
321.962	617.94
322.191	600.94
322.42	596.94
322.649	639.94
322.878	626.94
323.108	637.94
323.337	635.94
323.566	614.94
323.795	609.94
324.024	622.94
324.253	635.94
324.482	625.94
324.71	626.94
324.939	609.94
325.168	644.94
325.397	635.94
325.626	631.94
325.855	651.94
326.084	663.94
326.313	676.94
326.542	683.94
326.77	687.94
326.999	675.94
327.228	676.94
327.457	661.94
327.686	670.94
327.914	668.94
328.143	682.94
328.372	672.94
328.6	688.94
328.829	658.94
329.058	689.94
329.287	674.94
329.515	654.94
329.744	669.94
329.972	668.94
330.201	690.94
330.43	698.94
330.658	686.94
330.887	680.94
331.115	686.94
331.344	730.94
331.572	697.94
331.801	710.94
332.03	726.94
332.258	732.94
332.486	780.94
332.715	778.94
332.943	778.94
333.172	866.94
333.4	890.94
333.629	899.94
333.857	919.94
334.085	891.94
334.314	887.94
334.542	874.94
334.771	870.94
334.999	847.94
335.227	834.94
335.455	836.94
335.684	839.94
335.912	819.94
336.14	805.94
336.369	800.94
336.597	780.94
336.825	816.94
337.053	800.94
337.281	790.94
337.51	772.94
337.738	771.94
337.966	736.94
338.194	745.94
338.422	722.94
338.65	703.94
338.878	716.94
339.106	702.94
339.334	708.94
339.562	708.94
339.79	686.94
340.018	695.94
340.246	670.94
340.474	686.94
340.702	709.94
340.93	704.94
341.158	726.94
341.386	711.94
341.614	707.94
341.842	699.94
342.07	700.94
342.298	690.94
342.526	702.94
342.754	687.94
342.981	672.94
343.209	714.94
343.437	727.94
343.665	786.94
343.893	832.94
344.12	896.94
344.348	858.94
344.576	790.94
344.804	756.94
345.031	713.94
345.259	710.94
345.487	698.94
345.714	688.94
345.942	698.94
346.17	668.94
346.397	674.94
346.625	664.94
346.853	691.94
347.08	684.94
347.308	699.94
347.535	661.94
347.763	699.94
347.99	702.94
348.218	704.94
348.445	696.94
348.673	695.94
348.9	680.94
349.128	676.94
349.355	682.94
349.583	674.94
349.81	673.94
350.037	628.94
350.265	660.94
350.492	659.94
350.72	644.94
350.947	647.94
351.174	664.94
351.402	642.94
351.629	640.94
351.856	660.94
352.083	643.94
352.311	645.94
352.538	631.94
352.765	634.94
352.992	635.94
353.22	613.94
353.447	637.94
353.674	646.94
353.901	647.94
354.128	665.94
354.355	652.94
354.583	635.94
354.81	666.94
355.037	662.94
355.264	636.94
355.491	651.94
355.718	648.94
355.945	640.94
356.172	643.94
356.399	653.94
356.626	644.94
356.853	678.94
357.08	657.94
357.307	642.94
357.534	644.94
357.761	650.94
357.988	650.94
358.215	640.94
358.441	633.94
358.668	639.94
358.895	650.94
359.122	666.94
359.349	662.94
359.576	641.94
359.802	652.94
360.029	646.94
360.256	670.94
360.483	685.94
360.709	634.94
360.936	630.94
361.163	645.94
361.39	646.94
361.616	662.94
361.843	636.94
362.07	651.94
362.296	658.94
362.523	669.94
362.749	635.94
362.976	639.94
363.203	653.94
363.429	613.94
363.656	654.94
363.882	640.94
364.109	659.94
364.335	645.94
364.562	640.94
364.788	639.94
365.015	632.94
365.241	632.94
365.468	639.94
365.694	645.94
365.92	666.94
366.147	658.94
366.373	625.94
366.599	646.94
366.826	656.94
367.052	648.94
367.278	641.94
367.505	639.94
367.731	626.94
367.957	640.94
368.184	658.94
368.41	651.94
368.636	664.94
368.862	672.94
369.089	667.94
369.315	671.94
369.541	666.94
369.767	682.94
369.993	681.94
370.219	651.94
370.445	686.94
370.672	690.94
370.898	705.94
371.124	683.94
371.35	688.94
371.576	686.94
371.802	708.94
372.028	701.94
372.254	699.94
372.48	719.94
372.706	719.94
372.932	730.94
373.158	763.94
373.384	688.94
373.61	724.94
373.835	711.94
374.061	708.94
374.287	690.94
374.513	729.94
374.739	739.94
374.965	754.94
375.191	799.94
375.416	818.94
375.642	773.94
375.868	763.94
376.094	743.94
376.319	739.94
376.545	750.94
376.771	712.94
376.997	712.94
377.222	702.94
377.448	710.94
377.674	720.94
377.899	691.94
378.125	714.94
378.35	695.94
378.576	699.94
378.802	702.94
379.027	693.94
379.253	721.94
379.478	707.94
379.704	710.94
379.929	707.94
380.155	699.94
380.38	716.94
380.606	694.94
380.831	704.94
381.057	703.94
381.282	716.94
381.507	724.94
381.733	716.94
381.958	716.94
382.184	707.94
382.409	711.94
382.634	723.94
382.86	731.94
383.085	770.94
383.31	774.94
383.535	778.94
383.761	780.94
383.986	778.94
384.211	792.94
384.436	827.94
384.662	845.94
384.887	853.94
385.112	830.94
385.337	888.94
385.562	853.94
385.787	862.94
386.013	860.94
386.238	852.94
386.463	845.94
386.688	877.94
386.913	862.94
387.138	852.94
387.363	844.94
387.588	825.94
387.813	818.94
388.038	838.94
388.263	836.94
388.488	852.94
388.713	865.94
388.938	832.94
389.163	819.94
389.387	844.94
389.612	792.94
389.837	804.94
390.062	822.94
390.287	798.94
390.512	823.94
390.736	823.94
390.961	829.94
391.186	841.94
391.411	891.94
391.636	922.94
391.86	952.94
392.085	966.94
392.31	936.94
392.534	916.94
392.759	913.94
392.984	883.94
393.208	882.94
393.433	914.94
393.658	898.94
393.882	895.94
394.107	927.94
394.331	912.94
394.556	916.94
394.78	928.94
395.005	908.94
395.229	920.94
395.454	940.94
395.678	971.94
395.903	956.94
396.127	915.94
396.352	907.94
396.576	892.94
396.801	873.94
397.025	896.94
397.249	908.94
397.474	912.94
397.698	958.94
397.922	949.94
398.147	935.94
398.371	923.94
398.595	984.94
398.82	1013.94
399.044	1111.94
399.268	1184.94
399.492	1435.94
399.717	1620.94
399.941	1643.94
400.165	1434.94
400.389	1302.94
400.613	1161.94
400.837	1092.94
401.062	1059.94
401.286	1034.94
401.51	1026.94
401.734	1052.94
401.958	1072.94
402.182	1061.94
402.406	1082.94
402.63	1112.94
402.854	1110.94
403.078	1152.94
403.302	1190.94
403.526	1208.94
403.75	1215.94
403.974	1254.94
404.198	1254.94
404.422	1263.94
404.645	1216.94
404.869	1218.94
405.093	1223.94
405.317	1204.94
405.541	1172.94
405.765	1182.94
405.988	1164.94
406.212	1185.94
406.436	1168.94
406.66	1164.94
406.883	1206.94
407.107	1276.94
407.331	1350.94
407.555	1376.94
407.778	1392.94
408.002	1356.94
408.226	1297.94
408.449	1255.94
408.673	1200.94
408.896	1202.94
409.12	1170.94
409.344	1202.94
409.567	1209.94
409.791	1248.94
410.014	1223.94
410.238	1215.94
410.461	1199.94
410.685	1186.94
410.908	1174.94
411.132	1115.94
411.355	1100.94
411.578	1112.94
411.802	1095.94
412.025	1137.94
412.249	1134.94
412.472	1137.94
412.695	1094.94
412.919	1077.94
413.142	1034.94
413.365	1061.94
413.589	1080.94
413.812	1049.94
414.035	1058.94
414.258	1033.94
414.482	1050.94
414.705	1067.94
414.928	1085.94
415.151	1072.94
415.374	1086.94
415.597	1042.94
415.821	1050.94
416.044	1066.94
416.267	1008.94
416.49	1043.94
416.713	1000.94
416.936	1039.94
417.159	1028.94
417.382	1046.94
417.605	1041.94
417.828	1017.94
418.051	1086.94
418.274	1052.94
418.497	1044.94
418.72	1112.94
418.943	1118.94
419.166	1149.94
419.389	1244.94
419.611	1191.94
419.834	1176.94
420.057	1102.94
420.28	1089.94
420.503	1044.94
420.726	1055.94
420.948	1024.94
421.171	1012.94
421.394	1020.94
421.617	1039.94
421.839	1042.94
422.062	1032.94
422.285	1000.94
422.507	1100.94
422.73	1081.94
422.953	1109.94
423.175	1103.94
423.398	1112.94
423.621	1104.94
423.843	1148.94
424.066	1134.94
424.288	1157.94
424.511	1134.94
424.733	1119.94
424.956	1062.94
425.178	1070.94
425.401	1055.94
425.623	1061.94
425.846	1003.94
426.068	1044.94
426.291	1022.94
426.513	995.94
426.735	996.94
426.958	980.94
427.18	968.94
427.402	961.94
427.625	957.94
427.847	932.94
428.069	961.94
428.292	979.94
428.514	936.94
428.736	944.94
428.958	933.94
429.181	916.94
429.403	924.94
429.625	927.94
429.847	944.94
430.069	918.94
430.292	929.94
430.514	904.94
430.736	927.94
430.958	928.94
431.18	880.94
431.402	937.94
431.624	920.94
431.846	933.94
432.068	967.94
432.29	981.94
432.512	936.94
432.734	923.94
432.956	954.94
433.178	962.94
433.4	974.94
433.622	953.94
433.844	937.94
434.066	979.94
434.287	974.94
434.509	1013.94
434.731	987.94
434.953	1061.94
435.175	1090.94
435.397	1070.94
435.618	1002.94
435.84	987.94
436.062	953.94
436.284	919.94
436.505	925.94
436.727	955.94
436.949	959.94
437.17	946.94
437.392	926.94
437.614	923.94
437.835	891.94
438.057	916.94
438.278	912.94
438.5	913.94
438.721	884.94
438.943	926.94
439.165	901.94
439.386	934.94
439.608	943.94
439.829	949.94
440.05	947.94
440.272	943.94
440.493	939.94
440.715	957.94
440.936	982.94
441.158	969.94
441.379	1040.94
441.6	1097.94
441.822	1072.94
442.043	1105.94
442.264	1064.94
442.486	1025.94
442.707	1067.94
442.928	1075.94
443.149	1051.94
443.371	1049.94
443.592	1094.94
443.813	1055.94
444.034	1070.94
444.255	1110.94
444.476	1169.94
444.698	1242.94
444.919	1320.94
445.14	1381.94
445.361	1224.94
445.582	1106.94
445.803	1062.94
446.024	1019.94
446.245	997.94
446.466	954.94
446.687	959.94
446.908	985.94
447.129	920.94
447.35	931.94
447.571	962.94
447.792	890.94
448.013	904.94
448.234	882.94
448.455	907.94
448.675	898.94
448.896	908.94
449.117	870.94
449.338	886.94
449.559	880.94
449.779	851.94
450	854.94
450.221	871.94
450.442	877.94
450.662	876.94
450.883	887.94
451.104	919.94
451.324	944.94
451.545	912.94
451.766	899.94
451.986	900.94
452.207	894.94
452.428	884.94
452.648	870.94
452.869	889.94
453.089	856.94
453.31	876.94
453.53	842.94
453.751	885.94
453.971	824.94
454.192	838.94
454.412	851.94
454.633	842.94
454.853	840.94
455.073	849.94
455.294	825.94
455.514	849.94
455.734	855.94
455.955	841.94
456.175	830.94
456.395	810.94
456.616	823.94
456.836	817.94
457.056	832.94
457.276	821.94
457.497	802.94
457.717	819.94
457.937	812.94
458.157	841.94
458.377	843.94
458.598	887.94
458.818	866.94
459.038	871.94
459.258	951.94
459.478	969.94
459.698	1001.94
459.918	1014.94
460.138	1034.94
460.358	1086.94
460.578	1130.94
460.798	1107.94
461.018	1147.94
461.238	1143.94
461.458	1125.94
461.678	1090.94
461.898	1124.94
462.118	1135.94
462.338	1209.94
462.558	1231.94
462.777	1264.94
462.997	1386.94
463.217	1519.94
463.437	1568.94
463.657	1406.94
463.876	1337.94
464.096	1310.94
464.316	1328.94
464.536	1340.94
464.755	1279.94
464.975	1268.94
465.195	1202.94
465.414	1110.94
465.634	1040.94
465.854	990.94
466.073	966.94
466.293	963.94
466.512	939.94
466.732	932.94
466.951	955.94
467.171	900.94
467.391	946.94
467.61	907.94
467.829	921.94
468.049	916.94
468.268	874.94
468.488	887.94
468.707	872.94
468.927	889.94
469.146	875.94
469.365	866.94
469.585	912.94
469.804	912.94
470.023	934.94
470.243	931.94
470.462	949.94
470.681	957.94
470.901	962.94
471.12	979.94
471.339	930.94
471.558	897.94
471.777	885.94
471.997	887.94
472.216	889.94
472.435	876.94
472.654	884.94
472.873	866.94
473.092	868.94
473.311	863.94
473.53	847.94
473.749	839.94
473.968	853.94
474.187	832.94
474.406	864.94
474.625	849.94
474.844	856.94
475.063	873.94
475.282	875.94
475.501	840.94
475.72	858.94
475.939	880.94
476.158	886.94
476.377	913.94
476.596	875.94
476.814	908.94
477.033	900.94
477.252	933.94
477.471	946.94
477.69	979.94
477.908	992.94
478.127	1026.94
478.346	1059.94
478.564	1048.94
478.783	1073.94
479.002	1093.94
479.22	1086.94
479.439	1083.94
479.658	1054.94
479.876	1057.94
480.095	1097.94
480.313	1141.94
480.532	1156.94
480.751	1168.94
480.969	1088.94
481.188	1060.94
481.406	1036.94
481.624	1017.94
481.843	992.94
482.061	976.94
482.28	988.94
482.498	989.94
482.717	987.94
482.935	981.94
483.153	988.94
483.372	973.94
483.59	1000.94
483.808	985.94
484.027	1007.94
484.245	1008.94
484.463	1002.94
484.681	1011.94
484.9	1025.94
485.118	1028.94
485.336	1027.94
485.554	1034.94
485.772	1040.94
485.99	1068.94
486.209	1063.94
486.427	1038.94
486.645	1060.94
486.863	1054.94
487.081	1080.94
487.299	1034.94
487.517	1028.94
487.735	1041.94
487.953	1035.94
488.171	1029.94
488.389	1024.94
488.607	991.94
488.825	1003.94
489.043	1022.94
489.261	1013.94
489.479	1024.94
489.696	1017.94
489.914	1012.94
490.132	1017.94
490.35	1035.94
490.568	1032.94
490.786	1042.94
491.003	1025.94
491.221	1022.94
491.439	1043.94
491.657	1036.94
491.874	1040.94
492.092	1042.94
492.31	1044.94
492.527	1048.94
492.745	1046.94
492.963	1048.94
493.18	1044.94
493.398	1075.94
493.615	1068.94
493.833	1076.94
494.05	1057.94
494.268	1089.94
494.485	1096.94
494.703	1117.94
494.92	1099.94
495.138	1077.94
495.355	1114.94
495.573	1096.94
495.79	1091.94
496.008	1104.94
496.225	1097.94
496.442	1106.94
496.66	1119.94
496.877	1112.94
497.094	1130.94
497.312	1192.94
497.529	1200.94
497.746	1212.94
497.963	1237.94
498.181	1295.94
498.398	1364.94
498.615	1410.94
498.832	1514.94
499.049	1638.94
499.267	1766.94
499.484	1939.94
499.701	2192.94
499.918	2384.94
500.135	2766.94
500.352	3244.94
500.569	3371.94
500.786	3310.94
501.003	3094.94
501.22	2804.94
501.437	2402.94
501.654	2080.94
501.871	1914.94
502.088	1750.94
502.305	1631.94
502.522	1540.94
502.739	1462.94
502.956	1440.94
503.172	1328.94
503.389	1294.94
503.606	1245.94
503.823	1235.94
504.04	1233.94
504.256	1247.94
504.473	1272.94
504.69	1346.94
504.907	1251.94
505.123	1190.94
505.34	1104.94
505.557	1090.94
505.773	1064.94
505.99	1022.94
506.207	988.94
506.423	985.94
506.64	988.94
506.856	947.94
507.073	954.94
507.289	963.94
507.506	969.94
507.722	954.94
507.939	946.94
508.155	938.94
508.372	926.94
508.588	918.94
508.805	911.94
509.021	905.94
509.238	903.94
509.454	929.94
509.67	887.94
509.887	894.94
510.103	921.94
510.319	890.94
510.536	863.94
510.752	874.94
510.968	871.94
511.184	856.94
511.401	895.94
511.617	856.94
511.833	898.94
512.049	904.94
512.265	878.94
512.481	898.94
512.698	860.94
512.914	886.94
513.13	878.94
513.346	899.94
513.562	886.94
513.778	900.94
513.994	893.94
514.21	888.94
514.426	891.94
514.642	903.94
514.858	913.94
515.074	923.94
515.29	908.94
515.506	890.94
515.721	931.94
515.937	940.94
516.153	955.94
516.369	951.94
516.585	989.94
516.801	1034.94
517.016	1079.94
517.232	1159.94
517.448	1202.94
517.664	1243.94
517.879	1235.94
518.095	1259.94
518.311	1214.94
518.527	1176.94
518.742	1111.94
518.958	1033.94
519.173	1001.94
519.389	990.94
519.605	952.94
519.82	958.94
520.036	906.94
520.251	914.94
520.467	929.94
520.682	907.94
520.898	880.94
521.113	856.94
521.329	886.94
521.544	849.94
521.76	851.94
521.975	844.94
522.19	825.94
522.406	869.94
522.621	846.94
522.836	818.94
523.052	850.94
523.267	827.94
523.482	839.94
523.698	824.94
523.913	816.94
524.128	816.94
524.343	815.94
524.559	814.94
524.774	810.94
524.989	795.94
525.204	788.94
525.419	797.94
525.634	810.94
525.849	791.94
526.064	816.94
526.28	809.94
526.495	788.94
526.71	786.94
526.925	788.94
527.14	779.94
527.355	797.94
527.57	808.94
527.785	784.94
527.999	792.94
528.214	795.94
528.429	786.94
528.644	791.94
528.859	784.94
529.074	825.94
529.289	812.94
529.503	805.94
529.718	795.94
529.933	775.94
530.148	793.94
530.363	789.94
530.577	797.94
530.792	798.94
531.007	785.94
531.221	788.94
531.436	819.94
531.651	807.94
531.865	826.94
532.08	827.94
532.295	804.94
532.509	792.94
532.724	814.94
532.938	806.94
533.153	807.94
533.367	800.94
533.582	773.94
533.796	784.94
534.011	776.94
534.225	764.94
534.44	776.94
534.654	782.94
534.868	772.94
535.083	790.94
535.297	764.94
535.511	762.94
535.726	772.94
535.94	780.94
536.154	760.94
536.369	751.94
536.583	736.94
536.797	738.94
537.011	739.94
537.225	742.94
537.44	725.94
537.654	737.94
537.868	736.94
538.082	743.94
538.296	714.94
538.51	745.94
538.724	731.94
538.938	721.94
539.153	711.94
539.367	727.94
539.581	718.94
539.795	722.94
540.009	707.94
540.222	696.94
540.436	712.94
540.65	708.94
540.864	707.94
541.078	721.94
541.292	723.94
541.506	735.94
541.72	710.94
541.934	700.94
542.147	698.94
542.361	711.94
542.575	691.94
542.789	687.94
543.002	707.94
543.216	694.94
543.43	702.94
543.644	675.94
543.857	706.94
544.071	705.94
544.285	715.94
544.498	732.94
544.712	698.94
544.925	718.94
545.139	705.94
545.352	724.94
545.566	728.94
545.779	714.94
545.993	715.94
546.206	715.94
546.42	705.94
546.633	729.94
546.847	734.94
547.06	694.94
547.274	698.94
547.487	710.94
547.7	707.94
547.914	732.94
548.127	738.94
548.34	739.94
548.554	727.94
548.767	726.94
548.98	742.94
549.193	721.94
549.407	746.94
549.62	740.94
549.833	752.94
550.046	764.94
550.259	750.94
550.473	744.94
550.686	726.94
550.899	714.94
551.112	695.94
551.325	719.94
551.538	711.94
551.751	695.94
551.964	698.94
552.177	745.94
552.39	708.94
552.603	740.94
552.816	780.94
553.029	782.94
553.242	809.94
553.455	781.94
553.667	820.94
553.88	786.94
554.093	777.94
554.306	738.94
554.519	768.94
554.732	714.94
554.944	710.94
555.157	693.94
555.37	702.94
555.583	694.94
555.795	674.94
556.008	658.94
556.221	645.94
556.433	663.94
556.646	639.94
556.859	634.94
557.071	644.94
557.284	639.94
557.496	631.94
557.709	620.94
557.921	614.94
558.134	601.94
558.346	625.94
558.559	634.94
558.771	625.94
558.984	613.94
559.196	626.94
559.409	629.94
559.621	609.94
559.833	613.94
560.046	583.94
560.258	619.94
560.47	594.94
560.683	590.94
560.895	613.94
561.107	592.94
561.32	584.94
561.532	583.94
561.744	604.94
561.956	573.94
562.168	618.94
562.381	601.94
562.593	619.94
562.805	615.94
563.017	623.94
563.229	601.94
563.441	617.94
563.653	623.94
563.865	603.94
564.077	614.94
564.289	612.94
564.501	633.94
564.713	635.94
564.925	653.94
565.137	668.94
565.349	656.94
565.561	681.94
565.773	702.94
565.985	722.94
566.197	786.94
566.408	841.94
566.62	921.94
566.832	986.94
567.044	1003.94
567.255	988.94
567.467	1030.94
567.679	1095.94
567.891	1146.94
568.102	1195.94
568.314	1157.94
568.526	1029.94
568.737	935.94
568.949	831.94
569.161	777.94
569.372	714.94
569.584	698.94
569.795	657.94
570.007	647.94
570.218	642.94
570.43	624.94
570.641	627.94
570.853	634.94
571.064	625.94
571.276	640.94
571.487	598.94
571.698	582.94
571.91	567.94
572.121	561.94
572.333	566.94
572.544	543.94
572.755	526.94
572.966	510.94
573.178	514.94
573.389	516.94
573.6	520.94
573.811	522.94
574.023	489.94
574.234	515.94
574.445	495.94
574.656	498.94
574.867	490.94
575.078	488.94
575.289	490.94
575.501	505.94
575.712	472.94
575.923	487.94
576.134	510.94
576.345	467.94
576.556	485.94
576.767	462.94
576.978	467.94
577.188	483.94
577.399	476.94
577.61	464.94
577.821	475.94
578.032	467.94
578.243	468.94
578.454	470.94
578.665	449.94
578.875	464.94
579.086	436.94
579.297	431.94
579.508	439.94
579.718	454.94
579.929	456.94
580.14	438.94
580.35	434.94
580.561	434.94
580.772	443.94
580.982	437.94
581.193	433.94
581.403	437.94
581.614	438.94
581.825	438.94
582.035	413.94
582.246	416.94
582.456	428.94
582.667	422.94
582.877	421.94
583.087	419.94
583.298	430.94
583.508	426.94
583.719	416.94
583.929	420.94
584.139	418.94
584.35	399.94
584.56	433.94
584.77	416.94
584.981	395.94
585.191	423.94
585.401	434.94
585.611	414.94
585.821	431.94
586.032	438.94
586.242	386.94
586.452	388.94
586.662	400.94
586.872	400.94
587.082	405.94
587.292	420.94
587.502	402.94
587.713	377.94
587.923	390.94
588.133	386.94
588.343	409.94
588.553	425.94
588.762	392.94
588.972	406.94
589.182	414.94
589.392	423.94
589.602	423.94
589.812	406.94
590.022	380.94
590.232	401.94
590.441	415.94
590.651	434.94
590.861	416.94
591.071	419.94
591.281	414.94
591.49	425.94
591.7	439.94
591.91	430.94
592.119	426.94
592.329	470.94
592.539	448.94
592.748	487.94
592.958	484.94
593.167	524.94
593.377	516.94
593.587	500.94
593.796	510.94
594.006	532.94
594.215	521.94
594.424	510.94
594.634	536.94
594.843	498.94
595.053	483.94
595.262	454.94
595.472	442.94
595.681	444.94
595.89	420.94
596.1	418.94
596.309	425.94
596.518	394.94
596.727	396.94
596.937	390.94
597.146	379.94
597.355	373.94
597.564	381.94
597.774	362.94
597.983	358.94
598.192	378.94
598.401	358.94
598.61	358.94
598.819	347.94
599.028	358.94
599.237	338.94
599.446	348.94
599.655	359.94
599.864	370.94
600.073	345.94
600.282	347.94
600.491	329.94
600.7	368.94
600.909	352.94
601.118	356.94
601.327	344.94
601.536	342.94
601.745	338.94
601.953	323.94
602.162	335.94
602.371	335.94
602.58	342.94
602.789	332.94
602.997	320.94
603.206	360.94
603.415	329.94
603.623	324.94
603.832	322.94
604.041	326.94
604.249	321.94
604.458	335.94
604.666	329.94
604.875	308.94
605.084	313.94
605.292	334.94
605.501	320.94
605.709	294.94
605.918	311.94
606.126	325.94
606.334	315.94
606.543	326.94
606.751	330.94
606.96	304.94
607.168	290.94
607.376	332.94
607.585	304.94
607.793	326.94
608.001	320.94
608.21	315.94
608.418	310.94
608.626	306.94
608.834	306.94
609.043	281.94
609.251	306.94
609.459	306.94
609.667	323.94
609.875	291.94
610.083	293.94
610.291	296.94
610.499	316.94
610.707	312.94
610.916	288.94
611.124	308.94
611.332	307.94
611.54	301.94
611.748	296.94
611.955	326.94
612.163	296.94
612.371	310.94
612.579	291.94
612.787	304.94
612.995	308.94
613.203	309.94
613.411	295.94
613.618	307.94
613.826	297.94
614.034	282.94
614.242	316.94
614.449	283.94
614.657	277.94
614.865	287.94
615.072	321.94
615.28	286.94
615.488	278.94
615.695	279.94
615.903	288.94
616.111	314.94
616.318	299.94
616.526	298.94
616.733	293.94
616.941	296.94
617.148	290.94
617.356	295.94
617.563	281.94
617.771	283.94
617.978	303.94
618.185	290.94
618.393	295.94
618.6	293.94
618.807	302.94
619.015	312.94
619.222	314.94
619.429	291.94
619.637	316.94
619.844	300.94
620.051	297.94
620.258	285.94
620.466	275.94
620.673	279.94
620.88	288.94
621.087	290.94
621.294	277.94
621.501	269.94
621.708	283.94
621.915	280.94
622.122	286.94
622.329	266.94
622.536	277.94
622.743	258.94
622.95	280.94
623.157	275.94
623.364	272.94
623.571	275.94
623.778	278.94
623.985	271.94
624.192	244.94
624.399	261.94
624.606	272.94
624.812	256.94
625.019	255.94
625.226	258.94
625.433	243.94
625.639	250.94
625.846	260.94
626.053	265.94
626.259	259.94
626.466	248.94
626.673	264.94
626.879	256.94
627.086	257.94
627.293	258.94
627.499	253.94
627.706	247.94
627.912	230.94
628.119	260.94
628.325	256.94
628.532	246.94
628.738	265.94
628.945	251.94
629.151	241.94
629.357	244.94
629.564	250.94
629.77	229.94
629.976	241.94
630.183	260.94
630.389	236.94
630.595	224.94
630.802	236.94
631.008	226.94
631.214	254.94
631.42	219.94
631.627	210.94
631.833	226.94
632.039	217.94
632.245	223.94
632.451	225.94
632.657	209.94
632.863	234.94
633.069	233.94
633.275	221.94
633.481	221.94
633.688	226.94
633.893	220.94
634.099	224.94
634.305	241.94
634.511	242.94
634.717	224.94
634.923	214.94
635.129	210.94
635.335	234.94
635.541	218.94
635.747	215.94
635.952	203.94
636.158	224.94
636.364	214.94
636.57	217.94
636.775	234.94
636.981	220.94
637.187	229.94
637.392	213.94
637.598	203.94
637.804	212.94
638.009	216.94
638.215	212.94
638.421	198.94
638.626	225.94
638.832	192.94
639.037	212.94
639.243	207.94
639.448	221.94
639.654	215.94
639.859	210.94
640.065	230.94
640.27	204.94
640.475	188.94
640.681	199.94
640.886	230.94
641.091	209.94
641.297	210.94
641.502	209.94
641.707	204.94
641.913	202.94
642.118	188.94
642.323	197.94
642.528	192.94
642.733	183.94
642.939	194.94
643.144	187.94
643.349	204.94
643.554	206.94
643.759	198.94
643.964	195.94
644.169	199.94
644.374	206.94
644.579	213.94
644.784	192.94
644.989	192.94
645.194	196.94
645.399	187.94
645.604	190.94
645.809	214.94
646.014	211.94
646.219	191.94
646.423	185.94
646.628	215.94
646.833	198.94
647.038	214.94
647.243	178.94
647.447	197.94
647.652	201.94
647.857	229.94
648.062	216.94
648.266	210.94
648.471	206.94
648.676	207.94
648.88	204.94
649.085	208.94
649.289	200.94
649.494	194.94
649.698	208.94
649.903	195.94
650.107	187.94
650.312	177.94
650.516	192.94
650.721	195.94
650.925	188.94
651.13	182.94
651.334	171.94
651.539	182.94
651.743	179.94
651.947	163.94
652.152	185.94
652.356	170.94
652.56	179.94
652.764	158.94
652.969	162.94
653.173	162.94
653.377	169.94
653.581	169.94
653.785	151.94
653.99	145.94
654.194	147.94
654.398	152.94
654.602	156.94
654.806	155.94
655.01	158.94
655.214	146.94
655.418	150.94
655.622	135.94
655.826	159.94
656.03	155.94
656.234	166.94
656.438	136.94
656.642	150.94
656.846	140.94
657.049	138.94
657.253	140.94
657.457	142.94
657.661	131.94
657.865	120.94
658.068	134.94
658.272	118.94
658.476	118.94
658.68	115.94
658.883	115.94
659.087	107.94
659.291	110.94
659.494	126.94
659.698	111.94
659.901	98.94
660.105	110.94
660.309	86.94
660.512	105.94
660.716	113.94
660.919	82.94
661.123	93.94
661.326	87.94
661.53	87.94
661.733	94.94
661.936	103.94
662.14	88.94
662.343	82.94
662.546	87.94
662.75	81.94
662.953	90.94
663.156	97.94
663.36	81.94
663.563	96.94
663.766	73.94
663.969	79.94
664.173	77.94
664.376	70.94
664.579	87.94
664.782	75.94
664.985	88.94
665.188	86.94
665.391	62.94
665.594	91.94
665.797	75.94
666	94.94
666.203	80.94
666.406	88.94
666.609	97.94
666.812	93.94
667.015	90.94
667.218	83.94
667.421	90.94
667.624	83.94
667.827	79.94
668.03	89.94
668.232	83.94
668.435	86.94
668.638	74.94
668.841	63.94
669.043	75.94
669.246	81.94
669.449	81.94
669.651	83.94
669.854	74.94
670.057	89.94
670.259	80.94
670.462	83.94
670.665	87.94
670.867	94.94
671.07	84.94
671.272	93.94
671.475	80.94
671.677	75.94
671.88	94.94
672.082	88.94
672.284	73.94
672.487	77.94
672.689	87.94
672.892	72.94
