Data from NiCl2@0.5M.TitratingCurve.Agarose3%dH2O.NegLispCup.LampEnergy10.LIBS07252019_HRD10591_18-20-16-572.txt Node
Date: Thu Jul 25 18:20:16 EDT 2019
User: cochatt
Spectrometer: HR+D1059
Trigger mode: 1
Integration Time (sec): 1.000000E-1
Scans to average: 1
Electric dark correction enabled: true
Nonlinearity correction enabled: false
Boxcar width: 0
XAxis mode: Wavelengths
Number of Pixels in Spectrum: 2048
>>>>>Begin Spectral Data<<<<<
223.165	-12.94
223.4	-12.94
223.635	-12.94
223.869	-15.94
224.104	-8.94
224.338	-10.94
224.573	-9.94
224.808	-17.94
225.042	-5.94
225.277	-8.94
225.511	1.06
225.746	-5.94
225.98	6.06
226.215	5.06
226.449	11.06
226.683	6.06
226.918	36.06
227.152	32.06
227.387	34.06
227.621	23.06
227.856	53.06
228.09	54.06
228.324	39.06
228.559	69.06
228.793	71.06
229.027	96.06
229.262	106.06
229.496	97.06
229.73	121.06
229.964	108.06
230.199	99.06
230.433	119.06
230.667	126.06
230.901	116.06
231.136	122.06
231.37	116.06
231.604	124.06
231.838	118.06
232.072	118.06
232.306	115.06
232.541	120.06
232.775	124.06
233.009	125.06
233.243	123.06
233.477	143.06
233.711	120.06
233.945	122.06
234.179	114.06
234.413	135.06
234.647	124.06
234.881	115.06
235.115	128.06
235.349	128.06
235.583	120.06
235.817	131.06
236.051	122.06
236.285	131.06
236.519	126.06
236.753	133.06
236.987	124.06
237.221	124.06
237.455	139.06
237.689	126.06
237.922	135.06
238.156	145.06
238.39	128.06
238.624	128.06
238.858	132.06
239.091	136.06
239.325	147.06
239.559	143.06
239.793	134.06
240.027	147.06
240.26	147.06
240.494	145.06
240.728	134.06
240.961	145.06
241.195	138.06
241.429	156.06
241.662	149.06
241.896	142.06
242.13	138.06
242.363	136.06
242.597	151.06
242.83	167.06
243.064	170.06
243.298	153.06
243.531	169.06
243.765	166.06
243.998	182.06
244.232	155.06
244.465	167.06
244.699	152.06
244.932	157.06
245.166	178.06
245.399	162.06
245.633	176.06
245.866	171.06
246.099	166.06
246.333	166.06
246.566	175.06
246.8	164.06
247.033	175.06
247.266	180.06
247.5	177.06
247.733	172.06
247.966	185.06
248.2	192.06
248.433	176.06
248.666	172.06
248.899	173.06
249.133	177.06
249.366	203.06
249.599	197.06
249.832	192.06
250.066	184.06
250.299	179.06
250.532	195.06
250.765	189.06
250.998	192.06
251.231	198.06
251.465	189.06
251.698	199.06
251.931	200.06
252.164	208.06
252.397	204.06
252.63	209.06
252.863	214.06
253.096	205.06
253.329	196.06
253.562	212.06
253.795	200.06
254.028	208.06
254.261	209.06
254.494	215.06
254.727	213.06
254.96	209.06
255.193	191.06
255.426	214.06
255.659	207.06
255.892	224.06
256.124	222.06
256.357	242.06
256.59	224.06
256.823	232.06
257.056	231.06
257.289	211.06
257.521	223.06
257.754	233.06
257.987	232.06
258.22	226.06
258.452	226.06
258.685	232.06
258.918	231.06
259.151	217.06
259.383	236.06
259.616	222.06
259.849	234.06
260.081	234.06
260.314	243.06
260.547	235.06
260.779	230.06
261.012	255.06
261.244	252.06
261.477	239.06
261.71	250.06
261.942	233.06
262.175	267.06
262.407	255.06
262.64	252.06
262.872	252.06
263.105	249.06
263.337	256.06
263.57	242.06
263.802	258.06
264.035	248.06
264.267	270.06
264.499	251.06
264.732	259.06
264.964	263.06
265.197	261.06
265.429	259.06
265.661	272.06
265.894	263.06
266.126	261.06
266.358	273.06
266.591	269.06
266.823	280.06
267.055	264.06
267.287	274.06
267.52	286.06
267.752	266.06
267.984	289.06
268.216	278.06
268.448	287.06
268.681	280.06
268.913	298.06
269.145	282.06
269.377	288.06
269.609	304.06
269.841	284.06
270.073	273.06
270.306	290.06
270.538	291.06
270.77	292.06
271.002	283.06
271.234	299.06
271.466	272.06
271.698	292.06
271.93	287.06
272.162	277.06
272.394	288.06
272.626	281.06
272.858	272.06
273.09	309.06
273.322	310.06
273.553	316.06
273.785	310.06
274.017	312.06
274.249	310.06
274.481	315.06
274.713	314.06
274.945	320.06
275.176	302.06
275.408	321.06
275.64	325.06
275.872	310.06
276.104	328.06
276.335	310.06
276.567	306.06
276.799	313.06
277.031	329.06
277.262	318.06
277.494	325.06
277.726	326.06
277.957	336.06
278.189	314.06
278.421	316.06
278.652	328.06
278.884	332.06
279.115	330.06
279.347	319.06
279.579	338.06
279.81	328.06
280.042	339.06
280.273	340.06
280.505	352.06
280.736	338.06
280.968	352.06
281.199	340.06
281.431	354.06
281.662	344.06
281.894	344.06
282.125	354.06
282.356	344.06
282.588	363.06
282.819	343.06
283.051	365.06
283.282	355.06
283.513	355.06
283.745	349.06
283.976	352.06
284.207	345.06
284.439	384.06
284.67	366.06
284.901	376.06
285.132	380.06
285.364	351.06
285.595	372.06
285.826	354.06
286.057	363.06
286.288	362.06
286.52	374.06
286.751	370.06
286.982	368.06
287.213	364.06
287.444	375.06
287.675	377.06
287.906	364.06
288.138	382.06
288.369	393.06
288.6	387.06
288.831	392.06
289.062	379.06
289.293	371.06
289.524	372.06
289.755	376.06
289.986	380.06
290.217	399.06
290.448	386.06
290.679	410.06
290.91	382.06
291.141	386.06
291.371	389.06
291.602	407.06
291.833	392.06
292.064	396.06
292.295	414.06
292.526	394.06
292.757	406.06
292.987	388.06
293.218	390.06
293.449	404.06
293.68	396.06
293.91	425.06
294.141	397.06
294.372	375.06
294.603	394.06
294.833	407.06
295.064	400.06
295.295	392.06
295.525	412.06
295.756	416.06
295.987	408.06
296.217	407.06
296.448	411.06
296.679	419.06
296.909	419.06
297.14	418.06
297.37	428.06
297.601	415.06
297.831	431.06
298.062	431.06
298.292	427.06
298.523	425.06
298.753	452.06
298.984	442.06
299.214	435.06
299.445	446.06
299.675	438.06
299.905	436.06
300.136	442.06
300.366	450.06
300.597	457.06
300.827	463.06
301.057	451.06
301.288	460.06
301.518	432.06
301.748	438.06
301.979	458.06
302.209	468.06
302.439	469.06
302.669	461.06
302.9	446.06
303.13	441.06
303.36	446.06
303.59	426.06
303.82	448.06
304.051	465.06
304.281	469.06
304.511	471.06
304.741	482.06
304.971	470.06
305.201	480.06
305.431	454.06
305.661	442.06
305.891	467.06
306.121	462.06
306.352	451.06
306.582	446.06
306.812	453.06
307.042	443.06
307.272	448.06
307.502	452.06
307.731	437.06
307.961	440.06
308.191	434.06
308.421	455.06
308.651	437.06
308.881	451.06
309.111	475.06
309.341	454.06
309.571	466.06
309.8	470.06
310.03	478.06
310.26	475.06
310.49	474.06
310.72	440.06
310.949	468.06
311.179	457.06
311.409	467.06
311.639	456.06
311.868	462.06
312.098	469.06
312.328	476.06
312.557	495.06
312.787	487.06
313.017	500.06
313.246	487.06
313.476	491.06
313.706	487.06
313.935	491.06
314.165	496.06
314.394	500.06
314.624	489.06
314.853	501.06
315.083	496.06
315.312	481.06
315.542	472.06
315.771	483.06
316.001	503.06
316.23	506.06
316.46	478.06
316.689	510.06
316.919	473.06
317.148	492.06
317.377	478.06
317.607	483.06
317.836	499.06
318.065	471.06
318.295	468.06
318.524	476.06
318.753	482.06
318.983	478.06
319.212	480.06
319.441	504.06
319.67	488.06
319.9	500.06
320.129	487.06
320.358	507.06
320.587	508.06
320.816	495.06
321.046	501.06
321.275	508.06
321.504	481.06
321.733	509.06
321.962	485.06
322.191	495.06
322.42	496.06
322.649	501.06
322.878	518.06
323.108	521.06
323.337	513.06
323.566	489.06
323.795	500.06
324.024	504.06
324.253	488.06
324.482	489.06
324.71	516.06
324.939	518.06
325.168	515.06
325.397	528.06
325.626	510.06
325.855	553.06
326.084	563.06
326.313	535.06
326.542	523.06
326.77	520.06
326.999	548.06
327.228	501.06
327.457	518.06
327.686	523.06
327.914	525.06
328.143	542.06
328.372	524.06
328.6	528.06
328.829	538.06
329.058	525.06
329.287	506.06
329.515	544.06
329.744	564.06
329.972	520.06
330.201	558.06
330.43	539.06
330.658	548.06
330.887	545.06
331.115	578.06
331.344	564.06
331.572	563.06
331.801	577.06
332.03	584.06
332.258	598.06
332.486	631.06
332.715	610.06
332.943	644.06
333.172	672.06
333.4	681.06
333.629	693.06
333.857	694.06
334.085	694.06
334.314	682.06
334.542	651.06
334.771	650.06
334.999	665.06
335.227	639.06
335.455	628.06
335.684	648.06
335.912	615.06
336.14	643.06
336.369	631.06
336.597	638.06
336.825	639.06
337.053	638.06
337.281	632.06
337.51	625.06
337.738	610.06
337.966	585.06
338.194	593.06
338.422	607.06
338.65	593.06
338.878	575.06
339.106	592.06
339.334	596.06
339.562	578.06
339.79	562.06
340.018	561.06
340.246	559.06
340.474	563.06
340.702	558.06
340.93	567.06
341.158	578.06
341.386	575.06
341.614	560.06
341.842	571.06
342.07	546.06
342.298	556.06
342.526	547.06
342.754	548.06
342.981	573.06
343.209	574.06
343.437	599.06
343.665	637.06
343.893	633.06
344.12	674.06
344.348	648.06
344.576	617.06
344.804	622.06
345.031	591.06
345.259	576.06
345.487	581.06
345.714	573.06
345.942	577.06
346.17	580.06
346.397	565.06
346.625	561.06
346.853	531.06
347.08	546.06
347.308	543.06
347.535	536.06
347.763	555.06
347.99	522.06
348.218	530.06
348.445	534.06
348.673	535.06
348.9	532.06
349.128	543.06
349.355	531.06
349.583	534.06
349.81	531.06
350.037	513.06
350.265	517.06
350.492	508.06
350.72	526.06
350.947	528.06
351.174	556.06
351.402	532.06
351.629	549.06
351.856	532.06
352.083	514.06
352.311	534.06
352.538	545.06
352.765	542.06
352.992	524.06
353.22	504.06
353.447	513.06
353.674	517.06
353.901	529.06
354.128	519.06
354.355	490.06
354.583	507.06
354.81	519.06
355.037	532.06
355.264	529.06
355.491	511.06
355.718	510.06
355.945	524.06
356.172	530.06
356.399	519.06
356.626	551.06
356.853	527.06
357.08	519.06
357.307	515.06
357.534	514.06
357.761	502.06
357.988	499.06
358.215	509.06
358.441	507.06
358.668	492.06
358.895	510.06
359.122	508.06
359.349	533.06
359.576	512.06
359.802	495.06
360.029	489.06
360.256	504.06
360.483	510.06
360.709	510.06
360.936	520.06
361.163	512.06
361.39	523.06
361.616	489.06
361.843	518.06
362.07	519.06
362.296	528.06
362.523	519.06
362.749	508.06
362.976	510.06
363.203	506.06
363.429	497.06
363.656	514.06
363.882	510.06
364.109	523.06
364.335	510.06
364.562	508.06
364.788	499.06
365.015	500.06
365.241	502.06
365.468	513.06
365.694	504.06
365.92	497.06
366.147	513.06
366.373	478.06
366.599	486.06
366.826	507.06
367.052	485.06
367.278	517.06
367.505	506.06
367.731	521.06
367.957	515.06
368.184	503.06
368.41	518.06
368.636	539.06
368.862	513.06
369.089	521.06
369.315	525.06
369.541	523.06
369.767	534.06
369.993	523.06
370.219	498.06
370.445	520.06
370.672	531.06
370.898	528.06
371.124	532.06
371.35	546.06
371.576	525.06
371.802	540.06
372.028	538.06
372.254	538.06
372.48	535.06
372.706	530.06
372.932	556.06
373.158	553.06
373.384	550.06
373.61	528.06
373.835	543.06
374.061	511.06
374.287	536.06
374.513	534.06
374.739	560.06
374.965	574.06
375.191	573.06
375.416	581.06
375.642	560.06
375.868	546.06
376.094	534.06
376.319	515.06
376.545	523.06
376.771	523.06
376.997	533.06
377.222	524.06
377.448	540.06
377.674	519.06
377.899	533.06
378.125	534.06
378.35	523.06
378.576	529.06
378.802	515.06
379.027	527.06
379.253	515.06
379.478	518.06
379.704	530.06
379.929	520.06
380.155	529.06
380.38	502.06
380.606	518.06
380.831	526.06
381.057	539.06
381.282	496.06
381.507	513.06
381.733	526.06
381.958	544.06
382.184	555.06
382.409	517.06
382.634	530.06
382.86	521.06
383.085	559.06
383.31	573.06
383.535	540.06
383.761	574.06
383.986	585.06
384.211	588.06
384.436	626.06
384.662	604.06
384.887	606.06
385.112	620.06
385.337	610.06
385.562	612.06
385.787	634.06
386.013	644.06
386.238	640.06
386.463	600.06
386.688	626.06
386.913	614.06
387.138	615.06
387.363	614.06
387.588	611.06
387.813	623.06
388.038	611.06
388.263	626.06
388.488	619.06
388.713	630.06
388.938	620.06
389.163	584.06
389.387	623.06
389.612	610.06
389.837	635.06
390.062	587.06
390.287	617.06
390.512	622.06
390.736	633.06
390.961	626.06
391.186	635.06
391.411	656.06
391.636	656.06
391.86	683.06
392.085	710.06
392.31	710.06
392.534	674.06
392.759	670.06
392.984	644.06
393.208	667.06
393.433	649.06
393.658	663.06
393.882	660.06
394.107	652.06
394.331	688.06
394.556	633.06
394.78	658.06
395.005	679.06
395.229	659.06
395.454	685.06
395.678	681.06
395.903	682.06
396.127	706.06
396.352	689.06
396.576	644.06
396.801	669.06
397.025	678.06
397.249	662.06
397.474	695.06
397.698	700.06
397.922	726.06
398.147	704.06
398.371	735.06
398.595	762.06
398.82	768.06
399.044	798.06
399.268	936.06
399.492	1001.06
399.717	1101.06
399.941	1072.06
400.165	988.06
400.389	908.06
400.613	846.06
400.837	804.06
401.062	771.06
401.286	802.06
401.51	744.06
401.734	769.06
401.958	774.06
402.182	819.06
402.406	791.06
402.63	768.06
402.854	818.06
403.078	821.06
403.302	824.06
403.526	841.06
403.75	893.06
403.974	878.06
404.198	856.06
404.422	858.06
404.645	863.06
404.869	868.06
405.093	862.06
405.317	831.06
405.541	837.06
405.765	850.06
405.988	812.06
406.212	831.06
406.436	838.06
406.66	872.06
406.883	891.06
407.107	902.06
407.331	964.06
407.555	997.06
407.778	983.06
408.002	934.06
408.226	901.06
408.449	887.06
408.673	889.06
408.896	894.06
409.12	859.06
409.344	889.06
409.567	864.06
409.791	876.06
410.014	868.06
410.238	856.06
410.461	859.06
410.685	829.06
410.908	836.06
411.132	848.06
411.355	815.06
411.578	827.06
411.802	803.06
412.025	800.06
412.249	826.06
412.472	841.06
412.695	783.06
412.919	798.06
413.142	767.06
413.365	802.06
413.589	786.06
413.812	804.06
414.035	779.06
414.258	770.06
414.482	812.06
414.705	803.06
414.928	783.06
415.151	797.06
415.374	794.06
415.597	772.06
415.821	779.06
416.044	769.06
416.267	744.06
416.49	750.06
416.713	784.06
416.936	751.06
417.159	760.06
417.382	771.06
417.605	786.06
417.828	782.06
418.051	780.06
418.274	808.06
418.497	771.06
418.72	800.06
418.943	800.06
419.166	852.06
419.389	889.06
419.611	865.06
419.834	820.06
420.057	832.06
420.28	786.06
420.503	780.06
420.726	750.06
420.948	790.06
421.171	756.06
421.394	780.06
421.617	792.06
421.839	786.06
422.062	777.06
422.285	786.06
422.507	786.06
422.73	815.06
422.953	776.06
423.175	817.06
423.398	817.06
423.621	819.06
423.843	835.06
424.066	803.06
424.288	843.06
424.511	807.06
424.733	809.06
424.956	823.06
425.178	821.06
425.401	805.06
425.623	774.06
425.846	755.06
426.068	755.06
426.291	763.06
426.513	734.06
426.735	728.06
426.958	746.06
427.18	746.06
427.402	715.06
427.625	735.06
427.847	731.06
428.069	726.06
428.292	738.06
428.514	727.06
428.736	694.06
428.958	710.06
429.181	701.06
429.403	706.06
429.625	724.06
429.847	684.06
430.069	697.06
430.292	722.06
430.514	686.06
430.736	697.06
430.958	717.06
431.18	738.06
431.402	740.06
431.624	721.06
431.846	727.06
432.068	717.06
432.29	732.06
432.512	737.06
432.734	746.06
432.956	722.06
433.178	741.06
433.4	738.06
433.622	735.06
433.844	744.06
434.066	737.06
434.287	775.06
434.509	778.06
434.731	806.06
434.953	783.06
435.175	816.06
435.397	774.06
435.618	778.06
435.84	738.06
436.062	726.06
436.284	762.06
436.505	728.06
436.727	754.06
436.949	701.06
437.17	721.06
437.392	727.06
437.614	697.06
437.835	687.06
438.057	700.06
438.278	714.06
438.5	717.06
438.721	695.06
438.943	727.06
439.165	723.06
439.386	714.06
439.608	722.06
439.829	734.06
440.05	735.06
440.272	751.06
440.493	743.06
440.715	770.06
440.936	746.06
441.158	771.06
441.379	771.06
441.6	784.06
441.822	818.06
442.043	806.06
442.264	790.06
442.486	787.06
442.707	806.06
442.928	808.06
443.149	812.06
443.371	801.06
443.592	830.06
443.813	830.06
444.034	844.06
444.255	845.06
444.476	875.06
444.698	911.06
444.919	943.06
445.14	1001.06
445.361	907.06
445.582	851.06
445.803	824.06
446.024	784.06
446.245	789.06
446.466	793.06
446.687	744.06
446.908	771.06
447.129	741.06
447.35	743.06
447.571	730.06
447.792	705.06
448.013	716.06
448.234	734.06
448.455	683.06
448.675	698.06
448.896	711.06
449.117	686.06
449.338	658.06
449.559	678.06
449.779	653.06
450	691.06
450.221	689.06
450.442	696.06
450.662	698.06
450.883	700.06
451.104	686.06
451.324	716.06
451.545	694.06
451.766	703.06
451.986	668.06
452.207	693.06
452.428	667.06
452.648	679.06
452.869	682.06
453.089	673.06
453.31	633.06
453.53	647.06
453.751	669.06
453.971	675.06
454.192	667.06
454.412	650.06
454.633	643.06
454.853	637.06
455.073	672.06
455.294	662.06
455.514	638.06
455.734	642.06
455.955	648.06
456.175	656.06
456.395	640.06
456.616	636.06
456.836	649.06
457.056	659.06
457.276	646.06
457.497	672.06
457.717	653.06
457.937	648.06
458.157	668.06
458.377	632.06
458.598	677.06
458.818	693.06
459.038	726.06
459.258	721.06
459.478	766.06
459.698	762.06
459.918	778.06
460.138	837.06
460.358	855.06
460.578	844.06
460.798	854.06
461.018	902.06
461.238	870.06
461.458	861.06
461.678	874.06
461.898	851.06
462.118	890.06
462.338	911.06
462.558	950.06
462.777	997.06
462.997	1030.06
463.217	1104.06
463.437	1103.06
463.657	1036.06
463.876	1015.06
464.096	994.06
464.316	1003.06
464.536	979.06
464.755	960.06
464.975	935.06
465.195	875.06
465.414	852.06
465.634	814.06
465.854	798.06
466.073	753.06
466.293	760.06
466.512	760.06
466.732	738.06
466.951	746.06
467.171	707.06
467.391	742.06
467.61	731.06
467.829	722.06
468.049	750.06
468.268	701.06
468.488	710.06
468.707	702.06
468.927	728.06
469.146	710.06
469.365	727.06
469.585	699.06
469.804	762.06
470.023	724.06
470.243	750.06
470.462	766.06
470.681	762.06
470.901	757.06
471.12	748.06
471.339	738.06
471.558	732.06
471.777	766.06
471.997	689.06
472.216	718.06
472.435	687.06
472.654	714.06
472.873	679.06
473.092	674.06
473.311	672.06
473.53	708.06
473.749	684.06
473.968	695.06
474.187	700.06
474.406	678.06
474.625	699.06
474.844	708.06
475.063	717.06
475.282	686.06
475.501	715.06
475.72	714.06
475.939	719.06
476.158	696.06
476.377	715.06
476.596	690.06
476.814	734.06
477.033	743.06
477.252	735.06
477.471	780.06
477.69	775.06
477.908	786.06
478.127	811.06
478.346	810.06
478.564	839.06
478.783	840.06
479.002	836.06
479.22	872.06
479.439	855.06
479.658	861.06
479.876	851.06
480.095	841.06
480.313	864.06
480.532	903.06
480.751	882.06
480.969	883.06
481.188	844.06
481.406	847.06
481.624	833.06
481.843	806.06
482.061	802.06
482.28	806.06
482.498	763.06
482.717	790.06
482.935	817.06
483.153	796.06
483.372	809.06
483.59	812.06
483.808	794.06
484.027	832.06
484.245	796.06
484.463	770.06
484.681	819.06
484.9	802.06
485.118	840.06
485.336	811.06
485.554	811.06
485.772	815.06
485.99	835.06
486.209	841.06
486.427	844.06
486.645	829.06
486.863	831.06
487.081	813.06
487.299	823.06
487.517	849.06
487.735	863.06
487.953	833.06
488.171	842.06
488.389	807.06
488.607	824.06
488.825	823.06
489.043	832.06
489.261	831.06
489.479	857.06
489.696	816.06
489.914	857.06
490.132	848.06
490.35	844.06
490.568	826.06
490.786	847.06
491.003	837.06
491.221	860.06
491.439	834.06
491.657	847.06
491.874	888.06
492.092	874.06
492.31	889.06
492.527	900.06
492.745	876.06
492.963	884.06
493.18	875.06
493.398	868.06
493.615	871.06
493.833	888.06
494.05	884.06
494.268	888.06
494.485	893.06
494.703	913.06
494.92	902.06
495.138	915.06
495.355	923.06
495.573	890.06
495.79	906.06
496.008	910.06
496.225	913.06
496.442	935.06
496.66	960.06
496.877	930.06
497.094	969.06
497.312	1010.06
497.529	997.06
497.746	1008.06
497.963	1074.06
498.181	1046.06
498.398	1115.06
498.615	1178.06
498.832	1221.06
499.049	1336.06
499.267	1380.06
499.484	1534.06
499.701	1670.06
499.918	1809.06
500.135	2043.06
500.352	2265.06
500.569	2327.06
500.786	2276.06
501.003	2194.06
501.22	1981.06
501.437	1773.06
501.654	1616.06
501.871	1448.06
502.088	1376.06
502.305	1283.06
502.522	1238.06
502.739	1204.06
502.956	1154.06
503.172	1080.06
503.389	1050.06
503.606	1026.06
503.823	990.06
504.04	969.06
504.256	974.06
504.473	1013.06
504.69	1040.06
504.907	1012.06
505.123	968.06
505.34	901.06
505.557	840.06
505.773	886.06
505.99	843.06
506.207	822.06
506.423	814.06
506.64	852.06
506.856	795.06
507.073	784.06
507.289	799.06
507.506	785.06
507.722	780.06
507.939	761.06
508.155	773.06
508.372	780.06
508.588	748.06
508.805	720.06
509.021	720.06
509.238	741.06
509.454	730.06
509.67	724.06
509.887	724.06
510.103	730.06
510.319	713.06
510.536	695.06
510.752	708.06
510.968	723.06
511.184	706.06
511.401	735.06
511.617	723.06
511.833	711.06
512.049	694.06
512.265	689.06
512.481	716.06
512.698	723.06
512.914	691.06
513.13	755.06
513.346	714.06
513.562	711.06
513.778	718.06
513.994	703.06
514.21	708.06
514.426	708.06
514.642	722.06
514.858	736.06
515.074	711.06
515.29	712.06
515.506	739.06
515.721	730.06
515.937	767.06
516.153	778.06
516.369	798.06
516.585	777.06
516.801	819.06
517.016	833.06
517.232	892.06
517.448	918.06
517.664	935.06
517.879	959.06
518.095	923.06
518.311	900.06
518.527	859.06
518.742	858.06
518.958	803.06
519.173	807.06
519.389	806.06
519.605	752.06
519.82	738.06
520.036	714.06
520.251	734.06
520.467	706.06
520.682	707.06
520.898	715.06
521.113	715.06
521.329	701.06
521.544	684.06
521.76	653.06
521.975	688.06
522.19	687.06
522.406	648.06
522.621	692.06
522.836	683.06
523.052	695.06
523.267	681.06
523.482	642.06
523.698	672.06
523.913	660.06
524.128	673.06
524.343	656.06
524.559	636.06
524.774	664.06
524.989	661.06
525.204	655.06
525.419	640.06
525.634	634.06
525.849	646.06
526.064	659.06
526.28	642.06
526.495	646.06
526.71	648.06
526.925	662.06
527.14	627.06
527.355	644.06
527.57	616.06
527.785	636.06
527.999	626.06
528.214	630.06
528.429	642.06
528.644	658.06
528.859	678.06
529.074	618.06
529.289	655.06
529.503	648.06
529.718	644.06
529.933	646.06
530.148	647.06
530.363	638.06
530.577	601.06
530.792	618.06
531.007	630.06
531.221	642.06
531.436	591.06
531.651	615.06
531.865	626.06
532.08	636.06
532.295	620.06
532.509	611.06
532.724	630.06
532.938	633.06
533.153	640.06
533.367	642.06
533.582	626.06
533.796	642.06
534.011	618.06
534.225	614.06
534.44	587.06
534.654	595.06
534.868	581.06
535.083	588.06
535.297	611.06
535.511	619.06
535.726	617.06
535.94	606.06
536.154	616.06
536.369	601.06
536.583	598.06
536.797	587.06
537.011	603.06
537.225	585.06
537.44	604.06
537.654	578.06
537.868	595.06
538.082	585.06
538.296	614.06
538.51	573.06
538.724	594.06
538.938	592.06
539.153	598.06
539.367	575.06
539.581	592.06
539.795	578.06
540.009	570.06
540.222	569.06
540.436	592.06
540.65	598.06
540.864	575.06
541.078	585.06
541.292	588.06
541.506	578.06
541.72	592.06
541.934	586.06
542.147	574.06
542.361	579.06
542.575	586.06
542.789	600.06
543.002	574.06
543.216	567.06
543.43	546.06
543.644	580.06
543.857	580.06
544.071	593.06
544.285	576.06
544.498	577.06
544.712	585.06
544.925	577.06
545.139	591.06
545.352	586.06
545.566	592.06
545.779	600.06
545.993	599.06
546.206	606.06
546.42	599.06
546.633	584.06
546.847	577.06
547.06	599.06
547.274	583.06
547.487	558.06
547.7	586.06
547.914	574.06
548.127	607.06
548.34	603.06
548.554	588.06
548.767	595.06
548.98	585.06
549.193	613.06
549.407	582.06
549.62	605.06
549.833	594.06
550.046	593.06
550.259	585.06
550.473	572.06
550.686	596.06
550.899	591.06
551.112	572.06
551.325	591.06
551.538	583.06
551.751	585.06
551.964	591.06
552.177	587.06
552.39	588.06
552.603	636.06
552.816	594.06
553.029	620.06
553.242	625.06
553.455	644.06
553.667	647.06
553.88	618.06
554.093	628.06
554.306	574.06
554.519	588.06
554.732	598.06
554.944	565.06
555.157	579.06
555.37	564.06
555.583	535.06
555.795	552.06
556.008	546.06
556.221	536.06
556.433	515.06
556.646	525.06
556.859	521.06
557.071	510.06
557.284	494.06
557.496	507.06
557.709	521.06
557.921	522.06
558.134	520.06
558.346	489.06
558.559	521.06
558.771	494.06
558.984	504.06
559.196	492.06
559.409	479.06
559.621	477.06
559.833	505.06
560.046	478.06
560.258	465.06
560.47	507.06
560.683	478.06
560.895	479.06
561.107	506.06
561.32	466.06
561.532	487.06
561.744	498.06
561.956	494.06
562.168	474.06
562.381	488.06
562.593	497.06
562.805	500.06
563.017	501.06
563.229	488.06
563.441	484.06
563.653	512.06
563.865	498.06
564.077	500.06
564.289	488.06
564.501	522.06
564.713	530.06
564.925	500.06
565.137	523.06
565.349	551.06
565.561	546.06
565.773	545.06
565.985	582.06
566.197	591.06
566.408	642.06
566.62	658.06
566.832	720.06
567.044	732.06
567.255	746.06
567.467	771.06
567.679	754.06
567.891	798.06
568.102	826.06
568.314	783.06
568.526	738.06
568.737	670.06
568.949	647.06
569.161	603.06
569.372	561.06
569.584	539.06
569.795	518.06
570.007	521.06
570.218	496.06
570.43	472.06
570.641	498.06
570.853	478.06
571.064	508.06
571.276	502.06
571.487	468.06
571.698	468.06
571.91	441.06
572.121	444.06
572.333	432.06
572.544	429.06
572.755	426.06
572.966	408.06
573.178	419.06
573.389	416.06
573.6	395.06
573.811	378.06
574.023	407.06
574.234	405.06
574.445	383.06
574.656	392.06
574.867	400.06
575.078	379.06
575.289	390.06
575.501	381.06
575.712	388.06
575.923	374.06
576.134	383.06
576.345	378.06
576.556	406.06
576.767	391.06
576.978	364.06
577.188	370.06
577.399	369.06
577.61	376.06
577.821	357.06
578.032	368.06
578.243	372.06
578.454	372.06
578.665	374.06
578.875	361.06
579.086	351.06
579.297	352.06
579.508	354.06
579.718	347.06
579.929	355.06
580.14	342.06
580.35	347.06
580.561	351.06
580.772	341.06
580.982	321.06
581.193	348.06
581.403	353.06
581.614	357.06
581.825	344.06
582.035	345.06
582.246	344.06
582.456	355.06
582.667	347.06
582.877	315.06
583.087	346.06
583.298	332.06
583.508	348.06
583.719	323.06
583.929	341.06
584.139	327.06
584.35	332.06
584.56	320.06
584.77	326.06
584.981	339.06
585.191	335.06
585.401	323.06
585.611	332.06
585.821	334.06
586.032	322.06
586.242	331.06
586.452	313.06
586.662	331.06
586.872	324.06
587.082	327.06
587.292	322.06
587.502	332.06
587.713	315.06
587.923	315.06
588.133	326.06
588.343	322.06
588.553	316.06
588.762	320.06
588.972	326.06
589.182	364.06
589.392	350.06
589.602	339.06
589.812	336.06
590.022	332.06
590.232	330.06
590.441	339.06
590.651	332.06
590.861	329.06
591.071	327.06
591.281	321.06
591.49	322.06
591.7	335.06
591.91	344.06
592.119	335.06
592.329	355.06
592.539	345.06
592.748	383.06
592.958	378.06
593.167	387.06
593.377	386.06
593.587	402.06
593.796	401.06
594.006	383.06
594.215	399.06
594.424	380.06
594.634	382.06
594.843	358.06
595.053	366.06
595.262	348.06
595.472	339.06
595.681	319.06
595.89	310.06
596.1	316.06
596.309	324.06
596.518	319.06
596.727	320.06
596.937	312.06
597.146	296.06
597.355	299.06
597.564	302.06
597.774	296.06
597.983	304.06
598.192	282.06
598.401	291.06
598.61	299.06
598.819	286.06
599.028	284.06
599.237	286.06
599.446	280.06
599.655	280.06
599.864	284.06
600.073	280.06
600.282	274.06
600.491	263.06
600.7	297.06
600.909	267.06
601.118	276.06
601.327	283.06
601.536	274.06
601.745	264.06
601.953	286.06
602.162	271.06
602.371	268.06
602.58	262.06
602.789	265.06
602.997	273.06
603.206	275.06
603.415	255.06
603.623	254.06
603.832	255.06
604.041	266.06
604.249	266.06
604.458	276.06
604.666	268.06
604.875	246.06
605.084	243.06
605.292	235.06
605.501	254.06
605.709	277.06
605.918	241.06
606.126	244.06
606.334	254.06
606.543	261.06
606.751	258.06
606.96	251.06
607.168	260.06
607.376	251.06
607.585	258.06
607.793	266.06
608.001	253.06
608.21	236.06
608.418	244.06
608.626	232.06
608.834	244.06
609.043	237.06
609.251	254.06
609.459	249.06
609.667	259.06
609.875	247.06
610.083	260.06
610.291	242.06
610.499	255.06
610.707	253.06
610.916	235.06
611.124	242.06
611.332	260.06
611.54	251.06
611.748	250.06
611.955	247.06
612.163	252.06
612.371	252.06
612.579	248.06
612.787	235.06
612.995	248.06
613.203	225.06
613.411	238.06
613.618	238.06
613.826	235.06
614.034	238.06
614.242	248.06
614.449	230.06
614.657	229.06
614.865	224.06
615.072	232.06
615.28	226.06
615.488	229.06
615.695	231.06
615.903	218.06
616.111	239.06
616.318	238.06
616.526	227.06
616.733	244.06
616.941	232.06
617.148	220.06
617.356	247.06
617.563	223.06
617.771	235.06
617.978	239.06
618.185	242.06
618.393	246.06
618.6	241.06
618.807	233.06
619.015	230.06
619.222	235.06
619.429	222.06
619.637	236.06
619.844	210.06
620.051	225.06
620.258	218.06
620.466	213.06
620.673	215.06
620.88	217.06
621.087	222.06
621.294	228.06
621.501	221.06
621.708	231.06
621.915	208.06
622.122	227.06
622.329	216.06
622.536	223.06
622.743	223.06
622.95	223.06
623.157	208.06
623.364	208.06
623.571	223.06
623.778	218.06
623.985	208.06
624.192	227.06
624.399	226.06
624.606	219.06
624.812	198.06
625.019	202.06
625.226	199.06
625.433	205.06
625.639	211.06
625.846	213.06
626.053	202.06
626.259	215.06
626.466	209.06
626.673	209.06
626.879	211.06
627.086	201.06
627.293	200.06
627.499	205.06
627.706	200.06
627.912	192.06
628.119	201.06
628.325	197.06
628.532	204.06
628.738	201.06
628.945	200.06
629.151	209.06
629.357	191.06
629.564	191.06
629.77	205.06
629.976	192.06
630.183	192.06
630.389	185.06
630.595	194.06
630.802	193.06
631.008	174.06
631.214	190.06
631.42	193.06
631.627	198.06
631.833	193.06
632.039	184.06
632.245	188.06
632.451	194.06
632.657	195.06
632.863	189.06
633.069	200.06
633.275	189.06
633.481	188.06
633.688	176.06
633.893	193.06
634.099	170.06
634.305	186.06
634.511	178.06
634.717	177.06
634.923	195.06
635.129	187.06
635.335	169.06
635.541	166.06
635.747	191.06
635.952	168.06
636.158	176.06
636.364	170.06
636.57	182.06
636.775	183.06
636.981	168.06
637.187	194.06
637.392	167.06
637.598	175.06
637.804	177.06
638.009	179.06
638.215	181.06
638.421	175.06
638.626	172.06
638.832	176.06
639.037	161.06
639.243	161.06
639.448	168.06
639.654	170.06
639.859	158.06
640.065	176.06
640.27	180.06
640.475	186.06
640.681	174.06
640.886	193.06
641.091	176.06
641.297	179.06
641.502	167.06
641.707	167.06
641.913	173.06
642.118	155.06
642.323	165.06
642.528	187.06
642.733	175.06
642.939	174.06
643.144	175.06
643.349	169.06
643.554	171.06
643.759	164.06
643.964	154.06
644.169	167.06
644.374	161.06
644.579	160.06
644.784	168.06
644.989	152.06
645.194	171.06
645.399	166.06
645.604	144.06
645.809	162.06
646.014	175.06
646.219	153.06
646.423	153.06
646.628	160.06
646.833	172.06
647.038	160.06
647.243	158.06
647.447	166.06
647.652	184.06
647.857	172.06
648.062	172.06
648.266	174.06
648.471	177.06
648.676	160.06
648.88	171.06
649.085	164.06
649.289	170.06
649.494	154.06
649.698	162.06
649.903	154.06
650.107	167.06
650.312	175.06
650.516	164.06
650.721	136.06
650.925	143.06
651.13	136.06
651.334	145.06
651.539	141.06
651.743	149.06
651.947	146.06
652.152	151.06
652.356	134.06
652.56	154.06
652.764	141.06
652.969	158.06
653.173	151.06
653.377	131.06
653.581	126.06
653.785	151.06
653.99	146.06
654.194	137.06
654.398	152.06
654.602	142.06
654.806	126.06
655.01	143.06
655.214	135.06
655.418	137.06
655.622	129.06
655.826	123.06
656.03	126.06
656.234	127.06
656.438	139.06
656.642	114.06
656.846	122.06
657.049	123.06
657.253	136.06
657.457	128.06
657.661	122.06
657.865	119.06
658.068	102.06
658.272	122.06
658.476	112.06
658.68	97.06
658.883	112.06
659.087	104.06
659.291	106.06
659.494	92.06
659.698	91.06
659.901	96.06
660.105	110.06
660.309	100.06
660.512	104.06
660.716	103.06
660.919	82.06
661.123	87.06
661.326	91.06
661.53	95.06
661.733	87.06
661.936	82.06
662.14	81.06
662.343	91.06
662.546	87.06
662.75	102.06
662.953	88.06
663.156	83.06
663.36	75.06
663.563	76.06
663.766	89.06
663.969	82.06
664.173	82.06
664.376	79.06
664.579	82.06
664.782	72.06
664.985	82.06
665.188	70.06
665.391	84.06
665.594	79.06
665.797	71.06
666	75.06
666.203	84.06
666.406	70.06
666.609	70.06
666.812	85.06
667.015	90.06
667.218	90.06
667.421	80.06
667.624	89.06
667.827	85.06
668.03	88.06
668.232	71.06
668.435	87.06
668.638	76.06
668.841	75.06
669.043	95.06
669.246	73.06
669.449	84.06
669.651	74.06
669.854	88.06
670.057	69.06
670.259	80.06
670.462	88.06
670.665	101.06
670.867	84.06
671.07	63.06
671.272	81.06
671.475	92.06
671.677	77.06
671.88	87.06
672.082	68.06
672.284	86.06
672.487	91.06
672.689	64.06
672.892	82.06
