Data from NiCl2@0.0625M.TitratingCurve.Agarose3%dH2O.NegLispCup.LampEnergy10.LIBS07252019_HRD10591_18-34-37-576.txt Node
Date: Thu Jul 25 18:34:37 EDT 2019
User: cochatt
Spectrometer: HR+D1059
Trigger mode: 1
Integration Time (sec): 1.000000E-1
Scans to average: 1
Electric dark correction enabled: true
Nonlinearity correction enabled: false
Boxcar width: 0
XAxis mode: Wavelengths
Number of Pixels in Spectrum: 2048
>>>>>Begin Spectral Data<<<<<
223.165	-26.06
223.4	-26.06
223.635	-26.06
223.869	-21.06
224.104	-16.06
224.338	-16.06
224.573	-19.06
224.808	-3.06
225.042	-8.06
225.277	-4.06
225.511	-7.06
225.746	6.94
225.98	11.94
226.215	1.94
226.449	19.94
226.683	24.94
226.918	32.94
227.152	21.94
227.387	26.94
227.621	35.94
227.856	44.94
228.09	39.94
228.324	52.94
228.559	71.94
228.793	80.94
229.027	130.94
229.262	133.94
229.496	142.94
229.73	156.94
229.964	165.94
230.199	166.94
230.433	165.94
230.667	165.94
230.901	187.94
231.136	172.94
231.37	175.94
231.604	183.94
231.838	176.94
232.072	180.94
232.306	187.94
232.541	188.94
232.775	195.94
233.009	180.94
233.243	199.94
233.477	192.94
233.711	193.94
233.945	185.94
234.179	204.94
234.413	201.94
234.647	203.94
234.881	205.94
235.115	189.94
235.349	206.94
235.583	192.94
235.817	197.94
236.051	206.94
236.285	206.94
236.519	226.94
236.753	229.94
236.987	230.94
237.221	192.94
237.455	224.94
237.689	221.94
237.922	215.94
238.156	231.94
238.39	208.94
238.624	232.94
238.858	218.94
239.091	241.94
239.325	236.94
239.559	235.94
239.793	223.94
240.027	260.94
240.26	261.94
240.494	248.94
240.728	269.94
240.961	251.94
241.195	253.94
241.429	260.94
241.662	273.94
241.896	263.94
242.13	265.94
242.363	275.94
242.597	277.94
242.83	296.94
243.064	277.94
243.298	280.94
243.531	295.94
243.765	285.94
243.998	318.94
244.232	310.94
244.465	288.94
244.699	298.94
244.932	336.94
245.166	323.94
245.399	298.94
245.633	318.94
245.866	302.94
246.099	311.94
246.333	326.94
246.566	333.94
246.8	324.94
247.033	298.94
247.266	324.94
247.5	334.94
247.733	340.94
247.966	338.94
248.2	333.94
248.433	342.94
248.666	334.94
248.899	349.94
249.133	330.94
249.366	357.94
249.599	378.94
249.832	340.94
250.066	386.94
250.299	364.94
250.532	370.94
250.765	364.94
250.998	384.94
251.231	372.94
251.465	378.94
251.698	368.94
251.931	386.94
252.164	374.94
252.397	420.94
252.63	387.94
252.863	396.94
253.096	394.94
253.329	420.94
253.562	410.94
253.795	410.94
254.028	408.94
254.261	408.94
254.494	436.94
254.727	417.94
254.96	424.94
255.193	427.94
255.426	428.94
255.659	428.94
255.892	427.94
256.124	418.94
256.357	441.94
256.59	445.94
256.823	449.94
257.056	429.94
257.289	440.94
257.521	448.94
257.754	459.94
257.987	448.94
258.22	454.94
258.452	448.94
258.685	457.94
258.918	444.94
259.151	467.94
259.383	491.94
259.616	471.94
259.849	466.94
260.081	469.94
260.314	480.94
260.547	477.94
260.779	481.94
261.012	471.94
261.244	479.94
261.477	479.94
261.71	506.94
261.942	465.94
262.175	507.94
262.407	488.94
262.64	496.94
262.872	515.94
263.105	506.94
263.337	515.94
263.57	510.94
263.802	508.94
264.035	509.94
264.267	517.94
264.499	518.94
264.732	531.94
264.964	528.94
265.197	534.94
265.429	551.94
265.661	537.94
265.894	547.94
266.126	540.94
266.358	525.94
266.591	536.94
266.823	543.94
267.055	535.94
267.287	569.94
267.52	564.94
267.752	544.94
267.984	543.94
268.216	563.94
268.448	571.94
268.681	571.94
268.913	564.94
269.145	568.94
269.377	577.94
269.609	562.94
269.841	566.94
270.073	582.94
270.306	595.94
270.538	601.94
270.77	576.94
271.002	582.94
271.234	586.94
271.466	619.94
271.698	596.94
271.93	591.94
272.162	592.94
272.394	608.94
272.626	616.94
272.858	621.94
273.09	633.94
273.322	636.94
273.553	626.94
273.785	605.94
274.017	606.94
274.249	603.94
274.481	632.94
274.713	640.94
274.945	643.94
275.176	642.94
275.408	655.94
275.64	632.94
275.872	644.94
276.104	681.94
276.335	631.94
276.567	653.94
276.799	646.94
277.031	649.94
277.262	650.94
277.494	641.94
277.726	654.94
277.957	665.94
278.189	646.94
278.421	663.94
278.652	682.94
278.884	686.94
279.115	685.94
279.347	693.94
279.579	674.94
279.81	700.94
280.042	684.94
280.273	705.94
280.505	700.94
280.736	705.94
280.968	735.94
281.199	703.94
281.431	726.94
281.662	717.94
281.894	725.94
282.125	711.94
282.356	725.94
282.588	734.94
282.819	709.94
283.051	742.94
283.282	718.94
283.513	714.94
283.745	726.94
283.976	735.94
284.207	735.94
284.439	758.94
284.67	732.94
284.901	740.94
285.132	750.94
285.364	746.94
285.595	747.94
285.826	767.94
286.057	765.94
286.288	781.94
286.52	783.94
286.751	783.94
286.982	781.94
287.213	760.94
287.444	790.94
287.675	791.94
287.906	776.94
288.138	814.94
288.369	796.94
288.6	795.94
288.831	803.94
289.062	789.94
289.293	791.94
289.524	789.94
289.755	805.94
289.986	803.94
290.217	824.94
290.448	813.94
290.679	813.94
290.91	799.94
291.141	822.94
291.371	822.94
291.602	801.94
291.833	810.94
292.064	828.94
292.295	799.94
292.526	843.94
292.757	808.94
292.987	814.94
293.218	799.94
293.449	805.94
293.68	808.94
293.91	826.94
294.141	818.94
294.372	813.94
294.603	833.94
294.833	834.94
295.064	852.94
295.295	846.94
295.525	831.94
295.756	856.94
295.987	847.94
296.217	856.94
296.448	842.94
296.679	845.94
296.909	843.94
297.14	882.94
297.37	862.94
297.601	880.94
297.831	855.94
298.062	866.94
298.292	882.94
298.523	890.94
298.753	892.94
298.984	907.94
299.214	901.94
299.445	876.94
299.675	887.94
299.905	887.94
300.136	896.94
300.366	906.94
300.597	902.94
300.827	913.94
301.057	905.94
301.288	901.94
301.518	911.94
301.748	933.94
301.979	925.94
302.209	920.94
302.439	957.94
302.669	915.94
302.9	920.94
303.13	949.94
303.36	939.94
303.59	927.94
303.82	920.94
304.051	909.94
304.281	924.94
304.511	927.94
304.741	921.94
304.971	947.94
305.201	958.94
305.431	929.94
305.661	924.94
305.891	907.94
306.121	913.94
306.352	917.94
306.582	907.94
306.812	922.94
307.042	924.94
307.272	909.94
307.502	902.94
307.731	902.94
307.961	904.94
308.191	918.94
308.421	894.94
308.651	904.94
308.881	907.94
309.111	932.94
309.341	916.94
309.571	948.94
309.8	894.94
310.03	930.94
310.26	944.94
310.49	948.94
310.72	940.94
310.949	921.94
311.179	930.94
311.409	942.94
311.639	938.94
311.868	930.94
312.098	921.94
312.328	941.94
312.557	951.94
312.787	942.94
313.017	954.94
313.246	962.94
313.476	969.94
313.706	981.94
313.935	987.94
314.165	1006.94
314.394	980.94
314.624	984.94
314.853	992.94
315.083	996.94
315.312	988.94
315.542	995.94
315.771	975.94
316.001	981.94
316.23	989.94
316.46	1001.94
316.689	969.94
316.919	994.94
317.148	1006.94
317.377	977.94
317.607	969.94
317.836	962.94
318.065	984.94
318.295	965.94
318.524	973.94
318.753	953.94
318.983	976.94
319.212	1013.94
319.441	975.94
319.67	956.94
319.9	982.94
320.129	983.94
320.358	965.94
320.587	993.94
320.816	996.94
321.046	978.94
321.275	986.94
321.504	1004.94
321.733	1004.94
321.962	981.94
322.191	993.94
322.42	1021.94
322.649	995.94
322.878	1026.94
323.108	986.94
323.337	997.94
323.566	1014.94
323.795	1034.94
324.024	999.94
324.253	987.94
324.482	1002.94
324.71	1054.94
324.939	1027.94
325.168	1028.94
325.397	1005.94
325.626	1021.94
325.855	1065.94
326.084	1074.94
326.313	1102.94
326.542	1074.94
326.77	1106.94
326.999	1066.94
327.228	1084.94
327.457	1067.94
327.686	1061.94
327.914	1075.94
328.143	1053.94
328.372	1078.94
328.6	1069.94
328.829	1058.94
329.058	1076.94
329.287	1092.94
329.515	1109.94
329.744	1088.94
329.972	1080.94
330.201	1090.94
330.43	1090.94
330.658	1098.94
330.887	1109.94
331.115	1112.94
331.344	1116.94
331.572	1117.94
331.801	1157.94
332.03	1163.94
332.258	1169.94
332.486	1180.94
332.715	1222.94
332.943	1242.94
333.172	1296.94
333.4	1309.94
333.629	1320.94
333.857	1375.94
334.085	1385.94
334.314	1346.94
334.542	1338.94
334.771	1366.94
334.999	1371.94
335.227	1325.94
335.455	1317.94
335.684	1299.94
335.912	1315.94
336.14	1285.94
336.369	1267.94
336.597	1276.94
336.825	1262.94
337.053	1257.94
337.281	1258.94
337.51	1252.94
337.738	1204.94
337.966	1204.94
338.194	1190.94
338.422	1182.94
338.65	1190.94
338.878	1187.94
339.106	1177.94
339.334	1189.94
339.562	1204.94
339.79	1172.94
340.018	1153.94
340.246	1150.94
340.474	1125.94
340.702	1146.94
340.93	1146.94
341.158	1135.94
341.386	1117.94
341.614	1126.94
341.842	1108.94
342.07	1146.94
342.298	1117.94
342.526	1124.94
342.754	1144.94
342.981	1116.94
343.209	1123.94
343.437	1172.94
343.665	1251.94
343.893	1332.94
344.12	1310.94
344.348	1309.94
344.576	1261.94
344.804	1233.94
345.031	1163.94
345.259	1158.94
345.487	1165.94
345.714	1123.94
345.942	1104.94
346.17	1118.94
346.397	1074.94
346.625	1088.94
346.853	1118.94
347.08	1076.94
347.308	1062.94
347.535	1056.94
347.763	1095.94
347.99	1066.94
348.218	1094.94
348.445	1070.94
348.673	1072.94
348.9	1103.94
349.128	1090.94
349.355	1057.94
349.583	1075.94
349.81	1059.94
350.037	1044.94
350.265	1058.94
350.492	1070.94
350.72	1043.94
350.947	1044.94
351.174	1033.94
351.402	1046.94
351.629	1047.94
351.856	1020.94
352.083	1023.94
352.311	1034.94
352.538	1036.94
352.765	1040.94
352.992	1049.94
353.22	1022.94
353.447	1031.94
353.674	1026.94
353.901	1030.94
354.128	1020.94
354.355	1045.94
354.583	1047.94
354.81	1006.94
355.037	1060.94
355.264	1054.94
355.491	1001.94
355.718	1052.94
355.945	1016.94
356.172	1051.94
356.399	1064.94
356.626	1038.94
356.853	1040.94
357.08	1018.94
357.307	1042.94
357.534	1029.94
357.761	1051.94
357.988	1035.94
358.215	1052.94
358.441	1055.94
358.668	1039.94
358.895	1040.94
359.122	1040.94
359.349	1066.94
359.576	1054.94
359.802	1033.94
360.029	1031.94
360.256	1021.94
360.483	1046.94
360.709	1028.94
360.936	1066.94
361.163	1060.94
361.39	1066.94
361.616	1036.94
361.843	1054.94
362.07	1034.94
362.296	1068.94
362.523	1030.94
362.749	1039.94
362.976	1037.94
363.203	1042.94
363.429	1038.94
363.656	1066.94
363.882	1046.94
364.109	1022.94
364.335	1021.94
364.562	1049.94
364.788	1043.94
365.015	1005.94
365.241	1049.94
365.468	1050.94
365.694	1017.94
365.92	1035.94
366.147	1025.94
366.373	1026.94
366.599	1062.94
366.826	1048.94
367.052	1058.94
367.278	1090.94
367.505	1051.94
367.731	1042.94
367.957	1045.94
368.184	1053.94
368.41	1064.94
368.636	1077.94
368.862	1055.94
369.089	1076.94
369.315	1074.94
369.541	1087.94
369.767	1104.94
369.993	1058.94
370.219	1094.94
370.445	1087.94
370.672	1105.94
370.898	1126.94
371.124	1085.94
371.35	1152.94
371.576	1146.94
371.802	1140.94
372.028	1153.94
372.254	1124.94
372.48	1136.94
372.706	1160.94
372.932	1169.94
373.158	1160.94
373.384	1142.94
373.61	1152.94
373.835	1146.94
374.061	1141.94
374.287	1166.94
374.513	1166.94
374.739	1207.94
374.965	1228.94
375.191	1246.94
375.416	1222.94
375.642	1226.94
375.868	1199.94
376.094	1186.94
376.319	1162.94
376.545	1181.94
376.771	1152.94
376.997	1136.94
377.222	1134.94
377.448	1148.94
377.674	1120.94
377.899	1129.94
378.125	1126.94
378.35	1098.94
378.576	1125.94
378.802	1112.94
379.027	1125.94
379.253	1150.94
379.478	1124.94
379.704	1106.94
379.929	1133.94
380.155	1114.94
380.38	1119.94
380.606	1124.94
380.831	1072.94
381.057	1150.94
381.282	1104.94
381.507	1110.94
381.733	1123.94
381.958	1127.94
382.184	1141.94
382.409	1178.94
382.634	1154.94
382.86	1163.94
383.085	1167.94
383.31	1210.94
383.535	1214.94
383.761	1238.94
383.986	1235.94
384.211	1247.94
384.436	1266.94
384.662	1288.94
384.887	1312.94
385.112	1291.94
385.337	1308.94
385.562	1300.94
385.787	1363.94
386.013	1375.94
386.238	1330.94
386.463	1346.94
386.688	1348.94
386.913	1335.94
387.138	1330.94
387.363	1345.94
387.588	1330.94
387.813	1339.94
388.038	1342.94
388.263	1373.94
388.488	1323.94
388.713	1311.94
388.938	1326.94
389.163	1296.94
389.387	1326.94
389.612	1309.94
389.837	1352.94
390.062	1289.94
390.287	1310.94
390.512	1328.94
390.736	1336.94
390.961	1345.94
391.186	1386.94
391.411	1406.94
391.636	1454.94
391.86	1451.94
392.085	1507.94
392.31	1503.94
392.534	1462.94
392.759	1486.94
392.984	1427.94
393.208	1422.94
393.433	1440.94
393.658	1391.94
393.882	1401.94
394.107	1418.94
394.331	1412.94
394.556	1384.94
394.78	1396.94
395.005	1420.94
395.229	1414.94
395.454	1479.94
395.678	1483.94
395.903	1475.94
396.127	1455.94
396.352	1414.94
396.576	1410.94
396.801	1436.94
397.025	1459.94
397.249	1455.94
397.474	1481.94
397.698	1535.94
397.922	1528.94
398.147	1523.94
398.371	1586.94
398.595	1600.94
398.82	1632.94
399.044	1760.94
399.268	1863.94
399.492	2076.94
399.717	2281.94
399.941	2299.94
400.165	2168.94
400.389	1971.94
400.613	1882.94
400.837	1765.94
401.062	1750.94
401.286	1675.94
401.51	1706.94
401.734	1681.94
401.958	1666.94
402.182	1706.94
402.406	1672.94
402.63	1743.94
402.854	1735.94
403.078	1743.94
403.302	1764.94
403.526	1749.94
403.75	1818.94
403.974	1818.94
404.198	1795.94
404.422	1822.94
404.645	1804.94
404.869	1784.94
405.093	1804.94
405.317	1770.94
405.541	1781.94
405.765	1779.94
405.988	1769.94
406.212	1850.94
406.436	1788.94
406.66	1847.94
406.883	1870.94
407.107	2005.94
407.331	2041.94
407.555	2129.94
407.778	2079.94
408.002	2084.94
408.226	2012.94
408.449	2012.94
408.673	1899.94
408.896	1879.94
409.12	1830.94
409.344	1874.94
409.567	1820.94
409.791	1848.94
410.014	1817.94
410.238	1810.94
410.461	1832.94
410.685	1785.94
410.908	1748.94
411.132	1762.94
411.355	1727.94
411.578	1761.94
411.802	1716.94
412.025	1759.94
412.249	1754.94
412.472	1716.94
412.695	1721.94
412.919	1663.94
413.142	1666.94
413.365	1687.94
413.589	1678.94
413.812	1661.94
414.035	1615.94
414.258	1638.94
414.482	1658.94
414.705	1670.94
414.928	1680.94
415.151	1660.94
415.374	1687.94
415.597	1623.94
415.821	1641.94
416.044	1598.94
416.267	1590.94
416.49	1596.94
416.713	1570.94
416.936	1633.94
417.159	1572.94
417.382	1603.94
417.605	1548.94
417.828	1583.94
418.051	1614.94
418.274	1631.94
418.497	1623.94
418.72	1621.94
418.943	1631.94
419.166	1753.94
419.389	1832.94
419.611	1840.94
419.834	1757.94
420.057	1677.94
420.28	1621.94
420.503	1566.94
420.726	1569.94
420.948	1546.94
421.171	1577.94
421.394	1616.94
421.617	1576.94
421.839	1623.94
422.062	1623.94
422.285	1580.94
422.507	1615.94
422.73	1612.94
422.953	1600.94
423.175	1648.94
423.398	1629.94
423.621	1623.94
423.843	1642.94
424.066	1654.94
424.288	1642.94
424.511	1642.94
424.733	1605.94
424.956	1627.94
425.178	1637.94
425.401	1569.94
425.623	1605.94
425.846	1568.94
426.068	1578.94
426.291	1571.94
426.513	1583.94
426.735	1511.94
426.958	1542.94
427.18	1497.94
427.402	1490.94
427.625	1483.94
427.847	1465.94
428.069	1476.94
428.292	1476.94
428.514	1458.94
428.736	1455.94
428.958	1517.94
429.181	1450.94
429.403	1406.94
429.625	1443.94
429.847	1438.94
430.069	1430.94
430.292	1442.94
430.514	1430.94
430.736	1404.94
430.958	1428.94
431.18	1427.94
431.402	1427.94
431.624	1447.94
431.846	1466.94
432.068	1523.94
432.29	1497.94
432.512	1468.94
432.734	1487.94
432.956	1483.94
433.178	1443.94
433.4	1502.94
433.622	1499.94
433.844	1481.94
434.066	1502.94
434.287	1530.94
434.509	1586.94
434.731	1609.94
434.953	1613.94
435.175	1616.94
435.397	1636.94
435.618	1579.94
435.84	1504.94
436.062	1482.94
436.284	1483.94
436.505	1440.94
436.727	1486.94
436.949	1474.94
437.17	1431.94
437.392	1412.94
437.614	1450.94
437.835	1403.94
438.057	1412.94
438.278	1373.94
438.5	1367.94
438.721	1394.94
438.943	1416.94
439.165	1372.94
439.386	1422.94
439.608	1402.94
439.829	1411.94
440.05	1429.94
440.272	1438.94
440.493	1438.94
440.715	1459.94
440.936	1495.94
441.158	1470.94
441.379	1501.94
441.6	1584.94
441.822	1553.94
442.043	1580.94
442.264	1562.94
442.486	1551.94
442.707	1538.94
442.928	1523.94
443.149	1594.94
443.371	1532.94
443.592	1562.94
443.813	1594.94
444.034	1568.94
444.255	1625.94
444.476	1724.94
444.698	1758.94
444.919	1790.94
445.14	1905.94
445.361	1709.94
445.582	1646.94
445.803	1575.94
446.024	1517.94
446.245	1508.94
446.466	1482.94
446.687	1446.94
446.908	1429.94
447.129	1405.94
447.35	1418.94
447.571	1377.94
447.792	1342.94
448.013	1362.94
448.234	1323.94
448.455	1307.94
448.675	1306.94
448.896	1318.94
449.117	1312.94
449.338	1334.94
449.559	1280.94
449.779	1300.94
450	1314.94
450.221	1306.94
450.442	1320.94
450.662	1312.94
450.883	1303.94
451.104	1306.94
451.324	1288.94
451.545	1302.94
451.766	1286.94
451.986	1287.94
452.207	1339.94
452.428	1292.94
452.648	1291.94
452.869	1286.94
453.089	1227.94
453.31	1303.94
453.53	1224.94
453.751	1252.94
453.971	1230.94
454.192	1256.94
454.412	1228.94
454.633	1251.94
454.853	1245.94
455.073	1218.94
455.294	1250.94
455.514	1214.94
455.734	1215.94
455.955	1187.94
456.175	1193.94
456.395	1215.94
456.616	1204.94
456.836	1211.94
457.056	1259.94
457.276	1230.94
457.497	1243.94
457.717	1252.94
457.937	1224.94
458.157	1257.94
458.377	1268.94
458.598	1308.94
458.818	1297.94
459.038	1362.94
459.258	1382.94
459.478	1444.94
459.698	1458.94
459.918	1498.94
460.138	1564.94
460.358	1586.94
460.578	1603.94
460.798	1657.94
461.018	1666.94
461.238	1635.94
461.458	1638.94
461.678	1629.94
461.898	1659.94
462.118	1654.94
462.338	1737.94
462.558	1733.94
462.777	1802.94
462.997	1950.94
463.217	2043.94
463.437	2068.94
463.657	1959.94
463.876	1964.94
464.096	1893.94
464.316	1861.94
464.536	1810.94
464.755	1790.94
464.975	1767.94
465.195	1674.94
465.414	1644.94
465.634	1559.94
465.854	1502.94
466.073	1453.94
466.293	1446.94
466.512	1413.94
466.732	1362.94
466.951	1370.94
467.171	1372.94
467.391	1384.94
467.61	1388.94
467.829	1342.94
468.049	1331.94
468.268	1339.94
468.488	1335.94
468.707	1324.94
468.927	1334.94
469.146	1312.94
469.365	1325.94
469.585	1323.94
469.804	1337.94
470.023	1384.94
470.243	1388.94
470.462	1400.94
470.681	1382.94
470.901	1440.94
471.12	1410.94
471.339	1378.94
471.558	1346.94
471.777	1357.94
471.997	1360.94
472.216	1343.94
472.435	1294.94
472.654	1304.94
472.873	1318.94
473.092	1322.94
473.311	1288.94
473.53	1317.94
473.749	1294.94
473.968	1311.94
474.187	1305.94
474.406	1292.94
474.625	1314.94
474.844	1286.94
475.063	1301.94
475.282	1333.94
475.501	1351.94
475.72	1335.94
475.939	1333.94
476.158	1366.94
476.377	1362.94
476.596	1372.94
476.814	1395.94
477.033	1398.94
477.252	1376.94
477.471	1435.94
477.69	1482.94
477.908	1461.94
478.127	1507.94
478.346	1565.94
478.564	1578.94
478.783	1578.94
479.002	1615.94
479.22	1615.94
479.439	1646.94
479.658	1661.94
479.876	1665.94
480.095	1680.94
480.313	1714.94
480.532	1707.94
480.751	1784.94
480.969	1688.94
481.188	1654.94
481.406	1621.94
481.624	1602.94
481.843	1560.94
482.061	1564.94
482.28	1592.94
482.498	1570.94
482.717	1550.94
482.935	1562.94
483.153	1584.94
483.372	1585.94
483.59	1595.94
483.808	1604.94
484.027	1629.94
484.245	1674.94
484.463	1674.94
484.681	1731.94
484.9	1695.94
485.118	1722.94
485.336	1699.94
485.554	1760.94
485.772	1734.94
485.99	1731.94
486.209	1741.94
486.427	1739.94
486.645	1680.94
486.863	1739.94
487.081	1694.94
487.299	1730.94
487.517	1706.94
487.735	1726.94
487.953	1706.94
488.171	1679.94
488.389	1670.94
488.607	1686.94
488.825	1675.94
489.043	1656.94
489.261	1656.94
489.479	1628.94
489.696	1638.94
489.914	1627.94
490.132	1658.94
490.35	1605.94
490.568	1658.94
490.786	1679.94
491.003	1651.94
491.221	1674.94
491.439	1664.94
491.657	1613.94
491.874	1645.94
492.092	1657.94
492.31	1666.94
492.527	1633.94
492.745	1673.94
492.963	1615.94
493.18	1670.94
493.398	1673.94
493.615	1662.94
493.833	1674.94
494.05	1660.94
494.268	1650.94
494.485	1674.94
494.703	1668.94
494.92	1664.94
495.138	1676.94
495.355	1667.94
495.573	1698.94
495.79	1724.94
496.008	1736.94
496.225	1718.94
496.442	1748.94
496.66	1738.94
496.877	1749.94
497.094	1800.94
497.312	1803.94
497.529	1866.94
497.746	1895.94
497.963	1993.94
498.181	2056.94
498.398	2127.94
498.615	2217.94
498.832	2306.94
499.049	2531.94
499.267	2607.94
499.484	2895.94
499.701	3103.94
499.918	3307.94
500.135	3796.94
500.352	4028.94
500.569	4186.94
500.786	4078.94
501.003	3992.94
501.22	3717.94
501.437	3342.94
501.654	3009.94
501.871	2775.94
502.088	2608.94
502.305	2418.94
502.522	2345.94
502.739	2246.94
502.956	2157.94
503.172	2058.94
503.389	1980.94
503.606	1926.94
503.823	1887.94
504.04	1871.94
504.256	1907.94
504.473	1846.94
504.69	1899.94
504.907	1858.94
505.123	1780.94
505.34	1683.94
505.557	1613.94
505.773	1576.94
505.99	1574.94
506.207	1538.94
506.423	1522.94
506.64	1488.94
506.856	1488.94
507.073	1470.94
507.289	1495.94
507.506	1428.94
507.722	1438.94
507.939	1424.94
508.155	1413.94
508.372	1396.94
508.588	1385.94
508.805	1357.94
509.021	1354.94
509.238	1355.94
509.454	1364.94
509.67	1372.94
509.887	1357.94
510.103	1332.94
510.319	1354.94
510.536	1310.94
510.752	1299.94
510.968	1316.94
511.184	1330.94
511.401	1302.94
511.617	1312.94
511.833	1333.94
512.049	1304.94
512.265	1315.94
512.481	1283.94
512.698	1308.94
512.914	1316.94
513.13	1300.94
513.346	1295.94
513.562	1290.94
513.778	1302.94
513.994	1319.94
514.21	1318.94
514.426	1293.94
514.642	1318.94
514.858	1339.94
515.074	1302.94
515.29	1374.94
515.506	1333.94
515.721	1389.94
515.937	1396.94
516.153	1396.94
516.369	1438.94
516.585	1465.94
516.801	1508.94
517.016	1585.94
517.232	1606.94
517.448	1683.94
517.664	1686.94
517.879	1690.94
518.095	1686.94
518.311	1680.94
518.527	1634.94
518.742	1592.94
518.958	1514.94
519.173	1488.94
519.389	1474.94
519.605	1432.94
519.82	1404.94
520.036	1387.94
520.251	1317.94
520.467	1324.94
520.682	1290.94
520.898	1285.94
521.113	1288.94
521.329	1289.94
521.544	1241.94
521.76	1278.94
521.975	1256.94
522.19	1228.94
522.406	1242.94
522.621	1208.94
522.836	1224.94
523.052	1195.94
523.267	1203.94
523.482	1195.94
523.698	1192.94
523.913	1171.94
524.128	1205.94
524.343	1174.94
524.559	1169.94
524.774	1175.94
524.989	1174.94
525.204	1174.94
525.419	1172.94
525.634	1163.94
525.849	1163.94
526.064	1176.94
526.28	1150.94
526.495	1149.94
526.71	1131.94
526.925	1130.94
527.14	1150.94
527.355	1163.94
527.57	1159.94
527.785	1146.94
527.999	1152.94
528.214	1166.94
528.429	1185.94
528.644	1135.94
528.859	1156.94
529.074	1135.94
529.289	1109.94
529.503	1135.94
529.718	1128.94
529.933	1123.94
530.148	1111.94
530.363	1122.94
530.577	1145.94
530.792	1106.94
531.007	1122.94
531.221	1112.94
531.436	1188.94
531.651	1140.94
531.865	1121.94
532.08	1122.94
532.295	1125.94
532.509	1146.94
532.724	1132.94
532.938	1128.94
533.153	1131.94
533.367	1151.94
533.582	1133.94
533.796	1129.94
534.011	1131.94
534.225	1126.94
534.44	1105.94
534.654	1108.94
534.868	1096.94
535.083	1102.94
535.297	1099.94
535.511	1101.94
535.726	1097.94
535.94	1090.94
536.154	1072.94
536.369	1053.94
536.583	1051.94
536.797	1056.94
537.011	1055.94
537.225	1045.94
537.44	1060.94
537.654	1028.94
537.868	995.94
538.082	1036.94
538.296	1045.94
538.51	1020.94
538.724	1046.94
538.938	1035.94
539.153	1015.94
539.367	1027.94
539.581	1025.94
539.795	1032.94
540.009	1039.94
540.222	1018.94
540.436	1017.94
540.65	1015.94
540.864	996.94
541.078	1003.94
541.292	1037.94
541.506	1040.94
541.72	978.94
541.934	995.94
542.147	990.94
542.361	1006.94
542.575	1006.94
542.789	1016.94
543.002	980.94
543.216	992.94
543.43	983.94
543.644	974.94
543.857	986.94
544.071	974.94
544.285	1008.94
544.498	990.94
544.712	995.94
544.925	1012.94
545.139	1013.94
545.352	1000.94
545.566	1011.94
545.779	1011.94
545.993	1038.94
546.206	1032.94
546.42	1029.94
546.633	1030.94
546.847	1026.94
547.06	1050.94
547.274	1031.94
547.487	992.94
547.7	1046.94
547.914	1016.94
548.127	1043.94
548.34	1031.94
548.554	987.94
548.767	999.94
548.98	1043.94
549.193	1001.94
549.407	1051.94
549.62	1044.94
549.833	1036.94
550.046	1012.94
550.259	996.94
550.473	996.94
550.686	990.94
550.899	998.94
551.112	992.94
551.325	1021.94
551.538	998.94
551.751	1006.94
551.964	1002.94
552.177	976.94
552.39	1042.94
552.603	1069.94
552.816	1053.94
553.029	1065.94
553.242	1078.94
553.455	1101.94
553.667	1085.94
553.88	1058.94
554.093	1049.94
554.306	1026.94
554.519	1011.94
554.732	1010.94
554.944	1001.94
555.157	965.94
555.37	968.94
555.583	951.94
555.795	927.94
556.008	917.94
556.221	893.94
556.433	925.94
556.646	897.94
556.859	898.94
557.071	896.94
557.284	849.94
557.496	876.94
557.709	908.94
557.921	877.94
558.134	872.94
558.346	838.94
558.559	859.94
558.771	861.94
558.984	857.94
559.196	848.94
559.409	838.94
559.621	836.94
559.833	834.94
560.046	848.94
560.258	834.94
560.47	840.94
560.683	848.94
560.895	834.94
561.107	845.94
561.32	846.94
561.532	846.94
561.744	855.94
561.956	835.94
562.168	847.94
562.381	846.94
562.593	845.94
562.805	862.94
563.017	832.94
563.229	878.94
563.441	866.94
563.653	875.94
563.865	869.94
564.077	874.94
564.289	876.94
564.501	907.94
564.713	900.94
564.925	914.94
565.137	928.94
565.349	948.94
565.561	1005.94
565.773	996.94
565.985	1059.94
566.197	1112.94
566.408	1163.94
566.62	1227.94
566.832	1269.94
567.044	1279.94
567.255	1289.94
567.467	1346.94
567.679	1383.94
567.891	1450.94
568.102	1460.94
568.314	1383.94
568.526	1270.94
568.737	1209.94
568.949	1126.94
569.161	1093.94
569.372	1017.94
569.584	980.94
569.795	951.94
570.007	902.94
570.218	906.94
570.43	856.94
570.641	860.94
570.853	830.94
571.064	859.94
571.276	851.94
571.487	807.94
571.698	809.94
571.91	762.94
572.121	747.94
572.333	743.94
572.544	725.94
572.755	735.94
572.966	732.94
573.178	723.94
573.389	700.94
573.6	698.94
573.811	694.94
574.023	691.94
574.234	695.94
574.445	700.94
574.656	686.94
574.867	701.94
575.078	669.94
575.289	683.94
575.501	670.94
575.712	648.94
575.923	675.94
576.134	664.94
576.345	652.94
576.556	636.94
576.767	643.94
576.978	666.94
577.188	634.94
577.399	648.94
577.61	630.94
577.821	618.94
578.032	623.94
578.243	634.94
578.454	608.94
578.665	618.94
578.875	610.94
579.086	619.94
579.297	615.94
579.508	601.94
579.718	618.94
579.929	601.94
580.14	594.94
580.35	606.94
580.561	597.94
580.772	598.94
580.982	575.94
581.193	585.94
581.403	607.94
581.614	574.94
581.825	562.94
582.035	610.94
582.246	585.94
582.456	560.94
582.667	602.94
582.877	580.94
583.087	590.94
583.298	577.94
583.508	553.94
583.719	578.94
583.929	570.94
584.139	566.94
584.35	554.94
584.56	576.94
584.77	576.94
584.981	564.94
585.191	568.94
585.401	549.94
585.611	550.94
585.821	548.94
586.032	551.94
586.242	535.94
586.452	537.94
586.662	559.94
586.872	550.94
587.082	560.94
587.292	556.94
587.502	538.94
587.713	533.94
587.923	563.94
588.133	540.94
588.343	522.94
588.553	538.94
588.762	532.94
588.972	532.94
589.182	571.94
589.392	554.94
589.602	555.94
589.812	566.94
590.022	566.94
590.232	558.94
590.441	550.94
590.651	567.94
590.861	539.94
591.071	556.94
591.281	557.94
591.49	572.94
591.7	576.94
591.91	600.94
592.119	600.94
592.329	603.94
592.539	623.94
592.748	642.94
592.958	624.94
593.167	638.94
593.377	651.94
593.587	677.94
593.796	652.94
594.006	646.94
594.215	680.94
594.424	663.94
594.634	621.94
594.843	630.94
595.053	634.94
595.262	602.94
595.472	586.94
595.681	574.94
595.89	562.94
596.1	563.94
596.309	538.94
596.518	532.94
596.727	532.94
596.937	523.94
597.146	517.94
597.355	496.94
597.564	509.94
597.774	477.94
597.983	482.94
598.192	485.94
598.401	486.94
598.61	468.94
598.819	457.94
599.028	459.94
599.237	480.94
599.446	474.94
599.655	456.94
599.864	464.94
600.073	450.94
600.282	434.94
600.491	473.94
600.7	449.94
600.909	460.94
601.118	462.94
601.327	457.94
601.536	420.94
601.745	427.94
601.953	450.94
602.162	448.94
602.371	443.94
602.58	431.94
602.789	434.94
602.997	446.94
603.206	454.94
603.415	434.94
603.623	429.94
603.832	422.94
604.041	425.94
604.249	444.94
604.458	434.94
604.666	415.94
604.875	422.94
605.084	423.94
605.292	409.94
605.501	410.94
605.709	431.94
605.918	420.94
606.126	418.94
606.334	425.94
606.543	409.94
606.751	430.94
606.96	414.94
607.168	406.94
607.376	399.94
607.585	402.94
607.793	391.94
608.001	423.94
608.21	413.94
608.418	400.94
608.626	415.94
608.834	385.94
609.043	424.94
609.251	402.94
609.459	387.94
609.667	407.94
609.875	411.94
610.083	396.94
610.291	429.94
610.499	408.94
610.707	388.94
610.916	404.94
611.124	398.94
611.332	397.94
611.54	395.94
611.748	392.94
611.955	393.94
612.163	406.94
612.371	387.94
612.579	402.94
612.787	390.94
612.995	389.94
613.203	400.94
613.411	368.94
613.618	401.94
613.826	400.94
614.034	390.94
614.242	389.94
614.449	380.94
614.657	361.94
614.865	386.94
615.072	374.94
615.28	382.94
615.488	371.94
615.695	397.94
615.903	406.94
616.111	393.94
616.318	384.94
616.526	390.94
616.733	379.94
616.941	390.94
617.148	398.94
617.356	383.94
617.563	377.94
617.771	373.94
617.978	401.94
618.185	393.94
618.393	371.94
618.6	380.94
618.807	375.94
619.015	378.94
619.222	387.94
619.429	391.94
619.637	375.94
619.844	376.94
620.051	358.94
620.258	366.94
620.466	345.94
620.673	370.94
620.88	346.94
621.087	347.94
621.294	339.94
621.501	340.94
621.708	354.94
621.915	324.94
622.122	346.94
622.329	354.94
622.536	362.94
622.743	358.94
622.95	332.94
623.157	359.94
623.364	340.94
623.571	337.94
623.778	342.94
623.985	351.94
624.192	347.94
624.399	338.94
624.606	356.94
624.812	335.94
625.019	328.94
625.226	326.94
625.433	319.94
625.639	329.94
625.846	345.94
626.053	314.94
626.259	303.94
626.466	309.94
626.673	325.94
626.879	340.94
627.086	324.94
627.293	324.94
627.499	323.94
627.706	325.94
627.912	302.94
628.119	316.94
628.325	304.94
628.532	318.94
628.738	317.94
628.945	332.94
629.151	312.94
629.357	307.94
629.564	332.94
629.77	327.94
629.976	274.94
630.183	302.94
630.389	316.94
630.595	317.94
630.802	304.94
631.008	298.94
631.214	295.94
631.42	306.94
631.627	314.94
631.833	298.94
632.039	302.94
632.245	286.94
632.451	291.94
632.657	292.94
632.863	293.94
633.069	276.94
633.275	289.94
633.481	306.94
633.688	282.94
633.893	285.94
634.099	296.94
634.305	285.94
634.511	263.94
634.717	277.94
634.923	285.94
635.129	291.94
635.335	279.94
635.541	269.94
635.747	264.94
635.952	277.94
636.158	276.94
636.364	276.94
636.57	283.94
636.775	266.94
636.981	255.94
637.187	249.94
637.392	269.94
637.598	282.94
637.804	278.94
638.009	280.94
638.215	273.94
638.421	288.94
638.626	268.94
638.832	287.94
639.037	269.94
639.243	274.94
639.448	259.94
639.654	277.94
639.859	273.94
640.065	270.94
640.27	277.94
640.475	270.94
640.681	251.94
640.886	284.94
641.091	270.94
641.297	266.94
641.502	272.94
641.707	266.94
641.913	262.94
642.118	254.94
642.323	264.94
642.528	272.94
642.733	278.94
642.939	272.94
643.144	261.94
643.349	243.94
643.554	252.94
643.759	262.94
643.964	264.94
644.169	244.94
644.374	262.94
644.579	258.94
644.784	259.94
644.989	256.94
645.194	268.94
645.399	278.94
645.604	261.94
645.809	245.94
646.014	272.94
646.219	264.94
646.423	282.94
646.628	282.94
646.833	256.94
647.038	256.94
647.243	255.94
647.447	271.94
647.652	275.94
647.857	263.94
648.062	291.94
648.266	291.94
648.471	283.94
648.676	286.94
648.88	286.94
649.085	291.94
649.289	272.94
649.494	290.94
649.698	260.94
649.903	264.94
650.107	277.94
650.312	268.94
650.516	284.94
650.721	266.94
650.925	266.94
651.13	269.94
651.334	243.94
651.539	266.94
651.743	229.94
651.947	246.94
652.152	250.94
652.356	268.94
652.56	257.94
652.764	252.94
652.969	252.94
653.173	246.94
653.377	247.94
653.581	235.94
653.785	261.94
653.99	262.94
654.194	255.94
654.398	251.94
654.602	258.94
654.806	264.94
655.01	244.94
655.214	266.94
655.418	269.94
655.622	281.94
655.826	296.94
656.03	314.94
656.234	351.94
656.438	374.94
656.642	357.94
656.846	338.94
657.049	292.94
657.253	275.94
657.457	248.94
657.661	217.94
657.865	217.94
658.068	191.94
658.272	182.94
658.476	183.94
658.68	166.94
658.883	160.94
659.087	169.94
659.291	130.94
659.494	130.94
659.698	141.94
659.901	125.94
660.105	129.94
660.309	119.94
660.512	138.94
660.716	109.94
660.919	105.94
661.123	120.94
661.326	114.94
661.53	117.94
661.733	109.94
661.936	100.94
662.14	91.94
662.343	82.94
662.546	88.94
662.75	91.94
662.953	95.94
663.156	85.94
663.36	93.94
663.563	92.94
663.766	92.94
663.969	91.94
664.173	80.94
664.376	82.94
664.579	81.94
664.782	74.94
664.985	95.94
665.188	86.94
665.391	74.94
665.594	79.94
665.797	92.94
666	87.94
666.203	81.94
666.406	92.94
666.609	91.94
666.812	87.94
667.015	92.94
667.218	68.94
667.421	82.94
667.624	80.94
667.827	80.94
668.03	91.94
668.232	90.94
668.435	88.94
668.638	87.94
668.841	92.94
669.043	80.94
669.246	86.94
669.449	84.94
669.651	79.94
669.854	77.94
670.057	84.94
670.259	71.94
670.462	79.94
670.665	83.94
670.867	87.94
671.07	83.94
671.272	80.94
671.475	94.94
671.677	79.94
671.88	79.94
672.082	88.94
672.284	90.94
672.487	77.94
672.689	79.94
672.892	86.94
