Data from NiCl2@0.0625M.TitratingCurve.Agarose3%dH2O.NegLispCup.LampEnergy10.LIBS07252019_HRD10591_18-35-37-577.txt Node
Date: Thu Jul 25 18:35:37 EDT 2019
User: cochatt
Spectrometer: HR+D1059
Trigger mode: 1
Integration Time (sec): 1.000000E-1
Scans to average: 1
Electric dark correction enabled: true
Nonlinearity correction enabled: false
Boxcar width: 0
XAxis mode: Wavelengths
Number of Pixels in Spectrum: 2048
>>>>>Begin Spectral Data<<<<<
223.165	-10.88
223.4	-10.88
223.635	-10.88
223.869	-13.88
224.104	-24.88
224.338	-19.88
224.573	-10.88
224.808	-3.88
225.042	-18.88
225.277	1.12
225.511	-1.88
225.746	0.12
225.98	18.12
226.215	-0.88
226.449	12.12
226.683	12.12
226.918	23.12
227.152	39.12
227.387	33.12
227.621	46.12
227.856	39.12
228.09	50.12
228.324	53.12
228.559	49.12
228.793	84.12
229.027	129.12
229.262	141.12
229.496	140.12
229.73	158.12
229.964	170.12
230.199	170.12
230.433	150.12
230.667	198.12
230.901	171.12
231.136	169.12
231.37	181.12
231.604	181.12
231.838	199.12
232.072	210.12
232.306	204.12
232.541	205.12
232.775	197.12
233.009	201.12
233.243	202.12
233.477	208.12
233.711	230.12
233.945	206.12
234.179	204.12
234.413	210.12
234.647	211.12
234.881	211.12
235.115	214.12
235.349	220.12
235.583	210.12
235.817	212.12
236.051	201.12
236.285	211.12
236.519	212.12
236.753	215.12
236.987	224.12
237.221	221.12
237.455	229.12
237.689	234.12
237.922	233.12
238.156	219.12
238.39	237.12
238.624	232.12
238.858	253.12
239.091	262.12
239.325	236.12
239.559	259.12
239.793	261.12
240.027	253.12
240.26	271.12
240.494	262.12
240.728	249.12
240.961	253.12
241.195	265.12
241.429	278.12
241.662	281.12
241.896	280.12
242.13	301.12
242.363	291.12
242.597	311.12
242.83	292.12
243.064	298.12
243.298	293.12
243.531	328.12
243.765	311.12
243.998	332.12
244.232	317.12
244.465	310.12
244.699	316.12
244.932	323.12
245.166	329.12
245.399	341.12
245.633	313.12
245.866	320.12
246.099	330.12
246.333	333.12
246.566	338.12
246.8	331.12
247.033	331.12
247.266	335.12
247.5	346.12
247.733	346.12
247.966	348.12
248.2	343.12
248.433	368.12
248.666	375.12
248.899	358.12
249.133	367.12
249.366	382.12
249.599	375.12
249.832	384.12
250.066	387.12
250.299	362.12
250.532	383.12
250.765	383.12
250.998	385.12
251.231	410.12
251.465	400.12
251.698	410.12
251.931	379.12
252.164	426.12
252.397	413.12
252.63	415.12
252.863	413.12
253.096	415.12
253.329	420.12
253.562	417.12
253.795	449.12
254.028	435.12
254.261	428.12
254.494	437.12
254.727	445.12
254.96	421.12
255.193	453.12
255.426	444.12
255.659	448.12
255.892	454.12
256.124	446.12
256.357	453.12
256.59	481.12
256.823	461.12
257.056	433.12
257.289	477.12
257.521	493.12
257.754	482.12
257.987	458.12
258.22	477.12
258.452	487.12
258.685	469.12
258.918	472.12
259.151	486.12
259.383	486.12
259.616	478.12
259.849	491.12
260.081	476.12
260.314	505.12
260.547	478.12
260.779	489.12
261.012	509.12
261.244	515.12
261.477	545.12
261.71	514.12
261.942	535.12
262.175	491.12
262.407	519.12
262.64	507.12
262.872	504.12
263.105	519.12
263.337	541.12
263.57	541.12
263.802	530.12
264.035	547.12
264.267	564.12
264.499	536.12
264.732	551.12
264.964	554.12
265.197	553.12
265.429	572.12
265.661	565.12
265.894	582.12
266.126	570.12
266.358	573.12
266.591	573.12
266.823	557.12
267.055	567.12
267.287	564.12
267.52	589.12
267.752	596.12
267.984	581.12
268.216	574.12
268.448	597.12
268.681	587.12
268.913	590.12
269.145	588.12
269.377	609.12
269.609	597.12
269.841	611.12
270.073	633.12
270.306	621.12
270.538	580.12
270.77	609.12
271.002	647.12
271.234	605.12
271.466	622.12
271.698	630.12
271.93	643.12
272.162	603.12
272.394	639.12
272.626	660.12
272.858	628.12
273.09	637.12
273.322	660.12
273.553	635.12
273.785	658.12
274.017	664.12
274.249	655.12
274.481	669.12
274.713	652.12
274.945	675.12
275.176	674.12
275.408	673.12
275.64	694.12
275.872	687.12
276.104	681.12
276.335	687.12
276.567	666.12
276.799	703.12
277.031	683.12
277.262	709.12
277.494	713.12
277.726	690.12
277.957	698.12
278.189	700.12
278.421	700.12
278.652	719.12
278.884	734.12
279.115	730.12
279.347	734.12
279.579	728.12
279.81	721.12
280.042	708.12
280.273	729.12
280.505	721.12
280.736	725.12
280.968	733.12
281.199	775.12
281.431	772.12
281.662	755.12
281.894	760.12
282.125	767.12
282.356	776.12
282.588	774.12
282.819	740.12
283.051	761.12
283.282	790.12
283.513	786.12
283.745	780.12
283.976	778.12
284.207	777.12
284.439	781.12
284.67	811.12
284.901	802.12
285.132	787.12
285.364	805.12
285.595	803.12
285.826	807.12
286.057	811.12
286.288	822.12
286.52	821.12
286.751	836.12
286.982	826.12
287.213	834.12
287.444	828.12
287.675	827.12
287.906	818.12
288.138	832.12
288.369	842.12
288.6	845.12
288.831	869.12
289.062	873.12
289.293	822.12
289.524	840.12
289.755	860.12
289.986	825.12
290.217	854.12
290.448	860.12
290.679	847.12
290.91	855.12
291.141	823.12
291.371	867.12
291.602	875.12
291.833	846.12
292.064	863.12
292.295	847.12
292.526	864.12
292.757	823.12
292.987	844.12
293.218	848.12
293.449	877.12
293.68	870.12
293.91	887.12
294.141	861.12
294.372	887.12
294.603	865.12
294.833	863.12
295.064	887.12
295.295	863.12
295.525	873.12
295.756	885.12
295.987	865.12
296.217	897.12
296.448	881.12
296.679	901.12
296.909	902.12
297.14	910.12
297.37	908.12
297.601	917.12
297.831	915.12
298.062	940.12
298.292	924.12
298.523	944.12
298.753	960.12
298.984	940.12
299.214	927.12
299.445	918.12
299.675	950.12
299.905	924.12
300.136	907.12
300.366	921.12
300.597	961.12
300.827	979.12
301.057	968.12
301.288	975.12
301.518	978.12
301.748	958.12
301.979	976.12
302.209	1005.12
302.439	974.12
302.669	986.12
302.9	970.12
303.13	983.12
303.36	989.12
303.59	979.12
303.82	990.12
304.051	963.12
304.281	983.12
304.511	959.12
304.741	972.12
304.971	1027.12
305.201	1011.12
305.431	975.12
305.661	991.12
305.891	983.12
306.121	964.12
306.352	971.12
306.582	983.12
306.812	977.12
307.042	979.12
307.272	950.12
307.502	940.12
307.731	962.12
307.961	957.12
308.191	985.12
308.421	972.12
308.651	964.12
308.881	970.12
309.111	957.12
309.341	964.12
309.571	965.12
309.8	945.12
310.03	990.12
310.26	966.12
310.49	986.12
310.72	991.12
310.949	945.12
311.179	990.12
311.409	986.12
311.639	985.12
311.868	997.12
312.098	1011.12
312.328	1007.12
312.557	1001.12
312.787	1005.12
313.017	1054.12
313.246	1030.12
313.476	1038.12
313.706	1048.12
313.935	1074.12
314.165	1069.12
314.394	1051.12
314.624	1080.12
314.853	1057.12
315.083	1023.12
315.312	1044.12
315.542	1047.12
315.771	1036.12
316.001	1041.12
316.23	1064.12
316.46	1059.12
316.689	1042.12
316.919	1033.12
317.148	1052.12
317.377	1029.12
317.607	1033.12
317.836	1015.12
318.065	1026.12
318.295	1005.12
318.524	1042.12
318.753	1031.12
318.983	1043.12
319.212	1026.12
319.441	985.12
319.67	1033.12
319.9	1063.12
320.129	1027.12
320.358	1050.12
320.587	1018.12
320.816	1037.12
321.046	1055.12
321.275	1049.12
321.504	1042.12
321.733	1037.12
321.962	1061.12
322.191	1050.12
322.42	1055.12
322.649	1032.12
322.878	1067.12
323.108	1044.12
323.337	1058.12
323.566	1067.12
323.795	1069.12
324.024	1089.12
324.253	1087.12
324.482	1076.12
324.71	1093.12
324.939	1094.12
325.168	1103.12
325.397	1068.12
325.626	1093.12
325.855	1116.12
326.084	1121.12
326.313	1128.12
326.542	1108.12
326.77	1139.12
326.999	1111.12
327.228	1119.12
327.457	1121.12
327.686	1101.12
327.914	1118.12
328.143	1143.12
328.372	1135.12
328.6	1126.12
328.829	1093.12
329.058	1127.12
329.287	1149.12
329.515	1137.12
329.744	1170.12
329.972	1167.12
330.201	1169.12
330.43	1145.12
330.658	1188.12
330.887	1169.12
331.115	1171.12
331.344	1190.12
331.572	1197.12
331.801	1223.12
332.03	1216.12
332.258	1236.12
332.486	1273.12
332.715	1323.12
332.943	1335.12
333.172	1359.12
333.4	1398.12
333.629	1454.12
333.857	1445.12
334.085	1458.12
334.314	1448.12
334.542	1447.12
334.771	1400.12
334.999	1431.12
335.227	1414.12
335.455	1384.12
335.684	1393.12
335.912	1389.12
336.14	1437.12
336.369	1400.12
336.597	1405.12
336.825	1324.12
337.053	1374.12
337.281	1321.12
337.51	1311.12
337.738	1310.12
337.966	1285.12
338.194	1277.12
338.422	1239.12
338.65	1262.12
338.878	1265.12
339.106	1239.12
339.334	1249.12
339.562	1232.12
339.79	1226.12
340.018	1194.12
340.246	1223.12
340.474	1178.12
340.702	1183.12
340.93	1183.12
341.158	1203.12
341.386	1179.12
341.614	1230.12
341.842	1191.12
342.07	1202.12
342.298	1159.12
342.526	1175.12
342.754	1218.12
342.981	1185.12
343.209	1218.12
343.437	1266.12
343.665	1298.12
343.893	1385.12
344.12	1423.12
344.348	1405.12
344.576	1331.12
344.804	1297.12
345.031	1233.12
345.259	1222.12
345.487	1191.12
345.714	1185.12
345.942	1187.12
346.17	1153.12
346.397	1155.12
346.625	1159.12
346.853	1137.12
347.08	1117.12
347.308	1149.12
347.535	1112.12
347.763	1166.12
347.99	1132.12
348.218	1114.12
348.445	1113.12
348.673	1137.12
348.9	1147.12
349.128	1138.12
349.355	1128.12
349.583	1129.12
349.81	1138.12
350.037	1108.12
350.265	1105.12
350.492	1089.12
350.72	1084.12
350.947	1115.12
351.174	1105.12
351.402	1096.12
351.629	1095.12
351.856	1089.12
352.083	1099.12
352.311	1101.12
352.538	1116.12
352.765	1085.12
352.992	1074.12
353.22	1082.12
353.447	1071.12
353.674	1080.12
353.901	1100.12
354.128	1098.12
354.355	1091.12
354.583	1059.12
354.81	1082.12
355.037	1125.12
355.264	1081.12
355.491	1104.12
355.718	1066.12
355.945	1104.12
356.172	1130.12
356.399	1105.12
356.626	1107.12
356.853	1104.12
357.08	1117.12
357.307	1065.12
357.534	1117.12
357.761	1090.12
357.988	1111.12
358.215	1096.12
358.441	1086.12
358.668	1056.12
358.895	1088.12
359.122	1104.12
359.349	1098.12
359.576	1098.12
359.802	1104.12
360.029	1083.12
360.256	1102.12
360.483	1106.12
360.709	1097.12
360.936	1096.12
361.163	1097.12
361.39	1106.12
361.616	1116.12
361.843	1115.12
362.07	1103.12
362.296	1095.12
362.523	1106.12
362.749	1115.12
362.976	1116.12
363.203	1089.12
363.429	1081.12
363.656	1098.12
363.882	1117.12
364.109	1092.12
364.335	1081.12
364.562	1106.12
364.788	1068.12
365.015	1095.12
365.241	1100.12
365.468	1077.12
365.694	1089.12
365.92	1093.12
366.147	1107.12
366.373	1091.12
366.599	1118.12
366.826	1102.12
367.052	1086.12
367.278	1107.12
367.505	1107.12
367.731	1108.12
367.957	1109.12
368.184	1079.12
368.41	1138.12
368.636	1127.12
368.862	1143.12
369.089	1168.12
369.315	1138.12
369.541	1150.12
369.767	1120.12
369.993	1155.12
370.219	1174.12
370.445	1167.12
370.672	1155.12
370.898	1166.12
371.124	1192.12
371.35	1191.12
371.576	1192.12
371.802	1185.12
372.028	1173.12
372.254	1213.12
372.48	1194.12
372.706	1239.12
372.932	1226.12
373.158	1237.12
373.384	1232.12
373.61	1201.12
373.835	1183.12
374.061	1172.12
374.287	1214.12
374.513	1219.12
374.739	1260.12
374.965	1319.12
375.191	1290.12
375.416	1306.12
375.642	1279.12
375.868	1253.12
376.094	1238.12
376.319	1247.12
376.545	1199.12
376.771	1214.12
376.997	1243.12
377.222	1205.12
377.448	1205.12
377.674	1194.12
377.899	1163.12
378.125	1209.12
378.35	1166.12
378.576	1202.12
378.802	1173.12
379.027	1184.12
379.253	1229.12
379.478	1196.12
379.704	1190.12
379.929	1157.12
380.155	1168.12
380.38	1178.12
380.606	1168.12
380.831	1191.12
381.057	1167.12
381.282	1169.12
381.507	1181.12
381.733	1245.12
381.958	1189.12
382.184	1190.12
382.409	1242.12
382.634	1207.12
382.86	1256.12
383.085	1226.12
383.31	1233.12
383.535	1281.12
383.761	1306.12
383.986	1289.12
384.211	1313.12
384.436	1354.12
384.662	1372.12
384.887	1413.12
385.112	1389.12
385.337	1409.12
385.562	1435.12
385.787	1401.12
386.013	1436.12
386.238	1405.12
386.463	1429.12
386.688	1426.12
386.913	1414.12
387.138	1425.12
387.363	1421.12
387.588	1387.12
387.813	1363.12
388.038	1420.12
388.263	1443.12
388.488	1419.12
388.713	1413.12
388.938	1410.12
389.163	1423.12
389.387	1417.12
389.612	1410.12
389.837	1416.12
390.062	1418.12
390.287	1408.12
390.512	1405.12
390.736	1401.12
390.961	1405.12
391.186	1474.12
391.411	1475.12
391.636	1523.12
391.86	1546.12
392.085	1587.12
392.31	1573.12
392.534	1547.12
392.759	1543.12
392.984	1538.12
393.208	1487.12
393.433	1473.12
393.658	1494.12
393.882	1488.12
394.107	1537.12
394.331	1507.12
394.556	1502.12
394.78	1537.12
395.005	1543.12
395.229	1569.12
395.454	1566.12
395.678	1597.12
395.903	1594.12
396.127	1607.12
396.352	1564.12
396.576	1525.12
396.801	1511.12
397.025	1539.12
397.249	1596.12
397.474	1607.12
397.698	1631.12
397.922	1595.12
398.147	1605.12
398.371	1638.12
398.595	1708.12
398.82	1765.12
399.044	1849.12
399.268	1977.12
399.492	2236.12
399.717	2458.12
399.941	2463.12
400.165	2323.12
400.389	2173.12
400.613	1959.12
400.837	1883.12
401.062	1831.12
401.286	1832.12
401.51	1814.12
401.734	1773.12
401.958	1803.12
402.182	1798.12
402.406	1818.12
402.63	1787.12
402.854	1864.12
403.078	1846.12
403.302	1888.12
403.526	1903.12
403.75	1929.12
403.974	1944.12
404.198	1969.12
404.422	1915.12
404.645	1956.12
404.869	1918.12
405.093	1971.12
405.317	1939.12
405.541	1884.12
405.765	1914.12
405.988	1913.12
406.212	1925.12
406.436	1924.12
406.66	2033.12
406.883	1986.12
407.107	2074.12
407.331	2190.12
407.555	2251.12
407.778	2247.12
408.002	2180.12
408.226	2175.12
408.449	2097.12
408.673	2029.12
408.896	1998.12
409.12	2001.12
409.344	1995.12
409.567	1979.12
409.791	1992.12
410.014	1945.12
410.238	1942.12
410.461	1926.12
410.685	1938.12
410.908	1925.12
411.132	1916.12
411.355	1829.12
411.578	1862.12
411.802	1859.12
412.025	1868.12
412.249	1866.12
412.472	1841.12
412.695	1849.12
412.919	1820.12
413.142	1752.12
413.365	1771.12
413.589	1813.12
413.812	1770.12
414.035	1776.12
414.258	1773.12
414.482	1775.12
414.705	1779.12
414.928	1805.12
415.151	1775.12
415.374	1790.12
415.597	1761.12
415.821	1763.12
416.044	1725.12
416.267	1713.12
416.49	1695.12
416.713	1694.12
416.936	1697.12
417.159	1700.12
417.382	1687.12
417.605	1699.12
417.828	1699.12
418.051	1722.12
418.274	1719.12
418.497	1700.12
418.72	1756.12
418.943	1734.12
419.166	1835.12
419.389	1975.12
419.611	1928.12
419.834	1845.12
420.057	1793.12
420.28	1753.12
420.503	1699.12
420.726	1697.12
420.948	1672.12
421.171	1706.12
421.394	1678.12
421.617	1717.12
421.839	1666.12
422.062	1685.12
422.285	1658.12
422.507	1771.12
422.73	1689.12
422.953	1706.12
423.175	1765.12
423.398	1765.12
423.621	1764.12
423.843	1748.12
424.066	1794.12
424.288	1745.12
424.511	1719.12
424.733	1715.12
424.956	1707.12
425.178	1689.12
425.401	1712.12
425.623	1696.12
425.846	1652.12
426.068	1670.12
426.291	1636.12
426.513	1619.12
426.735	1665.12
426.958	1604.12
427.18	1575.12
427.402	1608.12
427.625	1618.12
427.847	1593.12
428.069	1589.12
428.292	1602.12
428.514	1510.12
428.736	1549.12
428.958	1566.12
429.181	1545.12
429.403	1531.12
429.625	1489.12
429.847	1497.12
430.069	1538.12
430.292	1549.12
430.514	1498.12
430.736	1558.12
430.958	1577.12
431.18	1568.12
431.402	1550.12
431.624	1550.12
431.846	1523.12
432.068	1573.12
432.29	1596.12
432.512	1553.12
432.734	1589.12
432.956	1553.12
433.178	1570.12
433.4	1570.12
433.622	1611.12
433.844	1607.12
434.066	1637.12
434.287	1587.12
434.509	1656.12
434.731	1732.12
434.953	1727.12
435.175	1722.12
435.397	1724.12
435.618	1661.12
435.84	1646.12
436.062	1607.12
436.284	1605.12
436.505	1565.12
436.727	1581.12
436.949	1548.12
437.17	1537.12
437.392	1539.12
437.614	1530.12
437.835	1491.12
438.057	1487.12
438.278	1481.12
438.5	1476.12
438.721	1462.12
438.943	1516.12
439.165	1479.12
439.386	1469.12
439.608	1566.12
439.829	1507.12
440.05	1530.12
440.272	1541.12
440.493	1516.12
440.715	1582.12
440.936	1586.12
441.158	1580.12
441.379	1635.12
441.6	1708.12
441.822	1686.12
442.043	1698.12
442.264	1691.12
442.486	1618.12
442.707	1683.12
442.928	1655.12
443.149	1661.12
443.371	1653.12
443.592	1684.12
443.813	1679.12
444.034	1673.12
444.255	1750.12
444.476	1806.12
444.698	1870.12
444.919	1929.12
445.14	2014.12
445.361	1857.12
445.582	1799.12
445.803	1660.12
446.024	1642.12
446.245	1627.12
446.466	1596.12
446.687	1541.12
446.908	1557.12
447.129	1500.12
447.35	1457.12
447.571	1467.12
447.792	1447.12
448.013	1479.12
448.234	1385.12
448.455	1411.12
448.675	1419.12
448.896	1411.12
449.117	1370.12
449.338	1369.12
449.559	1370.12
449.779	1378.12
450	1398.12
450.221	1393.12
450.442	1407.12
450.662	1374.12
450.883	1388.12
451.104	1423.12
451.324	1401.12
451.545	1410.12
451.766	1447.12
451.986	1367.12
452.207	1349.12
452.428	1378.12
452.648	1353.12
452.869	1372.12
453.089	1357.12
453.31	1365.12
453.53	1351.12
453.751	1345.12
453.971	1347.12
454.192	1358.12
454.412	1324.12
454.633	1328.12
454.853	1347.12
455.073	1332.12
455.294	1297.12
455.514	1256.12
455.734	1308.12
455.955	1284.12
456.175	1304.12
456.395	1281.12
456.616	1271.12
456.836	1326.12
457.056	1307.12
457.276	1305.12
457.497	1298.12
457.717	1287.12
457.937	1363.12
458.157	1363.12
458.377	1379.12
458.598	1387.12
458.818	1424.12
459.038	1417.12
459.258	1473.12
459.478	1523.12
459.698	1579.12
459.918	1599.12
460.138	1641.12
460.358	1691.12
460.578	1717.12
460.798	1769.12
461.018	1785.12
461.238	1733.12
461.458	1765.12
461.678	1723.12
461.898	1791.12
462.118	1815.12
462.338	1885.12
462.558	1898.12
462.777	1982.12
462.997	2127.12
463.217	2142.12
463.437	2189.12
463.657	2134.12
463.876	2067.12
464.096	2075.12
464.316	2049.12
464.536	2021.12
464.755	1960.12
464.975	1916.12
465.195	1814.12
465.414	1741.12
465.634	1647.12
465.854	1614.12
466.073	1547.12
466.293	1537.12
466.512	1499.12
466.732	1462.12
466.951	1469.12
467.171	1458.12
467.391	1498.12
467.61	1426.12
467.829	1447.12
468.049	1436.12
468.268	1414.12
468.488	1425.12
468.707	1428.12
468.927	1413.12
469.146	1415.12
469.365	1408.12
469.585	1398.12
469.804	1453.12
470.023	1475.12
470.243	1511.12
470.462	1482.12
470.681	1514.12
470.901	1540.12
471.12	1498.12
471.339	1466.12
471.558	1457.12
471.777	1429.12
471.997	1423.12
472.216	1417.12
472.435	1406.12
472.654	1410.12
472.873	1415.12
473.092	1420.12
473.311	1395.12
473.53	1414.12
473.749	1429.12
473.968	1380.12
474.187	1395.12
474.406	1404.12
474.625	1400.12
474.844	1370.12
475.063	1437.12
475.282	1423.12
475.501	1389.12
475.72	1433.12
475.939	1419.12
476.158	1434.12
476.377	1484.12
476.596	1464.12
476.814	1468.12
477.033	1488.12
477.252	1529.12
477.471	1541.12
477.69	1566.12
477.908	1585.12
478.127	1630.12
478.346	1645.12
478.564	1662.12
478.783	1706.12
479.002	1737.12
479.22	1751.12
479.439	1742.12
479.658	1773.12
479.876	1745.12
480.095	1753.12
480.313	1844.12
480.532	1827.12
480.751	1853.12
480.969	1807.12
481.188	1749.12
481.406	1707.12
481.624	1722.12
481.843	1725.12
482.061	1708.12
482.28	1717.12
482.498	1713.12
482.717	1649.12
482.935	1709.12
483.153	1679.12
483.372	1687.12
483.59	1762.12
483.808	1693.12
484.027	1717.12
484.245	1717.12
484.463	1774.12
484.681	1785.12
484.9	1822.12
485.118	1820.12
485.336	1836.12
485.554	1842.12
485.772	1890.12
485.99	1881.12
486.209	1901.12
486.427	1854.12
486.645	1853.12
486.863	1896.12
487.081	1862.12
487.299	1810.12
487.517	1851.12
487.735	1832.12
487.953	1849.12
488.171	1807.12
488.389	1806.12
488.607	1755.12
488.825	1756.12
489.043	1727.12
489.261	1729.12
489.479	1748.12
489.696	1780.12
489.914	1743.12
490.132	1762.12
490.35	1768.12
490.568	1736.12
490.786	1736.12
491.003	1796.12
491.221	1793.12
491.439	1765.12
491.657	1759.12
491.874	1744.12
492.092	1696.12
492.31	1720.12
492.527	1750.12
492.745	1761.12
492.963	1737.12
493.18	1749.12
493.398	1759.12
493.615	1740.12
493.833	1771.12
494.05	1771.12
494.268	1771.12
494.485	1797.12
494.703	1789.12
494.92	1796.12
495.138	1798.12
495.355	1799.12
495.573	1812.12
495.79	1836.12
496.008	1807.12
496.225	1842.12
496.442	1854.12
496.66	1850.12
496.877	1917.12
497.094	1871.12
497.312	1999.12
497.529	1983.12
497.746	2020.12
497.963	2085.12
498.181	2181.12
498.398	2258.12
498.615	2345.12
498.832	2475.12
499.049	2640.12
499.267	2853.12
499.484	3075.12
499.701	3367.12
499.918	3601.12
500.135	4005.12
500.352	4402.12
500.569	4526.12
500.786	4503.12
501.003	4228.12
501.22	3970.12
501.437	3601.12
501.654	3241.12
501.871	3006.12
502.088	2805.12
502.305	2634.12
502.522	2540.12
502.739	2419.12
502.956	2287.12
503.172	2233.12
503.389	2132.12
503.606	2107.12
503.823	2021.12
504.04	2028.12
504.256	2017.12
504.473	2000.12
504.69	2011.12
504.907	1982.12
505.123	1874.12
505.34	1830.12
505.557	1750.12
505.773	1707.12
505.99	1703.12
506.207	1645.12
506.423	1644.12
506.64	1592.12
506.856	1577.12
507.073	1531.12
507.289	1578.12
507.506	1524.12
507.722	1511.12
507.939	1506.12
508.155	1475.12
508.372	1507.12
508.588	1486.12
508.805	1457.12
509.021	1475.12
509.238	1442.12
509.454	1441.12
509.67	1396.12
509.887	1431.12
510.103	1398.12
510.319	1438.12
510.536	1438.12
510.752	1430.12
510.968	1402.12
511.184	1386.12
511.401	1379.12
511.617	1388.12
511.833	1373.12
512.049	1382.12
512.265	1388.12
512.481	1386.12
512.698	1374.12
512.914	1392.12
513.13	1373.12
513.346	1369.12
513.562	1382.12
513.778	1381.12
513.994	1374.12
514.21	1379.12
514.426	1399.12
514.642	1419.12
514.858	1410.12
515.074	1460.12
515.29	1439.12
515.506	1470.12
515.721	1481.12
515.937	1499.12
516.153	1499.12
516.369	1558.12
516.585	1588.12
516.801	1598.12
517.016	1629.12
517.232	1723.12
517.448	1800.12
517.664	1835.12
517.879	1821.12
518.095	1854.12
518.311	1799.12
518.527	1733.12
518.742	1694.12
518.958	1620.12
519.173	1593.12
519.389	1561.12
519.605	1494.12
519.82	1529.12
520.036	1461.12
520.251	1437.12
520.467	1438.12
520.682	1412.12
520.898	1349.12
521.113	1407.12
521.329	1378.12
521.544	1363.12
521.76	1353.12
521.975	1314.12
522.19	1305.12
522.406	1333.12
522.621	1281.12
522.836	1281.12
523.052	1296.12
523.267	1295.12
523.482	1270.12
523.698	1313.12
523.913	1254.12
524.128	1275.12
524.343	1257.12
524.559	1231.12
524.774	1241.12
524.989	1254.12
525.204	1251.12
525.419	1244.12
525.634	1226.12
525.849	1267.12
526.064	1217.12
526.28	1229.12
526.495	1206.12
526.71	1235.12
526.925	1238.12
527.14	1242.12
527.355	1238.12
527.57	1239.12
527.785	1262.12
527.999	1245.12
528.214	1239.12
528.429	1245.12
528.644	1214.12
528.859	1187.12
529.074	1221.12
529.289	1212.12
529.503	1241.12
529.718	1225.12
529.933	1207.12
530.148	1210.12
530.363	1196.12
530.577	1223.12
530.792	1209.12
531.007	1213.12
531.221	1229.12
531.436	1215.12
531.651	1207.12
531.865	1205.12
532.08	1174.12
532.295	1221.12
532.509	1209.12
532.724	1195.12
532.938	1224.12
533.153	1194.12
533.367	1222.12
533.582	1188.12
533.796	1208.12
534.011	1212.12
534.225	1187.12
534.44	1193.12
534.654	1194.12
534.868	1201.12
535.083	1185.12
535.297	1203.12
535.511	1176.12
535.726	1150.12
535.94	1125.12
536.154	1146.12
536.369	1150.12
536.583	1133.12
536.797	1122.12
537.011	1158.12
537.225	1130.12
537.44	1115.12
537.654	1139.12
537.868	1157.12
538.082	1109.12
538.296	1107.12
538.51	1095.12
538.724	1116.12
538.938	1107.12
539.153	1118.12
539.367	1140.12
539.581	1083.12
539.795	1081.12
540.009	1093.12
540.222	1078.12
540.436	1096.12
540.65	1094.12
540.864	1061.12
541.078	1057.12
541.292	1086.12
541.506	1073.12
541.72	1077.12
541.934	1058.12
542.147	1084.12
542.361	1060.12
542.575	1031.12
542.789	1071.12
543.002	1061.12
543.216	1070.12
543.43	1063.12
543.644	1077.12
543.857	1062.12
544.071	1055.12
544.285	1077.12
544.498	1069.12
544.712	1062.12
544.925	1091.12
545.139	1075.12
545.352	1081.12
545.566	1082.12
545.779	1094.12
545.993	1088.12
546.206	1070.12
546.42	1052.12
546.633	1102.12
546.847	1087.12
547.06	1106.12
547.274	1088.12
547.487	1091.12
547.7	1069.12
547.914	1115.12
548.127	1097.12
548.34	1102.12
548.554	1092.12
548.767	1089.12
548.98	1132.12
549.193	1092.12
549.407	1082.12
549.62	1133.12
549.833	1135.12
550.046	1107.12
550.259	1105.12
550.473	1068.12
550.686	1079.12
550.899	1082.12
551.112	1067.12
551.325	1038.12
551.538	1080.12
551.751	1092.12
551.964	1050.12
552.177	1105.12
552.39	1090.12
552.603	1117.12
552.816	1158.12
553.029	1163.12
553.242	1177.12
553.455	1169.12
553.667	1163.12
553.88	1186.12
554.093	1103.12
554.306	1123.12
554.519	1084.12
554.732	1086.12
554.944	1038.12
555.157	1040.12
555.37	995.12
555.583	1030.12
555.795	995.12
556.008	981.12
556.221	973.12
556.433	979.12
556.646	970.12
556.859	981.12
557.071	958.12
557.284	965.12
557.496	963.12
557.709	936.12
557.921	945.12
558.134	910.12
558.346	925.12
558.559	912.12
558.771	915.12
558.984	917.12
559.196	922.12
559.409	915.12
559.621	925.12
559.833	909.12
560.046	895.12
560.258	905.12
560.47	890.12
560.683	881.12
560.895	904.12
561.107	897.12
561.32	877.12
561.532	885.12
561.744	887.12
561.956	915.12
562.168	895.12
562.381	905.12
562.593	886.12
562.805	908.12
563.017	897.12
563.229	929.12
563.441	905.12
563.653	920.12
563.865	929.12
564.077	916.12
564.289	937.12
564.501	935.12
564.713	975.12
564.925	997.12
565.137	1017.12
565.349	1003.12
565.561	1059.12
565.773	1098.12
565.985	1118.12
566.197	1167.12
566.408	1224.12
566.62	1297.12
566.832	1380.12
567.044	1405.12
567.255	1424.12
567.467	1467.12
567.679	1497.12
567.891	1551.12
568.102	1572.12
568.314	1485.12
568.526	1373.12
568.737	1280.12
568.949	1162.12
569.161	1145.12
569.372	1086.12
569.584	1038.12
569.795	995.12
570.007	966.12
570.218	915.12
570.43	912.12
570.641	910.12
570.853	918.12
571.064	903.12
571.276	906.12
571.487	877.12
571.698	868.12
571.91	838.12
572.121	837.12
572.333	809.12
572.544	775.12
572.755	792.12
572.966	775.12
573.178	787.12
573.389	777.12
573.6	736.12
573.811	769.12
574.023	737.12
574.234	721.12
574.445	738.12
574.656	738.12
574.867	737.12
575.078	711.12
575.289	715.12
575.501	736.12
575.712	703.12
575.923	679.12
576.134	703.12
576.345	693.12
576.556	670.12
576.767	674.12
576.978	700.12
577.188	679.12
577.399	663.12
577.61	660.12
577.821	674.12
578.032	639.12
578.243	664.12
578.454	670.12
578.665	652.12
578.875	685.12
579.086	672.12
579.297	666.12
579.508	644.12
579.718	641.12
579.929	603.12
580.14	617.12
580.35	631.12
580.561	653.12
580.772	622.12
580.982	620.12
581.193	638.12
581.403	650.12
581.614	630.12
581.825	629.12
582.035	601.12
582.246	608.12
582.456	623.12
582.667	617.12
582.877	623.12
583.087	575.12
583.298	609.12
583.508	601.12
583.719	592.12
583.929	612.12
584.139	613.12
584.35	596.12
584.56	621.12
584.77	588.12
584.981	600.12
585.191	573.12
585.401	595.12
585.611	589.12
585.821	607.12
586.032	602.12
586.242	591.12
586.452	603.12
586.662	585.12
586.872	591.12
587.082	598.12
587.292	575.12
587.502	592.12
587.713	588.12
587.923	596.12
588.133	592.12
588.343	600.12
588.553	574.12
588.762	587.12
588.972	570.12
589.182	574.12
589.392	606.12
589.602	590.12
589.812	575.12
590.022	588.12
590.232	573.12
590.441	596.12
590.651	607.12
590.861	602.12
591.071	599.12
591.281	622.12
591.49	632.12
591.7	614.12
591.91	632.12
592.119	623.12
592.329	615.12
592.539	663.12
592.748	666.12
592.958	676.12
593.167	685.12
593.377	707.12
593.587	729.12
593.796	726.12
594.006	715.12
594.215	729.12
594.424	695.12
594.634	687.12
594.843	675.12
595.053	673.12
595.262	655.12
595.472	622.12
595.681	601.12
595.89	606.12
596.1	599.12
596.309	573.12
596.518	569.12
596.727	555.12
596.937	559.12
597.146	544.12
597.355	551.12
597.564	521.12
597.774	508.12
597.983	533.12
598.192	502.12
598.401	489.12
598.61	521.12
598.819	494.12
599.028	508.12
599.237	475.12
599.446	493.12
599.655	517.12
599.864	489.12
600.073	486.12
600.282	522.12
600.491	483.12
600.7	501.12
600.909	468.12
601.118	456.12
601.327	465.12
601.536	452.12
601.745	475.12
601.953	473.12
602.162	445.12
602.371	472.12
602.58	462.12
602.789	455.12
602.997	476.12
603.206	459.12
603.415	456.12
603.623	451.12
603.832	449.12
604.041	465.12
604.249	456.12
604.458	439.12
604.666	468.12
604.875	445.12
605.084	459.12
605.292	445.12
605.501	449.12
605.709	459.12
605.918	449.12
606.126	443.12
606.334	451.12
606.543	429.12
606.751	447.12
606.96	427.12
607.168	436.12
607.376	419.12
607.585	431.12
607.793	433.12
608.001	442.12
608.21	439.12
608.418	438.12
608.626	409.12
608.834	421.12
609.043	419.12
609.251	435.12
609.459	413.12
609.667	412.12
609.875	414.12
610.083	419.12
610.291	422.12
610.499	408.12
610.707	416.12
610.916	408.12
611.124	417.12
611.332	421.12
611.54	433.12
611.748	427.12
611.955	432.12
612.163	413.12
612.371	407.12
612.579	417.12
612.787	428.12
612.995	403.12
613.203	415.12
613.411	399.12
613.618	409.12
613.826	426.12
614.034	395.12
614.242	400.12
614.449	405.12
614.657	398.12
614.865	427.12
615.072	413.12
615.28	417.12
615.488	421.12
615.695	416.12
615.903	408.12
616.111	413.12
616.318	403.12
616.526	410.12
616.733	413.12
616.941	400.12
617.148	407.12
617.356	413.12
617.563	399.12
617.771	404.12
617.978	411.12
618.185	415.12
618.393	404.12
618.6	406.12
618.807	394.12
619.015	389.12
619.222	395.12
619.429	394.12
619.637	392.12
619.844	393.12
620.051	390.12
620.258	391.12
620.466	388.12
620.673	377.12
620.88	352.12
621.087	370.12
621.294	403.12
621.501	381.12
621.708	379.12
621.915	375.12
622.122	372.12
622.329	358.12
622.536	385.12
622.743	372.12
622.95	375.12
623.157	364.12
623.364	365.12
623.571	359.12
623.778	351.12
623.985	348.12
624.192	365.12
624.399	355.12
624.606	356.12
624.812	347.12
625.019	350.12
625.226	342.12
625.433	344.12
625.639	357.12
625.846	363.12
626.053	341.12
626.259	344.12
626.466	342.12
626.673	348.12
626.879	326.12
627.086	348.12
627.293	342.12
627.499	331.12
627.706	353.12
627.912	341.12
628.119	355.12
628.325	338.12
628.532	318.12
628.738	337.12
628.945	341.12
629.151	320.12
629.357	340.12
629.564	338.12
629.77	343.12
629.976	315.12
630.183	311.12
630.389	308.12
630.595	309.12
630.802	318.12
631.008	321.12
631.214	327.12
631.42	315.12
631.627	321.12
631.833	319.12
632.039	315.12
632.245	294.12
632.451	314.12
632.657	317.12
632.863	305.12
633.069	307.12
633.275	298.12
633.481	303.12
633.688	310.12
633.893	306.12
634.099	295.12
634.305	284.12
634.511	291.12
634.717	293.12
634.923	309.12
635.129	296.12
635.335	303.12
635.541	289.12
635.747	310.12
635.952	305.12
636.158	269.12
636.364	305.12
636.57	277.12
636.775	290.12
636.981	300.12
637.187	303.12
637.392	298.12
637.598	285.12
637.804	290.12
638.009	284.12
638.215	305.12
638.421	292.12
638.626	283.12
638.832	277.12
639.037	267.12
639.243	275.12
639.448	282.12
639.654	291.12
639.859	277.12
640.065	294.12
640.27	287.12
640.475	277.12
640.681	283.12
640.886	267.12
641.091	271.12
641.297	248.12
641.502	267.12
641.707	267.12
641.913	266.12
642.118	277.12
642.323	267.12
642.528	279.12
642.733	266.12
642.939	276.12
643.144	247.12
643.349	276.12
643.554	270.12
643.759	271.12
643.964	260.12
644.169	285.12
644.374	274.12
644.579	266.12
644.784	274.12
644.989	288.12
645.194	283.12
645.399	273.12
645.604	259.12
645.809	280.12
646.014	285.12
646.219	286.12
646.423	284.12
646.628	274.12
646.833	276.12
647.038	273.12
647.243	283.12
647.447	285.12
647.652	283.12
647.857	280.12
648.062	318.12
648.266	286.12
648.471	293.12
648.676	301.12
648.88	285.12
649.085	295.12
649.289	299.12
649.494	296.12
649.698	291.12
649.903	289.12
650.107	311.12
650.312	290.12
650.516	277.12
650.721	282.12
650.925	256.12
651.13	257.12
651.334	276.12
651.539	288.12
651.743	285.12
651.947	271.12
652.152	252.12
652.356	261.12
652.56	256.12
652.764	251.12
652.969	276.12
653.173	257.12
653.377	266.12
653.581	260.12
653.785	275.12
653.99	259.12
654.194	274.12
654.398	259.12
654.602	287.12
654.806	286.12
655.01	277.12
655.214	287.12
655.418	286.12
655.622	295.12
655.826	331.12
656.03	334.12
656.234	373.12
656.438	379.12
656.642	397.12
656.846	361.12
657.049	311.12
657.253	287.12
657.457	256.12
657.661	242.12
657.865	220.12
658.068	203.12
658.272	193.12
658.476	182.12
658.68	173.12
658.883	160.12
659.087	161.12
659.291	144.12
659.494	125.12
659.698	123.12
659.901	137.12
660.105	144.12
660.309	127.12
660.512	113.12
660.716	110.12
660.919	126.12
661.123	108.12
661.326	97.12
661.53	99.12
661.733	94.12
661.936	101.12
662.14	107.12
662.343	100.12
662.546	78.12
662.75	94.12
662.953	74.12
663.156	86.12
663.36	92.12
663.563	90.12
663.766	84.12
663.969	90.12
664.173	92.12
664.376	69.12
664.579	59.12
664.782	78.12
664.985	85.12
665.188	89.12
665.391	84.12
665.594	81.12
665.797	92.12
666	75.12
666.203	76.12
666.406	96.12
666.609	78.12
666.812	77.12
667.015	90.12
667.218	95.12
667.421	99.12
667.624	81.12
667.827	99.12
668.03	74.12
668.232	72.12
668.435	81.12
668.638	92.12
668.841	97.12
669.043	81.12
669.246	82.12
669.449	108.12
669.651	93.12
669.854	78.12
670.057	94.12
670.259	73.12
670.462	70.12
670.665	77.12
670.867	95.12
671.07	78.12
671.272	87.12
671.475	82.12
671.677	76.12
671.88	77.12
672.082	77.12
672.284	92.12
672.487	75.12
672.689	85.12
672.892	75.12
