Data from NiCl2@0.125M.TitratingCurve.Agarose3%dH2O.NegLispCup.LampEnergy10.LIBS07252019_HRD10591_18-28-08-574.txt Node
Date: Thu Jul 25 18:28:08 EDT 2019
User: cochatt
Spectrometer: HR+D1059
Trigger mode: 1
Integration Time (sec): 1.000000E-1
Scans to average: 1
Electric dark correction enabled: true
Nonlinearity correction enabled: false
Boxcar width: 0
XAxis mode: Wavelengths
Number of Pixels in Spectrum: 2048
>>>>>Begin Spectral Data<<<<<
223.165	-13.94
223.4	-13.94
223.635	-13.94
223.869	-22.94
224.104	-19.94
224.338	-16.94
224.573	-8.94
224.808	4.06
225.042	-17.94
225.277	-18.94
225.511	-9.94
225.746	9.06
225.98	10.06
226.215	-5.94
226.449	13.06
226.683	29.06
226.918	33.06
227.152	37.06
227.387	43.06
227.621	35.06
227.856	46.06
228.09	44.06
228.324	50.06
228.559	57.06
228.793	65.06
229.027	111.06
229.262	123.06
229.496	121.06
229.73	126.06
229.964	143.06
230.199	139.06
230.433	150.06
230.667	155.06
230.901	136.06
231.136	132.06
231.37	153.06
231.604	157.06
231.838	145.06
232.072	169.06
232.306	157.06
232.541	169.06
232.775	158.06
233.009	182.06
233.243	182.06
233.477	148.06
233.711	173.06
233.945	178.06
234.179	177.06
234.413	165.06
234.647	168.06
234.881	182.06
235.115	170.06
235.349	177.06
235.583	171.06
235.817	177.06
236.051	179.06
236.285	181.06
236.519	193.06
236.753	179.06
236.987	186.06
237.221	174.06
237.455	188.06
237.689	192.06
237.922	187.06
238.156	190.06
238.39	188.06
238.624	210.06
238.858	205.06
239.091	198.06
239.325	198.06
239.559	201.06
239.793	206.06
240.027	233.06
240.26	232.06
240.494	189.06
240.728	216.06
240.961	246.06
241.195	221.06
241.429	224.06
241.662	229.06
241.896	208.06
242.13	227.06
242.363	235.06
242.597	238.06
242.83	245.06
243.064	247.06
243.298	237.06
243.531	243.06
243.765	231.06
243.998	231.06
244.232	249.06
244.465	259.06
244.699	263.06
244.932	263.06
245.166	249.06
245.399	257.06
245.633	261.06
245.866	252.06
246.099	260.06
246.333	258.06
246.566	258.06
246.8	263.06
247.033	254.06
247.266	274.06
247.5	286.06
247.733	282.06
247.966	293.06
248.2	254.06
248.433	297.06
248.666	286.06
248.899	274.06
249.133	281.06
249.366	270.06
249.599	291.06
249.832	287.06
250.066	321.06
250.299	304.06
250.532	307.06
250.765	307.06
250.998	293.06
251.231	311.06
251.465	298.06
251.698	317.06
251.931	317.06
252.164	318.06
252.397	321.06
252.63	331.06
252.863	328.06
253.096	324.06
253.329	335.06
253.562	327.06
253.795	345.06
254.028	362.06
254.261	349.06
254.494	341.06
254.727	342.06
254.96	339.06
255.193	340.06
255.426	352.06
255.659	355.06
255.892	340.06
256.124	351.06
256.357	342.06
256.59	359.06
256.823	357.06
257.056	340.06
257.289	365.06
257.521	350.06
257.754	361.06
257.987	342.06
258.22	349.06
258.452	381.06
258.685	376.06
258.918	366.06
259.151	375.06
259.383	364.06
259.616	363.06
259.849	379.06
260.081	388.06
260.314	375.06
260.547	372.06
260.779	401.06
261.012	365.06
261.244	396.06
261.477	377.06
261.71	390.06
261.942	391.06
262.175	398.06
262.407	419.06
262.64	391.06
262.872	402.06
263.105	410.06
263.337	411.06
263.57	420.06
263.802	412.06
264.035	418.06
264.267	399.06
264.499	394.06
264.732	426.06
264.964	421.06
265.197	424.06
265.429	437.06
265.661	430.06
265.894	420.06
266.126	429.06
266.358	423.06
266.591	420.06
266.823	455.06
267.055	423.06
267.287	449.06
267.52	437.06
267.752	443.06
267.984	439.06
268.216	451.06
268.448	454.06
268.681	460.06
268.913	426.06
269.145	433.06
269.377	457.06
269.609	449.06
269.841	457.06
270.073	454.06
270.306	463.06
270.538	452.06
270.77	463.06
271.002	468.06
271.234	463.06
271.466	470.06
271.698	467.06
271.93	466.06
272.162	487.06
272.394	478.06
272.626	467.06
272.858	464.06
273.09	464.06
273.322	494.06
273.553	462.06
273.785	466.06
274.017	499.06
274.249	489.06
274.481	499.06
274.713	490.06
274.945	491.06
275.176	511.06
275.408	496.06
275.64	498.06
275.872	510.06
276.104	526.06
276.335	507.06
276.567	499.06
276.799	506.06
277.031	528.06
277.262	540.06
277.494	511.06
277.726	530.06
277.957	508.06
278.189	543.06
278.421	517.06
278.652	525.06
278.884	529.06
279.115	551.06
279.347	526.06
279.579	528.06
279.81	545.06
280.042	521.06
280.273	526.06
280.505	565.06
280.736	545.06
280.968	577.06
281.199	563.06
281.431	573.06
281.662	585.06
281.894	551.06
282.125	552.06
282.356	565.06
282.588	540.06
282.819	549.06
283.051	569.06
283.282	559.06
283.513	572.06
283.745	559.06
283.976	587.06
284.207	585.06
284.439	558.06
284.67	570.06
284.901	593.06
285.132	600.06
285.364	595.06
285.595	588.06
285.826	580.06
286.057	582.06
286.288	602.06
286.52	609.06
286.751	606.06
286.982	597.06
287.213	613.06
287.444	633.06
287.675	618.06
287.906	619.06
288.138	615.06
288.369	627.06
288.6	618.06
288.831	632.06
289.062	625.06
289.293	638.06
289.524	632.06
289.755	635.06
289.986	637.06
290.217	630.06
290.448	642.06
290.679	641.06
290.91	630.06
291.141	637.06
291.371	631.06
291.602	627.06
291.833	643.06
292.064	644.06
292.295	628.06
292.526	634.06
292.757	630.06
292.987	615.06
293.218	632.06
293.449	655.06
293.68	649.06
293.91	617.06
294.141	645.06
294.372	643.06
294.603	639.06
294.833	667.06
295.064	660.06
295.295	653.06
295.525	653.06
295.756	681.06
295.987	656.06
296.217	651.06
296.448	669.06
296.679	674.06
296.909	658.06
297.14	669.06
297.37	694.06
297.601	707.06
297.831	692.06
298.062	692.06
298.292	692.06
298.523	711.06
298.753	695.06
298.984	717.06
299.214	723.06
299.445	691.06
299.675	678.06
299.905	695.06
300.136	691.06
300.366	687.06
300.597	714.06
300.827	718.06
301.057	714.06
301.288	723.06
301.518	734.06
301.748	756.06
301.979	742.06
302.209	740.06
302.439	742.06
302.669	714.06
302.9	741.06
303.13	714.06
303.36	736.06
303.59	725.06
303.82	734.06
304.051	735.06
304.281	734.06
304.511	706.06
304.741	737.06
304.971	714.06
305.201	717.06
305.431	725.06
305.661	742.06
305.891	712.06
306.121	716.06
306.352	701.06
306.582	713.06
306.812	702.06
307.042	719.06
307.272	706.06
307.502	711.06
307.731	696.06
307.961	694.06
308.191	720.06
308.421	715.06
308.651	704.06
308.881	692.06
309.111	705.06
309.341	706.06
309.571	705.06
309.8	711.06
310.03	709.06
310.26	724.06
310.49	700.06
310.72	692.06
310.949	723.06
311.179	720.06
311.409	725.06
311.639	731.06
311.868	735.06
312.098	743.06
312.328	739.06
312.557	742.06
312.787	735.06
313.017	753.06
313.246	731.06
313.476	773.06
313.706	771.06
313.935	753.06
314.165	754.06
314.394	758.06
314.624	757.06
314.853	738.06
315.083	761.06
315.312	750.06
315.542	766.06
315.771	744.06
316.001	749.06
316.23	755.06
316.46	734.06
316.689	739.06
316.919	745.06
317.148	746.06
317.377	749.06
317.607	740.06
317.836	729.06
318.065	733.06
318.295	749.06
318.524	749.06
318.753	750.06
318.983	741.06
319.212	731.06
319.441	760.06
319.67	724.06
319.9	739.06
320.129	743.06
320.358	740.06
320.587	753.06
320.816	734.06
321.046	769.06
321.275	729.06
321.504	747.06
321.733	780.06
321.962	765.06
322.191	754.06
322.42	770.06
322.649	759.06
322.878	742.06
323.108	767.06
323.337	790.06
323.566	762.06
323.795	775.06
324.024	738.06
324.253	756.06
324.482	773.06
324.71	762.06
324.939	793.06
325.168	789.06
325.397	762.06
325.626	784.06
325.855	814.06
326.084	832.06
326.313	824.06
326.542	832.06
326.77	857.06
326.999	839.06
327.228	825.06
327.457	797.06
327.686	799.06
327.914	799.06
328.143	825.06
328.372	803.06
328.6	845.06
328.829	821.06
329.058	810.06
329.287	801.06
329.515	817.06
329.744	829.06
329.972	834.06
330.201	838.06
330.43	838.06
330.658	865.06
330.887	857.06
331.115	842.06
331.344	862.06
331.572	854.06
331.801	887.06
332.03	870.06
332.258	903.06
332.486	954.06
332.715	969.06
332.943	1015.06
333.172	1025.06
333.4	1056.06
333.629	1063.06
333.857	1125.06
334.085	1086.06
334.314	1096.06
334.542	1086.06
334.771	1032.06
334.999	1014.06
335.227	1009.06
335.455	1017.06
335.684	998.06
335.912	979.06
336.14	975.06
336.369	982.06
336.597	993.06
336.825	960.06
337.053	981.06
337.281	958.06
337.51	925.06
337.738	907.06
337.966	920.06
338.194	902.06
338.422	907.06
338.65	896.06
338.878	903.06
339.106	877.06
339.334	876.06
339.562	866.06
339.79	865.06
340.018	845.06
340.246	836.06
340.474	828.06
340.702	854.06
340.93	838.06
341.158	850.06
341.386	860.06
341.614	852.06
341.842	853.06
342.07	810.06
342.298	859.06
342.526	830.06
342.754	834.06
342.981	831.06
343.209	857.06
343.437	902.06
343.665	955.06
343.893	1017.06
344.12	1040.06
344.348	1061.06
344.576	958.06
344.804	908.06
345.031	909.06
345.259	878.06
345.487	867.06
345.714	831.06
345.942	833.06
346.17	866.06
346.397	847.06
346.625	805.06
346.853	813.06
347.08	812.06
347.308	815.06
347.535	844.06
347.763	833.06
347.99	833.06
348.218	841.06
348.445	802.06
348.673	849.06
348.9	830.06
349.128	844.06
349.355	794.06
349.583	817.06
349.81	817.06
350.037	815.06
350.265	789.06
350.492	819.06
350.72	809.06
350.947	773.06
351.174	776.06
351.402	780.06
351.629	790.06
351.856	797.06
352.083	807.06
352.311	791.06
352.538	786.06
352.765	791.06
352.992	804.06
353.22	766.06
353.447	812.06
353.674	780.06
353.901	758.06
354.128	787.06
354.355	771.06
354.583	776.06
354.81	797.06
355.037	795.06
355.264	834.06
355.491	815.06
355.718	801.06
355.945	815.06
356.172	813.06
356.399	790.06
356.626	790.06
356.853	796.06
357.08	769.06
357.307	783.06
357.534	799.06
357.761	783.06
357.988	806.06
358.215	787.06
358.441	775.06
358.668	795.06
358.895	797.06
359.122	788.06
359.349	788.06
359.576	802.06
359.802	796.06
360.029	801.06
360.256	779.06
360.483	809.06
360.709	802.06
360.936	794.06
361.163	784.06
361.39	821.06
361.616	798.06
361.843	784.06
362.07	805.06
362.296	786.06
362.523	770.06
362.749	785.06
362.976	807.06
363.203	766.06
363.429	784.06
363.656	767.06
363.882	792.06
364.109	789.06
364.335	769.06
364.562	781.06
364.788	810.06
365.015	770.06
365.241	782.06
365.468	803.06
365.694	789.06
365.92	803.06
366.147	765.06
366.373	794.06
366.599	789.06
366.826	786.06
367.052	791.06
367.278	795.06
367.505	801.06
367.731	821.06
367.957	783.06
368.184	802.06
368.41	801.06
368.636	787.06
368.862	817.06
369.089	830.06
369.315	819.06
369.541	819.06
369.767	841.06
369.993	794.06
370.219	818.06
370.445	850.06
370.672	846.06
370.898	836.06
371.124	829.06
371.35	839.06
371.576	839.06
371.802	855.06
372.028	878.06
372.254	837.06
372.48	833.06
372.706	880.06
372.932	899.06
373.158	910.06
373.384	898.06
373.61	870.06
373.835	868.06
374.061	857.06
374.287	874.06
374.513	870.06
374.739	909.06
374.965	912.06
375.191	929.06
375.416	965.06
375.642	907.06
375.868	897.06
376.094	876.06
376.319	877.06
376.545	861.06
376.771	894.06
376.997	868.06
377.222	858.06
377.448	872.06
377.674	869.06
377.899	852.06
378.125	855.06
378.35	847.06
378.576	840.06
378.802	865.06
379.027	859.06
379.253	842.06
379.478	853.06
379.704	828.06
379.929	853.06
380.155	833.06
380.38	857.06
380.606	854.06
380.831	862.06
381.057	853.06
381.282	876.06
381.507	870.06
381.733	867.06
381.958	890.06
382.184	863.06
382.409	883.06
382.634	890.06
382.86	908.06
383.085	916.06
383.31	928.06
383.535	963.06
383.761	939.06
383.986	979.06
384.211	991.06
384.436	989.06
384.662	1003.06
384.887	1040.06
385.112	1045.06
385.337	1042.06
385.562	1031.06
385.787	1040.06
386.013	1047.06
386.238	1038.06
386.463	1037.06
386.688	1060.06
386.913	1034.06
387.138	1013.06
387.363	1033.06
387.588	994.06
387.813	1033.06
388.038	1016.06
388.263	1014.06
388.488	1018.06
388.713	1047.06
388.938	1045.06
389.163	1009.06
389.387	1028.06
389.612	1020.06
389.837	999.06
390.062	1011.06
390.287	1014.06
390.512	1011.06
390.736	1031.06
390.961	1056.06
391.186	1046.06
391.411	1105.06
391.636	1111.06
391.86	1162.06
392.085	1157.06
392.31	1169.06
392.534	1144.06
392.759	1110.06
392.984	1112.06
393.208	1085.06
393.433	1118.06
393.658	1083.06
393.882	1090.06
394.107	1115.06
394.331	1090.06
394.556	1109.06
394.78	1114.06
395.005	1126.06
395.229	1128.06
395.454	1146.06
395.678	1171.06
395.903	1157.06
396.127	1160.06
396.352	1121.06
396.576	1113.06
396.801	1091.06
397.025	1086.06
397.249	1107.06
397.474	1147.06
397.698	1148.06
397.922	1133.06
398.147	1154.06
398.371	1143.06
398.595	1254.06
398.82	1261.06
399.044	1362.06
399.268	1478.06
399.492	1729.06
399.717	1972.06
399.941	2001.06
400.165	1766.06
400.389	1593.06
400.613	1468.06
400.837	1341.06
401.062	1291.06
401.286	1311.06
401.51	1293.06
401.734	1271.06
401.958	1327.06
402.182	1335.06
402.406	1317.06
402.63	1376.06
402.854	1389.06
403.078	1401.06
403.302	1434.06
403.526	1452.06
403.75	1498.06
403.974	1510.06
404.198	1545.06
404.422	1523.06
404.645	1480.06
404.869	1457.06
405.093	1516.06
405.317	1438.06
405.541	1458.06
405.765	1432.06
405.988	1407.06
406.212	1417.06
406.436	1412.06
406.66	1469.06
406.883	1436.06
407.107	1529.06
407.331	1608.06
407.555	1701.06
407.778	1640.06
408.002	1626.06
408.226	1588.06
408.449	1564.06
408.673	1519.06
408.896	1471.06
409.12	1453.06
409.344	1489.06
409.567	1491.06
409.791	1487.06
410.014	1459.06
410.238	1419.06
410.461	1450.06
410.685	1434.06
410.908	1403.06
411.132	1415.06
411.355	1345.06
411.578	1349.06
411.802	1341.06
412.025	1342.06
412.249	1382.06
412.472	1359.06
412.695	1315.06
412.919	1276.06
413.142	1283.06
413.365	1308.06
413.589	1305.06
413.812	1272.06
414.035	1273.06
414.258	1283.06
414.482	1306.06
414.705	1349.06
414.928	1287.06
415.151	1301.06
415.374	1309.06
415.597	1305.06
415.821	1298.06
416.044	1254.06
416.267	1243.06
416.49	1240.06
416.713	1276.06
416.936	1280.06
417.159	1294.06
417.382	1262.06
417.605	1270.06
417.828	1249.06
418.051	1308.06
418.274	1244.06
418.497	1257.06
418.72	1308.06
418.943	1321.06
419.166	1384.06
419.389	1473.06
419.611	1449.06
419.834	1384.06
420.057	1346.06
420.28	1303.06
420.503	1285.06
420.726	1235.06
420.948	1236.06
421.171	1299.06
421.394	1269.06
421.617	1287.06
421.839	1271.06
422.062	1295.06
422.285	1255.06
422.507	1310.06
422.73	1335.06
422.953	1305.06
423.175	1351.06
423.398	1393.06
423.621	1367.06
423.843	1339.06
424.066	1357.06
424.288	1377.06
424.511	1337.06
424.733	1324.06
424.956	1331.06
425.178	1299.06
425.401	1294.06
425.623	1306.06
425.846	1268.06
426.068	1258.06
426.291	1224.06
426.513	1217.06
426.735	1223.06
426.958	1174.06
427.18	1162.06
427.402	1187.06
427.625	1156.06
427.847	1152.06
428.069	1151.06
428.292	1168.06
428.514	1118.06
428.736	1127.06
428.958	1158.06
429.181	1116.06
429.403	1099.06
429.625	1128.06
429.847	1108.06
430.069	1109.06
430.292	1099.06
430.514	1116.06
430.736	1133.06
430.958	1095.06
431.18	1145.06
431.402	1097.06
431.624	1119.06
431.846	1115.06
432.068	1137.06
432.29	1126.06
432.512	1127.06
432.734	1148.06
432.956	1144.06
433.178	1149.06
433.4	1137.06
433.622	1129.06
433.844	1166.06
434.066	1150.06
434.287	1186.06
434.509	1233.06
434.731	1254.06
434.953	1290.06
435.175	1318.06
435.397	1287.06
435.618	1243.06
435.84	1195.06
436.062	1177.06
436.284	1117.06
436.505	1125.06
436.727	1190.06
436.949	1153.06
437.17	1151.06
437.392	1125.06
437.614	1137.06
437.835	1086.06
438.057	1105.06
438.278	1087.06
438.5	1127.06
438.721	1135.06
438.943	1098.06
439.165	1079.06
439.386	1104.06
439.608	1103.06
439.829	1125.06
440.05	1148.06
440.272	1142.06
440.493	1144.06
440.715	1170.06
440.936	1211.06
441.158	1203.06
441.379	1237.06
441.6	1301.06
441.822	1328.06
442.043	1297.06
442.264	1257.06
442.486	1252.06
442.707	1239.06
442.928	1246.06
443.149	1269.06
443.371	1273.06
443.592	1261.06
443.813	1262.06
444.034	1289.06
444.255	1361.06
444.476	1409.06
444.698	1503.06
444.919	1541.06
445.14	1635.06
445.361	1465.06
445.582	1319.06
445.803	1260.06
446.024	1253.06
446.245	1201.06
446.466	1193.06
446.687	1187.06
446.908	1169.06
447.129	1129.06
447.35	1107.06
447.571	1122.06
447.792	1107.06
448.013	1078.06
448.234	1071.06
448.455	1061.06
448.675	1059.06
448.896	1070.06
449.117	1032.06
449.338	1047.06
449.559	1070.06
449.779	1036.06
450	1044.06
450.221	1029.06
450.442	1054.06
450.662	1061.06
450.883	1074.06
451.104	1100.06
451.324	1121.06
451.545	1071.06
451.766	1055.06
451.986	1060.06
452.207	1060.06
452.428	1054.06
452.648	1047.06
452.869	1039.06
453.089	1010.06
453.31	1039.06
453.53	1038.06
453.751	1043.06
453.971	1001.06
454.192	998.06
454.412	983.06
454.633	999.06
454.853	1030.06
455.073	1014.06
455.294	1010.06
455.514	1010.06
455.734	979.06
455.955	950.06
456.175	988.06
456.395	966.06
456.616	975.06
456.836	991.06
457.056	988.06
457.276	970.06
457.497	1010.06
457.717	982.06
457.937	1004.06
458.157	989.06
458.377	1000.06
458.598	1019.06
458.818	1078.06
459.038	1091.06
459.258	1125.06
459.478	1154.06
459.698	1171.06
459.918	1203.06
460.138	1283.06
460.358	1329.06
460.578	1337.06
460.798	1364.06
461.018	1381.06
461.238	1346.06
461.458	1350.06
461.678	1326.06
461.898	1375.06
462.118	1395.06
462.338	1398.06
462.558	1466.06
462.777	1556.06
462.997	1652.06
463.217	1840.06
463.437	1853.06
463.657	1728.06
463.876	1611.06
464.096	1595.06
464.316	1591.06
464.536	1618.06
464.755	1543.06
464.975	1487.06
465.195	1429.06
465.414	1325.06
465.634	1209.06
465.854	1185.06
466.073	1184.06
466.293	1123.06
466.512	1116.06
466.732	1124.06
466.951	1121.06
467.171	1075.06
467.391	1094.06
467.61	1097.06
467.829	1112.06
468.049	1077.06
468.268	1066.06
468.488	1062.06
468.707	1052.06
468.927	1062.06
469.146	1036.06
469.365	1049.06
469.585	1070.06
469.804	1113.06
470.023	1136.06
470.243	1137.06
470.462	1117.06
470.681	1139.06
470.901	1134.06
471.12	1126.06
471.339	1088.06
471.558	1110.06
471.777	1032.06
471.997	1041.06
472.216	1060.06
472.435	1071.06
472.654	1016.06
472.873	1040.06
473.092	1028.06
473.311	1037.06
473.53	1023.06
473.749	1009.06
473.968	1035.06
474.187	1023.06
474.406	1010.06
474.625	1012.06
474.844	1033.06
475.063	1022.06
475.282	1022.06
475.501	1026.06
475.72	1041.06
475.939	1046.06
476.158	1073.06
476.377	1061.06
476.596	1070.06
476.814	1081.06
477.033	1109.06
477.252	1139.06
477.471	1151.06
477.69	1146.06
477.908	1218.06
478.127	1260.06
478.346	1272.06
478.564	1258.06
478.783	1265.06
479.002	1284.06
479.22	1277.06
479.439	1300.06
479.658	1270.06
479.876	1267.06
480.095	1271.06
480.313	1375.06
480.532	1422.06
480.751	1392.06
480.969	1332.06
481.188	1296.06
481.406	1238.06
481.624	1214.06
481.843	1174.06
482.061	1179.06
482.28	1206.06
482.498	1194.06
482.717	1163.06
482.935	1181.06
483.153	1169.06
483.372	1186.06
483.59	1173.06
483.808	1175.06
484.027	1199.06
484.245	1207.06
484.463	1198.06
484.681	1236.06
484.9	1217.06
485.118	1244.06
485.336	1194.06
485.554	1215.06
485.772	1236.06
485.99	1285.06
486.209	1260.06
486.427	1249.06
486.645	1259.06
486.863	1227.06
487.081	1245.06
487.299	1244.06
487.517	1234.06
487.735	1250.06
487.953	1212.06
488.171	1228.06
488.389	1227.06
488.607	1258.06
488.825	1219.06
489.043	1233.06
489.261	1251.06
489.479	1198.06
489.696	1244.06
489.914	1227.06
490.132	1221.06
490.35	1257.06
490.568	1236.06
490.786	1229.06
491.003	1225.06
491.221	1237.06
491.439	1278.06
491.657	1228.06
491.874	1249.06
492.092	1267.06
492.31	1242.06
492.527	1259.06
492.745	1302.06
492.963	1244.06
493.18	1275.06
493.398	1270.06
493.615	1268.06
493.833	1300.06
494.05	1299.06
494.268	1300.06
494.485	1308.06
494.703	1325.06
494.92	1329.06
495.138	1288.06
495.355	1324.06
495.573	1299.06
495.79	1333.06
496.008	1313.06
496.225	1303.06
496.442	1312.06
496.66	1345.06
496.877	1322.06
497.094	1342.06
497.312	1405.06
497.529	1430.06
497.746	1461.06
497.963	1515.06
498.181	1556.06
498.398	1627.06
498.615	1725.06
498.832	1834.06
499.049	1969.06
499.267	2153.06
499.484	2380.06
499.701	2614.06
499.918	2883.06
500.135	3302.06
500.352	3794.06
500.569	4043.06
500.786	4025.06
501.003	3688.06
501.22	3283.06
501.437	2901.06
501.654	2549.06
501.871	2312.06
502.088	2107.06
502.305	1961.06
502.522	1854.06
502.739	1779.06
502.956	1679.06
503.172	1624.06
503.389	1553.06
503.606	1557.06
503.823	1493.06
504.04	1464.06
504.256	1511.06
504.473	1552.06
504.69	1594.06
504.907	1555.06
505.123	1418.06
505.34	1383.06
505.557	1287.06
505.773	1259.06
505.99	1238.06
506.207	1215.06
506.423	1167.06
506.64	1178.06
506.856	1157.06
507.073	1168.06
507.289	1146.06
507.506	1157.06
507.722	1149.06
507.939	1141.06
508.155	1129.06
508.372	1109.06
508.588	1157.06
508.805	1119.06
509.021	1118.06
509.238	1086.06
509.454	1075.06
509.67	1033.06
509.887	1068.06
510.103	1091.06
510.319	1060.06
510.536	1085.06
510.752	1092.06
510.968	1039.06
511.184	1067.06
511.401	1056.06
511.617	1066.06
511.833	1070.06
512.049	1036.06
512.265	1053.06
512.481	1061.06
512.698	1022.06
512.914	1025.06
513.13	1084.06
513.346	1066.06
513.562	1035.06
513.778	1053.06
513.994	1082.06
514.21	1055.06
514.426	1018.06
514.642	1077.06
514.858	1075.06
515.074	1090.06
515.29	1090.06
515.506	1083.06
515.721	1111.06
515.937	1121.06
516.153	1147.06
516.369	1153.06
516.585	1206.06
516.801	1210.06
517.016	1288.06
517.232	1330.06
517.448	1422.06
517.664	1497.06
517.879	1513.06
518.095	1471.06
518.311	1461.06
518.527	1385.06
518.742	1320.06
518.958	1276.06
519.173	1250.06
519.389	1195.06
519.605	1153.06
519.82	1107.06
520.036	1119.06
520.251	1071.06
520.467	1102.06
520.682	1055.06
520.898	1046.06
521.113	1037.06
521.329	1050.06
521.544	1004.06
521.76	1039.06
521.975	1035.06
522.19	1001.06
522.406	974.06
522.621	968.06
522.836	1010.06
523.052	978.06
523.267	993.06
523.482	981.06
523.698	970.06
523.913	975.06
524.128	979.06
524.343	991.06
524.559	969.06
524.774	958.06
524.989	981.06
525.204	977.06
525.419	963.06
525.634	943.06
525.849	975.06
526.064	946.06
526.28	970.06
526.495	975.06
526.71	948.06
526.925	947.06
527.14	959.06
527.355	964.06
527.57	960.06
527.785	960.06
527.999	945.06
528.214	955.06
528.429	973.06
528.644	949.06
528.859	948.06
529.074	924.06
529.289	964.06
529.503	957.06
529.718	964.06
529.933	926.06
530.148	928.06
530.363	940.06
530.577	930.06
530.792	949.06
531.007	957.06
531.221	978.06
531.436	968.06
531.651	962.06
531.865	962.06
532.08	973.06
532.295	969.06
532.509	941.06
532.724	935.06
532.938	936.06
533.153	972.06
533.367	948.06
533.582	952.06
533.796	929.06
534.011	948.06
534.225	952.06
534.44	957.06
534.654	947.06
534.868	919.06
535.083	923.06
535.297	927.06
535.511	906.06
535.726	912.06
535.94	925.06
536.154	901.06
536.369	904.06
536.583	883.06
536.797	907.06
537.011	877.06
537.225	893.06
537.44	891.06
537.654	881.06
537.868	871.06
538.082	889.06
538.296	903.06
538.51	882.06
538.724	881.06
538.938	864.06
539.153	868.06
539.367	860.06
539.581	861.06
539.795	863.06
540.009	867.06
540.222	865.06
540.436	867.06
540.65	820.06
540.864	845.06
541.078	855.06
541.292	845.06
541.506	869.06
541.72	852.06
541.934	862.06
542.147	860.06
542.361	818.06
542.575	818.06
542.789	850.06
543.002	820.06
543.216	843.06
543.43	819.06
543.644	842.06
543.857	845.06
544.071	859.06
544.285	844.06
544.498	858.06
544.712	846.06
544.925	861.06
545.139	881.06
545.352	867.06
545.566	855.06
545.779	887.06
545.993	862.06
546.206	861.06
546.42	883.06
546.633	868.06
546.847	855.06
547.06	869.06
547.274	842.06
547.487	874.06
547.7	877.06
547.914	866.06
548.127	892.06
548.34	890.06
548.554	878.06
548.767	879.06
548.98	860.06
549.193	878.06
549.407	875.06
549.62	909.06
549.833	889.06
550.046	885.06
550.259	869.06
550.473	858.06
550.686	852.06
550.899	841.06
551.112	847.06
551.325	826.06
551.538	847.06
551.751	846.06
551.964	847.06
552.177	851.06
552.39	863.06
552.603	890.06
552.816	923.06
553.029	925.06
553.242	953.06
553.455	970.06
553.667	979.06
553.88	953.06
554.093	937.06
554.306	887.06
554.519	869.06
554.732	887.06
554.944	853.06
555.157	845.06
555.37	852.06
555.583	821.06
555.795	804.06
556.008	779.06
556.221	794.06
556.433	793.06
556.646	778.06
556.859	750.06
557.071	727.06
557.284	743.06
557.496	719.06
557.709	740.06
557.921	756.06
558.134	732.06
558.346	749.06
558.559	740.06
558.771	733.06
558.984	750.06
559.196	718.06
559.409	712.06
559.621	739.06
559.833	704.06
560.046	733.06
560.258	705.06
560.47	721.06
560.683	694.06
560.895	726.06
561.107	715.06
561.32	710.06
561.532	707.06
561.744	707.06
561.956	711.06
562.168	710.06
562.381	715.06
562.593	716.06
562.805	730.06
563.017	700.06
563.229	729.06
563.441	721.06
563.653	730.06
563.865	705.06
564.077	717.06
564.289	735.06
564.501	735.06
564.713	762.06
564.925	762.06
565.137	789.06
565.349	782.06
565.561	829.06
565.773	856.06
565.985	877.06
566.197	914.06
566.408	993.06
566.62	1074.06
566.832	1153.06
567.044	1191.06
567.255	1197.06
567.467	1198.06
567.679	1272.06
567.891	1379.06
568.102	1429.06
568.314	1365.06
568.526	1222.06
568.737	1095.06
568.949	1003.06
569.161	927.06
569.372	857.06
569.584	827.06
569.795	758.06
570.007	739.06
570.218	727.06
570.43	717.06
570.641	755.06
570.853	725.06
571.064	748.06
571.276	761.06
571.487	732.06
571.698	734.06
571.91	679.06
572.121	656.06
572.333	654.06
572.544	640.06
572.755	635.06
572.966	630.06
573.178	628.06
573.389	593.06
573.6	605.06
573.811	592.06
574.023	595.06
574.234	591.06
574.445	600.06
574.656	622.06
574.867	603.06
575.078	597.06
575.289	598.06
575.501	585.06
575.712	572.06
575.923	550.06
576.134	554.06
576.345	560.06
576.556	551.06
576.767	539.06
576.978	547.06
577.188	573.06
577.399	577.06
577.61	561.06
577.821	567.06
578.032	543.06
578.243	550.06
578.454	531.06
578.665	514.06
578.875	519.06
579.086	538.06
579.297	536.06
579.508	491.06
579.718	503.06
579.929	529.06
580.14	520.06
580.35	522.06
580.561	501.06
580.772	533.06
580.982	503.06
581.193	503.06
581.403	519.06
581.614	522.06
581.825	489.06
582.035	507.06
582.246	497.06
582.456	493.06
582.667	493.06
582.877	488.06
583.087	487.06
583.298	506.06
583.508	495.06
583.719	486.06
583.929	506.06
584.139	503.06
584.35	474.06
584.56	482.06
584.77	500.06
584.981	492.06
585.191	477.06
585.401	459.06
585.611	478.06
585.821	480.06
586.032	494.06
586.242	495.06
586.452	488.06
586.662	480.06
586.872	483.06
587.082	471.06
587.292	472.06
587.502	464.06
587.713	476.06
587.923	477.06
588.133	463.06
588.343	468.06
588.553	485.06
588.762	461.06
588.972	461.06
589.182	485.06
589.392	462.06
589.602	474.06
589.812	484.06
590.022	469.06
590.232	491.06
590.441	492.06
590.651	469.06
590.861	503.06
591.071	477.06
591.281	490.06
591.49	493.06
591.7	501.06
591.91	479.06
592.119	486.06
592.329	518.06
592.539	519.06
592.748	551.06
592.958	570.06
593.167	625.06
593.377	615.06
593.587	613.06
593.796	608.06
594.006	626.06
594.215	625.06
594.424	607.06
594.634	621.06
594.843	574.06
595.053	556.06
595.262	511.06
595.472	526.06
595.681	522.06
595.89	502.06
596.1	485.06
596.309	443.06
596.518	476.06
596.727	447.06
596.937	460.06
597.146	457.06
597.355	433.06
597.564	426.06
597.774	423.06
597.983	425.06
598.192	409.06
598.401	417.06
598.61	398.06
598.819	425.06
599.028	427.06
599.237	398.06
599.446	403.06
599.655	417.06
599.864	400.06
600.073	376.06
600.282	397.06
600.491	399.06
600.7	383.06
600.909	386.06
601.118	381.06
601.327	382.06
601.536	374.06
601.745	368.06
601.953	399.06
602.162	407.06
602.371	376.06
602.58	382.06
602.789	390.06
602.997	376.06
603.206	390.06
603.415	395.06
603.623	408.06
603.832	369.06
604.041	370.06
604.249	378.06
604.458	366.06
604.666	385.06
604.875	362.06
605.084	357.06
605.292	369.06
605.501	363.06
605.709	381.06
605.918	369.06
606.126	366.06
606.334	364.06
606.543	378.06
606.751	366.06
606.96	385.06
607.168	369.06
607.376	351.06
607.585	354.06
607.793	361.06
608.001	360.06
608.21	338.06
608.418	347.06
608.626	345.06
608.834	364.06
609.043	379.06
609.251	353.06
609.459	359.06
609.667	365.06
609.875	357.06
610.083	351.06
610.291	347.06
610.499	347.06
610.707	347.06
610.916	345.06
611.124	355.06
611.332	360.06
611.54	353.06
611.748	347.06
611.955	364.06
612.163	338.06
612.371	349.06
612.579	346.06
612.787	341.06
612.995	355.06
613.203	360.06
613.411	340.06
613.618	344.06
613.826	342.06
614.034	343.06
614.242	355.06
614.449	353.06
614.657	338.06
614.865	326.06
615.072	339.06
615.28	327.06
615.488	333.06
615.695	336.06
615.903	337.06
616.111	346.06
616.318	366.06
616.526	348.06
616.733	333.06
616.941	348.06
617.148	344.06
617.356	348.06
617.563	347.06
617.771	333.06
617.978	338.06
618.185	325.06
618.393	341.06
618.6	342.06
618.807	324.06
619.015	341.06
619.222	342.06
619.429	326.06
619.637	347.06
619.844	334.06
620.051	328.06
620.258	325.06
620.466	328.06
620.673	313.06
620.88	330.06
621.087	308.06
621.294	335.06
621.501	312.06
621.708	313.06
621.915	323.06
622.122	327.06
622.329	305.06
622.536	313.06
622.743	303.06
622.95	319.06
623.157	309.06
623.364	313.06
623.571	307.06
623.778	286.06
623.985	311.06
624.192	313.06
624.399	281.06
624.606	316.06
624.812	300.06
625.019	280.06
625.226	301.06
625.433	297.06
625.639	277.06
625.846	297.06
626.053	286.06
626.259	292.06
626.466	307.06
626.673	297.06
626.879	286.06
627.086	272.06
627.293	278.06
627.499	281.06
627.706	298.06
627.912	286.06
628.119	265.06
628.325	295.06
628.532	286.06
628.738	296.06
628.945	285.06
629.151	287.06
629.357	287.06
629.564	275.06
629.77	265.06
629.976	287.06
630.183	264.06
630.389	269.06
630.595	250.06
630.802	269.06
631.008	270.06
631.214	256.06
631.42	250.06
631.627	277.06
631.833	265.06
632.039	256.06
632.245	262.06
632.451	263.06
632.657	245.06
632.863	247.06
633.069	245.06
633.275	272.06
633.481	265.06
633.688	253.06
633.893	241.06
634.099	264.06
634.305	236.06
634.511	248.06
634.717	245.06
634.923	238.06
635.129	235.06
635.335	262.06
635.541	247.06
635.747	253.06
635.952	251.06
636.158	249.06
636.364	251.06
636.57	234.06
636.775	231.06
636.981	225.06
637.187	246.06
637.392	269.06
637.598	228.06
637.804	251.06
638.009	218.06
638.215	242.06
638.421	225.06
638.626	234.06
638.832	246.06
639.037	247.06
639.243	238.06
639.448	241.06
639.654	256.06
639.859	229.06
640.065	222.06
640.27	232.06
640.475	214.06
640.681	243.06
640.886	226.06
641.091	235.06
641.297	215.06
641.502	227.06
641.707	211.06
641.913	238.06
642.118	221.06
642.323	210.06
642.528	229.06
642.733	218.06
642.939	224.06
643.144	228.06
643.349	210.06
643.554	233.06
643.759	216.06
643.964	215.06
644.169	208.06
644.374	223.06
644.579	204.06
644.784	222.06
644.989	218.06
645.194	222.06
645.399	210.06
645.604	218.06
645.809	214.06
646.014	219.06
646.219	224.06
646.423	210.06
646.628	215.06
646.833	217.06
647.038	218.06
647.243	234.06
647.447	229.06
647.652	227.06
647.857	229.06
648.062	236.06
648.266	226.06
648.471	241.06
648.676	245.06
648.88	237.06
649.085	236.06
649.289	217.06
649.494	230.06
649.698	203.06
649.903	212.06
650.107	213.06
650.312	223.06
650.516	202.06
650.721	199.06
650.925	201.06
651.13	181.06
651.334	195.06
651.539	202.06
651.743	198.06
651.947	197.06
652.152	200.06
652.356	185.06
652.56	193.06
652.764	183.06
652.969	197.06
653.173	186.06
653.377	164.06
653.581	185.06
653.785	179.06
653.99	180.06
654.194	166.06
654.398	175.06
654.602	170.06
654.806	174.06
655.01	162.06
655.214	152.06
655.418	166.06
655.622	170.06
655.826	149.06
656.03	144.06
656.234	166.06
656.438	163.06
656.642	165.06
656.846	157.06
657.049	163.06
657.253	151.06
657.457	161.06
657.661	139.06
657.865	125.06
658.068	122.06
658.272	116.06
658.476	127.06
658.68	121.06
658.883	120.06
659.087	97.06
659.291	123.06
659.494	107.06
659.698	115.06
659.901	96.06
660.105	99.06
660.309	104.06
660.512	99.06
660.716	89.06
660.919	91.06
661.123	94.06
661.326	98.06
661.53	82.06
661.733	100.06
661.936	76.06
662.14	80.06
662.343	97.06
662.546	79.06
662.75	101.06
662.953	81.06
663.156	73.06
663.36	77.06
663.563	93.06
663.766	84.06
663.969	96.06
664.173	81.06
664.376	74.06
664.579	87.06
664.782	90.06
664.985	82.06
665.188	82.06
665.391	83.06
665.594	76.06
665.797	86.06
666	66.06
666.203	94.06
666.406	89.06
666.609	72.06
666.812	88.06
667.015	86.06
667.218	85.06
667.421	81.06
667.624	74.06
667.827	97.06
668.03	88.06
668.232	87.06
668.435	79.06
668.638	79.06
668.841	79.06
669.043	81.06
669.246	83.06
669.449	86.06
669.651	95.06
669.854	76.06
670.057	74.06
670.259	86.06
670.462	95.06
670.665	76.06
670.867	84.06
671.07	63.06
671.272	70.06
671.475	77.06
671.677	85.06
671.88	82.06
672.082	83.06
672.284	73.06
672.487	89.06
672.689	76.06
672.892	80.06
