Data from NiCl2@0.0625M.TitratingCurve.Agarose3%dH2O.NegLispCup.LampEnergy10.LIBS07252019_HRD10591_18-33-04-576.txt Node
Date: Thu Jul 25 18:33:04 EDT 2019
User: cochatt
Spectrometer: HR+D1059
Trigger mode: 1
Integration Time (sec): 1.000000E-1
Scans to average: 1
Electric dark correction enabled: true
Nonlinearity correction enabled: false
Boxcar width: 0
XAxis mode: Wavelengths
Number of Pixels in Spectrum: 2048
>>>>>Begin Spectral Data<<<<<
223.165	-19.31
223.4	-19.31
223.635	-19.31
223.869	-14.31
224.104	-12.31
224.338	-19.31
224.573	-21.31
224.808	-18.31
225.042	-11.31
225.277	3.69
225.511	-4.31
225.746	12.69
225.98	18.69
226.215	1.69
226.449	20.69
226.683	12.69
226.918	27.69
227.152	22.69
227.387	40.69
227.621	34.69
227.856	46.69
228.09	48.69
228.324	49.69
228.559	66.69
228.793	91.69
229.027	121.69
229.262	135.69
229.496	122.69
229.73	127.69
229.964	130.69
230.199	137.69
230.433	140.69
230.667	137.69
230.901	152.69
231.136	146.69
231.37	143.69
231.604	157.69
231.838	157.69
232.072	149.69
232.306	164.69
232.541	161.69
232.775	172.69
233.009	167.69
233.243	171.69
233.477	169.69
233.711	179.69
233.945	166.69
234.179	188.69
234.413	181.69
234.647	173.69
234.881	157.69
235.115	169.69
235.349	171.69
235.583	167.69
235.817	194.69
236.051	173.69
236.285	177.69
236.519	163.69
236.753	173.69
236.987	178.69
237.221	201.69
237.455	185.69
237.689	189.69
237.922	195.69
238.156	188.69
238.39	198.69
238.624	183.69
238.858	191.69
239.091	199.69
239.325	208.69
239.559	203.69
239.793	207.69
240.027	199.69
240.26	213.69
240.494	208.69
240.728	198.69
240.961	194.69
241.195	197.69
241.429	215.69
241.662	211.69
241.896	236.69
242.13	221.69
242.363	230.69
242.597	209.69
242.83	254.69
243.064	232.69
243.298	228.69
243.531	235.69
243.765	222.69
243.998	264.69
244.232	252.69
244.465	253.69
244.699	241.69
244.932	243.69
245.166	252.69
245.399	247.69
245.633	278.69
245.866	257.69
246.099	273.69
246.333	267.69
246.566	267.69
246.8	268.69
247.033	277.69
247.266	269.69
247.5	248.69
247.733	289.69
247.966	275.69
248.2	289.69
248.433	289.69
248.666	285.69
248.899	286.69
249.133	286.69
249.366	289.69
249.599	281.69
249.832	282.69
250.066	289.69
250.299	295.69
250.532	305.69
250.765	304.69
250.998	307.69
251.231	319.69
251.465	303.69
251.698	301.69
251.931	275.69
252.164	319.69
252.397	322.69
252.63	315.69
252.863	308.69
253.096	296.69
253.329	334.69
253.562	330.69
253.795	323.69
254.028	321.69
254.261	349.69
254.494	341.69
254.727	334.69
254.96	325.69
255.193	323.69
255.426	335.69
255.659	330.69
255.892	349.69
256.124	352.69
256.357	350.69
256.59	346.69
256.823	345.69
257.056	330.69
257.289	343.69
257.521	393.69
257.754	341.69
257.987	353.69
258.22	389.69
258.452	369.69
258.685	362.69
258.918	375.69
259.151	346.69
259.383	367.69
259.616	363.69
259.849	362.69
260.081	385.69
260.314	397.69
260.547	380.69
260.779	393.69
261.012	374.69
261.244	382.69
261.477	385.69
261.71	381.69
261.942	391.69
262.175	401.69
262.407	363.69
262.64	395.69
262.872	397.69
263.105	398.69
263.337	395.69
263.57	411.69
263.802	407.69
264.035	402.69
264.267	397.69
264.499	398.69
264.732	391.69
264.964	417.69
265.197	426.69
265.429	429.69
265.661	423.69
265.894	399.69
266.126	415.69
266.358	415.69
266.591	409.69
266.823	429.69
267.055	432.69
267.287	440.69
267.52	446.69
267.752	426.69
267.984	421.69
268.216	454.69
268.448	442.69
268.681	433.69
268.913	438.69
269.145	449.69
269.377	442.69
269.609	426.69
269.841	441.69
270.073	445.69
270.306	452.69
270.538	462.69
270.77	440.69
271.002	457.69
271.234	458.69
271.466	468.69
271.698	475.69
271.93	456.69
272.162	476.69
272.394	477.69
272.626	485.69
272.858	465.69
273.09	478.69
273.322	474.69
273.553	484.69
273.785	505.69
274.017	472.69
274.249	507.69
274.481	480.69
274.713	501.69
274.945	495.69
275.176	479.69
275.408	500.69
275.64	490.69
275.872	475.69
276.104	520.69
276.335	504.69
276.567	507.69
276.799	514.69
277.031	499.69
277.262	501.69
277.494	515.69
277.726	507.69
277.957	517.69
278.189	517.69
278.421	502.69
278.652	531.69
278.884	534.69
279.115	520.69
279.347	530.69
279.579	557.69
279.81	570.69
280.042	538.69
280.273	517.69
280.505	544.69
280.736	530.69
280.968	544.69
281.199	557.69
281.431	564.69
281.662	545.69
281.894	549.69
282.125	543.69
282.356	573.69
282.588	557.69
282.819	568.69
283.051	553.69
283.282	581.69
283.513	589.69
283.745	587.69
283.976	552.69
284.207	574.69
284.439	579.69
284.67	597.69
284.901	583.69
285.132	583.69
285.364	576.69
285.595	595.69
285.826	569.69
286.057	611.69
286.288	602.69
286.52	605.69
286.751	610.69
286.982	628.69
287.213	614.69
287.444	608.69
287.675	622.69
287.906	608.69
288.138	620.69
288.369	608.69
288.6	635.69
288.831	613.69
289.062	613.69
289.293	609.69
289.524	609.69
289.755	636.69
289.986	620.69
290.217	634.69
290.448	640.69
290.679	630.69
290.91	629.69
291.141	633.69
291.371	649.69
291.602	630.69
291.833	619.69
292.064	638.69
292.295	636.69
292.526	639.69
292.757	638.69
292.987	637.69
293.218	621.69
293.449	651.69
293.68	637.69
293.91	633.69
294.141	623.69
294.372	632.69
294.603	657.69
294.833	627.69
295.064	648.69
295.295	632.69
295.525	643.69
295.756	652.69
295.987	660.69
296.217	653.69
296.448	650.69
296.679	678.69
296.909	667.69
297.14	675.69
297.37	690.69
297.601	681.69
297.831	660.69
298.062	677.69
298.292	674.69
298.523	703.69
298.753	718.69
298.984	677.69
299.214	675.69
299.445	699.69
299.675	685.69
299.905	681.69
300.136	685.69
300.366	685.69
300.597	713.69
300.827	708.69
301.057	723.69
301.288	733.69
301.518	708.69
301.748	721.69
301.979	710.69
302.209	727.69
302.439	734.69
302.669	723.69
302.9	717.69
303.13	711.69
303.36	730.69
303.59	718.69
303.82	750.69
304.051	737.69
304.281	701.69
304.511	754.69
304.741	727.69
304.971	722.69
305.201	723.69
305.431	711.69
305.661	727.69
305.891	714.69
306.121	724.69
306.352	720.69
306.582	702.69
306.812	695.69
307.042	721.69
307.272	729.69
307.502	695.69
307.731	730.69
307.961	722.69
308.191	724.69
308.421	703.69
308.651	716.69
308.881	711.69
309.111	707.69
309.341	699.69
309.571	709.69
309.8	717.69
310.03	735.69
310.26	695.69
310.49	701.69
310.72	732.69
310.949	710.69
311.179	721.69
311.409	716.69
311.639	738.69
311.868	703.69
312.098	729.69
312.328	718.69
312.557	738.69
312.787	750.69
313.017	758.69
313.246	771.69
313.476	758.69
313.706	763.69
313.935	780.69
314.165	791.69
314.394	793.69
314.624	767.69
314.853	745.69
315.083	730.69
315.312	754.69
315.542	762.69
315.771	783.69
316.001	739.69
316.23	760.69
316.46	765.69
316.689	739.69
316.919	761.69
317.148	753.69
317.377	775.69
317.607	730.69
317.836	754.69
318.065	739.69
318.295	754.69
318.524	738.69
318.753	748.69
318.983	769.69
319.212	733.69
319.441	731.69
319.67	767.69
319.9	781.69
320.129	746.69
320.358	735.69
320.587	767.69
320.816	756.69
321.046	748.69
321.275	749.69
321.504	771.69
321.733	748.69
321.962	786.69
322.191	779.69
322.42	778.69
322.649	763.69
322.878	749.69
323.108	766.69
323.337	769.69
323.566	764.69
323.795	783.69
324.024	782.69
324.253	793.69
324.482	792.69
324.71	800.69
324.939	789.69
325.168	803.69
325.397	788.69
325.626	822.69
325.855	819.69
326.084	833.69
326.313	838.69
326.542	837.69
326.77	831.69
326.999	806.69
327.228	817.69
327.457	836.69
327.686	822.69
327.914	835.69
328.143	836.69
328.372	828.69
328.6	838.69
328.829	814.69
329.058	819.69
329.287	849.69
329.515	837.69
329.744	849.69
329.972	838.69
330.201	848.69
330.43	867.69
330.658	859.69
330.887	860.69
331.115	855.69
331.344	863.69
331.572	834.69
331.801	895.69
332.03	918.69
332.258	929.69
332.486	963.69
332.715	991.69
332.943	1030.69
333.172	1057.69
333.4	1102.69
333.629	1114.69
333.857	1122.69
334.085	1095.69
334.314	1090.69
334.542	1073.69
334.771	1073.69
334.999	1049.69
335.227	1045.69
335.455	1021.69
335.684	1034.69
335.912	992.69
336.14	1005.69
336.369	999.69
336.597	990.69
336.825	974.69
337.053	985.69
337.281	946.69
337.51	934.69
337.738	947.69
337.966	931.69
338.194	925.69
338.422	920.69
338.65	899.69
338.878	908.69
339.106	891.69
339.334	901.69
339.562	926.69
339.79	897.69
340.018	863.69
340.246	839.69
340.474	868.69
340.702	877.69
340.93	869.69
341.158	860.69
341.386	859.69
341.614	867.69
341.842	867.69
342.07	882.69
342.298	862.69
342.526	844.69
342.754	889.69
342.981	873.69
343.209	891.69
343.437	913.69
343.665	971.69
343.893	1055.69
344.12	1065.69
344.348	1022.69
344.576	973.69
344.804	935.69
345.031	896.69
345.259	890.69
345.487	873.69
345.714	872.69
345.942	848.69
346.17	845.69
346.397	865.69
346.625	802.69
346.853	841.69
347.08	828.69
347.308	841.69
347.535	826.69
347.763	822.69
347.99	848.69
348.218	830.69
348.445	837.69
348.673	841.69
348.9	809.69
349.128	827.69
349.355	825.69
349.583	830.69
349.81	801.69
350.037	830.69
350.265	821.69
350.492	792.69
350.72	804.69
350.947	801.69
351.174	799.69
351.402	803.69
351.629	812.69
351.856	797.69
352.083	805.69
352.311	800.69
352.538	812.69
352.765	829.69
352.992	808.69
353.22	783.69
353.447	798.69
353.674	764.69
353.901	798.69
354.128	805.69
354.355	791.69
354.583	775.69
354.81	788.69
355.037	808.69
355.264	794.69
355.491	795.69
355.718	782.69
355.945	822.69
356.172	827.69
356.399	827.69
356.626	802.69
356.853	791.69
357.08	818.69
357.307	799.69
357.534	805.69
357.761	795.69
357.988	801.69
358.215	821.69
358.441	798.69
358.668	819.69
358.895	803.69
359.122	788.69
359.349	814.69
359.576	802.69
359.802	817.69
360.029	795.69
360.256	805.69
360.483	837.69
360.709	821.69
360.936	780.69
361.163	804.69
361.39	791.69
361.616	808.69
361.843	777.69
362.07	828.69
362.296	811.69
362.523	813.69
362.749	813.69
362.976	793.69
363.203	799.69
363.429	790.69
363.656	810.69
363.882	788.69
364.109	794.69
364.335	793.69
364.562	813.69
364.788	781.69
365.015	809.69
365.241	823.69
365.468	803.69
365.694	825.69
365.92	786.69
366.147	815.69
366.373	782.69
366.599	810.69
366.826	759.69
367.052	807.69
367.278	790.69
367.505	797.69
367.731	805.69
367.957	805.69
368.184	818.69
368.41	817.69
368.636	821.69
368.862	828.69
369.089	826.69
369.315	821.69
369.541	830.69
369.767	843.69
369.993	841.69
370.219	859.69
370.445	844.69
370.672	835.69
370.898	845.69
371.124	861.69
371.35	885.69
371.576	893.69
371.802	891.69
372.028	873.69
372.254	862.69
372.48	897.69
372.706	891.69
372.932	928.69
373.158	915.69
373.384	898.69
373.61	881.69
373.835	859.69
374.061	872.69
374.287	885.69
374.513	909.69
374.739	950.69
374.965	931.69
375.191	989.69
375.416	956.69
375.642	935.69
375.868	924.69
376.094	897.69
376.319	909.69
376.545	864.69
376.771	893.69
376.997	859.69
377.222	893.69
377.448	846.69
377.674	861.69
377.899	875.69
378.125	859.69
378.35	843.69
378.576	878.69
378.802	875.69
379.027	829.69
379.253	833.69
379.478	864.69
379.704	871.69
379.929	850.69
380.155	862.69
380.38	858.69
380.606	862.69
380.831	851.69
381.057	842.69
381.282	882.69
381.507	852.69
381.733	873.69
381.958	894.69
382.184	876.69
382.409	908.69
382.634	959.69
382.86	912.69
383.085	901.69
383.31	906.69
383.535	954.69
383.761	986.69
383.986	979.69
384.211	971.69
384.436	1018.69
384.662	1032.69
384.887	1012.69
385.112	1050.69
385.337	1068.69
385.562	1039.69
385.787	1044.69
386.013	1052.69
386.238	1052.69
386.463	1051.69
386.688	1083.69
386.913	1028.69
387.138	1000.69
387.363	1021.69
387.588	1029.69
387.813	1033.69
388.038	1029.69
388.263	1042.69
388.488	1057.69
388.713	1057.69
388.938	1007.69
389.163	1004.69
389.387	1013.69
389.612	1005.69
389.837	1005.69
390.062	1019.69
390.287	1029.69
390.512	1029.69
390.736	1056.69
390.961	1075.69
391.186	1078.69
391.411	1065.69
391.636	1111.69
391.86	1167.69
392.085	1214.69
392.31	1173.69
392.534	1143.69
392.759	1146.69
392.984	1105.69
393.208	1103.69
393.433	1099.69
393.658	1141.69
393.882	1119.69
394.107	1093.69
394.331	1118.69
394.556	1146.69
394.78	1137.69
395.005	1115.69
395.229	1134.69
395.454	1154.69
395.678	1166.69
395.903	1164.69
396.127	1179.69
396.352	1139.69
396.576	1118.69
396.801	1110.69
397.025	1124.69
397.249	1166.69
397.474	1164.69
397.698	1195.69
397.922	1190.69
398.147	1162.69
398.371	1201.69
398.595	1241.69
398.82	1303.69
399.044	1383.69
399.268	1542.69
399.492	1737.69
399.717	2041.69
399.941	1999.69
400.165	1741.69
400.389	1527.69
400.613	1437.69
400.837	1359.69
401.062	1321.69
401.286	1324.69
401.51	1311.69
401.734	1313.69
401.958	1314.69
402.182	1335.69
402.406	1372.69
402.63	1373.69
402.854	1360.69
403.078	1427.69
403.302	1447.69
403.526	1460.69
403.75	1489.69
403.974	1533.69
404.198	1506.69
404.422	1510.69
404.645	1499.69
404.869	1504.69
405.093	1487.69
405.317	1455.69
405.541	1436.69
405.765	1417.69
405.988	1402.69
406.212	1402.69
406.436	1424.69
406.66	1464.69
406.883	1487.69
407.107	1567.69
407.331	1659.69
407.555	1744.69
407.778	1665.69
408.002	1625.69
408.226	1559.69
408.449	1550.69
408.673	1513.69
408.896	1467.69
409.12	1443.69
409.344	1486.69
409.567	1427.69
409.791	1459.69
410.014	1453.69
410.238	1449.69
410.461	1444.69
410.685	1410.69
410.908	1398.69
411.132	1403.69
411.355	1353.69
411.578	1349.69
411.802	1359.69
412.025	1355.69
412.249	1404.69
412.472	1355.69
412.695	1339.69
412.919	1317.69
413.142	1312.69
413.365	1298.69
413.589	1321.69
413.812	1263.69
414.035	1289.69
414.258	1268.69
414.482	1342.69
414.705	1320.69
414.928	1303.69
415.151	1315.69
415.374	1322.69
415.597	1291.69
415.821	1275.69
416.044	1251.69
416.267	1234.69
416.49	1256.69
416.713	1281.69
416.936	1315.69
417.159	1261.69
417.382	1265.69
417.605	1268.69
417.828	1278.69
418.051	1289.69
418.274	1292.69
418.497	1296.69
418.72	1332.69
418.943	1327.69
419.166	1416.69
419.389	1466.69
419.611	1454.69
419.834	1375.69
420.057	1344.69
420.28	1330.69
420.503	1277.69
420.726	1279.69
420.948	1266.69
421.171	1249.69
421.394	1287.69
421.617	1269.69
421.839	1303.69
422.062	1287.69
422.285	1281.69
422.507	1304.69
422.73	1318.69
422.953	1339.69
423.175	1374.69
423.398	1363.69
423.621	1353.69
423.843	1393.69
424.066	1386.69
424.288	1363.69
424.511	1318.69
424.733	1316.69
424.956	1295.69
425.178	1295.69
425.401	1284.69
425.623	1251.69
425.846	1253.69
426.068	1231.69
426.291	1231.69
426.513	1223.69
426.735	1206.69
426.958	1177.69
427.18	1177.69
427.402	1191.69
427.625	1169.69
427.847	1118.69
428.069	1142.69
428.292	1137.69
428.514	1153.69
428.736	1154.69
428.958	1167.69
429.181	1115.69
429.403	1099.69
429.625	1089.69
429.847	1118.69
430.069	1115.69
430.292	1134.69
430.514	1080.69
430.736	1091.69
430.958	1090.69
431.18	1110.69
431.402	1118.69
431.624	1118.69
431.846	1148.69
432.068	1158.69
432.29	1157.69
432.512	1115.69
432.734	1161.69
432.956	1132.69
433.178	1133.69
433.4	1134.69
433.622	1166.69
433.844	1162.69
434.066	1158.69
434.287	1160.69
434.509	1187.69
434.731	1242.69
434.953	1294.69
435.175	1271.69
435.397	1238.69
435.618	1207.69
435.84	1203.69
436.062	1161.69
436.284	1131.69
436.505	1131.69
436.727	1139.69
436.949	1164.69
437.17	1121.69
437.392	1120.69
437.614	1093.69
437.835	1099.69
438.057	1091.69
438.278	1037.69
438.5	1086.69
438.721	1116.69
438.943	1085.69
439.165	1111.69
439.386	1114.69
439.608	1116.69
439.829	1143.69
440.05	1137.69
440.272	1150.69
440.493	1149.69
440.715	1167.69
440.936	1166.69
441.158	1213.69
441.379	1223.69
441.6	1293.69
441.822	1273.69
442.043	1294.69
442.264	1279.69
442.486	1229.69
442.707	1258.69
442.928	1217.69
443.149	1221.69
443.371	1244.69
443.592	1257.69
443.813	1275.69
444.034	1287.69
444.255	1325.69
444.476	1377.69
444.698	1465.69
444.919	1529.69
445.14	1571.69
445.361	1377.69
445.582	1304.69
445.803	1232.69
446.024	1195.69
446.245	1235.69
446.466	1187.69
446.687	1145.69
446.908	1098.69
447.129	1116.69
447.35	1100.69
447.571	1089.69
447.792	1060.69
448.013	1083.69
448.234	1049.69
448.455	1061.69
448.675	1046.69
448.896	1023.69
449.117	1017.69
449.338	1016.69
449.559	1001.69
449.779	1054.69
450	1013.69
450.221	1017.69
450.442	1037.69
450.662	1066.69
450.883	1047.69
451.104	1063.69
451.324	1051.69
451.545	1046.69
451.766	1016.69
451.986	1037.69
452.207	1029.69
452.428	1042.69
452.648	1028.69
452.869	998.69
453.089	982.69
453.31	1013.69
453.53	1005.69
453.751	1015.69
453.971	1002.69
454.192	1004.69
454.412	959.69
454.633	957.69
454.853	998.69
455.073	951.69
455.294	979.69
455.514	969.69
455.734	978.69
455.955	941.69
456.175	942.69
456.395	953.69
456.616	962.69
456.836	952.69
457.056	960.69
457.276	941.69
457.497	1002.69
457.717	948.69
457.937	952.69
458.157	974.69
458.377	1005.69
458.598	981.69
458.818	1047.69
459.038	1084.69
459.258	1096.69
459.478	1129.69
459.698	1174.69
459.918	1203.69
460.138	1224.69
460.358	1312.69
460.578	1311.69
460.798	1343.69
461.018	1351.69
461.238	1322.69
461.458	1309.69
461.678	1316.69
461.898	1340.69
462.118	1344.69
462.338	1413.69
462.558	1400.69
462.777	1504.69
462.997	1648.69
463.217	1750.69
463.437	1773.69
463.657	1595.69
463.876	1509.69
464.096	1547.69
464.316	1561.69
464.536	1526.69
464.755	1467.69
464.975	1451.69
465.195	1383.69
465.414	1283.69
465.634	1209.69
465.854	1193.69
466.073	1161.69
466.293	1115.69
466.512	1113.69
466.732	1095.69
466.951	1081.69
467.171	1084.69
467.391	1070.69
467.61	1065.69
467.829	1082.69
468.049	1087.69
468.268	1052.69
468.488	1052.69
468.707	1017.69
468.927	996.69
469.146	1011.69
469.365	1028.69
469.585	1088.69
469.804	1075.69
470.023	1131.69
470.243	1101.69
470.462	1112.69
470.681	1099.69
470.901	1132.69
471.12	1105.69
471.339	1105.69
471.558	1080.69
471.777	1049.69
471.997	1053.69
472.216	1066.69
472.435	1047.69
472.654	1000.69
472.873	989.69
473.092	1010.69
473.311	1007.69
473.53	1021.69
473.749	972.69
473.968	1014.69
474.187	997.69
474.406	1000.69
474.625	1011.69
474.844	993.69
475.063	999.69
475.282	1053.69
475.501	1021.69
475.72	1033.69
475.939	1029.69
476.158	1047.69
476.377	1057.69
476.596	1067.69
476.814	1064.69
477.033	1088.69
477.252	1112.69
477.471	1111.69
477.69	1146.69
477.908	1153.69
478.127	1191.69
478.346	1195.69
478.564	1229.69
478.783	1221.69
479.002	1288.69
479.22	1305.69
479.439	1251.69
479.658	1244.69
479.876	1253.69
480.095	1296.69
480.313	1342.69
480.532	1366.69
480.751	1382.69
480.969	1291.69
481.188	1229.69
481.406	1226.69
481.624	1177.69
481.843	1185.69
482.061	1181.69
482.28	1129.69
482.498	1147.69
482.717	1147.69
482.935	1155.69
483.153	1150.69
483.372	1147.69
483.59	1154.69
483.808	1145.69
484.027	1182.69
484.245	1204.69
484.463	1185.69
484.681	1204.69
484.9	1207.69
485.118	1206.69
485.336	1217.69
485.554	1237.69
485.772	1239.69
485.99	1226.69
486.209	1239.69
486.427	1230.69
486.645	1226.69
486.863	1203.69
487.081	1225.69
487.299	1201.69
487.517	1195.69
487.735	1217.69
487.953	1207.69
488.171	1223.69
488.389	1224.69
488.607	1245.69
488.825	1200.69
489.043	1194.69
489.261	1170.69
489.479	1182.69
489.696	1216.69
489.914	1238.69
490.132	1203.69
490.35	1191.69
490.568	1203.69
490.786	1199.69
491.003	1201.69
491.221	1230.69
491.439	1198.69
491.657	1207.69
491.874	1204.69
492.092	1207.69
492.31	1217.69
492.527	1234.69
492.745	1209.69
492.963	1246.69
493.18	1225.69
493.398	1233.69
493.615	1251.69
493.833	1232.69
494.05	1263.69
494.268	1277.69
494.485	1272.69
494.703	1266.69
494.92	1270.69
495.138	1253.69
495.355	1268.69
495.573	1269.69
495.79	1264.69
496.008	1276.69
496.225	1316.69
496.442	1305.69
496.66	1307.69
496.877	1341.69
497.094	1347.69
497.312	1388.69
497.529	1366.69
497.746	1422.69
497.963	1477.69
498.181	1517.69
498.398	1593.69
498.615	1725.69
498.832	1828.69
499.049	1975.69
499.267	2099.69
499.484	2287.69
499.701	2592.69
499.918	2819.69
500.135	3189.69
500.352	3684.69
500.569	3845.69
500.786	3839.69
501.003	3493.69
501.22	3118.69
501.437	2794.69
501.654	2435.69
501.871	2206.69
502.088	2036.69
502.305	1916.69
502.522	1798.69
502.739	1724.69
502.956	1647.69
503.172	1596.69
503.389	1508.69
503.606	1483.69
503.823	1481.69
504.04	1450.69
504.256	1432.69
504.473	1460.69
504.69	1537.69
504.907	1467.69
505.123	1377.69
505.34	1317.69
505.557	1224.69
505.773	1235.69
505.99	1203.69
506.207	1195.69
506.423	1154.69
506.64	1117.69
506.856	1100.69
507.073	1114.69
507.289	1098.69
507.506	1102.69
507.722	1118.69
507.939	1095.69
508.155	1094.69
508.372	1074.69
508.588	1073.69
508.805	1052.69
509.021	1070.69
509.238	1068.69
509.454	1041.69
509.67	1027.69
509.887	1018.69
510.103	1031.69
510.319	1025.69
510.536	1023.69
510.752	1014.69
510.968	1033.69
511.184	1043.69
511.401	1030.69
511.617	980.69
511.833	1015.69
512.049	1005.69
512.265	1017.69
512.481	995.69
512.698	1016.69
512.914	1001.69
513.13	993.69
513.346	1028.69
513.562	1028.69
513.778	1005.69
513.994	1008.69
514.21	1005.69
514.426	1057.69
514.642	1040.69
514.858	1040.69
515.074	1040.69
515.29	1046.69
515.506	1063.69
515.721	1096.69
515.937	1086.69
516.153	1101.69
516.369	1103.69
516.585	1170.69
516.801	1203.69
517.016	1207.69
517.232	1333.69
517.448	1351.69
517.664	1395.69
517.879	1437.69
518.095	1396.69
518.311	1362.69
518.527	1294.69
518.742	1283.69
518.958	1185.69
519.173	1165.69
519.389	1140.69
519.605	1126.69
519.82	1098.69
520.036	1065.69
520.251	1075.69
520.467	1017.69
520.682	1021.69
520.898	1020.69
521.113	992.69
521.329	1015.69
521.544	974.69
521.76	978.69
521.975	969.69
522.19	972.69
522.406	938.69
522.621	940.69
522.836	959.69
523.052	965.69
523.267	948.69
523.482	948.69
523.698	926.69
523.913	929.69
524.128	905.69
524.343	902.69
524.559	932.69
524.774	929.69
524.989	907.69
525.204	951.69
525.419	896.69
525.634	907.69
525.849	916.69
526.064	929.69
526.28	936.69
526.495	922.69
526.71	903.69
526.925	919.69
527.14	898.69
527.355	912.69
527.57	897.69
527.785	901.69
527.999	869.69
528.214	887.69
528.429	901.69
528.644	919.69
528.859	904.69
529.074	883.69
529.289	901.69
529.503	921.69
529.718	892.69
529.933	890.69
530.148	872.69
530.363	886.69
530.577	893.69
530.792	893.69
531.007	889.69
531.221	897.69
531.436	900.69
531.651	878.69
531.865	913.69
532.08	903.69
532.295	909.69
532.509	870.69
532.724	912.69
532.938	895.69
533.153	897.69
533.367	859.69
533.582	897.69
533.796	871.69
534.011	895.69
534.225	881.69
534.44	868.69
534.654	889.69
534.868	865.69
535.083	895.69
535.297	869.69
535.511	887.69
535.726	862.69
535.94	847.69
536.154	864.69
536.369	840.69
536.583	819.69
536.797	859.69
537.011	833.69
537.225	845.69
537.44	843.69
537.654	829.69
537.868	821.69
538.082	807.69
538.296	796.69
538.51	816.69
538.724	815.69
538.938	808.69
539.153	785.69
539.367	814.69
539.581	795.69
539.795	769.69
540.009	819.69
540.222	776.69
540.436	814.69
540.65	782.69
540.864	796.69
541.078	804.69
541.292	803.69
541.506	806.69
541.72	807.69
541.934	819.69
542.147	795.69
542.361	799.69
542.575	777.69
542.789	783.69
543.002	778.69
543.216	773.69
543.43	795.69
543.644	819.69
543.857	788.69
544.071	780.69
544.285	769.69
544.498	802.69
544.712	800.69
544.925	811.69
545.139	794.69
545.352	795.69
545.566	810.69
545.779	829.69
545.993	814.69
546.206	802.69
546.42	805.69
546.633	821.69
546.847	851.69
547.06	821.69
547.274	786.69
547.487	833.69
547.7	793.69
547.914	807.69
548.127	826.69
548.34	817.69
548.554	846.69
548.767	806.69
548.98	806.69
549.193	833.69
549.407	857.69
549.62	866.69
549.833	866.69
550.046	843.69
550.259	845.69
550.473	830.69
550.686	790.69
550.899	807.69
551.112	811.69
551.325	782.69
551.538	813.69
551.751	793.69
551.964	799.69
552.177	812.69
552.39	818.69
552.603	835.69
552.816	846.69
553.029	880.69
553.242	885.69
553.455	888.69
553.667	910.69
553.88	859.69
554.093	821.69
554.306	851.69
554.519	821.69
554.732	816.69
554.944	786.69
555.157	780.69
555.37	725.69
555.583	783.69
555.795	731.69
556.008	741.69
556.221	730.69
556.433	708.69
556.646	699.69
556.859	723.69
557.071	692.69
557.284	699.69
557.496	695.69
557.709	709.69
557.921	701.69
558.134	695.69
558.346	680.69
558.559	691.69
558.771	679.69
558.984	686.69
559.196	689.69
559.409	675.69
559.621	681.69
559.833	659.69
560.046	651.69
560.258	663.69
560.47	650.69
560.683	684.69
560.895	659.69
561.107	650.69
561.32	665.69
561.532	649.69
561.744	659.69
561.956	674.69
562.168	655.69
562.381	657.69
562.593	697.69
562.805	669.69
563.017	673.69
563.229	680.69
563.441	697.69
563.653	678.69
563.865	705.69
564.077	679.69
564.289	698.69
564.501	716.69
564.713	706.69
564.925	735.69
565.137	746.69
565.349	767.69
565.561	779.69
565.773	788.69
565.985	835.69
566.197	892.69
566.408	959.69
566.62	998.69
566.832	1110.69
567.044	1116.69
567.255	1111.69
567.467	1158.69
567.679	1212.69
567.891	1275.69
568.102	1314.69
568.314	1252.69
568.526	1145.69
568.737	1004.69
568.949	940.69
569.161	871.69
569.372	805.69
569.584	782.69
569.795	729.69
570.007	717.69
570.218	717.69
570.43	678.69
570.641	674.69
570.853	701.69
571.064	695.69
571.276	712.69
571.487	659.69
571.698	653.69
571.91	638.69
572.121	620.69
572.333	597.69
572.544	595.69
572.755	577.69
572.966	582.69
573.178	574.69
573.389	563.69
573.6	564.69
573.811	570.69
574.023	561.69
574.234	559.69
574.445	557.69
574.656	562.69
574.867	577.69
575.078	555.69
575.289	530.69
575.501	535.69
575.712	537.69
575.923	531.69
576.134	528.69
576.345	528.69
576.556	519.69
576.767	521.69
576.978	526.69
577.188	500.69
577.399	501.69
577.61	502.69
577.821	518.69
578.032	515.69
578.243	509.69
578.454	501.69
578.665	487.69
578.875	488.69
579.086	480.69
579.297	490.69
579.508	505.69
579.718	463.69
579.929	467.69
580.14	471.69
580.35	485.69
580.561	490.69
580.772	481.69
580.982	474.69
581.193	450.69
581.403	476.69
581.614	476.69
581.825	469.69
582.035	468.69
582.246	476.69
582.456	468.69
582.667	451.69
582.877	478.69
583.087	440.69
583.298	454.69
583.508	469.69
583.719	463.69
583.929	442.69
584.139	457.69
584.35	445.69
584.56	452.69
584.77	426.69
584.981	425.69
585.191	441.69
585.401	431.69
585.611	449.69
585.821	463.69
586.032	434.69
586.242	453.69
586.452	455.69
586.662	443.69
586.872	439.69
587.082	438.69
587.292	427.69
587.502	449.69
587.713	431.69
587.923	442.69
588.133	453.69
588.343	439.69
588.553	431.69
588.762	442.69
588.972	434.69
589.182	433.69
589.392	458.69
589.602	459.69
589.812	426.69
590.022	429.69
590.232	429.69
590.441	434.69
590.651	442.69
590.861	458.69
591.071	444.69
591.281	455.69
591.49	475.69
591.7	473.69
591.91	484.69
592.119	462.69
592.329	459.69
592.539	508.69
592.748	525.69
592.958	529.69
593.167	542.69
593.377	554.69
593.587	575.69
593.796	571.69
594.006	575.69
594.215	562.69
594.424	563.69
594.634	554.69
594.843	545.69
595.053	528.69
595.262	500.69
595.472	457.69
595.681	468.69
595.89	454.69
596.1	453.69
596.309	430.69
596.518	418.69
596.727	424.69
596.937	422.69
597.146	417.69
597.355	412.69
597.564	393.69
597.774	401.69
597.983	415.69
598.192	378.69
598.401	388.69
598.61	397.69
598.819	389.69
599.028	386.69
599.237	379.69
599.446	383.69
599.655	383.69
599.864	378.69
600.073	370.69
600.282	365.69
600.491	375.69
600.7	372.69
600.909	378.69
601.118	370.69
601.327	370.69
601.536	363.69
601.745	377.69
601.953	378.69
602.162	370.69
602.371	352.69
602.58	358.69
602.789	348.69
602.997	343.69
603.206	350.69
603.415	332.69
603.623	348.69
603.832	332.69
604.041	338.69
604.249	354.69
604.458	347.69
604.666	340.69
604.875	339.69
605.084	337.69
605.292	354.69
605.501	340.69
605.709	337.69
605.918	333.69
606.126	339.69
606.334	344.69
606.543	323.69
606.751	357.69
606.96	330.69
607.168	339.69
607.376	321.69
607.585	327.69
607.793	335.69
608.001	336.69
608.21	340.69
608.418	322.69
608.626	342.69
608.834	322.69
609.043	311.69
609.251	339.69
609.459	333.69
609.667	328.69
609.875	328.69
610.083	324.69
610.291	332.69
610.499	323.69
610.707	321.69
610.916	343.69
611.124	322.69
611.332	313.69
611.54	340.69
611.748	319.69
611.955	332.69
612.163	323.69
612.371	334.69
612.579	319.69
612.787	318.69
612.995	332.69
613.203	318.69
613.411	320.69
613.618	311.69
613.826	315.69
614.034	303.69
614.242	305.69
614.449	305.69
614.657	321.69
614.865	317.69
615.072	314.69
615.28	317.69
615.488	321.69
615.695	322.69
615.903	299.69
616.111	305.69
616.318	307.69
616.526	317.69
616.733	313.69
616.941	326.69
617.148	333.69
617.356	323.69
617.563	325.69
617.771	308.69
617.978	312.69
618.185	330.69
618.393	325.69
618.6	325.69
618.807	317.69
619.015	314.69
619.222	314.69
619.429	325.69
619.637	315.69
619.844	319.69
620.051	308.69
620.258	309.69
620.466	287.69
620.673	289.69
620.88	297.69
621.087	297.69
621.294	269.69
621.501	292.69
621.708	321.69
621.915	286.69
622.122	296.69
622.329	314.69
622.536	295.69
622.743	279.69
622.95	297.69
623.157	280.69
623.364	293.69
623.571	293.69
623.778	262.69
623.985	305.69
624.192	274.69
624.399	279.69
624.606	275.69
624.812	271.69
625.019	286.69
625.226	262.69
625.433	260.69
625.639	292.69
625.846	271.69
626.053	273.69
626.259	267.69
626.466	264.69
626.673	272.69
626.879	269.69
627.086	263.69
627.293	258.69
627.499	270.69
627.706	282.69
627.912	270.69
628.119	271.69
628.325	268.69
628.532	257.69
628.738	257.69
628.945	251.69
629.151	268.69
629.357	263.69
629.564	243.69
629.77	271.69
629.976	273.69
630.183	259.69
630.389	255.69
630.595	253.69
630.802	254.69
631.008	250.69
631.214	232.69
631.42	251.69
631.627	256.69
631.833	251.69
632.039	238.69
632.245	257.69
632.451	245.69
632.657	247.69
632.863	255.69
633.069	239.69
633.275	251.69
633.481	243.69
633.688	244.69
633.893	243.69
634.099	238.69
634.305	236.69
634.511	228.69
634.717	218.69
634.923	220.69
635.129	233.69
635.335	228.69
635.541	238.69
635.747	217.69
635.952	233.69
636.158	222.69
636.364	244.69
636.57	216.69
636.775	217.69
636.981	234.69
637.187	222.69
637.392	196.69
637.598	216.69
637.804	230.69
638.009	227.69
638.215	228.69
638.421	225.69
638.626	224.69
638.832	227.69
639.037	214.69
639.243	215.69
639.448	236.69
639.654	219.69
639.859	206.69
640.065	222.69
640.27	231.69
640.475	211.69
640.681	212.69
640.886	203.69
641.091	208.69
641.297	222.69
641.502	203.69
641.707	230.69
641.913	220.69
642.118	207.69
642.323	216.69
642.528	211.69
642.733	210.69
642.939	191.69
643.144	210.69
643.349	225.69
643.554	197.69
643.759	219.69
643.964	219.69
644.169	199.69
644.374	202.69
644.579	203.69
644.784	200.69
644.989	219.69
645.194	202.69
645.399	206.69
645.604	220.69
645.809	197.69
646.014	213.69
646.219	197.69
646.423	213.69
646.628	217.69
646.833	212.69
647.038	213.69
647.243	206.69
647.447	217.69
647.652	236.69
647.857	208.69
648.062	216.69
648.266	233.69
648.471	222.69
648.676	230.69
648.88	224.69
649.085	223.69
649.289	198.69
649.494	212.69
649.698	203.69
649.903	211.69
650.107	220.69
650.312	205.69
650.516	208.69
650.721	219.69
650.925	196.69
651.13	195.69
651.334	211.69
651.539	181.69
651.743	186.69
651.947	199.69
652.152	180.69
652.356	190.69
652.56	179.69
652.764	177.69
652.969	173.69
653.173	168.69
653.377	165.69
653.581	188.69
653.785	173.69
653.99	176.69
654.194	174.69
654.398	171.69
654.602	175.69
654.806	169.69
655.01	172.69
655.214	187.69
655.418	182.69
655.622	196.69
655.826	179.69
656.03	185.69
656.234	194.69
656.438	165.69
656.642	183.69
656.846	169.69
657.049	178.69
657.253	159.69
657.457	136.69
657.661	135.69
657.865	147.69
658.068	121.69
658.272	129.69
658.476	138.69
658.68	134.69
658.883	128.69
659.087	128.69
659.291	133.69
659.494	129.69
659.698	113.69
659.901	100.69
660.105	111.69
660.309	119.69
660.512	108.69
660.716	102.69
660.919	104.69
661.123	94.69
661.326	94.69
661.53	93.69
661.733	95.69
661.936	91.69
662.14	85.69
662.343	78.69
662.546	91.69
662.75	93.69
662.953	89.69
663.156	101.69
663.36	95.69
663.563	97.69
663.766	88.69
663.969	80.69
664.173	86.69
664.376	83.69
664.579	84.69
664.782	80.69
664.985	88.69
665.188	82.69
665.391	86.69
665.594	85.69
665.797	78.69
666	74.69
666.203	91.69
666.406	82.69
666.609	87.69
666.812	84.69
667.015	73.69
667.218	83.69
667.421	78.69
667.624	84.69
667.827	101.69
668.03	86.69
668.232	86.69
668.435	87.69
668.638	91.69
668.841	87.69
669.043	83.69
669.246	77.69
669.449	83.69
669.651	76.69
669.854	85.69
670.057	79.69
670.259	76.69
670.462	82.69
670.665	87.69
670.867	83.69
671.07	92.69
671.272	77.69
671.475	94.69
671.677	94.69
671.88	94.69
672.082	79.69
672.284	79.69
672.487	89.69
672.689	63.69
672.892	83.69
