Data from NiCl2@0.0625M.TitratingCurve.Agarose3%dH2O.NegLispCup.LampEnergy10.LIBS07252019_HRD10591_18-33-05-576.txt Node
Date: Thu Jul 25 18:33:05 EDT 2019
User: cochatt
Spectrometer: HR+D1059
Trigger mode: 1
Integration Time (sec): 1.000000E-1
Scans to average: 1
Electric dark correction enabled: true
Nonlinearity correction enabled: false
Boxcar width: 0
XAxis mode: Wavelengths
Number of Pixels in Spectrum: 2048
>>>>>Begin Spectral Data<<<<<
223.165	-12.12
223.4	-12.12
223.635	-12.12
223.869	-18.12
224.104	-33.12
224.338	-14.12
224.573	-12.12
224.808	-19.12
225.042	-5.12
225.277	-0.12
225.511	-5.12
225.746	18.88
225.98	5.88
226.215	6.88
226.449	9.88
226.683	19.88
226.918	22.88
227.152	34.88
227.387	32.88
227.621	33.88
227.856	41.88
228.09	60.88
228.324	46.88
228.559	53.88
228.793	69.88
229.027	142.88
229.262	136.88
229.496	154.88
229.73	160.88
229.964	176.88
230.199	183.88
230.433	176.88
230.667	194.88
230.901	184.88
231.136	183.88
231.37	185.88
231.604	190.88
231.838	198.88
232.072	202.88
232.306	192.88
232.541	201.88
232.775	211.88
233.009	209.88
233.243	210.88
233.477	218.88
233.711	215.88
233.945	206.88
234.179	213.88
234.413	210.88
234.647	196.88
234.881	228.88
235.115	222.88
235.349	212.88
235.583	232.88
235.817	226.88
236.051	217.88
236.285	233.88
236.519	234.88
236.753	231.88
236.987	233.88
237.221	234.88
237.455	242.88
237.689	240.88
237.922	261.88
238.156	238.88
238.39	250.88
238.624	248.88
238.858	253.88
239.091	233.88
239.325	262.88
239.559	267.88
239.793	270.88
240.027	277.88
240.26	281.88
240.494	272.88
240.728	287.88
240.961	274.88
241.195	279.88
241.429	278.88
241.662	297.88
241.896	293.88
242.13	290.88
242.363	300.88
242.597	312.88
242.83	330.88
243.064	312.88
243.298	320.88
243.531	320.88
243.765	321.88
243.998	326.88
244.232	334.88
244.465	342.88
244.699	351.88
244.932	343.88
245.166	335.88
245.399	335.88
245.633	360.88
245.866	336.88
246.099	350.88
246.333	330.88
246.566	333.88
246.8	325.88
247.033	358.88
247.266	360.88
247.5	366.88
247.733	370.88
247.966	373.88
248.2	383.88
248.433	404.88
248.666	376.88
248.899	394.88
249.133	360.88
249.366	376.88
249.599	384.88
249.832	408.88
250.066	407.88
250.299	418.88
250.532	407.88
250.765	385.88
250.998	408.88
251.231	408.88
251.465	442.88
251.698	441.88
251.931	425.88
252.164	432.88
252.397	432.88
252.63	437.88
252.863	433.88
253.096	446.88
253.329	445.88
253.562	453.88
253.795	458.88
254.028	450.88
254.261	445.88
254.494	457.88
254.727	470.88
254.96	461.88
255.193	486.88
255.426	486.88
255.659	446.88
255.892	481.88
256.124	481.88
256.357	477.88
256.59	493.88
256.823	473.88
257.056	484.88
257.289	475.88
257.521	500.88
257.754	490.88
257.987	485.88
258.22	549.88
258.452	494.88
258.685	507.88
258.918	525.88
259.151	511.88
259.383	520.88
259.616	514.88
259.849	515.88
260.081	521.88
260.314	534.88
260.547	552.88
260.779	530.88
261.012	549.88
261.244	545.88
261.477	561.88
261.71	558.88
261.942	535.88
262.175	552.88
262.407	541.88
262.64	541.88
262.872	564.88
263.105	582.88
263.337	565.88
263.57	579.88
263.802	574.88
264.035	574.88
264.267	573.88
264.499	557.88
264.732	592.88
264.964	597.88
265.197	583.88
265.429	613.88
265.661	575.88
265.894	605.88
266.126	597.88
266.358	579.88
266.591	601.88
266.823	584.88
267.055	597.88
267.287	620.88
267.52	598.88
267.752	610.88
267.984	598.88
268.216	602.88
268.448	621.88
268.681	640.88
268.913	611.88
269.145	647.88
269.377	626.88
269.609	668.88
269.841	630.88
270.073	636.88
270.306	621.88
270.538	654.88
270.77	653.88
271.002	637.88
271.234	639.88
271.466	660.88
271.698	651.88
271.93	672.88
272.162	674.88
272.394	643.88
272.626	676.88
272.858	709.88
273.09	704.88
273.322	704.88
273.553	689.88
273.785	704.88
274.017	696.88
274.249	702.88
274.481	718.88
274.713	700.88
274.945	716.88
275.176	732.88
275.408	708.88
275.64	719.88
275.872	717.88
276.104	711.88
276.335	718.88
276.567	743.88
276.799	747.88
277.031	750.88
277.262	733.88
277.494	733.88
277.726	727.88
277.957	749.88
278.189	756.88
278.421	735.88
278.652	764.88
278.884	761.88
279.115	775.88
279.347	791.88
279.579	753.88
279.81	779.88
280.042	779.88
280.273	788.88
280.505	806.88
280.736	787.88
280.968	790.88
281.199	788.88
281.431	777.88
281.662	806.88
281.894	822.88
282.125	794.88
282.356	818.88
282.588	798.88
282.819	818.88
283.051	787.88
283.282	808.88
283.513	833.88
283.745	841.88
283.976	855.88
284.207	820.88
284.439	832.88
284.67	833.88
284.901	854.88
285.132	846.88
285.364	834.88
285.595	848.88
285.826	837.88
286.057	881.88
286.288	850.88
286.52	852.88
286.751	849.88
286.982	876.88
287.213	878.88
287.444	886.88
287.675	887.88
287.906	881.88
288.138	879.88
288.369	886.88
288.6	897.88
288.831	910.88
289.062	881.88
289.293	890.88
289.524	892.88
289.755	910.88
289.986	903.88
290.217	881.88
290.448	914.88
290.679	893.88
290.91	885.88
291.141	907.88
291.371	913.88
291.602	890.88
291.833	903.88
292.064	894.88
292.295	926.88
292.526	904.88
292.757	907.88
292.987	901.88
293.218	884.88
293.449	912.88
293.68	900.88
293.91	913.88
294.141	901.88
294.372	909.88
294.603	910.88
294.833	917.88
295.064	926.88
295.295	933.88
295.525	914.88
295.756	935.88
295.987	935.88
296.217	907.88
296.448	932.88
296.679	943.88
296.909	949.88
297.14	958.88
297.37	977.88
297.601	982.88
297.831	977.88
298.062	957.88
298.292	976.88
298.523	1003.88
298.753	1020.88
298.984	999.88
299.214	996.88
299.445	1035.88
299.675	1002.88
299.905	985.88
300.136	1004.88
300.366	999.88
300.597	1015.88
300.827	1031.88
301.057	1028.88
301.288	1034.88
301.518	1025.88
301.748	1048.88
301.979	1063.88
302.209	1033.88
302.439	1059.88
302.669	1070.88
302.9	1023.88
303.13	1062.88
303.36	1025.88
303.59	1054.88
303.82	1031.88
304.051	1029.88
304.281	1044.88
304.511	1031.88
304.741	1035.88
304.971	1039.88
305.201	1019.88
305.431	1043.88
305.661	1040.88
305.891	1026.88
306.121	1039.88
306.352	1049.88
306.582	1030.88
306.812	1023.88
307.042	1048.88
307.272	1036.88
307.502	1013.88
307.731	1055.88
307.961	1029.88
308.191	1018.88
308.421	1021.88
308.651	1043.88
308.881	1046.88
309.111	1042.88
309.341	1027.88
309.571	1040.88
309.8	1039.88
310.03	1037.88
310.26	1061.88
310.49	1032.88
310.72	1044.88
310.949	1034.88
311.179	1043.88
311.409	1059.88
311.639	1063.88
311.868	1049.88
312.098	1045.88
312.328	1072.88
312.557	1096.88
312.787	1108.88
313.017	1038.88
313.246	1105.88
313.476	1085.88
313.706	1095.88
313.935	1107.88
314.165	1119.88
314.394	1133.88
314.624	1103.88
314.853	1094.88
315.083	1137.88
315.312	1117.88
315.542	1126.88
315.771	1100.88
316.001	1117.88
316.23	1088.88
316.46	1086.88
316.689	1102.88
316.919	1153.88
317.148	1150.88
317.377	1092.88
317.607	1098.88
317.836	1088.88
318.065	1111.88
318.295	1127.88
318.524	1113.88
318.753	1120.88
318.983	1078.88
319.212	1109.88
319.441	1098.88
319.67	1118.88
319.9	1085.88
320.129	1089.88
320.358	1096.88
320.587	1125.88
320.816	1118.88
321.046	1111.88
321.275	1151.88
321.504	1141.88
321.733	1113.88
321.962	1122.88
322.191	1146.88
322.42	1116.88
322.649	1140.88
322.878	1132.88
323.108	1124.88
323.337	1168.88
323.566	1096.88
323.795	1099.88
324.024	1129.88
324.253	1127.88
324.482	1145.88
324.71	1144.88
324.939	1170.88
325.168	1147.88
325.397	1154.88
325.626	1153.88
325.855	1207.88
326.084	1182.88
326.313	1216.88
326.542	1177.88
326.77	1228.88
326.999	1196.88
327.228	1212.88
327.457	1182.88
327.686	1169.88
327.914	1190.88
328.143	1186.88
328.372	1206.88
328.6	1201.88
328.829	1194.88
329.058	1208.88
329.287	1230.88
329.515	1221.88
329.744	1224.88
329.972	1264.88
330.201	1238.88
330.43	1233.88
330.658	1263.88
330.887	1240.88
331.115	1271.88
331.344	1248.88
331.572	1293.88
331.801	1274.88
332.03	1287.88
332.258	1334.88
332.486	1358.88
332.715	1416.88
332.943	1440.88
333.172	1481.88
333.4	1518.88
333.629	1540.88
333.857	1571.88
334.085	1535.88
334.314	1549.88
334.542	1554.88
334.771	1500.88
334.999	1519.88
335.227	1532.88
335.455	1519.88
335.684	1494.88
335.912	1487.88
336.14	1481.88
336.369	1471.88
336.597	1465.88
336.825	1428.88
337.053	1450.88
337.281	1404.88
337.51	1405.88
337.738	1416.88
337.966	1363.88
338.194	1356.88
338.422	1350.88
338.65	1301.88
338.878	1321.88
339.106	1313.88
339.334	1341.88
339.562	1329.88
339.79	1257.88
340.018	1281.88
340.246	1291.88
340.474	1290.88
340.702	1265.88
340.93	1270.88
341.158	1268.88
341.386	1279.88
341.614	1272.88
341.842	1273.88
342.07	1265.88
342.298	1242.88
342.526	1286.88
342.754	1266.88
342.981	1271.88
343.209	1287.88
343.437	1365.88
343.665	1408.88
343.893	1468.88
344.12	1531.88
344.348	1493.88
344.576	1441.88
344.804	1395.88
345.031	1372.88
345.259	1316.88
345.487	1289.88
345.714	1296.88
345.942	1243.88
346.17	1254.88
346.397	1236.88
346.625	1237.88
346.853	1260.88
347.08	1231.88
347.308	1223.88
347.535	1217.88
347.763	1217.88
347.99	1231.88
348.218	1230.88
348.445	1232.88
348.673	1208.88
348.9	1196.88
349.128	1222.88
349.355	1219.88
349.583	1209.88
349.81	1207.88
350.037	1192.88
350.265	1173.88
350.492	1167.88
350.72	1184.88
350.947	1148.88
351.174	1197.88
351.402	1156.88
351.629	1187.88
351.856	1164.88
352.083	1185.88
352.311	1168.88
352.538	1186.88
352.765	1179.88
352.992	1197.88
353.22	1162.88
353.447	1139.88
353.674	1174.88
353.901	1164.88
354.128	1157.88
354.355	1182.88
354.583	1144.88
354.81	1186.88
355.037	1171.88
355.264	1184.88
355.491	1170.88
355.718	1168.88
355.945	1184.88
356.172	1192.88
356.399	1199.88
356.626	1191.88
356.853	1194.88
357.08	1166.88
357.307	1192.88
357.534	1167.88
357.761	1150.88
357.988	1189.88
358.215	1182.88
358.441	1171.88
358.668	1198.88
358.895	1200.88
359.122	1203.88
359.349	1174.88
359.576	1180.88
359.802	1188.88
360.029	1150.88
360.256	1191.88
360.483	1191.88
360.709	1213.88
360.936	1200.88
361.163	1196.88
361.39	1141.88
361.616	1189.88
361.843	1153.88
362.07	1187.88
362.296	1147.88
362.523	1151.88
362.749	1172.88
362.976	1167.88
363.203	1173.88
363.429	1178.88
363.656	1185.88
363.882	1204.88
364.109	1184.88
364.335	1162.88
364.562	1184.88
364.788	1138.88
365.015	1165.88
365.241	1143.88
365.468	1213.88
365.694	1165.88
365.92	1186.88
366.147	1173.88
366.373	1161.88
366.599	1198.88
366.826	1171.88
367.052	1192.88
367.278	1199.88
367.505	1180.88
367.731	1168.88
367.957	1216.88
368.184	1200.88
368.41	1205.88
368.636	1179.88
368.862	1210.88
369.089	1204.88
369.315	1213.88
369.541	1224.88
369.767	1224.88
369.993	1223.88
370.219	1202.88
370.445	1221.88
370.672	1255.88
370.898	1255.88
371.124	1240.88
371.35	1277.88
371.576	1302.88
371.802	1271.88
372.028	1310.88
372.254	1292.88
372.48	1258.88
372.706	1306.88
372.932	1315.88
373.158	1326.88
373.384	1287.88
373.61	1308.88
373.835	1306.88
374.061	1282.88
374.287	1293.88
374.513	1338.88
374.739	1348.88
374.965	1406.88
375.191	1398.88
375.416	1458.88
375.642	1365.88
375.868	1363.88
376.094	1301.88
376.319	1291.88
376.545	1292.88
376.771	1282.88
376.997	1270.88
377.222	1266.88
377.448	1289.88
377.674	1272.88
377.899	1301.88
378.125	1265.88
378.35	1282.88
378.576	1257.88
378.802	1255.88
379.027	1257.88
379.253	1253.88
379.478	1272.88
379.704	1283.88
379.929	1235.88
380.155	1279.88
380.38	1249.88
380.606	1252.88
380.831	1271.88
381.057	1317.88
381.282	1311.88
381.507	1266.88
381.733	1293.88
381.958	1307.88
382.184	1310.88
382.409	1338.88
382.634	1310.88
382.86	1321.88
383.085	1374.88
383.31	1345.88
383.535	1392.88
383.761	1360.88
383.986	1388.88
384.211	1434.88
384.436	1451.88
384.662	1440.88
384.887	1506.88
385.112	1487.88
385.337	1528.88
385.562	1559.88
385.787	1494.88
386.013	1542.88
386.238	1536.88
386.463	1529.88
386.688	1534.88
386.913	1500.88
387.138	1543.88
387.363	1506.88
387.588	1502.88
387.813	1549.88
388.038	1543.88
388.263	1537.88
388.488	1547.88
388.713	1528.88
388.938	1538.88
389.163	1524.88
389.387	1488.88
389.612	1501.88
389.837	1539.88
390.062	1520.88
390.287	1542.88
390.512	1533.88
390.736	1529.88
390.961	1562.88
391.186	1556.88
391.411	1625.88
391.636	1647.88
391.86	1690.88
392.085	1701.88
392.31	1701.88
392.534	1662.88
392.759	1628.88
392.984	1623.88
393.208	1630.88
393.433	1616.88
393.658	1644.88
393.882	1618.88
394.107	1601.88
394.331	1600.88
394.556	1618.88
394.78	1634.88
395.005	1646.88
395.229	1655.88
395.454	1696.88
395.678	1742.88
395.903	1706.88
396.127	1682.88
396.352	1660.88
396.576	1613.88
396.801	1645.88
397.025	1689.88
397.249	1687.88
397.474	1721.88
397.698	1746.88
397.922	1744.88
398.147	1733.88
398.371	1790.88
398.595	1834.88
398.82	1894.88
399.044	1995.88
399.268	2174.88
399.492	2396.88
399.717	2611.88
399.941	2653.88
400.165	2452.88
400.389	2271.88
400.613	2108.88
400.837	2018.88
401.062	1968.88
401.286	1916.88
401.51	1940.88
401.734	1893.88
401.958	1932.88
402.182	1886.88
402.406	1968.88
402.63	1962.88
402.854	1961.88
403.078	1978.88
403.302	2034.88
403.526	2009.88
403.75	2036.88
403.974	2079.88
404.198	2078.88
404.422	2108.88
404.645	2087.88
404.869	2068.88
405.093	2078.88
405.317	2056.88
405.541	2019.88
405.765	2032.88
405.988	2025.88
406.212	2070.88
406.436	2053.88
406.66	2110.88
406.883	2175.88
407.107	2269.88
407.331	2297.88
407.555	2366.88
407.778	2394.88
408.002	2335.88
408.226	2278.88
408.449	2271.88
408.673	2213.88
408.896	2110.88
409.12	2119.88
409.344	2153.88
409.567	2153.88
409.791	2079.88
410.014	2062.88
410.238	2068.88
410.461	2088.88
410.685	2075.88
410.908	2015.88
411.132	2007.88
411.355	2012.88
411.578	1930.88
411.802	1954.88
412.025	1966.88
412.249	2014.88
412.472	1990.88
412.695	1925.88
412.919	1914.88
413.142	1917.88
413.365	1912.88
413.589	1899.88
413.812	1892.88
414.035	1920.88
414.258	1889.88
414.482	1902.88
414.705	1914.88
414.928	1944.88
415.151	1888.88
415.374	1895.88
415.597	1871.88
415.821	1806.88
416.044	1806.88
416.267	1842.88
416.49	1828.88
416.713	1799.88
416.936	1825.88
417.159	1822.88
417.382	1829.88
417.605	1790.88
417.828	1794.88
418.051	1816.88
418.274	1826.88
418.497	1856.88
418.72	1885.88
418.943	1854.88
419.166	1963.88
419.389	2088.88
419.611	2030.88
419.834	1992.88
420.057	1941.88
420.28	1881.88
420.503	1816.88
420.726	1784.88
420.948	1821.88
421.171	1830.88
421.394	1812.88
421.617	1844.88
421.839	1809.88
422.062	1800.88
422.285	1802.88
422.507	1850.88
422.73	1905.88
422.953	1912.88
423.175	1872.88
423.398	1851.88
423.621	1876.88
423.843	1889.88
424.066	1919.88
424.288	1861.88
424.511	1882.88
424.733	1868.88
424.956	1849.88
425.178	1856.88
425.401	1840.88
425.623	1820.88
425.846	1746.88
426.068	1741.88
426.291	1762.88
426.513	1788.88
426.735	1760.88
426.958	1754.88
427.18	1677.88
427.402	1706.88
427.625	1693.88
427.847	1657.88
428.069	1691.88
428.292	1706.88
428.514	1652.88
428.736	1670.88
428.958	1642.88
429.181	1640.88
429.403	1611.88
429.625	1665.88
429.847	1603.88
430.069	1605.88
430.292	1622.88
430.514	1628.88
430.736	1653.88
430.958	1669.88
431.18	1666.88
431.402	1639.88
431.624	1634.88
431.846	1658.88
432.068	1673.88
432.29	1684.88
432.512	1678.88
432.734	1674.88
432.956	1641.88
433.178	1658.88
433.4	1634.88
433.622	1709.88
433.844	1728.88
434.066	1717.88
434.287	1713.88
434.509	1772.88
434.731	1808.88
434.953	1818.88
435.175	1846.88
435.397	1867.88
435.618	1782.88
435.84	1732.88
436.062	1704.88
436.284	1691.88
436.505	1682.88
436.727	1703.88
436.949	1666.88
437.17	1692.88
437.392	1632.88
437.614	1628.88
437.835	1587.88
438.057	1572.88
438.278	1596.88
438.5	1580.88
438.721	1604.88
438.943	1625.88
439.165	1575.88
439.386	1631.88
439.608	1618.88
439.829	1609.88
440.05	1638.88
440.272	1641.88
440.493	1639.88
440.715	1690.88
440.936	1716.88
441.158	1711.88
441.379	1732.88
441.6	1817.88
441.822	1814.88
442.043	1834.88
442.264	1735.88
442.486	1735.88
442.707	1767.88
442.928	1779.88
443.149	1749.88
443.371	1776.88
443.592	1809.88
443.813	1802.88
444.034	1824.88
444.255	1880.88
444.476	1915.88
444.698	1987.88
444.919	2032.88
445.14	2144.88
445.361	1947.88
445.582	1862.88
445.803	1808.88
446.024	1737.88
446.245	1729.88
446.466	1672.88
446.687	1654.88
446.908	1672.88
447.129	1621.88
447.35	1575.88
447.571	1588.88
447.792	1523.88
448.013	1535.88
448.234	1524.88
448.455	1522.88
448.675	1505.88
448.896	1522.88
449.117	1466.88
449.338	1488.88
449.559	1459.88
449.779	1495.88
450	1448.88
450.221	1433.88
450.442	1450.88
450.662	1486.88
450.883	1492.88
451.104	1490.88
451.324	1486.88
451.545	1503.88
451.766	1506.88
451.986	1478.88
452.207	1465.88
452.428	1492.88
452.648	1469.88
452.869	1423.88
453.089	1432.88
453.31	1470.88
453.53	1438.88
453.751	1436.88
453.971	1439.88
454.192	1448.88
454.412	1407.88
454.633	1402.88
454.853	1433.88
455.073	1425.88
455.294	1400.88
455.514	1385.88
455.734	1388.88
455.955	1394.88
456.175	1393.88
456.395	1374.88
456.616	1370.88
456.836	1398.88
457.056	1404.88
457.276	1341.88
457.497	1388.88
457.717	1392.88
457.937	1408.88
458.157	1418.88
458.377	1450.88
458.598	1486.88
458.818	1504.88
459.038	1564.88
459.258	1588.88
459.478	1640.88
459.698	1698.88
459.918	1705.88
460.138	1796.88
460.358	1816.88
460.578	1850.88
460.798	1871.88
461.018	1918.88
461.238	1883.88
461.458	1909.88
461.678	1862.88
461.898	1874.88
462.118	1912.88
462.338	2022.88
462.558	2055.88
462.777	2100.88
462.997	2218.88
463.217	2381.88
463.437	2390.88
463.657	2266.88
463.876	2166.88
464.096	2150.88
464.316	2164.88
464.536	2139.88
464.755	2061.88
464.975	2035.88
465.195	1941.88
465.414	1911.88
465.634	1714.88
465.854	1698.88
466.073	1686.88
466.293	1651.88
466.512	1574.88
466.732	1586.88
466.951	1601.88
467.171	1573.88
467.391	1555.88
467.61	1571.88
467.829	1566.88
468.049	1570.88
468.268	1503.88
468.488	1499.88
468.707	1517.88
468.927	1513.88
469.146	1485.88
469.365	1539.88
469.585	1520.88
469.804	1539.88
470.023	1580.88
470.243	1604.88
470.462	1604.88
470.681	1605.88
470.901	1593.88
471.12	1600.88
471.339	1560.88
471.558	1521.88
471.777	1511.88
471.997	1516.88
472.216	1509.88
472.435	1537.88
472.654	1526.88
472.873	1476.88
473.092	1465.88
473.311	1487.88
473.53	1482.88
473.749	1490.88
473.968	1477.88
474.187	1490.88
474.406	1463.88
474.625	1456.88
474.844	1517.88
475.063	1501.88
475.282	1520.88
475.501	1504.88
475.72	1520.88
475.939	1560.88
476.158	1569.88
476.377	1595.88
476.596	1571.88
476.814	1587.88
477.033	1588.88
477.252	1641.88
477.471	1663.88
477.69	1649.88
477.908	1738.88
478.127	1746.88
478.346	1766.88
478.564	1822.88
478.783	1793.88
479.002	1896.88
479.22	1858.88
479.439	1887.88
479.658	1841.88
479.876	1838.88
480.095	1912.88
480.313	1949.88
480.532	1952.88
480.751	1986.88
480.969	1928.88
481.188	1904.88
481.406	1873.88
481.624	1800.88
481.843	1817.88
482.061	1820.88
482.28	1823.88
482.498	1808.88
482.717	1816.88
482.935	1800.88
483.153	1837.88
483.372	1805.88
483.59	1822.88
483.808	1848.88
484.027	1884.88
484.245	1895.88
484.463	1881.88
484.681	1906.88
484.9	1932.88
485.118	1918.88
485.336	1925.88
485.554	1988.88
485.772	1965.88
485.99	1954.88
486.209	1945.88
486.427	1942.88
486.645	1970.88
486.863	1946.88
487.081	1944.88
487.299	1944.88
487.517	1963.88
487.735	1929.88
487.953	1949.88
488.171	1926.88
488.389	1858.88
488.607	1919.88
488.825	1910.88
489.043	1875.88
489.261	1858.88
489.479	1864.88
489.696	1871.88
489.914	1904.88
490.132	1889.88
490.35	1890.88
490.568	1889.88
490.786	1863.88
491.003	1879.88
491.221	1848.88
491.439	1852.88
491.657	1862.88
491.874	1935.88
492.092	1875.88
492.31	1887.88
492.527	1914.88
492.745	1893.88
492.963	1892.88
493.18	1914.88
493.398	1904.88
493.615	1881.88
493.833	1909.88
494.05	1891.88
494.268	1881.88
494.485	1902.88
494.703	1916.88
494.92	1907.88
495.138	1937.88
495.355	1948.88
495.573	1932.88
495.79	1974.88
496.008	2033.88
496.225	1948.88
496.442	1963.88
496.66	1982.88
496.877	2015.88
497.094	2037.88
497.312	2064.88
497.529	2088.88
497.746	2160.88
497.963	2263.88
498.181	2289.88
498.398	2425.88
498.615	2536.88
498.832	2723.88
499.049	2884.88
499.267	3081.88
499.484	3294.88
499.701	3560.88
499.918	3872.88
500.135	4296.88
500.352	4701.88
500.569	4870.88
500.786	4756.88
501.003	4610.88
501.22	4226.88
501.437	3861.88
501.654	3400.88
501.871	3200.88
502.088	3004.88
502.305	2806.88
502.522	2676.88
502.739	2555.88
502.956	2412.88
503.172	2402.88
503.389	2277.88
503.606	2182.88
503.823	2170.88
504.04	2118.88
504.256	2142.88
504.473	2183.88
504.69	2163.88
504.907	2121.88
505.123	2027.88
505.34	1927.88
505.557	1905.88
505.773	1816.88
505.99	1779.88
506.207	1790.88
506.423	1745.88
506.64	1721.88
506.856	1686.88
507.073	1664.88
507.289	1655.88
507.506	1649.88
507.722	1639.88
507.939	1593.88
508.155	1588.88
508.372	1593.88
508.588	1591.88
508.805	1554.88
509.021	1543.88
509.238	1566.88
509.454	1575.88
509.67	1560.88
509.887	1529.88
510.103	1535.88
510.319	1521.88
510.536	1509.88
510.752	1497.88
510.968	1517.88
511.184	1506.88
511.401	1471.88
511.617	1499.88
511.833	1485.88
512.049	1462.88
512.265	1459.88
512.481	1481.88
512.698	1490.88
512.914	1492.88
513.13	1456.88
513.346	1456.88
513.562	1487.88
513.778	1497.88
513.994	1469.88
514.21	1501.88
514.426	1510.88
514.642	1516.88
514.858	1511.88
515.074	1551.88
515.29	1547.88
515.506	1567.88
515.721	1566.88
515.937	1617.88
516.153	1611.88
516.369	1654.88
516.585	1703.88
516.801	1689.88
517.016	1773.88
517.232	1821.88
517.448	1904.88
517.664	1950.88
517.879	1940.88
518.095	1985.88
518.311	1957.88
518.527	1872.88
518.742	1844.88
518.958	1741.88
519.173	1692.88
519.389	1658.88
519.605	1646.88
519.82	1553.88
520.036	1585.88
520.251	1580.88
520.467	1541.88
520.682	1485.88
520.898	1489.88
521.113	1454.88
521.329	1448.88
521.544	1456.88
521.76	1443.88
521.975	1412.88
522.19	1429.88
522.406	1403.88
522.621	1411.88
522.836	1415.88
523.052	1356.88
523.267	1363.88
523.482	1359.88
523.698	1348.88
523.913	1365.88
524.128	1388.88
524.343	1372.88
524.559	1357.88
524.774	1347.88
524.989	1336.88
525.204	1340.88
525.419	1329.88
525.634	1308.88
525.849	1322.88
526.064	1332.88
526.28	1294.88
526.495	1289.88
526.71	1280.88
526.925	1309.88
527.14	1332.88
527.355	1304.88
527.57	1321.88
527.785	1313.88
527.999	1325.88
528.214	1338.88
528.429	1296.88
528.644	1305.88
528.859	1318.88
529.074	1270.88
529.289	1312.88
529.503	1327.88
529.718	1321.88
529.933	1268.88
530.148	1298.88
530.363	1346.88
530.577	1280.88
530.792	1285.88
531.007	1302.88
531.221	1305.88
531.436	1321.88
531.651	1294.88
531.865	1300.88
532.08	1289.88
532.295	1264.88
532.509	1290.88
532.724	1299.88
532.938	1297.88
533.153	1284.88
533.367	1315.88
533.582	1286.88
533.796	1304.88
534.011	1281.88
534.225	1294.88
534.44	1249.88
534.654	1252.88
534.868	1241.88
535.083	1286.88
535.297	1237.88
535.511	1249.88
535.726	1239.88
535.94	1249.88
536.154	1232.88
536.369	1233.88
536.583	1220.88
536.797	1192.88
537.011	1187.88
537.225	1209.88
537.44	1245.88
537.654	1229.88
537.868	1180.88
538.082	1177.88
538.296	1154.88
538.51	1196.88
538.724	1179.88
538.938	1179.88
539.153	1165.88
539.367	1169.88
539.581	1177.88
539.795	1160.88
540.009	1150.88
540.222	1169.88
540.436	1146.88
540.65	1138.88
540.864	1140.88
541.078	1156.88
541.292	1150.88
541.506	1133.88
541.72	1156.88
541.934	1181.88
542.147	1156.88
542.361	1136.88
542.575	1128.88
542.789	1124.88
543.002	1109.88
543.216	1120.88
543.43	1142.88
543.644	1086.88
543.857	1125.88
544.071	1133.88
544.285	1138.88
544.498	1124.88
544.712	1113.88
544.925	1175.88
545.139	1171.88
545.352	1166.88
545.566	1166.88
545.779	1146.88
545.993	1163.88
546.206	1146.88
546.42	1144.88
546.633	1193.88
546.847	1150.88
547.06	1161.88
547.274	1157.88
547.487	1162.88
547.7	1140.88
547.914	1158.88
548.127	1186.88
548.34	1173.88
548.554	1181.88
548.767	1167.88
548.98	1182.88
549.193	1168.88
549.407	1184.88
549.62	1197.88
549.833	1178.88
550.046	1164.88
550.259	1182.88
550.473	1136.88
550.686	1170.88
550.899	1188.88
551.112	1173.88
551.325	1138.88
551.538	1139.88
551.751	1123.88
551.964	1152.88
552.177	1160.88
552.39	1168.88
552.603	1228.88
552.816	1215.88
553.029	1230.88
553.242	1252.88
553.455	1241.88
553.667	1251.88
553.88	1235.88
554.093	1192.88
554.306	1184.88
554.519	1152.88
554.732	1148.88
554.944	1116.88
555.157	1125.88
555.37	1073.88
555.583	1081.88
555.795	1062.88
556.008	1052.88
556.221	1038.88
556.433	1047.88
556.646	999.88
556.859	1034.88
557.071	1011.88
557.284	1022.88
557.496	967.88
557.709	1048.88
557.921	1024.88
558.134	985.88
558.346	1001.88
558.559	969.88
558.771	979.88
558.984	948.88
559.196	983.88
559.409	992.88
559.621	961.88
559.833	909.88
560.046	931.88
560.258	957.88
560.47	904.88
560.683	932.88
560.895	965.88
561.107	955.88
561.32	969.88
561.532	944.88
561.744	969.88
561.956	975.88
562.168	960.88
562.381	958.88
562.593	959.88
562.805	961.88
563.017	958.88
563.229	983.88
563.441	956.88
563.653	983.88
563.865	1015.88
564.077	995.88
564.289	982.88
564.501	1007.88
564.713	1046.88
564.925	1019.88
565.137	1101.88
565.349	1065.88
565.561	1107.88
565.773	1141.88
565.985	1191.88
566.197	1224.88
566.408	1322.88
566.62	1423.88
566.832	1490.88
567.044	1493.88
567.255	1515.88
567.467	1541.88
567.679	1620.88
567.891	1688.88
568.102	1712.88
568.314	1610.88
568.526	1488.88
568.737	1373.88
568.949	1308.88
569.161	1223.88
569.372	1126.88
569.584	1078.88
569.795	1087.88
570.007	1021.88
570.218	999.88
570.43	999.88
570.641	986.88
570.853	954.88
571.064	950.88
571.276	959.88
571.487	956.88
571.698	918.88
571.91	882.88
572.121	880.88
572.333	865.88
572.544	831.88
572.755	813.88
572.966	811.88
573.178	803.88
573.389	797.88
573.6	789.88
573.811	788.88
574.023	777.88
574.234	819.88
574.445	779.88
574.656	778.88
574.867	770.88
575.078	778.88
575.289	770.88
575.501	754.88
575.712	756.88
575.923	764.88
576.134	746.88
576.345	740.88
576.556	727.88
576.767	738.88
576.978	742.88
577.188	737.88
577.399	720.88
577.61	700.88
577.821	705.88
578.032	704.88
578.243	714.88
578.454	718.88
578.665	709.88
578.875	691.88
579.086	658.88
579.297	666.88
579.508	701.88
579.718	681.88
579.929	707.88
580.14	676.88
580.35	650.88
580.561	685.88
580.772	659.88
580.982	655.88
581.193	666.88
581.403	649.88
581.614	688.88
581.825	670.88
582.035	635.88
582.246	658.88
582.456	659.88
582.667	671.88
582.877	649.88
583.087	647.88
583.298	649.88
583.508	667.88
583.719	638.88
583.929	629.88
584.139	655.88
584.35	642.88
584.56	629.88
584.77	611.88
584.981	625.88
585.191	652.88
585.401	630.88
585.611	609.88
585.821	638.88
586.032	624.88
586.242	649.88
586.452	621.88
586.662	616.88
586.872	612.88
587.082	621.88
587.292	622.88
587.502	597.88
587.713	642.88
587.923	615.88
588.133	630.88
588.343	619.88
588.553	609.88
588.762	610.88
588.972	609.88
589.182	656.88
589.392	641.88
589.602	622.88
589.812	645.88
590.022	622.88
590.232	624.88
590.441	643.88
590.651	637.88
590.861	622.88
591.071	634.88
591.281	634.88
591.49	650.88
591.7	661.88
591.91	638.88
592.119	641.88
592.329	679.88
592.539	673.88
592.748	704.88
592.958	732.88
593.167	729.88
593.377	734.88
593.587	772.88
593.796	755.88
594.006	765.88
594.215	770.88
594.424	750.88
594.634	720.88
594.843	704.88
595.053	687.88
595.262	696.88
595.472	660.88
595.681	617.88
595.89	625.88
596.1	607.88
596.309	612.88
596.518	602.88
596.727	599.88
596.937	561.88
597.146	592.88
597.355	574.88
597.564	565.88
597.774	542.88
597.983	527.88
598.192	530.88
598.401	517.88
598.61	534.88
598.819	557.88
599.028	531.88
599.237	537.88
599.446	520.88
599.655	547.88
599.864	503.88
600.073	528.88
600.282	522.88
600.491	520.88
600.7	534.88
600.909	514.88
601.118	510.88
601.327	501.88
601.536	499.88
601.745	511.88
601.953	497.88
602.162	501.88
602.371	477.88
602.58	483.88
602.789	490.88
602.997	506.88
603.206	467.88
603.415	489.88
603.623	494.88
603.832	467.88
604.041	458.88
604.249	472.88
604.458	483.88
604.666	473.88
604.875	462.88
605.084	464.88
605.292	478.88
605.501	463.88
605.709	446.88
605.918	479.88
606.126	461.88
606.334	456.88
606.543	468.88
606.751	469.88
606.96	448.88
607.168	468.88
607.376	435.88
607.585	458.88
607.793	448.88
608.001	460.88
608.21	450.88
608.418	437.88
608.626	424.88
608.834	442.88
609.043	440.88
609.251	456.88
609.459	446.88
609.667	448.88
609.875	456.88
610.083	443.88
610.291	442.88
610.499	456.88
610.707	473.88
610.916	448.88
611.124	439.88
611.332	431.88
611.54	416.88
611.748	448.88
611.955	446.88
612.163	422.88
612.371	447.88
612.579	441.88
612.787	445.88
612.995	424.88
613.203	416.88
613.411	433.88
613.618	437.88
613.826	419.88
614.034	417.88
614.242	420.88
614.449	438.88
614.657	424.88
614.865	424.88
615.072	415.88
615.28	435.88
615.488	421.88
615.695	435.88
615.903	425.88
616.111	438.88
616.318	437.88
616.526	438.88
616.733	432.88
616.941	454.88
617.148	411.88
617.356	413.88
617.563	433.88
617.771	430.88
617.978	409.88
618.185	428.88
618.393	389.88
618.6	437.88
618.807	428.88
619.015	423.88
619.222	423.88
619.429	402.88
619.637	413.88
619.844	414.88
620.051	420.88
620.258	406.88
620.466	392.88
620.673	374.88
620.88	389.88
621.087	358.88
621.294	400.88
621.501	377.88
621.708	390.88
621.915	389.88
622.122	393.88
622.329	389.88
622.536	381.88
622.743	394.88
622.95	389.88
623.157	373.88
623.364	397.88
623.571	392.88
623.778	380.88
623.985	393.88
624.192	372.88
624.399	372.88
624.606	391.88
624.812	375.88
625.019	362.88
625.226	359.88
625.433	360.88
625.639	378.88
625.846	374.88
626.053	370.88
626.259	361.88
626.466	368.88
626.673	360.88
626.879	374.88
627.086	365.88
627.293	374.88
627.499	354.88
627.706	364.88
627.912	342.88
628.119	347.88
628.325	346.88
628.532	343.88
628.738	336.88
628.945	340.88
629.151	362.88
629.357	341.88
629.564	345.88
629.77	349.88
629.976	342.88
630.183	334.88
630.389	346.88
630.595	317.88
630.802	320.88
631.008	344.88
631.214	344.88
631.42	340.88
631.627	339.88
631.833	317.88
632.039	328.88
632.245	330.88
632.451	337.88
632.657	335.88
632.863	317.88
633.069	312.88
633.275	314.88
633.481	308.88
633.688	295.88
633.893	316.88
634.099	306.88
634.305	320.88
634.511	321.88
634.717	317.88
634.923	301.88
635.129	312.88
635.335	317.88
635.541	336.88
635.747	316.88
635.952	320.88
636.158	289.88
636.364	317.88
636.57	322.88
636.775	299.88
636.981	298.88
637.187	312.88
637.392	295.88
637.598	310.88
637.804	311.88
638.009	302.88
638.215	305.88
638.421	295.88
638.626	287.88
638.832	285.88
639.037	293.88
639.243	285.88
639.448	295.88
639.654	312.88
639.859	292.88
640.065	312.88
640.27	281.88
640.475	287.88
640.681	264.88
640.886	296.88
641.091	301.88
641.297	284.88
641.502	310.88
641.707	303.88
641.913	291.88
642.118	283.88
642.323	285.88
642.528	279.88
642.733	284.88
642.939	272.88
643.144	272.88
643.349	285.88
643.554	286.88
643.759	285.88
643.964	266.88
644.169	279.88
644.374	278.88
644.579	266.88
644.784	274.88
644.989	280.88
645.194	285.88
645.399	296.88
645.604	278.88
645.809	308.88
646.014	304.88
646.219	291.88
646.423	288.88
646.628	289.88
646.833	278.88
647.038	300.88
647.243	308.88
647.447	279.88
647.652	278.88
647.857	305.88
648.062	318.88
648.266	300.88
648.471	294.88
648.676	288.88
648.88	306.88
649.085	322.88
649.289	301.88
649.494	297.88
649.698	308.88
649.903	300.88
650.107	289.88
650.312	294.88
650.516	289.88
650.721	300.88
650.925	290.88
651.13	265.88
651.334	272.88
651.539	292.88
651.743	284.88
651.947	271.88
652.152	262.88
652.356	272.88
652.56	289.88
652.764	261.88
652.969	255.88
653.173	265.88
653.377	290.88
653.581	276.88
653.785	248.88
653.99	292.88
654.194	287.88
654.398	267.88
654.602	272.88
654.806	281.88
655.01	290.88
655.214	290.88
655.418	308.88
655.622	311.88
655.826	330.88
656.03	316.88
656.234	345.88
656.438	369.88
656.642	378.88
656.846	353.88
657.049	317.88
657.253	305.88
657.457	281.88
657.661	245.88
657.865	217.88
658.068	202.88
658.272	208.88
658.476	186.88
658.68	177.88
658.883	170.88
659.087	132.88
659.291	153.88
659.494	137.88
659.698	147.88
659.901	153.88
660.105	137.88
660.309	122.88
660.512	115.88
660.716	118.88
660.919	108.88
661.123	118.88
661.326	106.88
661.53	113.88
661.733	103.88
661.936	102.88
662.14	88.88
662.343	94.88
662.546	86.88
662.75	100.88
662.953	92.88
663.156	82.88
663.36	88.88
663.563	79.88
663.766	88.88
663.969	81.88
664.173	78.88
664.376	74.88
664.579	87.88
664.782	89.88
664.985	83.88
665.188	94.88
665.391	95.88
665.594	62.88
665.797	78.88
666	77.88
666.203	84.88
666.406	82.88
666.609	72.88
666.812	88.88
667.015	87.88
667.218	80.88
667.421	78.88
667.624	78.88
667.827	82.88
668.03	67.88
668.232	72.88
668.435	84.88
668.638	85.88
668.841	85.88
669.043	91.88
669.246	92.88
669.449	78.88
669.651	85.88
669.854	93.88
670.057	74.88
670.259	83.88
670.462	86.88
670.665	82.88
670.867	76.88
671.07	82.88
671.272	86.88
671.475	63.88
671.677	71.88
671.88	84.88
672.082	74.88
672.284	78.88
672.487	76.88
672.689	79.88
672.892	90.88
