Data from NiCl2@0.125M.TitratingCurve.Agarose3%dH2O.NegLispCup.LampEnergy10.LIBS07252019_HRD10591_18-27-38-574.txt Node
Date: Thu Jul 25 18:27:38 EDT 2019
User: cochatt
Spectrometer: HR+D1059
Trigger mode: 1
Integration Time (sec): 1.000000E-1
Scans to average: 1
Electric dark correction enabled: true
Nonlinearity correction enabled: false
Boxcar width: 0
XAxis mode: Wavelengths
Number of Pixels in Spectrum: 2048
>>>>>Begin Spectral Data<<<<<
223.165	-1.56
223.4	-1.56
223.635	-1.56
223.869	-11.56
224.104	-14.56
224.338	-17.56
224.573	-7.56
224.808	-21.56
225.042	-9.56
225.277	-14.56
225.511	-8.56
225.746	3.44
225.98	4.44
226.215	17.44
226.449	10.44
226.683	18.44
226.918	34.44
227.152	18.44
227.387	28.44
227.621	31.44
227.856	42.44
228.09	44.44
228.324	41.44
228.559	68.44
228.793	78.44
229.027	133.44
229.262	133.44
229.496	140.44
229.73	131.44
229.964	140.44
230.199	145.44
230.433	156.44
230.667	177.44
230.901	159.44
231.136	155.44
231.37	167.44
231.604	170.44
231.838	179.44
232.072	179.44
232.306	163.44
232.541	172.44
232.775	153.44
233.009	185.44
233.243	182.44
233.477	174.44
233.711	171.44
233.945	174.44
234.179	182.44
234.413	195.44
234.647	193.44
234.881	197.44
235.115	173.44
235.349	190.44
235.583	192.44
235.817	197.44
236.051	194.44
236.285	190.44
236.519	189.44
236.753	187.44
236.987	199.44
237.221	198.44
237.455	203.44
237.689	195.44
237.922	207.44
238.156	211.44
238.39	201.44
238.624	202.44
238.858	225.44
239.091	206.44
239.325	222.44
239.559	224.44
239.793	206.44
240.027	236.44
240.26	243.44
240.494	227.44
240.728	230.44
240.961	235.44
241.195	244.44
241.429	233.44
241.662	253.44
241.896	233.44
242.13	267.44
242.363	247.44
242.597	266.44
242.83	249.44
243.064	250.44
243.298	264.44
243.531	252.44
243.765	270.44
243.998	269.44
244.232	279.44
244.465	280.44
244.699	271.44
244.932	259.44
245.166	278.44
245.399	283.44
245.633	258.44
245.866	277.44
246.099	277.44
246.333	303.44
246.566	282.44
246.8	293.44
247.033	280.44
247.266	305.44
247.5	297.44
247.733	282.44
247.966	286.44
248.2	303.44
248.433	316.44
248.666	305.44
248.899	294.44
249.133	318.44
249.366	337.44
249.599	307.44
249.832	336.44
250.066	317.44
250.299	344.44
250.532	331.44
250.765	326.44
250.998	340.44
251.231	349.44
251.465	324.44
251.698	345.44
251.931	346.44
252.164	327.44
252.397	354.44
252.63	374.44
252.863	363.44
253.096	372.44
253.329	381.44
253.562	347.44
253.795	364.44
254.028	358.44
254.261	371.44
254.494	369.44
254.727	370.44
254.96	374.44
255.193	378.44
255.426	371.44
255.659	366.44
255.892	374.44
256.124	391.44
256.357	372.44
256.59	390.44
256.823	380.44
257.056	398.44
257.289	391.44
257.521	392.44
257.754	391.44
257.987	400.44
258.22	385.44
258.452	399.44
258.685	421.44
258.918	386.44
259.151	411.44
259.383	416.44
259.616	403.44
259.849	405.44
260.081	417.44
260.314	437.44
260.547	407.44
260.779	427.44
261.012	423.44
261.244	429.44
261.477	435.44
261.71	426.44
261.942	435.44
262.175	441.44
262.407	421.44
262.64	441.44
262.872	433.44
263.105	446.44
263.337	449.44
263.57	486.44
263.802	459.44
264.035	437.44
264.267	451.44
264.499	454.44
264.732	446.44
264.964	453.44
265.197	467.44
265.429	469.44
265.661	454.44
265.894	484.44
266.126	500.44
266.358	487.44
266.591	466.44
266.823	495.44
267.055	484.44
267.287	491.44
267.52	483.44
267.752	506.44
267.984	475.44
268.216	514.44
268.448	468.44
268.681	501.44
268.913	490.44
269.145	505.44
269.377	526.44
269.609	501.44
269.841	517.44
270.073	512.44
270.306	511.44
270.538	508.44
270.77	516.44
271.002	511.44
271.234	546.44
271.466	515.44
271.698	517.44
271.93	518.44
272.162	529.44
272.394	511.44
272.626	510.44
272.858	546.44
273.09	547.44
273.322	541.44
273.553	539.44
273.785	553.44
274.017	566.44
274.249	553.44
274.481	543.44
274.713	529.44
274.945	552.44
275.176	575.44
275.408	575.44
275.64	562.44
275.872	561.44
276.104	585.44
276.335	568.44
276.567	562.44
276.799	583.44
277.031	565.44
277.262	569.44
277.494	578.44
277.726	591.44
277.957	573.44
278.189	593.44
278.421	589.44
278.652	585.44
278.884	586.44
279.115	577.44
279.347	627.44
279.579	597.44
279.81	591.44
280.042	620.44
280.273	636.44
280.505	597.44
280.736	622.44
280.968	633.44
281.199	620.44
281.431	636.44
281.662	609.44
281.894	625.44
282.125	645.44
282.356	639.44
282.588	648.44
282.819	645.44
283.051	636.44
283.282	630.44
283.513	648.44
283.745	637.44
283.976	631.44
284.207	653.44
284.439	651.44
284.67	652.44
284.901	655.44
285.132	674.44
285.364	649.44
285.595	665.44
285.826	659.44
286.057	695.44
286.288	697.44
286.52	693.44
286.751	682.44
286.982	710.44
287.213	707.44
287.444	674.44
287.675	682.44
287.906	726.44
288.138	691.44
288.369	703.44
288.6	714.44
288.831	720.44
289.062	696.44
289.293	690.44
289.524	713.44
289.755	689.44
289.986	719.44
290.217	711.44
290.448	715.44
290.679	726.44
290.91	695.44
291.141	732.44
291.371	700.44
291.602	717.44
291.833	743.44
292.064	715.44
292.295	738.44
292.526	705.44
292.757	700.44
292.987	701.44
293.218	706.44
293.449	733.44
293.68	740.44
293.91	722.44
294.141	727.44
294.372	714.44
294.603	715.44
294.833	708.44
295.064	733.44
295.295	721.44
295.525	731.44
295.756	749.44
295.987	723.44
296.217	737.44
296.448	751.44
296.679	745.44
296.909	756.44
297.14	737.44
297.37	768.44
297.601	778.44
297.831	776.44
298.062	790.44
298.292	796.44
298.523	808.44
298.753	821.44
298.984	761.44
299.214	782.44
299.445	803.44
299.675	791.44
299.905	783.44
300.136	791.44
300.366	783.44
300.597	797.44
300.827	811.44
301.057	835.44
301.288	828.44
301.518	824.44
301.748	817.44
301.979	815.44
302.209	855.44
302.439	799.44
302.669	858.44
302.9	793.44
303.13	824.44
303.36	798.44
303.59	823.44
303.82	809.44
304.051	846.44
304.281	844.44
304.511	826.44
304.741	812.44
304.971	822.44
305.201	803.44
305.431	845.44
305.661	838.44
305.891	818.44
306.121	778.44
306.352	811.44
306.582	835.44
306.812	780.44
307.042	797.44
307.272	802.44
307.502	812.44
307.731	821.44
307.961	802.44
308.191	804.44
308.421	824.44
308.651	844.44
308.881	790.44
309.111	815.44
309.341	801.44
309.571	789.44
309.8	807.44
310.03	815.44
310.26	810.44
310.49	782.44
310.72	811.44
310.949	812.44
311.179	817.44
311.409	815.44
311.639	845.44
311.868	822.44
312.098	833.44
312.328	833.44
312.557	844.44
312.787	860.44
313.017	852.44
313.246	865.44
313.476	869.44
313.706	868.44
313.935	875.44
314.165	922.44
314.394	877.44
314.624	877.44
314.853	869.44
315.083	871.44
315.312	851.44
315.542	840.44
315.771	878.44
316.001	879.44
316.23	890.44
316.46	860.44
316.689	863.44
316.919	862.44
317.148	877.44
317.377	872.44
317.607	829.44
317.836	843.44
318.065	859.44
318.295	854.44
318.524	850.44
318.753	869.44
318.983	865.44
319.212	828.44
319.441	826.44
319.67	866.44
319.9	839.44
320.129	842.44
320.358	862.44
320.587	858.44
320.816	865.44
321.046	874.44
321.275	869.44
321.504	862.44
321.733	857.44
321.962	837.44
322.191	899.44
322.42	844.44
322.649	849.44
322.878	875.44
323.108	839.44
323.337	844.44
323.566	866.44
323.795	914.44
324.024	925.44
324.253	872.44
324.482	891.44
324.71	897.44
324.939	915.44
325.168	922.44
325.397	900.44
325.626	901.44
325.855	906.44
326.084	915.44
326.313	966.44
326.542	939.44
326.77	962.44
326.999	953.44
327.228	927.44
327.457	950.44
327.686	925.44
327.914	939.44
328.143	954.44
328.372	961.44
328.6	953.44
328.829	922.44
329.058	940.44
329.287	940.44
329.515	967.44
329.744	962.44
329.972	951.44
330.201	968.44
330.43	971.44
330.658	985.44
330.887	983.44
331.115	987.44
331.344	980.44
331.572	1021.44
331.801	1026.44
332.03	1061.44
332.258	1085.44
332.486	1113.44
332.715	1151.44
332.943	1180.44
333.172	1230.44
333.4	1294.44
333.629	1273.44
333.857	1339.44
334.085	1283.44
334.314	1267.44
334.542	1237.44
334.771	1226.44
334.999	1213.44
335.227	1186.44
335.455	1194.44
335.684	1177.44
335.912	1153.44
336.14	1173.44
336.369	1133.44
336.597	1128.44
336.825	1138.44
337.053	1137.44
337.281	1109.44
337.51	1075.44
337.738	1090.44
337.966	1086.44
338.194	1093.44
338.422	1012.44
338.65	1035.44
338.878	1018.44
339.106	1042.44
339.334	1035.44
339.562	1009.44
339.79	980.44
340.018	1009.44
340.246	986.44
340.474	998.44
340.702	1009.44
340.93	1010.44
341.158	1003.44
341.386	1015.44
341.614	1001.44
341.842	965.44
342.07	982.44
342.298	986.44
342.526	966.44
342.754	969.44
342.981	996.44
343.209	1009.44
343.437	1091.44
343.665	1131.44
343.893	1207.44
344.12	1242.44
344.348	1195.44
344.576	1139.44
344.804	1075.44
345.031	1029.44
345.259	1027.44
345.487	1014.44
345.714	1006.44
345.942	954.44
346.17	979.44
346.397	956.44
346.625	966.44
346.853	940.44
347.08	942.44
347.308	929.44
347.535	950.44
347.763	967.44
347.99	977.44
348.218	977.44
348.445	966.44
348.673	947.44
348.9	947.44
349.128	950.44
349.355	948.44
349.583	921.44
349.81	933.44
350.037	923.44
350.265	900.44
350.492	929.44
350.72	906.44
350.947	891.44
351.174	929.44
351.402	925.44
351.629	931.44
351.856	933.44
352.083	930.44
352.311	906.44
352.538	901.44
352.765	930.44
352.992	918.44
353.22	892.44
353.447	893.44
353.674	886.44
353.901	888.44
354.128	894.44
354.355	918.44
354.583	928.44
354.81	910.44
355.037	884.44
355.264	917.44
355.491	918.44
355.718	926.44
355.945	910.44
356.172	914.44
356.399	925.44
356.626	909.44
356.853	915.44
357.08	939.44
357.307	913.44
357.534	918.44
357.761	920.44
357.988	919.44
358.215	914.44
358.441	910.44
358.668	867.44
358.895	906.44
359.122	909.44
359.349	931.44
359.576	916.44
359.802	909.44
360.029	909.44
360.256	911.44
360.483	924.44
360.709	940.44
360.936	926.44
361.163	918.44
361.39	940.44
361.616	911.44
361.843	930.44
362.07	886.44
362.296	907.44
362.523	916.44
362.749	894.44
362.976	920.44
363.203	914.44
363.429	895.44
363.656	907.44
363.882	919.44
364.109	917.44
364.335	899.44
364.562	886.44
364.788	911.44
365.015	891.44
365.241	915.44
365.468	903.44
365.694	892.44
365.92	911.44
366.147	890.44
366.373	918.44
366.599	923.44
366.826	908.44
367.052	909.44
367.278	914.44
367.505	942.44
367.731	918.44
367.957	902.44
368.184	936.44
368.41	940.44
368.636	947.44
368.862	915.44
369.089	953.44
369.315	954.44
369.541	948.44
369.767	947.44
369.993	958.44
370.219	951.44
370.445	983.44
370.672	981.44
370.898	976.44
371.124	1011.44
371.35	1012.44
371.576	995.44
371.802	1016.44
372.028	986.44
372.254	998.44
372.48	1019.44
372.706	1010.44
372.932	1052.44
373.158	1035.44
373.384	1034.44
373.61	991.44
373.835	1015.44
374.061	1035.44
374.287	1009.44
374.513	1059.44
374.739	1084.44
374.965	1120.44
375.191	1132.44
375.416	1153.44
375.642	1111.44
375.868	1073.44
376.094	1009.44
376.319	1031.44
376.545	1004.44
376.771	1018.44
376.997	1030.44
377.222	1020.44
377.448	1011.44
377.674	1005.44
377.899	999.44
378.125	957.44
378.35	959.44
378.576	1000.44
378.802	993.44
379.027	962.44
379.253	1000.44
379.478	996.44
379.704	979.44
379.929	977.44
380.155	984.44
380.38	996.44
380.606	984.44
380.831	955.44
381.057	998.44
381.282	999.44
381.507	1025.44
381.733	1004.44
381.958	1029.44
382.184	1021.44
382.409	1035.44
382.634	1060.44
382.86	1057.44
383.085	1050.44
383.31	1076.44
383.535	1084.44
383.761	1100.44
383.986	1138.44
384.211	1180.44
384.436	1164.44
384.662	1197.44
384.887	1237.44
385.112	1202.44
385.337	1216.44
385.562	1193.44
385.787	1226.44
386.013	1218.44
386.238	1233.44
386.463	1215.44
386.688	1239.44
386.913	1197.44
387.138	1217.44
387.363	1182.44
387.588	1198.44
387.813	1177.44
388.038	1186.44
388.263	1187.44
388.488	1203.44
388.713	1169.44
388.938	1204.44
389.163	1181.44
389.387	1172.44
389.612	1164.44
389.837	1160.44
390.062	1201.44
390.287	1173.44
390.512	1173.44
390.736	1164.44
390.961	1226.44
391.186	1219.44
391.411	1278.44
391.636	1301.44
391.86	1323.44
392.085	1377.44
392.31	1374.44
392.534	1328.44
392.759	1311.44
392.984	1260.44
393.208	1273.44
393.433	1268.44
393.658	1312.44
393.882	1306.44
394.107	1304.44
394.331	1322.44
394.556	1326.44
394.78	1313.44
395.005	1319.44
395.229	1309.44
395.454	1350.44
395.678	1381.44
395.903	1342.44
396.127	1361.44
396.352	1299.44
396.576	1300.44
396.801	1251.44
397.025	1291.44
397.249	1322.44
397.474	1343.44
397.698	1395.44
397.922	1389.44
398.147	1345.44
398.371	1407.44
398.595	1429.44
398.82	1533.44
399.044	1603.44
399.268	1810.44
399.492	2116.44
399.717	2419.44
399.941	2386.44
400.165	2081.44
400.389	1847.44
400.613	1659.44
400.837	1601.44
401.062	1567.44
401.286	1563.44
401.51	1526.44
401.734	1516.44
401.958	1563.44
402.182	1541.44
402.406	1598.44
402.63	1598.44
402.854	1627.44
403.078	1646.44
403.302	1698.44
403.526	1749.44
403.75	1787.44
403.974	1801.44
404.198	1789.44
404.422	1786.44
404.645	1763.44
404.869	1755.44
405.093	1716.44
405.317	1701.44
405.541	1702.44
405.765	1721.44
405.988	1658.44
406.212	1660.44
406.436	1696.44
406.66	1741.44
406.883	1760.44
407.107	1844.44
407.331	1974.44
407.555	2012.44
407.778	2039.44
408.002	1935.44
408.226	1892.44
408.449	1806.44
408.673	1753.44
408.896	1728.44
409.12	1702.44
409.344	1757.44
409.567	1724.44
409.791	1736.44
410.014	1730.44
410.238	1751.44
410.461	1746.44
410.685	1670.44
410.908	1678.44
411.132	1597.44
411.355	1596.44
411.578	1578.44
411.802	1565.44
412.025	1612.44
412.249	1678.44
412.472	1636.44
412.695	1564.44
412.919	1519.44
413.142	1510.44
413.365	1511.44
413.589	1560.44
413.812	1530.44
414.035	1511.44
414.258	1510.44
414.482	1546.44
414.705	1548.44
414.928	1543.44
415.151	1551.44
415.374	1532.44
415.597	1547.44
415.821	1491.44
416.044	1475.44
416.267	1466.44
416.49	1462.44
416.713	1469.44
416.936	1503.44
417.159	1527.44
417.382	1505.44
417.605	1484.44
417.828	1519.44
418.051	1549.44
418.274	1514.44
418.497	1521.44
418.72	1569.44
418.943	1539.44
419.166	1646.44
419.389	1708.44
419.611	1699.44
419.834	1605.44
420.057	1603.44
420.28	1535.44
420.503	1486.44
420.726	1495.44
420.948	1508.44
421.171	1485.44
421.394	1499.44
421.617	1524.44
421.839	1525.44
422.062	1490.44
422.285	1493.44
422.507	1508.44
422.73	1563.44
422.953	1551.44
423.175	1586.44
423.398	1632.44
423.621	1598.44
423.843	1621.44
424.066	1613.44
424.288	1657.44
424.511	1610.44
424.733	1574.44
424.956	1553.44
425.178	1523.44
425.401	1493.44
425.623	1486.44
425.846	1463.44
426.068	1476.44
426.291	1412.44
426.513	1458.44
426.735	1412.44
426.958	1413.44
427.18	1361.44
427.402	1389.44
427.625	1371.44
427.847	1341.44
428.069	1341.44
428.292	1334.44
428.514	1303.44
428.736	1328.44
428.958	1343.44
429.181	1292.44
429.403	1297.44
429.625	1283.44
429.847	1283.44
430.069	1253.44
430.292	1308.44
430.514	1247.44
430.736	1291.44
430.958	1317.44
431.18	1301.44
431.402	1294.44
431.624	1327.44
431.846	1349.44
432.068	1319.44
432.29	1353.44
432.512	1301.44
432.734	1339.44
432.956	1316.44
433.178	1338.44
433.4	1348.44
433.622	1331.44
433.844	1338.44
434.066	1343.44
434.287	1354.44
434.509	1417.44
434.731	1479.44
434.953	1461.44
435.175	1528.44
435.397	1499.44
435.618	1430.44
435.84	1409.44
436.062	1353.44
436.284	1324.44
436.505	1339.44
436.727	1325.44
436.949	1322.44
437.17	1323.44
437.392	1276.44
437.614	1289.44
437.835	1271.44
438.057	1271.44
438.278	1286.44
438.5	1275.44
438.721	1254.44
438.943	1341.44
439.165	1265.44
439.386	1278.44
439.608	1313.44
439.829	1316.44
440.05	1305.44
440.272	1338.44
440.493	1321.44
440.715	1345.44
440.936	1358.44
441.158	1409.44
441.379	1457.44
441.6	1487.44
441.822	1539.44
442.043	1523.44
442.264	1476.44
442.486	1444.44
442.707	1510.44
442.928	1445.44
443.149	1469.44
443.371	1497.44
443.592	1502.44
443.813	1506.44
444.034	1490.44
444.255	1550.44
444.476	1651.44
444.698	1750.44
444.919	1817.44
445.14	1889.44
445.361	1688.44
445.582	1564.44
445.803	1474.44
446.024	1423.44
446.245	1394.44
446.466	1354.44
446.687	1367.44
446.908	1340.44
447.129	1310.44
447.35	1278.44
447.571	1271.44
447.792	1233.44
448.013	1231.44
448.234	1228.44
448.455	1221.44
448.675	1222.44
448.896	1214.44
449.117	1204.44
449.338	1220.44
449.559	1223.44
449.779	1219.44
450	1206.44
450.221	1219.44
450.442	1203.44
450.662	1213.44
450.883	1254.44
451.104	1237.44
451.324	1209.44
451.545	1194.44
451.766	1220.44
451.986	1201.44
452.207	1211.44
452.428	1218.44
452.648	1203.44
452.869	1213.44
453.089	1156.44
453.31	1166.44
453.53	1139.44
453.751	1161.44
453.971	1134.44
454.192	1153.44
454.412	1151.44
454.633	1126.44
454.853	1155.44
455.073	1138.44
455.294	1143.44
455.514	1139.44
455.734	1126.44
455.955	1105.44
456.175	1117.44
456.395	1109.44
456.616	1099.44
456.836	1119.44
457.056	1131.44
457.276	1145.44
457.497	1141.44
457.717	1134.44
457.937	1131.44
458.157	1153.44
458.377	1154.44
458.598	1196.44
458.818	1197.44
459.038	1238.44
459.258	1266.44
459.478	1315.44
459.698	1349.44
459.918	1399.44
460.138	1439.44
460.358	1549.44
460.578	1580.44
460.798	1580.44
461.018	1628.44
461.238	1558.44
461.458	1542.44
461.678	1547.44
461.898	1565.44
462.118	1555.44
462.338	1696.44
462.558	1734.44
462.777	1811.44
462.997	1960.44
463.217	2152.44
463.437	2126.44
463.657	1902.44
463.876	1831.44
464.096	1814.44
464.316	1858.44
464.536	1897.44
464.755	1765.44
464.975	1677.44
465.195	1607.44
465.414	1518.44
465.634	1427.44
465.854	1398.44
466.073	1311.44
466.293	1337.44
466.512	1311.44
466.732	1294.44
466.951	1287.44
467.171	1279.44
467.391	1277.44
467.61	1291.44
467.829	1239.44
468.049	1241.44
468.268	1208.44
468.488	1242.44
468.707	1214.44
468.927	1221.44
469.146	1227.44
469.365	1253.44
469.585	1237.44
469.804	1233.44
470.023	1260.44
470.243	1301.44
470.462	1329.44
470.681	1295.44
470.901	1326.44
471.12	1260.44
471.339	1234.44
471.558	1253.44
471.777	1221.44
471.997	1224.44
472.216	1219.44
472.435	1199.44
472.654	1155.44
472.873	1158.44
473.092	1149.44
473.311	1207.44
473.53	1173.44
473.749	1166.44
473.968	1166.44
474.187	1168.44
474.406	1170.44
474.625	1165.44
474.844	1179.44
475.063	1176.44
475.282	1175.44
475.501	1189.44
475.72	1212.44
475.939	1212.44
476.158	1192.44
476.377	1226.44
476.596	1207.44
476.814	1223.44
477.033	1229.44
477.252	1270.44
477.471	1294.44
477.69	1299.44
477.908	1377.44
478.127	1428.44
478.346	1397.44
478.564	1412.44
478.783	1459.44
479.002	1507.44
479.22	1513.44
479.439	1485.44
479.658	1469.44
479.876	1483.44
480.095	1500.44
480.313	1605.44
480.532	1619.44
480.751	1558.44
480.969	1511.44
481.188	1449.44
481.406	1400.44
481.624	1379.44
481.843	1373.44
482.061	1359.44
482.28	1301.44
482.498	1353.44
482.717	1343.44
482.935	1348.44
483.153	1345.44
483.372	1326.44
483.59	1341.44
483.808	1367.44
484.027	1354.44
484.245	1401.44
484.463	1364.44
484.681	1354.44
484.9	1420.44
485.118	1408.44
485.336	1413.44
485.554	1410.44
485.772	1389.44
485.99	1441.44
486.209	1463.44
486.427	1429.44
486.645	1409.44
486.863	1439.44
487.081	1397.44
487.299	1434.44
487.517	1429.44
487.735	1389.44
487.953	1407.44
488.171	1413.44
488.389	1397.44
488.607	1393.44
488.825	1356.44
489.043	1362.44
489.261	1383.44
489.479	1411.44
489.696	1395.44
489.914	1403.44
490.132	1429.44
490.35	1414.44
490.568	1413.44
490.786	1395.44
491.003	1396.44
491.221	1423.44
491.439	1429.44
491.657	1413.44
491.874	1463.44
492.092	1424.44
492.31	1444.44
492.527	1457.44
492.745	1476.44
492.963	1462.44
493.18	1448.44
493.398	1479.44
493.615	1488.44
493.833	1486.44
494.05	1545.44
494.268	1483.44
494.485	1486.44
494.703	1511.44
494.92	1528.44
495.138	1452.44
495.355	1481.44
495.573	1477.44
495.79	1449.44
496.008	1538.44
496.225	1490.44
496.442	1544.44
496.66	1533.44
496.877	1543.44
497.094	1581.44
497.312	1619.44
497.529	1629.44
497.746	1708.44
497.963	1719.44
498.181	1809.44
498.398	1913.44
498.615	1994.44
498.832	2143.44
499.049	2343.44
499.267	2501.44
499.484	2815.44
499.701	3098.44
499.918	3388.44
500.135	3933.44
500.352	4519.44
500.569	4775.44
500.786	4681.44
501.003	4299.44
501.22	3840.44
501.437	3336.44
501.654	2961.44
501.871	2713.44
502.088	2436.44
502.305	2297.44
502.522	2209.44
502.739	2124.44
502.956	1975.44
503.172	1873.44
503.389	1807.44
503.606	1719.44
503.823	1699.44
504.04	1661.44
504.256	1706.44
504.473	1754.44
504.69	1812.44
504.907	1730.44
505.123	1651.44
505.34	1554.44
505.557	1465.44
505.773	1445.44
505.99	1421.44
506.207	1365.44
506.423	1358.44
506.64	1357.44
506.856	1326.44
507.073	1322.44
507.289	1317.44
507.506	1282.44
507.722	1303.44
507.939	1264.44
508.155	1240.44
508.372	1251.44
508.588	1238.44
508.805	1257.44
509.021	1226.44
509.238	1243.44
509.454	1217.44
509.67	1229.44
509.887	1180.44
510.103	1217.44
510.319	1201.44
510.536	1215.44
510.752	1156.44
510.968	1194.44
511.184	1174.44
511.401	1196.44
511.617	1184.44
511.833	1161.44
512.049	1160.44
512.265	1181.44
512.481	1204.44
512.698	1181.44
512.914	1183.44
513.13	1148.44
513.346	1163.44
513.562	1169.44
513.778	1223.44
513.994	1196.44
514.21	1157.44
514.426	1204.44
514.642	1216.44
514.858	1203.44
515.074	1189.44
515.29	1227.44
515.506	1216.44
515.721	1277.44
515.937	1281.44
516.153	1258.44
516.369	1323.44
516.585	1347.44
516.801	1418.44
517.016	1469.44
517.232	1537.44
517.448	1625.44
517.664	1719.44
517.879	1676.44
518.095	1691.44
518.311	1663.44
518.527	1585.44
518.742	1526.44
518.958	1458.44
519.173	1409.44
519.389	1333.44
519.605	1314.44
519.82	1269.44
520.036	1226.44
520.251	1225.44
520.467	1198.44
520.682	1205.44
520.898	1201.44
521.113	1175.44
521.329	1169.44
521.544	1160.44
521.76	1133.44
521.975	1100.44
522.19	1102.44
522.406	1143.44
522.621	1123.44
522.836	1123.44
523.052	1100.44
523.267	1118.44
523.482	1107.44
523.698	1088.44
523.913	1074.44
524.128	1077.44
524.343	1074.44
524.559	1063.44
524.774	1107.44
524.989	1090.44
525.204	1099.44
525.419	1088.44
525.634	1094.44
525.849	1053.44
526.064	1064.44
526.28	1058.44
526.495	1063.44
526.71	1077.44
526.925	1063.44
527.14	1060.44
527.355	1051.44
527.57	1041.44
527.785	1077.44
527.999	1043.44
528.214	1063.44
528.429	1073.44
528.644	1061.44
528.859	1085.44
529.074	1075.44
529.289	1058.44
529.503	1049.44
529.718	1027.44
529.933	1077.44
530.148	1063.44
530.363	1029.44
530.577	1062.44
530.792	1061.44
531.007	1046.44
531.221	1043.44
531.436	1081.44
531.651	1071.44
531.865	1074.44
532.08	1053.44
532.295	1081.44
532.509	1050.44
532.724	1053.44
532.938	1079.44
533.153	1065.44
533.367	1068.44
533.582	1051.44
533.796	1045.44
534.011	1059.44
534.225	1043.44
534.44	1029.44
534.654	1077.44
534.868	1054.44
535.083	1046.44
535.297	1032.44
535.511	1025.44
535.726	1031.44
535.94	1046.44
536.154	985.44
536.369	977.44
536.583	1005.44
536.797	957.44
537.011	972.44
537.225	985.44
537.44	967.44
537.654	967.44
537.868	963.44
538.082	933.44
538.296	966.44
538.51	974.44
538.724	980.44
538.938	962.44
539.153	956.44
539.367	943.44
539.581	966.44
539.795	929.44
540.009	940.44
540.222	919.44
540.436	938.44
540.65	934.44
540.864	928.44
541.078	934.44
541.292	953.44
541.506	935.44
541.72	938.44
541.934	922.44
542.147	944.44
542.361	899.44
542.575	932.44
542.789	913.44
543.002	935.44
543.216	918.44
543.43	927.44
543.644	894.44
543.857	946.44
544.071	953.44
544.285	933.44
544.498	953.44
544.712	931.44
544.925	974.44
545.139	972.44
545.352	971.44
545.566	962.44
545.779	950.44
545.993	971.44
546.206	996.44
546.42	970.44
546.633	967.44
546.847	945.44
547.06	944.44
547.274	983.44
547.487	964.44
547.7	979.44
547.914	1000.44
548.127	970.44
548.34	983.44
548.554	1005.44
548.767	956.44
548.98	987.44
549.193	972.44
549.407	987.44
549.62	1001.44
549.833	1023.44
550.046	1010.44
550.259	982.44
550.473	980.44
550.686	989.44
550.899	956.44
551.112	933.44
551.325	925.44
551.538	926.44
551.751	954.44
551.964	955.44
552.177	974.44
552.39	963.44
552.603	1013.44
552.816	1005.44
553.029	1032.44
553.242	1045.44
553.455	1097.44
553.667	1080.44
553.88	1052.44
554.093	1045.44
554.306	1010.44
554.519	979.44
554.732	945.44
554.944	926.44
555.157	951.44
555.37	929.44
555.583	890.44
555.795	904.44
556.008	866.44
556.221	837.44
556.433	866.44
556.646	823.44
556.859	843.44
557.071	835.44
557.284	828.44
557.496	809.44
557.709	815.44
557.921	839.44
558.134	804.44
558.346	819.44
558.559	791.44
558.771	814.44
558.984	805.44
559.196	790.44
559.409	808.44
559.621	826.44
559.833	782.44
560.046	769.44
560.258	805.44
560.47	779.44
560.683	773.44
560.895	784.44
561.107	771.44
561.32	794.44
561.532	775.44
561.744	787.44
561.956	776.44
562.168	753.44
562.381	758.44
562.593	791.44
562.805	821.44
563.017	805.44
563.229	791.44
563.441	793.44
563.653	814.44
563.865	806.44
564.077	807.44
564.289	827.44
564.501	807.44
564.713	847.44
564.925	840.44
565.137	857.44
565.349	863.44
565.561	916.44
565.773	965.44
565.985	1011.44
566.197	1077.44
566.408	1109.44
566.62	1242.44
566.832	1324.44
567.044	1354.44
567.255	1363.44
567.467	1347.44
567.679	1478.44
567.891	1601.44
568.102	1665.44
568.314	1555.44
568.526	1401.44
568.737	1243.44
568.949	1153.44
569.161	1009.44
569.372	934.44
569.584	919.44
569.795	893.44
570.007	835.44
570.218	818.44
570.43	809.44
570.641	810.44
570.853	810.44
571.064	836.44
571.276	835.44
571.487	809.44
571.698	755.44
571.91	755.44
572.121	723.44
572.333	723.44
572.544	696.44
572.755	687.44
572.966	666.44
573.178	669.44
573.389	669.44
573.6	654.44
573.811	679.44
574.023	671.44
574.234	650.44
574.445	643.44
574.656	636.44
574.867	661.44
575.078	665.44
575.289	648.44
575.501	635.44
575.712	616.44
575.923	627.44
576.134	608.44
576.345	615.44
576.556	623.44
576.767	612.44
576.978	635.44
577.188	589.44
577.399	609.44
577.61	614.44
577.821	608.44
578.032	587.44
578.243	592.44
578.454	585.44
578.665	571.44
578.875	557.44
579.086	556.44
579.297	571.44
579.508	564.44
579.718	549.44
579.929	574.44
580.14	571.44
580.35	562.44
580.561	549.44
580.772	535.44
580.982	569.44
581.193	541.44
581.403	538.44
581.614	556.44
581.825	550.44
582.035	553.44
582.246	532.44
582.456	537.44
582.667	545.44
582.877	527.44
583.087	534.44
583.298	529.44
583.508	523.44
583.719	532.44
583.929	520.44
584.139	557.44
584.35	535.44
584.56	544.44
584.77	526.44
584.981	527.44
585.191	521.44
585.401	521.44
585.611	493.44
585.821	517.44
586.032	528.44
586.242	530.44
586.452	537.44
586.662	509.44
586.872	482.44
587.082	507.44
587.292	502.44
587.502	516.44
587.713	517.44
587.923	502.44
588.133	500.44
588.343	518.44
588.553	528.44
588.762	517.44
588.972	510.44
589.182	504.44
589.392	522.44
589.602	502.44
589.812	515.44
590.022	524.44
590.232	511.44
590.441	524.44
590.651	518.44
590.861	545.44
591.071	534.44
591.281	549.44
591.49	543.44
591.7	557.44
591.91	549.44
592.119	572.44
592.329	561.44
592.539	581.44
592.748	631.44
592.958	627.44
593.167	629.44
593.377	686.44
593.587	671.44
593.796	646.44
594.006	676.44
594.215	663.44
594.424	668.44
594.634	664.44
594.843	614.44
595.053	605.44
595.262	592.44
595.472	580.44
595.681	545.44
595.89	529.44
596.1	528.44
596.309	539.44
596.518	527.44
596.727	511.44
596.937	485.44
597.146	473.44
597.355	468.44
597.564	474.44
597.774	470.44
597.983	464.44
598.192	461.44
598.401	477.44
598.61	459.44
598.819	441.44
599.028	455.44
599.237	451.44
599.446	448.44
599.655	458.44
599.864	444.44
600.073	434.44
600.282	422.44
600.491	453.44
600.7	421.44
600.909	422.44
601.118	428.44
601.327	436.44
601.536	426.44
601.745	417.44
601.953	415.44
602.162	397.44
602.371	434.44
602.58	413.44
602.789	411.44
602.997	423.44
603.206	397.44
603.415	398.44
603.623	423.44
603.832	399.44
604.041	396.44
604.249	411.44
604.458	392.44
604.666	382.44
604.875	407.44
605.084	401.44
605.292	409.44
605.501	395.44
605.709	396.44
605.918	398.44
606.126	385.44
606.334	399.44
606.543	393.44
606.751	375.44
606.96	391.44
607.168	397.44
607.376	393.44
607.585	377.44
607.793	392.44
608.001	411.44
608.21	371.44
608.418	373.44
608.626	383.44
608.834	375.44
609.043	387.44
609.251	403.44
609.459	364.44
609.667	383.44
609.875	385.44
610.083	385.44
610.291	375.44
610.499	377.44
610.707	381.44
610.916	374.44
611.124	378.44
611.332	381.44
611.54	377.44
611.748	386.44
611.955	374.44
612.163	374.44
612.371	371.44
612.579	378.44
612.787	386.44
612.995	352.44
613.203	387.44
613.411	345.44
613.618	349.44
613.826	372.44
614.034	368.44
614.242	394.44
614.449	361.44
614.657	369.44
614.865	367.44
615.072	347.44
615.28	369.44
615.488	389.44
615.695	375.44
615.903	372.44
616.111	394.44
616.318	371.44
616.526	360.44
616.733	371.44
616.941	387.44
617.148	371.44
617.356	378.44
617.563	355.44
617.771	358.44
617.978	373.44
618.185	350.44
618.393	369.44
618.6	362.44
618.807	366.44
619.015	378.44
619.222	350.44
619.429	357.44
619.637	357.44
619.844	359.44
620.051	364.44
620.258	349.44
620.466	338.44
620.673	340.44
620.88	333.44
621.087	341.44
621.294	333.44
621.501	337.44
621.708	339.44
621.915	330.44
622.122	319.44
622.329	337.44
622.536	335.44
622.743	347.44
622.95	325.44
623.157	319.44
623.364	328.44
623.571	325.44
623.778	324.44
623.985	322.44
624.192	330.44
624.399	326.44
624.606	315.44
624.812	318.44
625.019	313.44
625.226	329.44
625.433	322.44
625.639	316.44
625.846	313.44
626.053	316.44
626.259	314.44
626.466	305.44
626.673	301.44
626.879	302.44
627.086	289.44
627.293	306.44
627.499	301.44
627.706	285.44
627.912	292.44
628.119	321.44
628.325	291.44
628.532	293.44
628.738	300.44
628.945	305.44
629.151	300.44
629.357	287.44
629.564	311.44
629.77	291.44
629.976	287.44
630.183	275.44
630.389	268.44
630.595	291.44
630.802	294.44
631.008	287.44
631.214	291.44
631.42	271.44
631.627	288.44
631.833	277.44
632.039	284.44
632.245	275.44
632.451	267.44
632.657	281.44
632.863	278.44
633.069	277.44
633.275	276.44
633.481	278.44
633.688	268.44
633.893	267.44
634.099	250.44
634.305	284.44
634.511	284.44
634.717	253.44
634.923	271.44
635.129	261.44
635.335	261.44
635.541	262.44
635.747	235.44
635.952	255.44
636.158	260.44
636.364	249.44
636.57	278.44
636.775	263.44
636.981	260.44
637.187	262.44
637.392	265.44
637.598	275.44
637.804	263.44
638.009	271.44
638.215	271.44
638.421	263.44
638.626	270.44
638.832	267.44
639.037	253.44
639.243	249.44
639.448	263.44
639.654	262.44
639.859	258.44
640.065	243.44
640.27	252.44
640.475	249.44
640.681	241.44
640.886	241.44
641.091	233.44
641.297	238.44
641.502	230.44
641.707	242.44
641.913	229.44
642.118	229.44
642.323	228.44
642.528	242.44
642.733	233.44
642.939	248.44
643.144	236.44
643.349	232.44
643.554	244.44
643.759	238.44
643.964	239.44
644.169	246.44
644.374	231.44
644.579	238.44
644.784	235.44
644.989	240.44
645.194	243.44
645.399	226.44
645.604	249.44
645.809	225.44
646.014	217.44
646.219	227.44
646.423	242.44
646.628	224.44
646.833	228.44
647.038	243.44
647.243	250.44
647.447	229.44
647.652	245.44
647.857	241.44
648.062	258.44
648.266	253.44
648.471	270.44
648.676	249.44
648.88	230.44
649.085	259.44
649.289	244.44
649.494	245.44
649.698	235.44
649.903	226.44
650.107	231.44
650.312	239.44
650.516	226.44
650.721	222.44
650.925	216.44
651.13	214.44
651.334	205.44
651.539	213.44
651.743	210.44
651.947	213.44
652.152	201.44
652.356	222.44
652.56	210.44
652.764	206.44
652.969	200.44
653.173	187.44
653.377	177.44
653.581	191.44
653.785	200.44
653.99	189.44
654.194	182.44
654.398	183.44
654.602	195.44
654.806	204.44
655.01	181.44
655.214	184.44
655.418	170.44
655.622	182.44
655.826	170.44
656.03	186.44
656.234	161.44
656.438	180.44
656.642	185.44
656.846	168.44
657.049	170.44
657.253	162.44
657.457	148.44
657.661	157.44
657.865	149.44
658.068	140.44
658.272	141.44
658.476	123.44
658.68	138.44
658.883	124.44
659.087	134.44
659.291	133.44
659.494	109.44
659.698	108.44
659.901	127.44
660.105	110.44
660.309	104.44
660.512	118.44
660.716	103.44
660.919	107.44
661.123	111.44
661.326	109.44
661.53	105.44
661.733	106.44
661.936	103.44
662.14	105.44
662.343	89.44
662.546	97.44
662.75	91.44
662.953	89.44
663.156	102.44
663.36	94.44
663.563	99.44
663.766	95.44
663.969	88.44
664.173	93.44
664.376	87.44
664.579	90.44
664.782	98.44
664.985	94.44
665.188	91.44
665.391	91.44
665.594	80.44
665.797	89.44
666	89.44
666.203	92.44
666.406	86.44
666.609	73.44
666.812	81.44
667.015	75.44
667.218	81.44
667.421	115.44
667.624	83.44
667.827	87.44
668.03	87.44
668.232	85.44
668.435	86.44
668.638	92.44
668.841	83.44
669.043	86.44
669.246	83.44
669.449	78.44
669.651	86.44
669.854	84.44
670.057	79.44
670.259	83.44
670.462	79.44
670.665	83.44
670.867	91.44
671.07	81.44
671.272	96.44
671.475	91.44
671.677	92.44
671.88	78.44
672.082	77.44
672.284	81.44
672.487	80.44
672.689	77.44
672.892	91.44
