Data from NiCl2@0.125M.TitratingCurve.Agarose3%dH2O.NegLispCup.LampEnergy10.LIBS07252019_HRD10591_18-28-59-575.txt Node
Date: Thu Jul 25 18:28:59 EDT 2019
User: cochatt
Spectrometer: HR+D1059
Trigger mode: 1
Integration Time (sec): 1.000000E-1
Scans to average: 1
Electric dark correction enabled: true
Nonlinearity correction enabled: false
Boxcar width: 0
XAxis mode: Wavelengths
Number of Pixels in Spectrum: 2048
>>>>>Begin Spectral Data<<<<<
223.165	-29.31
223.4	-29.31
223.635	-29.31
223.869	-20.31
224.104	-7.31
224.338	-15.31
224.573	-13.31
224.808	-16.31
225.042	-11.31
225.277	-12.31
225.511	3.69
225.746	8.69
225.98	6.69
226.215	4.69
226.449	12.69
226.683	18.69
226.918	40.69
227.152	29.69
227.387	23.69
227.621	25.69
227.856	51.69
228.09	42.69
228.324	53.69
228.559	60.69
228.793	76.69
229.027	92.69
229.262	111.69
229.496	118.69
229.73	126.69
229.964	124.69
230.199	125.69
230.433	134.69
230.667	135.69
230.901	134.69
231.136	139.69
231.37	141.69
231.604	153.69
231.838	135.69
232.072	141.69
232.306	146.69
232.541	147.69
232.775	155.69
233.009	149.69
233.243	155.69
233.477	149.69
233.711	154.69
233.945	171.69
234.179	135.69
234.413	159.69
234.647	160.69
234.881	171.69
235.115	151.69
235.349	162.69
235.583	142.69
235.817	147.69
236.051	147.69
236.285	158.69
236.519	150.69
236.753	167.69
236.987	154.69
237.221	156.69
237.455	150.69
237.689	155.69
237.922	167.69
238.156	176.69
238.39	156.69
238.624	163.69
238.858	175.69
239.091	175.69
239.325	181.69
239.559	180.69
239.793	176.69
240.027	156.69
240.26	179.69
240.494	187.69
240.728	173.69
240.961	180.69
241.195	183.69
241.429	198.69
241.662	200.69
241.896	188.69
242.13	171.69
242.363	177.69
242.597	194.69
242.83	209.69
243.064	202.69
243.298	208.69
243.531	209.69
243.765	184.69
243.998	204.69
244.232	211.69
244.465	223.69
244.699	196.69
244.932	225.69
245.166	219.69
245.399	209.69
245.633	223.69
245.866	228.69
246.099	203.69
246.333	213.69
246.566	224.69
246.8	225.69
247.033	245.69
247.266	225.69
247.5	224.69
247.733	233.69
247.966	237.69
248.2	233.69
248.433	235.69
248.666	255.69
248.899	231.69
249.133	230.69
249.366	243.69
249.599	261.69
249.832	248.69
250.066	237.69
250.299	233.69
250.532	245.69
250.765	261.69
250.998	253.69
251.231	256.69
251.465	261.69
251.698	255.69
251.931	261.69
252.164	250.69
252.397	279.69
252.63	270.69
252.863	263.69
253.096	266.69
253.329	261.69
253.562	265.69
253.795	272.69
254.028	289.69
254.261	287.69
254.494	273.69
254.727	280.69
254.96	279.69
255.193	285.69
255.426	296.69
255.659	273.69
255.892	288.69
256.124	296.69
256.357	299.69
256.59	281.69
256.823	281.69
257.056	298.69
257.289	277.69
257.521	301.69
257.754	292.69
257.987	321.69
258.22	293.69
258.452	291.69
258.685	308.69
258.918	320.69
259.151	318.69
259.383	343.69
259.616	319.69
259.849	306.69
260.081	321.69
260.314	320.69
260.547	322.69
260.779	306.69
261.012	293.69
261.244	291.69
261.477	336.69
261.71	320.69
261.942	330.69
262.175	317.69
262.407	316.69
262.64	320.69
262.872	330.69
263.105	332.69
263.337	336.69
263.57	327.69
263.802	337.69
264.035	337.69
264.267	356.69
264.499	333.69
264.732	350.69
264.964	364.69
265.197	341.69
265.429	336.69
265.661	359.69
265.894	360.69
266.126	376.69
266.358	334.69
266.591	354.69
266.823	328.69
267.055	336.69
267.287	367.69
267.52	359.69
267.752	362.69
267.984	373.69
268.216	359.69
268.448	353.69
268.681	362.69
268.913	371.69
269.145	375.69
269.377	370.69
269.609	375.69
269.841	353.69
270.073	367.69
270.306	372.69
270.538	370.69
270.77	367.69
271.002	382.69
271.234	374.69
271.466	400.69
271.698	374.69
271.93	383.69
272.162	383.69
272.394	374.69
272.626	385.69
272.858	370.69
273.09	396.69
273.322	378.69
273.553	394.69
273.785	373.69
274.017	415.69
274.249	398.69
274.481	375.69
274.713	396.69
274.945	411.69
275.176	409.69
275.408	388.69
275.64	415.69
275.872	419.69
276.104	421.69
276.335	413.69
276.567	382.69
276.799	422.69
277.031	406.69
277.262	413.69
277.494	414.69
277.726	439.69
277.957	411.69
278.189	427.69
278.421	420.69
278.652	426.69
278.884	411.69
279.115	434.69
279.347	412.69
279.579	423.69
279.81	437.69
280.042	433.69
280.273	443.69
280.505	474.69
280.736	433.69
280.968	460.69
281.199	445.69
281.431	452.69
281.662	443.69
281.894	454.69
282.125	455.69
282.356	479.69
282.588	468.69
282.819	454.69
283.051	457.69
283.282	463.69
283.513	468.69
283.745	470.69
283.976	454.69
284.207	446.69
284.439	477.69
284.67	480.69
284.901	475.69
285.132	473.69
285.364	484.69
285.595	440.69
285.826	465.69
286.057	480.69
286.288	474.69
286.52	465.69
286.751	495.69
286.982	483.69
287.213	484.69
287.444	491.69
287.675	491.69
287.906	483.69
288.138	483.69
288.369	471.69
288.6	497.69
288.831	486.69
289.062	495.69
289.293	495.69
289.524	496.69
289.755	496.69
289.986	490.69
290.217	513.69
290.448	512.69
290.679	499.69
290.91	496.69
291.141	499.69
291.371	502.69
291.602	499.69
291.833	503.69
292.064	516.69
292.295	527.69
292.526	509.69
292.757	520.69
292.987	493.69
293.218	503.69
293.449	521.69
293.68	501.69
293.91	494.69
294.141	511.69
294.372	516.69
294.603	525.69
294.833	539.69
295.064	537.69
295.295	529.69
295.525	536.69
295.756	548.69
295.987	513.69
296.217	523.69
296.448	540.69
296.679	534.69
296.909	530.69
297.14	559.69
297.37	547.69
297.601	555.69
297.831	554.69
298.062	554.69
298.292	587.69
298.523	585.69
298.753	581.69
298.984	580.69
299.214	539.69
299.445	552.69
299.675	554.69
299.905	557.69
300.136	565.69
300.366	548.69
300.597	570.69
300.827	597.69
301.057	586.69
301.288	609.69
301.518	585.69
301.748	573.69
301.979	597.69
302.209	617.69
302.439	600.69
302.669	603.69
302.9	597.69
303.13	551.69
303.36	580.69
303.59	582.69
303.82	581.69
304.051	560.69
304.281	575.69
304.511	565.69
304.741	587.69
304.971	591.69
305.201	583.69
305.431	587.69
305.661	557.69
305.891	551.69
306.121	589.69
306.352	565.69
306.582	530.69
306.812	560.69
307.042	551.69
307.272	566.69
307.502	548.69
307.731	546.69
307.961	569.69
308.191	561.69
308.421	572.69
308.651	555.69
308.881	550.69
309.111	563.69
309.341	534.69
309.571	553.69
309.8	543.69
310.03	538.69
310.26	554.69
310.49	563.69
310.72	558.69
310.949	575.69
311.179	561.69
311.409	573.69
311.639	572.69
311.868	589.69
312.098	586.69
312.328	606.69
312.557	602.69
312.787	599.69
313.017	597.69
313.246	602.69
313.476	586.69
313.706	590.69
313.935	612.69
314.165	608.69
314.394	615.69
314.624	619.69
314.853	606.69
315.083	573.69
315.312	601.69
315.542	600.69
315.771	588.69
316.001	577.69
316.23	596.69
316.46	599.69
316.689	589.69
316.919	595.69
317.148	579.69
317.377	617.69
317.607	577.69
317.836	579.69
318.065	587.69
318.295	605.69
318.524	575.69
318.753	582.69
318.983	564.69
319.212	563.69
319.441	575.69
319.67	577.69
319.9	578.69
320.129	598.69
320.358	576.69
320.587	581.69
320.816	594.69
321.046	583.69
321.275	592.69
321.504	559.69
321.733	571.69
321.962	574.69
322.191	580.69
322.42	574.69
322.649	588.69
322.878	582.69
323.108	587.69
323.337	586.69
323.566	596.69
323.795	606.69
324.024	584.69
324.253	590.69
324.482	614.69
324.71	610.69
324.939	602.69
325.168	616.69
325.397	615.69
325.626	620.69
325.855	605.69
326.084	625.69
326.313	653.69
326.542	642.69
326.77	661.69
326.999	651.69
327.228	637.69
327.457	636.69
327.686	618.69
327.914	641.69
328.143	641.69
328.372	646.69
328.6	631.69
328.829	624.69
329.058	648.69
329.287	652.69
329.515	639.69
329.744	653.69
329.972	653.69
330.201	625.69
330.43	634.69
330.658	639.69
330.887	654.69
331.115	643.69
331.344	681.69
331.572	669.69
331.801	663.69
332.03	691.69
332.258	703.69
332.486	746.69
332.715	746.69
332.943	782.69
333.172	836.69
333.4	839.69
333.629	899.69
333.857	905.69
334.085	877.69
334.314	839.69
334.542	843.69
334.771	831.69
334.999	800.69
335.227	802.69
335.455	784.69
335.684	807.69
335.912	807.69
336.14	764.69
336.369	764.69
336.597	771.69
336.825	796.69
337.053	770.69
337.281	771.69
337.51	730.69
337.738	712.69
337.966	700.69
338.194	695.69
338.422	710.69
338.65	679.69
338.878	725.69
339.106	700.69
339.334	683.69
339.562	682.69
339.79	667.69
340.018	671.69
340.246	665.69
340.474	652.69
340.702	675.69
340.93	676.69
341.158	665.69
341.386	678.69
341.614	649.69
341.842	650.69
342.07	655.69
342.298	664.69
342.526	665.69
342.754	651.69
342.981	649.69
343.209	673.69
343.437	695.69
343.665	740.69
343.893	812.69
344.12	832.69
344.348	800.69
344.576	758.69
344.804	747.69
345.031	697.69
345.259	699.69
345.487	673.69
345.714	658.69
345.942	639.69
346.17	669.69
346.397	651.69
346.625	641.69
346.853	649.69
347.08	675.69
347.308	687.69
347.535	647.69
347.763	671.69
347.99	689.69
348.218	682.69
348.445	661.69
348.673	659.69
348.9	639.69
349.128	661.69
349.355	652.69
349.583	657.69
349.81	596.69
350.037	614.69
350.265	623.69
350.492	610.69
350.72	589.69
350.947	635.69
351.174	631.69
351.402	638.69
351.629	615.69
351.856	610.69
352.083	602.69
352.311	643.69
352.538	626.69
352.765	613.69
352.992	613.69
353.22	630.69
353.447	591.69
353.674	604.69
353.901	600.69
354.128	620.69
354.355	599.69
354.583	618.69
354.81	633.69
355.037	609.69
355.264	612.69
355.491	598.69
355.718	624.69
355.945	637.69
356.172	630.69
356.399	627.69
356.626	620.69
356.853	610.69
357.08	623.69
357.307	617.69
357.534	625.69
357.761	639.69
357.988	623.69
358.215	610.69
358.441	629.69
358.668	630.69
358.895	607.69
359.122	629.69
359.349	617.69
359.576	635.69
359.802	633.69
360.029	598.69
360.256	613.69
360.483	618.69
360.709	625.69
360.936	635.69
361.163	613.69
361.39	635.69
361.616	610.69
361.843	632.69
362.07	614.69
362.296	614.69
362.523	616.69
362.749	603.69
362.976	618.69
363.203	624.69
363.429	609.69
363.656	628.69
363.882	629.69
364.109	617.69
364.335	605.69
364.562	612.69
364.788	625.69
365.015	598.69
365.241	608.69
365.468	599.69
365.694	602.69
365.92	609.69
366.147	584.69
366.373	625.69
366.599	630.69
366.826	613.69
367.052	619.69
367.278	612.69
367.505	627.69
367.731	624.69
367.957	604.69
368.184	629.69
368.41	635.69
368.636	615.69
368.862	637.69
369.089	615.69
369.315	650.69
369.541	641.69
369.767	649.69
369.993	643.69
370.219	643.69
370.445	675.69
370.672	672.69
370.898	648.69
371.124	663.69
371.35	687.69
371.576	711.69
371.802	685.69
372.028	640.69
372.254	646.69
372.48	689.69
372.706	710.69
372.932	713.69
373.158	714.69
373.384	686.69
373.61	675.69
373.835	679.69
374.061	662.69
374.287	681.69
374.513	688.69
374.739	705.69
374.965	714.69
375.191	744.69
375.416	756.69
375.642	719.69
375.868	724.69
376.094	721.69
376.319	697.69
376.545	698.69
376.771	672.69
376.997	645.69
377.222	663.69
377.448	677.69
377.674	691.69
377.899	669.69
378.125	665.69
378.35	668.69
378.576	675.69
378.802	651.69
379.027	694.69
379.253	695.69
379.478	669.69
379.704	668.69
379.929	660.69
380.155	654.69
380.38	660.69
380.606	684.69
380.831	680.69
381.057	681.69
381.282	683.69
381.507	664.69
381.733	682.69
381.958	669.69
382.184	676.69
382.409	702.69
382.634	710.69
382.86	711.69
383.085	721.69
383.31	724.69
383.535	744.69
383.761	751.69
383.986	781.69
384.211	790.69
384.436	772.69
384.662	795.69
384.887	832.69
385.112	824.69
385.337	839.69
385.562	809.69
385.787	817.69
386.013	842.69
386.238	813.69
386.463	839.69
386.688	845.69
386.913	785.69
387.138	785.69
387.363	796.69
387.588	810.69
387.813	806.69
388.038	799.69
388.263	800.69
388.488	789.69
388.713	798.69
388.938	769.69
389.163	780.69
389.387	802.69
389.612	761.69
389.837	779.69
390.062	773.69
390.287	788.69
390.512	775.69
390.736	779.69
390.961	790.69
391.186	842.69
391.411	849.69
391.636	870.69
391.86	886.69
392.085	921.69
392.31	939.69
392.534	894.69
392.759	871.69
392.984	857.69
393.208	850.69
393.433	849.69
393.658	851.69
393.882	859.69
394.107	875.69
394.331	844.69
394.556	861.69
394.78	865.69
395.005	891.69
395.229	847.69
395.454	878.69
395.678	899.69
395.903	899.69
396.127	885.69
396.352	842.69
396.576	852.69
396.801	838.69
397.025	851.69
397.249	893.69
397.474	881.69
397.698	921.69
397.922	905.69
398.147	882.69
398.371	910.69
398.595	940.69
398.82	965.69
399.044	1073.69
399.268	1150.69
399.492	1399.69
399.717	1567.69
399.941	1626.69
400.165	1393.69
400.389	1251.69
400.613	1130.69
400.837	1063.69
401.062	1024.69
401.286	1003.69
401.51	1023.69
401.734	1007.69
401.958	1025.69
402.182	1011.69
402.406	1053.69
402.63	1036.69
402.854	1072.69
403.078	1102.69
403.302	1157.69
403.526	1161.69
403.75	1177.69
403.974	1204.69
404.198	1220.69
404.422	1197.69
404.645	1170.69
404.869	1153.69
405.093	1146.69
405.317	1138.69
405.541	1153.69
405.765	1117.69
405.988	1110.69
406.212	1132.69
406.436	1112.69
406.66	1114.69
406.883	1155.69
407.107	1228.69
407.331	1270.69
407.555	1340.69
407.778	1335.69
408.002	1274.69
408.226	1235.69
408.449	1208.69
408.673	1173.69
408.896	1164.69
409.12	1165.69
409.344	1163.69
409.567	1173.69
409.791	1195.69
410.014	1155.69
410.238	1160.69
410.461	1143.69
410.685	1105.69
410.908	1106.69
411.132	1091.69
411.355	1057.69
411.578	1049.69
411.802	1047.69
412.025	1064.69
412.249	1055.69
412.472	1080.69
412.695	1000.69
412.919	1017.69
413.142	988.69
413.365	994.69
413.589	1017.69
413.812	1019.69
414.035	1018.69
414.258	979.69
414.482	1009.69
414.705	1027.69
414.928	1030.69
415.151	1043.69
415.374	1010.69
415.597	989.69
415.821	1027.69
416.044	994.69
416.267	974.69
416.49	991.69
416.713	995.69
416.936	974.69
417.159	991.69
417.382	1045.69
417.605	1000.69
417.828	996.69
418.051	1038.69
418.274	998.69
418.497	1000.69
418.72	1049.69
418.943	1053.69
419.166	1104.69
419.389	1178.69
419.611	1195.69
419.834	1102.69
420.057	1091.69
420.28	1036.69
420.503	1000.69
420.726	1005.69
420.948	1029.69
421.171	1027.69
421.394	1033.69
421.617	1018.69
421.839	1005.69
422.062	1027.69
422.285	995.69
422.507	1024.69
422.73	1029.69
422.953	1033.69
423.175	1085.69
423.398	1051.69
423.621	1056.69
423.843	1082.69
424.066	1099.69
424.288	1086.69
424.511	1100.69
424.733	1059.69
424.956	1023.69
425.178	1057.69
425.401	1035.69
425.623	1009.69
425.846	991.69
426.068	980.69
426.291	990.69
426.513	971.69
426.735	955.69
426.958	970.69
427.18	930.69
427.402	915.69
427.625	900.69
427.847	920.69
428.069	933.69
428.292	924.69
428.514	909.69
428.736	915.69
428.958	907.69
429.181	881.69
429.403	877.69
429.625	885.69
429.847	901.69
430.069	907.69
430.292	873.69
430.514	875.69
430.736	901.69
430.958	867.69
431.18	881.69
431.402	917.69
431.624	895.69
431.846	917.69
432.068	907.69
432.29	940.69
432.512	881.69
432.734	881.69
432.956	891.69
433.178	915.69
433.4	938.69
433.622	911.69
433.844	920.69
434.066	913.69
434.287	926.69
434.509	968.69
434.731	988.69
434.953	1016.69
435.175	1047.69
435.397	1057.69
435.618	964.69
435.84	939.69
436.062	935.69
436.284	950.69
436.505	901.69
436.727	926.69
436.949	913.69
437.17	891.69
437.392	899.69
437.614	881.69
437.835	855.69
438.057	884.69
438.278	847.69
438.5	869.69
438.721	881.69
438.943	879.69
439.165	884.69
439.386	903.69
439.608	919.69
439.829	897.69
440.05	913.69
440.272	948.69
440.493	921.69
440.715	929.69
440.936	974.69
441.158	963.69
441.379	983.69
441.6	1013.69
441.822	1058.69
442.043	1044.69
442.264	1033.69
442.486	999.69
442.707	1035.69
442.928	1012.69
443.149	1005.69
443.371	1015.69
443.592	1019.69
443.813	1043.69
444.034	1062.69
444.255	1079.69
444.476	1115.69
444.698	1209.69
444.919	1263.69
445.14	1350.69
445.361	1196.69
445.582	1099.69
445.803	1018.69
446.024	978.69
446.245	991.69
446.466	963.69
446.687	922.69
446.908	938.69
447.129	917.69
447.35	899.69
447.571	903.69
447.792	868.69
448.013	880.69
448.234	859.69
448.455	870.69
448.675	871.69
448.896	857.69
449.117	809.69
449.338	850.69
449.559	874.69
449.779	831.69
450	841.69
450.221	823.69
450.442	854.69
450.662	872.69
450.883	866.69
451.104	867.69
451.324	875.69
451.545	880.69
451.766	903.69
451.986	857.69
452.207	853.69
452.428	853.69
452.648	844.69
452.869	855.69
453.089	823.69
453.31	854.69
453.53	832.69
453.751	812.69
453.971	800.69
454.192	822.69
454.412	789.69
454.633	812.69
454.853	816.69
455.073	804.69
455.294	814.69
455.514	799.69
455.734	805.69
455.955	769.69
456.175	801.69
456.395	799.69
456.616	777.69
456.836	831.69
457.056	784.69
457.276	761.69
457.497	785.69
457.717	780.69
457.937	801.69
458.157	810.69
458.377	783.69
458.598	809.69
458.818	853.69
459.038	866.69
459.258	912.69
459.478	935.69
459.698	958.69
459.918	997.69
460.138	1040.69
460.358	1052.69
460.578	1072.69
460.798	1093.69
461.018	1117.69
461.238	1118.69
461.458	1061.69
461.678	1082.69
461.898	1095.69
462.118	1122.69
462.338	1171.69
462.558	1191.69
462.777	1220.69
462.997	1345.69
463.217	1495.69
463.437	1501.69
463.657	1382.69
463.876	1301.69
464.096	1307.69
464.316	1323.69
464.536	1316.69
464.755	1290.69
464.975	1180.69
465.195	1151.69
465.414	1079.69
465.634	1003.69
465.854	961.69
466.073	932.69
466.293	904.69
466.512	876.69
466.732	887.69
466.951	906.69
467.171	872.69
467.391	892.69
467.61	887.69
467.829	879.69
468.049	873.69
468.268	845.69
468.488	855.69
468.707	823.69
468.927	811.69
469.146	823.69
469.365	870.69
469.585	866.69
469.804	897.69
470.023	912.69
470.243	897.69
470.462	918.69
470.681	913.69
470.901	913.69
471.12	907.69
471.339	881.69
471.558	867.69
471.777	869.69
471.997	837.69
472.216	850.69
472.435	813.69
472.654	826.69
472.873	828.69
473.092	821.69
473.311	815.69
473.53	831.69
473.749	809.69
473.968	837.69
474.187	792.69
474.406	803.69
474.625	825.69
474.844	821.69
475.063	808.69
475.282	815.69
475.501	823.69
475.72	836.69
475.939	839.69
476.158	828.69
476.377	858.69
476.596	835.69
476.814	868.69
477.033	873.69
477.252	880.69
477.471	885.69
477.69	919.69
477.908	913.69
478.127	977.69
478.346	976.69
478.564	977.69
478.783	1008.69
479.002	1017.69
479.22	1020.69
479.439	1005.69
479.658	1003.69
479.876	999.69
480.095	1014.69
480.313	1063.69
480.532	1095.69
480.751	1118.69
480.969	1059.69
481.188	1018.69
481.406	1004.69
481.624	959.69
481.843	943.69
482.061	926.69
482.28	912.69
482.498	911.69
482.717	917.69
482.935	953.69
483.153	954.69
483.372	932.69
483.59	904.69
483.808	915.69
484.027	921.69
484.245	922.69
484.463	921.69
484.681	971.69
484.9	937.69
485.118	947.69
485.336	955.69
485.554	977.69
485.772	982.69
485.99	988.69
486.209	992.69
486.427	1027.69
486.645	997.69
486.863	1000.69
487.081	968.69
487.299	961.69
487.517	976.69
487.735	976.69
487.953	953.69
488.171	964.69
488.389	979.69
488.607	958.69
488.825	943.69
489.043	969.69
489.261	964.69
489.479	965.69
489.696	951.69
489.914	978.69
490.132	979.69
490.35	931.69
490.568	982.69
490.786	981.69
491.003	971.69
491.221	1003.69
491.439	964.69
491.657	971.69
491.874	997.69
492.092	978.69
492.31	1012.69
492.527	1020.69
492.745	987.69
492.963	999.69
493.18	1001.69
493.398	1004.69
493.615	976.69
493.833	1003.69
494.05	1031.69
494.268	1031.69
494.485	1017.69
494.703	1048.69
494.92	1036.69
495.138	1018.69
495.355	1002.69
495.573	1048.69
495.79	1016.69
496.008	1062.69
496.225	1045.69
496.442	1061.69
496.66	1089.69
496.877	1075.69
497.094	1095.69
497.312	1108.69
497.529	1131.69
497.746	1155.69
497.963	1185.69
498.181	1226.69
498.398	1276.69
498.615	1379.69
498.832	1444.69
499.049	1579.69
499.267	1667.69
499.484	1905.69
499.701	2072.69
499.918	2340.69
500.135	2670.69
500.352	3075.69
500.569	3284.69
500.786	3238.69
501.003	3018.69
501.22	2660.69
501.437	2334.69
501.654	2032.69
501.871	1813.69
502.088	1690.69
502.305	1572.69
502.522	1489.69
502.739	1432.69
502.956	1362.69
503.172	1287.69
503.389	1238.69
503.606	1194.69
503.823	1193.69
504.04	1170.69
504.256	1179.69
504.473	1238.69
504.69	1265.69
504.907	1239.69
505.123	1140.69
505.34	1103.69
505.557	1060.69
505.773	1033.69
505.99	993.69
506.207	954.69
506.423	945.69
506.64	929.69
506.856	939.69
507.073	935.69
507.289	912.69
507.506	913.69
507.722	913.69
507.939	880.69
508.155	891.69
508.372	867.69
508.588	878.69
508.805	889.69
509.021	883.69
509.238	835.69
509.454	853.69
509.67	835.69
509.887	837.69
510.103	829.69
510.319	840.69
510.536	831.69
510.752	792.69
510.968	855.69
511.184	845.69
511.401	849.69
511.617	842.69
511.833	846.69
512.049	838.69
512.265	829.69
512.481	846.69
512.698	834.69
512.914	828.69
513.13	849.69
513.346	842.69
513.562	827.69
513.778	837.69
513.994	852.69
514.21	845.69
514.426	825.69
514.642	847.69
514.858	837.69
515.074	851.69
515.29	873.69
515.506	857.69
515.721	852.69
515.937	879.69
516.153	888.69
516.369	961.69
516.585	981.69
516.801	981.69
517.016	1012.69
517.232	1093.69
517.448	1139.69
517.664	1161.69
517.879	1224.69
518.095	1195.69
518.311	1181.69
518.527	1099.69
518.742	1059.69
518.958	996.69
519.173	971.69
519.389	962.69
519.605	919.69
519.82	887.69
520.036	893.69
520.251	888.69
520.467	851.69
520.682	825.69
520.898	852.69
521.113	821.69
521.329	824.69
521.544	818.69
521.76	810.69
521.975	784.69
522.19	796.69
522.406	802.69
522.621	795.69
522.836	786.69
523.052	795.69
523.267	787.69
523.482	791.69
523.698	769.69
523.913	735.69
524.128	787.69
524.343	800.69
524.559	781.69
524.774	779.69
524.989	777.69
525.204	799.69
525.419	777.69
525.634	743.69
525.849	749.69
526.064	767.69
526.28	773.69
526.495	743.69
526.71	764.69
526.925	755.69
527.14	735.69
527.355	757.69
527.57	759.69
527.785	740.69
527.999	754.69
528.214	723.69
528.429	783.69
528.644	752.69
528.859	738.69
529.074	768.69
529.289	771.69
529.503	771.69
529.718	756.69
529.933	755.69
530.148	745.69
530.363	739.69
530.577	740.69
530.792	752.69
531.007	739.69
531.221	748.69
531.436	762.69
531.651	737.69
531.865	750.69
532.08	778.69
532.295	743.69
532.509	739.69
532.724	741.69
532.938	769.69
533.153	744.69
533.367	724.69
533.582	758.69
533.796	761.69
534.011	741.69
534.225	780.69
534.44	771.69
534.654	747.69
534.868	725.69
535.083	724.69
535.297	751.69
535.511	721.69
535.726	725.69
535.94	737.69
536.154	735.69
536.369	710.69
536.583	680.69
536.797	717.69
537.011	700.69
537.225	712.69
537.44	704.69
537.654	690.69
537.868	697.69
538.082	649.69
538.296	691.69
538.51	665.69
538.724	677.69
538.938	696.69
539.153	692.69
539.367	680.69
539.581	695.69
539.795	691.69
540.009	662.69
540.222	707.69
540.436	682.69
540.65	663.69
540.864	679.69
541.078	689.69
541.292	679.69
541.506	672.69
541.72	695.69
541.934	664.69
542.147	698.69
542.361	677.69
542.575	677.69
542.789	657.69
543.002	653.69
543.216	683.69
543.43	663.69
543.644	621.69
543.857	641.69
544.071	651.69
544.285	677.69
544.498	677.69
544.712	684.69
544.925	704.69
545.139	687.69
545.352	707.69
545.566	704.69
545.779	715.69
545.993	698.69
546.206	714.69
546.42	702.69
546.633	690.69
546.847	696.69
547.06	671.69
547.274	692.69
547.487	661.69
547.7	693.69
547.914	686.69
548.127	724.69
548.34	706.69
548.554	718.69
548.767	707.69
548.98	684.69
549.193	690.69
549.407	699.69
549.62	738.69
549.833	730.69
550.046	729.69
550.259	707.69
550.473	728.69
550.686	699.69
550.899	689.69
551.112	680.69
551.325	656.69
551.538	651.69
551.751	660.69
551.964	663.69
552.177	687.69
552.39	682.69
552.603	687.69
552.816	718.69
553.029	750.69
553.242	761.69
553.455	746.69
553.667	781.69
553.88	766.69
554.093	715.69
554.306	709.69
554.519	675.69
554.732	691.69
554.944	684.69
555.157	687.69
555.37	662.69
555.583	658.69
555.795	643.69
556.008	647.69
556.221	615.69
556.433	625.69
556.646	620.69
556.859	603.69
557.071	626.69
557.284	607.69
557.496	600.69
557.709	608.69
557.921	586.69
558.134	577.69
558.346	598.69
558.559	593.69
558.771	615.69
558.984	571.69
559.196	595.69
559.409	571.69
559.621	573.69
559.833	562.69
560.046	565.69
560.258	583.69
560.47	581.69
560.683	585.69
560.895	572.69
561.107	555.69
561.32	561.69
561.532	575.69
561.744	577.69
561.956	554.69
562.168	573.69
562.381	568.69
562.593	570.69
562.805	583.69
563.017	593.69
563.229	565.69
563.441	590.69
563.653	585.69
563.865	579.69
564.077	567.69
564.289	596.69
564.501	599.69
564.713	593.69
564.925	613.69
565.137	616.69
565.349	649.69
565.561	655.69
565.773	684.69
565.985	709.69
566.197	741.69
566.408	809.69
566.62	897.69
566.832	933.69
567.044	960.69
567.255	971.69
567.467	991.69
567.679	1088.69
567.891	1129.69
568.102	1169.69
568.314	1106.69
568.526	977.69
568.737	866.69
568.949	809.69
569.161	756.69
569.372	683.69
569.584	665.69
569.795	653.69
570.007	641.69
570.218	612.69
570.43	616.69
570.641	599.69
570.853	594.69
571.064	617.69
571.276	624.69
571.487	601.69
571.698	570.69
571.91	546.69
572.121	519.69
572.333	528.69
572.544	526.69
572.755	503.69
572.966	509.69
573.178	502.69
573.389	474.69
573.6	468.69
573.811	485.69
574.023	467.69
574.234	479.69
574.445	491.69
574.656	477.69
574.867	507.69
575.078	509.69
575.289	484.69
575.501	476.69
575.712	467.69
575.923	456.69
576.134	467.69
576.345	437.69
576.556	440.69
576.767	455.69
576.978	445.69
577.188	447.69
577.399	447.69
577.61	441.69
577.821	459.69
578.032	428.69
578.243	433.69
578.454	432.69
578.665	431.69
578.875	433.69
579.086	428.69
579.297	411.69
579.508	414.69
579.718	415.69
579.929	428.69
580.14	422.69
580.35	428.69
580.561	429.69
580.772	436.69
580.982	400.69
581.193	394.69
581.403	395.69
581.614	419.69
581.825	417.69
582.035	384.69
582.246	421.69
582.456	397.69
582.667	403.69
582.877	412.69
583.087	412.69
583.298	417.69
583.508	382.69
583.719	392.69
583.929	406.69
584.139	407.69
584.35	397.69
584.56	421.69
584.77	402.69
584.981	417.69
585.191	402.69
585.401	395.69
585.611	379.69
585.821	397.69
586.032	397.69
586.242	392.69
586.452	400.69
586.662	390.69
586.872	392.69
587.082	389.69
587.292	381.69
587.502	381.69
587.713	378.69
587.923	384.69
588.133	386.69
588.343	386.69
588.553	388.69
588.762	396.69
588.972	384.69
589.182	381.69
589.392	396.69
589.602	407.69
589.812	375.69
590.022	386.69
590.232	395.69
590.441	381.69
590.651	386.69
590.861	388.69
591.071	392.69
591.281	404.69
591.49	382.69
591.7	405.69
591.91	419.69
592.119	407.69
592.329	441.69
592.539	457.69
592.748	454.69
592.958	474.69
593.167	466.69
593.377	508.69
593.587	501.69
593.796	515.69
594.006	513.69
594.215	517.69
594.424	541.69
594.634	512.69
594.843	482.69
595.053	476.69
595.262	449.69
595.472	440.69
595.681	421.69
595.89	399.69
596.1	415.69
596.309	391.69
596.518	392.69
596.727	377.69
596.937	359.69
597.146	348.69
597.355	362.69
597.564	363.69
597.774	336.69
597.983	355.69
598.192	348.69
598.401	358.69
598.61	359.69
598.819	352.69
599.028	338.69
599.237	329.69
599.446	348.69
599.655	347.69
599.864	331.69
600.073	329.69
600.282	330.69
600.491	322.69
600.7	332.69
600.909	321.69
601.118	322.69
601.327	334.69
601.536	339.69
601.745	305.69
601.953	323.69
602.162	312.69
602.371	311.69
602.58	315.69
602.789	329.69
602.997	322.69
603.206	341.69
603.415	346.69
603.623	318.69
603.832	319.69
604.041	300.69
604.249	285.69
604.458	306.69
604.666	309.69
604.875	314.69
605.084	311.69
605.292	312.69
605.501	312.69
605.709	308.69
605.918	317.69
606.126	307.69
606.334	314.69
606.543	304.69
606.751	299.69
606.96	318.69
607.168	283.69
607.376	291.69
607.585	289.69
607.793	302.69
608.001	318.69
608.21	315.69
608.418	310.69
608.626	310.69
608.834	304.69
609.043	288.69
609.251	311.69
609.459	294.69
609.667	285.69
609.875	294.69
610.083	294.69
610.291	294.69
610.499	288.69
610.707	269.69
610.916	292.69
611.124	283.69
611.332	292.69
611.54	291.69
611.748	289.69
611.955	286.69
612.163	271.69
612.371	297.69
612.579	284.69
612.787	282.69
612.995	284.69
613.203	290.69
613.411	296.69
613.618	280.69
613.826	277.69
614.034	293.69
614.242	284.69
614.449	280.69
614.657	283.69
614.865	275.69
615.072	279.69
615.28	276.69
615.488	278.69
615.695	272.69
615.903	290.69
616.111	284.69
616.318	292.69
616.526	287.69
616.733	290.69
616.941	292.69
617.148	292.69
617.356	285.69
617.563	291.69
617.771	283.69
617.978	276.69
618.185	281.69
618.393	269.69
618.6	296.69
618.807	288.69
619.015	289.69
619.222	298.69
619.429	274.69
619.637	283.69
619.844	282.69
620.051	284.69
620.258	275.69
620.466	265.69
620.673	258.69
620.88	265.69
621.087	274.69
621.294	258.69
621.501	278.69
621.708	258.69
621.915	274.69
622.122	259.69
622.329	250.69
622.536	246.69
622.743	256.69
622.95	267.69
623.157	256.69
623.364	264.69
623.571	262.69
623.778	241.69
623.985	245.69
624.192	256.69
624.399	244.69
624.606	256.69
624.812	253.69
625.019	258.69
625.226	240.69
625.433	243.69
625.639	248.69
625.846	250.69
626.053	240.69
626.259	231.69
626.466	249.69
626.673	236.69
626.879	239.69
627.086	255.69
627.293	247.69
627.499	242.69
627.706	237.69
627.912	254.69
628.119	247.69
628.325	233.69
628.532	236.69
628.738	242.69
628.945	244.69
629.151	224.69
629.357	220.69
629.564	217.69
629.77	235.69
629.976	231.69
630.183	231.69
630.389	221.69
630.595	229.69
630.802	233.69
631.008	217.69
631.214	216.69
631.42	190.69
631.627	214.69
631.833	215.69
632.039	225.69
632.245	214.69
632.451	219.69
632.657	215.69
632.863	217.69
633.069	218.69
633.275	206.69
633.481	209.69
633.688	216.69
633.893	230.69
634.099	228.69
634.305	213.69
634.511	205.69
634.717	206.69
634.923	195.69
635.129	213.69
635.335	199.69
635.541	211.69
635.747	219.69
635.952	198.69
636.158	207.69
636.364	213.69
636.57	193.69
636.775	208.69
636.981	205.69
637.187	208.69
637.392	197.69
637.598	186.69
637.804	191.69
638.009	215.69
638.215	182.69
638.421	193.69
638.626	214.69
638.832	194.69
639.037	193.69
639.243	195.69
639.448	198.69
639.654	203.69
639.859	197.69
640.065	199.69
640.27	188.69
640.475	194.69
640.681	202.69
640.886	186.69
641.091	202.69
641.297	183.69
641.502	199.69
641.707	196.69
641.913	181.69
642.118	192.69
642.323	180.69
642.528	179.69
642.733	187.69
642.939	187.69
643.144	191.69
643.349	210.69
643.554	190.69
643.759	199.69
643.964	180.69
644.169	176.69
644.374	173.69
644.579	183.69
644.784	197.69
644.989	193.69
645.194	182.69
645.399	195.69
645.604	177.69
645.809	180.69
646.014	196.69
646.219	196.69
646.423	206.69
646.628	179.69
646.833	186.69
647.038	187.69
647.243	192.69
647.447	180.69
647.652	179.69
647.857	188.69
648.062	183.69
648.266	196.69
648.471	198.69
648.676	203.69
648.88	197.69
649.085	199.69
649.289	181.69
649.494	185.69
649.698	179.69
649.903	182.69
650.107	190.69
650.312	188.69
650.516	184.69
650.721	172.69
650.925	168.69
651.13	170.69
651.334	159.69
651.539	155.69
651.743	153.69
651.947	172.69
652.152	150.69
652.356	147.69
652.56	142.69
652.764	148.69
652.969	144.69
653.173	146.69
653.377	159.69
653.581	140.69
653.785	137.69
653.99	146.69
654.194	153.69
654.398	130.69
654.602	145.69
654.806	145.69
655.01	154.69
655.214	147.69
655.418	147.69
655.622	129.69
655.826	129.69
656.03	133.69
656.234	121.69
656.438	123.69
656.642	129.69
656.846	100.69
657.049	125.69
657.253	122.69
657.457	107.69
657.661	100.69
657.865	120.69
658.068	121.69
658.272	119.69
658.476	112.69
658.68	117.69
658.883	95.69
659.087	111.69
659.291	119.69
659.494	107.69
659.698	95.69
659.901	92.69
660.105	97.69
660.309	85.69
660.512	106.69
660.716	96.69
660.919	90.69
661.123	79.69
661.326	99.69
661.53	87.69
661.733	91.69
661.936	98.69
662.14	81.69
662.343	94.69
662.546	83.69
662.75	95.69
662.953	80.69
663.156	88.69
663.36	90.69
663.563	88.69
663.766	77.69
663.969	76.69
664.173	72.69
664.376	87.69
664.579	87.69
664.782	74.69
664.985	68.69
665.188	70.69
665.391	67.69
665.594	79.69
665.797	94.69
666	73.69
666.203	69.69
666.406	77.69
666.609	89.69
666.812	90.69
667.015	90.69
667.218	74.69
667.421	71.69
667.624	89.69
667.827	73.69
668.03	70.69
668.232	81.69
668.435	79.69
668.638	81.69
668.841	93.69
669.043	82.69
669.246	73.69
669.449	74.69
669.651	63.69
669.854	74.69
670.057	84.69
670.259	93.69
670.462	79.69
670.665	72.69
670.867	76.69
671.07	84.69
671.272	92.69
671.475	93.69
671.677	82.69
671.88	88.69
672.082	72.69
672.284	60.69
672.487	77.69
672.689	82.69
672.892	99.69
