Data from NiCl2@0.0625M.TitratingCurve.Agarose3%dH2O.NegLispCup.LampEnergy10.LIBS07252019_HRD10591_18-33-50-576.txt Node
Date: Thu Jul 25 18:33:50 EDT 2019
User: cochatt
Spectrometer: HR+D1059
Trigger mode: 1
Integration Time (sec): 1.000000E-1
Scans to average: 1
Electric dark correction enabled: true
Nonlinearity correction enabled: false
Boxcar width: 0
XAxis mode: Wavelengths
Number of Pixels in Spectrum: 2048
>>>>>Begin Spectral Data<<<<<
223.165	-13.88
223.4	-13.88
223.635	-13.88
223.869	-15.88
224.104	-15.88
224.338	-21.88
224.573	-19.88
224.808	-11.88
225.042	1.12
225.277	-7.88
225.511	5.12
225.746	3.12
225.98	14.12
226.215	5.12
226.449	4.12
226.683	22.12
226.918	18.12
227.152	34.12
227.387	35.12
227.621	46.12
227.856	37.12
228.09	54.12
228.324	57.12
228.559	43.12
228.793	66.12
229.027	148.12
229.262	156.12
229.496	146.12
229.73	154.12
229.964	178.12
230.199	180.12
230.433	168.12
230.667	172.12
230.901	164.12
231.136	162.12
231.37	188.12
231.604	206.12
231.838	180.12
232.072	186.12
232.306	203.12
232.541	196.12
232.775	209.12
233.009	208.12
233.243	187.12
233.477	207.12
233.711	199.12
233.945	220.12
234.179	212.12
234.413	215.12
234.647	206.12
234.881	194.12
235.115	217.12
235.349	200.12
235.583	210.12
235.817	212.12
236.051	223.12
236.285	216.12
236.519	209.12
236.753	211.12
236.987	228.12
237.221	214.12
237.455	220.12
237.689	214.12
237.922	240.12
238.156	228.12
238.39	242.12
238.624	234.12
238.858	239.12
239.091	246.12
239.325	258.12
239.559	248.12
239.793	262.12
240.027	264.12
240.26	259.12
240.494	266.12
240.728	267.12
240.961	261.12
241.195	262.12
241.429	276.12
241.662	280.12
241.896	309.12
242.13	290.12
242.363	282.12
242.597	281.12
242.83	290.12
243.064	294.12
243.298	292.12
243.531	321.12
243.765	294.12
243.998	311.12
244.232	292.12
244.465	322.12
244.699	342.12
244.932	320.12
245.166	354.12
245.399	328.12
245.633	332.12
245.866	338.12
246.099	309.12
246.333	337.12
246.566	323.12
246.8	341.12
247.033	342.12
247.266	328.12
247.5	337.12
247.733	353.12
247.966	340.12
248.2	362.12
248.433	351.12
248.666	368.12
248.899	394.12
249.133	347.12
249.366	382.12
249.599	352.12
249.832	380.12
250.066	386.12
250.299	390.12
250.532	384.12
250.765	391.12
250.998	380.12
251.231	395.12
251.465	422.12
251.698	404.12
251.931	397.12
252.164	423.12
252.397	407.12
252.63	408.12
252.863	423.12
253.096	423.12
253.329	407.12
253.562	419.12
253.795	414.12
254.028	439.12
254.261	440.12
254.494	451.12
254.727	418.12
254.96	432.12
255.193	456.12
255.426	431.12
255.659	448.12
255.892	450.12
256.124	441.12
256.357	457.12
256.59	458.12
256.823	450.12
257.056	442.12
257.289	456.12
257.521	475.12
257.754	462.12
257.987	457.12
258.22	467.12
258.452	484.12
258.685	479.12
258.918	475.12
259.151	482.12
259.383	478.12
259.616	468.12
259.849	502.12
260.081	501.12
260.314	495.12
260.547	496.12
260.779	485.12
261.012	520.12
261.244	524.12
261.477	516.12
261.71	513.12
261.942	530.12
262.175	517.12
262.407	512.12
262.64	536.12
262.872	519.12
263.105	523.12
263.337	551.12
263.57	529.12
263.802	546.12
264.035	540.12
264.267	526.12
264.499	538.12
264.732	550.12
264.964	564.12
265.197	544.12
265.429	553.12
265.661	529.12
265.894	556.12
266.126	570.12
266.358	552.12
266.591	566.12
266.823	581.12
267.055	563.12
267.287	582.12
267.52	570.12
267.752	582.12
267.984	574.12
268.216	586.12
268.448	591.12
268.681	607.12
268.913	579.12
269.145	581.12
269.377	599.12
269.609	593.12
269.841	600.12
270.073	622.12
270.306	627.12
270.538	606.12
270.77	594.12
271.002	618.12
271.234	623.12
271.466	614.12
271.698	624.12
271.93	630.12
272.162	618.12
272.394	620.12
272.626	649.12
272.858	642.12
273.09	632.12
273.322	662.12
273.553	651.12
273.785	642.12
274.017	639.12
274.249	679.12
274.481	658.12
274.713	663.12
274.945	683.12
275.176	668.12
275.408	688.12
275.64	698.12
275.872	687.12
276.104	698.12
276.335	676.12
276.567	670.12
276.799	694.12
277.031	698.12
277.262	688.12
277.494	684.12
277.726	700.12
277.957	682.12
278.189	715.12
278.421	687.12
278.652	696.12
278.884	715.12
279.115	721.12
279.347	707.12
279.579	695.12
279.81	719.12
280.042	710.12
280.273	741.12
280.505	738.12
280.736	732.12
280.968	721.12
281.199	772.12
281.431	786.12
281.662	766.12
281.894	772.12
282.125	742.12
282.356	788.12
282.588	747.12
282.819	814.12
283.051	780.12
283.282	772.12
283.513	781.12
283.745	770.12
283.976	782.12
284.207	802.12
284.439	781.12
284.67	784.12
284.901	787.12
285.132	805.12
285.364	786.12
285.595	824.12
285.826	792.12
286.057	800.12
286.288	781.12
286.52	787.12
286.751	803.12
286.982	796.12
287.213	794.12
287.444	805.12
287.675	824.12
287.906	847.12
288.138	827.12
288.369	835.12
288.6	848.12
288.831	851.12
289.062	827.12
289.293	815.12
289.524	806.12
289.755	839.12
289.986	856.12
290.217	848.12
290.448	840.12
290.679	837.12
290.91	852.12
291.141	847.12
291.371	859.12
291.602	838.12
291.833	854.12
292.064	859.12
292.295	864.12
292.526	839.12
292.757	855.12
292.987	856.12
293.218	848.12
293.449	875.12
293.68	852.12
293.91	866.12
294.141	848.12
294.372	852.12
294.603	852.12
294.833	876.12
295.064	890.12
295.295	884.12
295.525	874.12
295.756	886.12
295.987	851.12
296.217	918.12
296.448	898.12
296.679	902.12
296.909	888.12
297.14	895.12
297.37	903.12
297.601	921.12
297.831	918.12
298.062	912.12
298.292	938.12
298.523	932.12
298.753	927.12
298.984	918.12
299.214	940.12
299.445	921.12
299.675	912.12
299.905	921.12
300.136	935.12
300.366	951.12
300.597	951.12
300.827	954.12
301.057	964.12
301.288	949.12
301.518	945.12
301.748	1002.12
301.979	978.12
302.209	994.12
302.439	1010.12
302.669	989.12
302.9	968.12
303.13	979.12
303.36	970.12
303.59	978.12
303.82	974.12
304.051	1021.12
304.281	981.12
304.511	965.12
304.741	955.12
304.971	967.12
305.201	962.12
305.431	996.12
305.661	976.12
305.891	952.12
306.121	946.12
306.352	959.12
306.582	981.12
306.812	959.12
307.042	951.12
307.272	997.12
307.502	974.12
307.731	948.12
307.961	965.12
308.191	948.12
308.421	951.12
308.651	960.12
308.881	956.12
309.111	953.12
309.341	956.12
309.571	976.12
309.8	962.12
310.03	979.12
310.26	946.12
310.49	977.12
310.72	976.12
310.949	963.12
311.179	1011.12
311.409	998.12
311.639	1008.12
311.868	977.12
312.098	982.12
312.328	994.12
312.557	1036.12
312.787	994.12
313.017	1014.12
313.246	1008.12
313.476	1027.12
313.706	1048.12
313.935	1028.12
314.165	1050.12
314.394	1050.12
314.624	1042.12
314.853	1041.12
315.083	1016.12
315.312	1065.12
315.542	1045.12
315.771	1032.12
316.001	1023.12
316.23	1049.12
316.46	1030.12
316.689	1034.12
316.919	1011.12
317.148	1023.12
317.377	1017.12
317.607	1016.12
317.836	1000.12
318.065	1024.12
318.295	1001.12
318.524	1048.12
318.753	1036.12
318.983	1029.12
319.212	1011.12
319.441	1043.12
319.67	1032.12
319.9	1016.12
320.129	1027.12
320.358	1012.12
320.587	1032.12
320.816	1022.12
321.046	1033.12
321.275	1027.12
321.504	1057.12
321.733	1018.12
321.962	1044.12
322.191	1058.12
322.42	1053.12
322.649	1061.12
322.878	1029.12
323.108	1033.12
323.337	1062.12
323.566	1035.12
323.795	1055.12
324.024	1077.12
324.253	1063.12
324.482	1067.12
324.71	1096.12
324.939	1089.12
325.168	1121.12
325.397	1060.12
325.626	1077.12
325.855	1084.12
326.084	1118.12
326.313	1118.12
326.542	1126.12
326.77	1127.12
326.999	1140.12
327.228	1112.12
327.457	1126.12
327.686	1116.12
327.914	1144.12
328.143	1120.12
328.372	1105.12
328.6	1136.12
328.829	1139.12
329.058	1151.12
329.287	1152.12
329.515	1137.12
329.744	1146.12
329.972	1107.12
330.201	1144.12
330.43	1174.12
330.658	1154.12
330.887	1198.12
331.115	1158.12
331.344	1192.12
331.572	1172.12
331.801	1195.12
332.03	1188.12
332.258	1228.12
332.486	1243.12
332.715	1297.12
332.943	1310.12
333.172	1330.12
333.4	1359.12
333.629	1392.12
333.857	1441.12
334.085	1441.12
334.314	1431.12
334.542	1426.12
334.771	1402.12
334.999	1383.12
335.227	1390.12
335.455	1368.12
335.684	1411.12
335.912	1384.12
336.14	1396.12
336.369	1360.12
336.597	1348.12
336.825	1353.12
337.053	1335.12
337.281	1314.12
337.51	1280.12
337.738	1293.12
337.966	1257.12
338.194	1254.12
338.422	1229.12
338.65	1224.12
338.878	1230.12
339.106	1218.12
339.334	1224.12
339.562	1223.12
339.79	1204.12
340.018	1221.12
340.246	1177.12
340.474	1200.12
340.702	1208.12
340.93	1186.12
341.158	1223.12
341.386	1234.12
341.614	1174.12
341.842	1194.12
342.07	1158.12
342.298	1143.12
342.526	1175.12
342.754	1178.12
342.981	1175.12
343.209	1234.12
343.437	1238.12
343.665	1303.12
343.893	1312.12
344.12	1363.12
344.348	1349.12
344.576	1296.12
344.804	1274.12
345.031	1257.12
345.259	1191.12
345.487	1200.12
345.714	1198.12
345.942	1188.12
346.17	1154.12
346.397	1163.12
346.625	1139.12
346.853	1120.12
347.08	1149.12
347.308	1122.12
347.535	1129.12
347.763	1134.12
347.99	1114.12
348.218	1140.12
348.445	1109.12
348.673	1121.12
348.9	1149.12
349.128	1112.12
349.355	1136.12
349.583	1129.12
349.81	1108.12
350.037	1092.12
350.265	1089.12
350.492	1099.12
350.72	1116.12
350.947	1110.12
351.174	1122.12
351.402	1097.12
351.629	1070.12
351.856	1066.12
352.083	1109.12
352.311	1078.12
352.538	1105.12
352.765	1057.12
352.992	1085.12
353.22	1074.12
353.447	1058.12
353.674	1058.12
353.901	1098.12
354.128	1106.12
354.355	1059.12
354.583	1075.12
354.81	1080.12
355.037	1088.12
355.264	1061.12
355.491	1091.12
355.718	1089.12
355.945	1077.12
356.172	1089.12
356.399	1102.12
356.626	1086.12
356.853	1094.12
357.08	1087.12
357.307	1123.12
357.534	1124.12
357.761	1090.12
357.988	1127.12
358.215	1107.12
358.441	1072.12
358.668	1082.12
358.895	1108.12
359.122	1097.12
359.349	1102.12
359.576	1090.12
359.802	1105.12
360.029	1078.12
360.256	1083.12
360.483	1106.12
360.709	1103.12
360.936	1099.12
361.163	1122.12
361.39	1125.12
361.616	1113.12
361.843	1108.12
362.07	1119.12
362.296	1122.12
362.523	1108.12
362.749	1100.12
362.976	1097.12
363.203	1056.12
363.429	1100.12
363.656	1090.12
363.882	1118.12
364.109	1097.12
364.335	1092.12
364.562	1085.12
364.788	1076.12
365.015	1115.12
365.241	1118.12
365.468	1082.12
365.694	1061.12
365.92	1121.12
366.147	1089.12
366.373	1089.12
366.599	1090.12
366.826	1102.12
367.052	1067.12
367.278	1106.12
367.505	1111.12
367.731	1111.12
367.957	1094.12
368.184	1152.12
368.41	1116.12
368.636	1166.12
368.862	1122.12
369.089	1142.12
369.315	1153.12
369.541	1173.12
369.767	1142.12
369.993	1152.12
370.219	1137.12
370.445	1174.12
370.672	1162.12
370.898	1154.12
371.124	1187.12
371.35	1211.12
371.576	1191.12
371.802	1179.12
372.028	1172.12
372.254	1195.12
372.48	1150.12
372.706	1188.12
372.932	1235.12
373.158	1215.12
373.384	1173.12
373.61	1192.12
373.835	1202.12
374.061	1192.12
374.287	1232.12
374.513	1226.12
374.739	1268.12
374.965	1290.12
375.191	1302.12
375.416	1302.12
375.642	1225.12
375.868	1251.12
376.094	1227.12
376.319	1213.12
376.545	1186.12
376.771	1181.12
376.997	1194.12
377.222	1198.12
377.448	1198.12
377.674	1192.12
377.899	1170.12
378.125	1162.12
378.35	1169.12
378.576	1190.12
378.802	1186.12
379.027	1188.12
379.253	1193.12
379.478	1176.12
379.704	1176.12
379.929	1175.12
380.155	1177.12
380.38	1182.12
380.606	1175.12
380.831	1184.12
381.057	1178.12
381.282	1165.12
381.507	1170.12
381.733	1193.12
381.958	1175.12
382.184	1219.12
382.409	1252.12
382.634	1222.12
382.86	1230.12
383.085	1234.12
383.31	1240.12
383.535	1276.12
383.761	1268.12
383.986	1299.12
384.211	1326.12
384.436	1328.12
384.662	1349.12
384.887	1377.12
385.112	1395.12
385.337	1411.12
385.562	1405.12
385.787	1411.12
386.013	1383.12
386.238	1435.12
386.463	1436.12
386.688	1434.12
386.913	1424.12
387.138	1416.12
387.363	1419.12
387.588	1413.12
387.813	1401.12
388.038	1384.12
388.263	1381.12
388.488	1391.12
388.713	1426.12
388.938	1396.12
389.163	1402.12
389.387	1399.12
389.612	1388.12
389.837	1386.12
390.062	1349.12
390.287	1371.12
390.512	1424.12
390.736	1414.12
390.961	1424.12
391.186	1434.12
391.411	1486.12
391.636	1522.12
391.86	1534.12
392.085	1523.12
392.31	1522.12
392.534	1514.12
392.759	1501.12
392.984	1512.12
393.208	1476.12
393.433	1479.12
393.658	1513.12
393.882	1482.12
394.107	1453.12
394.331	1476.12
394.556	1525.12
394.78	1492.12
395.005	1496.12
395.229	1519.12
395.454	1574.12
395.678	1554.12
395.903	1566.12
396.127	1536.12
396.352	1521.12
396.576	1521.12
396.801	1529.12
397.025	1518.12
397.249	1559.12
397.474	1597.12
397.698	1589.12
397.922	1589.12
398.147	1604.12
398.371	1625.12
398.595	1656.12
398.82	1718.12
399.044	1823.12
399.268	1948.12
399.492	2156.12
399.717	2362.12
399.941	2398.12
400.165	2215.12
400.389	2066.12
400.613	1942.12
400.837	1867.12
401.062	1811.12
401.286	1773.12
401.51	1720.12
401.734	1738.12
401.958	1763.12
402.182	1742.12
402.406	1750.12
402.63	1785.12
402.854	1798.12
403.078	1796.12
403.302	1841.12
403.526	1821.12
403.75	1858.12
403.974	1903.12
404.198	1849.12
404.422	1934.12
404.645	1877.12
404.869	1847.12
405.093	1834.12
405.317	1835.12
405.541	1871.12
405.765	1888.12
405.988	1870.12
406.212	1859.12
406.436	1866.12
406.66	1958.12
406.883	1946.12
407.107	2039.12
407.331	2114.12
407.555	2172.12
407.778	2183.12
408.002	2134.12
408.226	2082.12
408.449	2074.12
408.673	2021.12
408.896	1992.12
409.12	1917.12
409.344	1967.12
409.567	1904.12
409.791	1920.12
410.014	1875.12
410.238	1884.12
410.461	1888.12
410.685	1863.12
410.908	1874.12
411.132	1862.12
411.355	1816.12
411.578	1806.12
411.802	1824.12
412.025	1848.12
412.249	1838.12
412.472	1828.12
412.695	1790.12
412.919	1733.12
413.142	1772.12
413.365	1763.12
413.589	1758.12
413.812	1737.12
414.035	1714.12
414.258	1734.12
414.482	1787.12
414.705	1749.12
414.928	1758.12
415.151	1727.12
415.374	1732.12
415.597	1719.12
415.821	1658.12
416.044	1686.12
416.267	1676.12
416.49	1672.12
416.713	1636.12
416.936	1688.12
417.159	1656.12
417.382	1655.12
417.605	1637.12
417.828	1654.12
418.051	1672.12
418.274	1696.12
418.497	1659.12
418.72	1708.12
418.943	1678.12
419.166	1789.12
419.389	1900.12
419.611	1858.12
419.834	1817.12
420.057	1751.12
420.28	1731.12
420.503	1686.12
420.726	1634.12
420.948	1654.12
421.171	1628.12
421.394	1683.12
421.617	1654.12
421.839	1667.12
422.062	1654.12
422.285	1641.12
422.507	1671.12
422.73	1686.12
422.953	1699.12
423.175	1705.12
423.398	1701.12
423.621	1658.12
423.843	1716.12
424.066	1713.12
424.288	1668.12
424.511	1681.12
424.733	1704.12
424.956	1671.12
425.178	1671.12
425.401	1684.12
425.623	1660.12
425.846	1635.12
426.068	1630.12
426.291	1637.12
426.513	1584.12
426.735	1542.12
426.958	1627.12
427.18	1580.12
427.402	1593.12
427.625	1562.12
427.847	1525.12
428.069	1502.12
428.292	1516.12
428.514	1523.12
428.736	1476.12
428.958	1544.12
429.181	1518.12
429.403	1485.12
429.625	1490.12
429.847	1466.12
430.069	1489.12
430.292	1510.12
430.514	1460.12
430.736	1512.12
430.958	1554.12
431.18	1528.12
431.402	1556.12
431.624	1506.12
431.846	1553.12
432.068	1532.12
432.29	1612.12
432.512	1509.12
432.734	1519.12
432.956	1510.12
433.178	1505.12
433.4	1551.12
433.622	1547.12
433.844	1569.12
434.066	1550.12
434.287	1598.12
434.509	1665.12
434.731	1632.12
434.953	1680.12
435.175	1684.12
435.397	1718.12
435.618	1657.12
435.84	1600.12
436.062	1555.12
436.284	1529.12
436.505	1543.12
436.727	1533.12
436.949	1555.12
437.17	1508.12
437.392	1506.12
437.614	1514.12
437.835	1439.12
438.057	1494.12
438.278	1474.12
438.5	1462.12
438.721	1444.12
438.943	1447.12
439.165	1491.12
439.386	1458.12
439.608	1491.12
439.829	1487.12
440.05	1509.12
440.272	1529.12
440.493	1488.12
440.715	1515.12
440.936	1594.12
441.158	1546.12
441.379	1636.12
441.6	1602.12
441.822	1633.12
442.043	1621.12
442.264	1622.12
442.486	1564.12
442.707	1617.12
442.928	1627.12
443.149	1606.12
443.371	1639.12
443.592	1623.12
443.813	1662.12
444.034	1653.12
444.255	1656.12
444.476	1746.12
444.698	1819.12
444.919	1831.12
445.14	1951.12
445.361	1800.12
445.582	1706.12
445.803	1611.12
446.024	1593.12
446.245	1537.12
446.466	1522.12
446.687	1506.12
446.908	1519.12
447.129	1466.12
447.35	1435.12
447.571	1482.12
447.792	1419.12
448.013	1422.12
448.234	1396.12
448.455	1401.12
448.675	1375.12
448.896	1334.12
449.117	1394.12
449.338	1368.12
449.559	1351.12
449.779	1364.12
450	1340.12
450.221	1331.12
450.442	1352.12
450.662	1356.12
450.883	1356.12
451.104	1399.12
451.324	1391.12
451.545	1361.12
451.766	1352.12
451.986	1366.12
452.207	1350.12
452.428	1337.12
452.648	1362.12
452.869	1306.12
453.089	1267.12
453.31	1352.12
453.53	1276.12
453.751	1284.12
453.971	1264.12
454.192	1329.12
454.412	1270.12
454.633	1312.12
454.853	1309.12
455.073	1281.12
455.294	1290.12
455.514	1280.12
455.734	1297.12
455.955	1276.12
456.175	1303.12
456.395	1246.12
456.616	1282.12
456.836	1266.12
457.056	1299.12
457.276	1264.12
457.497	1312.12
457.717	1320.12
457.937	1313.12
458.157	1335.12
458.377	1294.12
458.598	1368.12
458.818	1409.12
459.038	1392.12
459.258	1444.12
459.478	1507.12
459.698	1559.12
459.918	1542.12
460.138	1598.12
460.358	1675.12
460.578	1649.12
460.798	1685.12
461.018	1682.12
461.238	1708.12
461.458	1668.12
461.678	1689.12
461.898	1706.12
462.118	1724.12
462.338	1823.12
462.558	1832.12
462.777	1894.12
462.997	2045.12
463.217	2108.12
463.437	2145.12
463.657	2050.12
463.876	1961.12
464.096	1953.12
464.316	1924.12
464.536	1917.12
464.755	1845.12
464.975	1844.12
465.195	1772.12
465.414	1696.12
465.634	1585.12
465.854	1561.12
466.073	1545.12
466.293	1516.12
466.512	1465.12
466.732	1446.12
466.951	1454.12
467.171	1431.12
467.391	1465.12
467.61	1424.12
467.829	1422.12
468.049	1435.12
468.268	1393.12
468.488	1362.12
468.707	1367.12
468.927	1408.12
469.146	1381.12
469.365	1401.12
469.585	1426.12
469.804	1479.12
470.023	1417.12
470.243	1472.12
470.462	1461.12
470.681	1445.12
470.901	1473.12
471.12	1463.12
471.339	1456.12
471.558	1442.12
471.777	1413.12
471.997	1380.12
472.216	1404.12
472.435	1392.12
472.654	1350.12
472.873	1375.12
473.092	1381.12
473.311	1367.12
473.53	1358.12
473.749	1362.12
473.968	1386.12
474.187	1367.12
474.406	1364.12
474.625	1355.12
474.844	1370.12
475.063	1370.12
475.282	1384.12
475.501	1412.12
475.72	1410.12
475.939	1413.12
476.158	1420.12
476.377	1413.12
476.596	1454.12
476.814	1486.12
477.033	1461.12
477.252	1528.12
477.471	1561.12
477.69	1587.12
477.908	1570.12
478.127	1618.12
478.346	1632.12
478.564	1624.12
478.783	1668.12
479.002	1696.12
479.22	1707.12
479.439	1740.12
479.658	1716.12
479.876	1714.12
480.095	1740.12
480.313	1790.12
480.532	1830.12
480.751	1847.12
480.969	1750.12
481.188	1741.12
481.406	1723.12
481.624	1676.12
481.843	1682.12
482.061	1639.12
482.28	1667.12
482.498	1676.12
482.717	1663.12
482.935	1687.12
483.153	1680.12
483.372	1696.12
483.59	1707.12
483.808	1682.12
484.027	1717.12
484.245	1748.12
484.463	1761.12
484.681	1806.12
484.9	1792.12
485.118	1807.12
485.336	1807.12
485.554	1822.12
485.772	1842.12
485.99	1868.12
486.209	1882.12
486.427	1829.12
486.645	1796.12
486.863	1840.12
487.081	1813.12
487.299	1802.12
487.517	1768.12
487.735	1743.12
487.953	1814.12
488.171	1802.12
488.389	1788.12
488.607	1706.12
488.825	1767.12
489.043	1746.12
489.261	1739.12
489.479	1742.12
489.696	1726.12
489.914	1732.12
490.132	1748.12
490.35	1732.12
490.568	1704.12
490.786	1745.12
491.003	1718.12
491.221	1746.12
491.439	1740.12
491.657	1706.12
491.874	1698.12
492.092	1709.12
492.31	1747.12
492.527	1737.12
492.745	1740.12
492.963	1717.12
493.18	1745.12
493.398	1740.12
493.615	1774.12
493.833	1778.12
494.05	1761.12
494.268	1769.12
494.485	1775.12
494.703	1763.12
494.92	1763.12
495.138	1748.12
495.355	1777.12
495.573	1745.12
495.79	1758.12
496.008	1781.12
496.225	1812.12
496.442	1819.12
496.66	1862.12
496.877	1835.12
497.094	1888.12
497.312	1942.12
497.529	1920.12
497.746	1970.12
497.963	2056.12
498.181	2102.12
498.398	2255.12
498.615	2317.12
498.832	2456.12
499.049	2539.12
499.267	2771.12
499.484	2971.12
499.701	3208.12
499.918	3459.12
500.135	3796.12
500.352	4131.12
500.569	4318.12
500.786	4271.12
501.003	4018.12
501.22	3748.12
501.437	3468.12
501.654	3083.12
501.871	2886.12
502.088	2696.12
502.305	2551.12
502.522	2403.12
502.739	2318.12
502.956	2238.12
503.172	2131.12
503.389	2084.12
503.606	2003.12
503.823	1977.12
504.04	1954.12
504.256	1947.12
504.473	2005.12
504.69	1938.12
504.907	1946.12
505.123	1850.12
505.34	1770.12
505.557	1687.12
505.773	1692.12
505.99	1676.12
506.207	1651.12
506.423	1601.12
506.64	1578.12
506.856	1592.12
507.073	1577.12
507.289	1547.12
507.506	1513.12
507.722	1457.12
507.939	1512.12
508.155	1458.12
508.372	1476.12
508.588	1449.12
508.805	1440.12
509.021	1440.12
509.238	1420.12
509.454	1396.12
509.67	1417.12
509.887	1411.12
510.103	1388.12
510.319	1388.12
510.536	1402.12
510.752	1378.12
510.968	1385.12
511.184	1346.12
511.401	1367.12
511.617	1352.12
511.833	1385.12
512.049	1394.12
512.265	1383.12
512.481	1401.12
512.698	1332.12
512.914	1373.12
513.13	1330.12
513.346	1353.12
513.562	1365.12
513.778	1376.12
513.994	1398.12
514.21	1376.12
514.426	1383.12
514.642	1380.12
514.858	1398.12
515.074	1408.12
515.29	1426.12
515.506	1410.12
515.721	1438.12
515.937	1456.12
516.153	1491.12
516.369	1509.12
516.585	1538.12
516.801	1566.12
517.016	1609.12
517.232	1669.12
517.448	1732.12
517.664	1763.12
517.879	1772.12
518.095	1763.12
518.311	1745.12
518.527	1701.12
518.742	1653.12
518.958	1612.12
519.173	1557.12
519.389	1515.12
519.605	1495.12
519.82	1433.12
520.036	1465.12
520.251	1360.12
520.467	1378.12
520.682	1364.12
520.898	1371.12
521.113	1331.12
521.329	1350.12
521.544	1359.12
521.76	1327.12
521.975	1321.12
522.19	1296.12
522.406	1282.12
522.621	1254.12
522.836	1274.12
523.052	1300.12
523.267	1298.12
523.482	1258.12
523.698	1290.12
523.913	1250.12
524.128	1262.12
524.343	1249.12
524.559	1208.12
524.774	1223.12
524.989	1252.12
525.204	1251.12
525.419	1230.12
525.634	1235.12
525.849	1210.12
526.064	1190.12
526.28	1212.12
526.495	1206.12
526.71	1194.12
526.925	1208.12
527.14	1228.12
527.355	1171.12
527.57	1218.12
527.785	1230.12
527.999	1231.12
528.214	1194.12
528.429	1224.12
528.644	1242.12
528.859	1184.12
529.074	1182.12
529.289	1184.12
529.503	1208.12
529.718	1202.12
529.933	1196.12
530.148	1180.12
530.363	1223.12
530.577	1184.12
530.792	1163.12
531.007	1187.12
531.221	1202.12
531.436	1192.12
531.651	1195.12
531.865	1197.12
532.08	1186.12
532.295	1188.12
532.509	1150.12
532.724	1187.12
532.938	1209.12
533.153	1185.12
533.367	1188.12
533.582	1203.12
533.796	1174.12
534.011	1198.12
534.225	1162.12
534.44	1130.12
534.654	1162.12
534.868	1170.12
535.083	1161.12
535.297	1156.12
535.511	1178.12
535.726	1163.12
535.94	1148.12
536.154	1127.12
536.369	1133.12
536.583	1110.12
536.797	1136.12
537.011	1082.12
537.225	1085.12
537.44	1094.12
537.654	1086.12
537.868	1094.12
538.082	1101.12
538.296	1068.12
538.51	1086.12
538.724	1089.12
538.938	1093.12
539.153	1064.12
539.367	1070.12
539.581	1100.12
539.795	1082.12
540.009	1098.12
540.222	1069.12
540.436	1086.12
540.65	1046.12
540.864	1031.12
541.078	1061.12
541.292	1055.12
541.506	1072.12
541.72	1074.12
541.934	1073.12
542.147	1051.12
542.361	1060.12
542.575	1056.12
542.789	1056.12
543.002	1039.12
543.216	1035.12
543.43	1063.12
543.644	1043.12
543.857	997.12
544.071	1000.12
544.285	1064.12
544.498	1030.12
544.712	1036.12
544.925	1060.12
545.139	1074.12
545.352	1050.12
545.566	1086.12
545.779	1058.12
545.993	1058.12
546.206	1086.12
546.42	1037.12
546.633	1082.12
546.847	1102.12
547.06	1077.12
547.274	1053.12
547.487	1043.12
547.7	1040.12
547.914	1060.12
548.127	1054.12
548.34	1092.12
548.554	1068.12
548.767	1057.12
548.98	1059.12
549.193	1073.12
549.407	1063.12
549.62	1079.12
549.833	1071.12
550.046	1106.12
550.259	1070.12
550.473	1071.12
550.686	1051.12
550.899	1051.12
551.112	1065.12
551.325	1036.12
551.538	1042.12
551.751	1044.12
551.964	1052.12
552.177	1059.12
552.39	1069.12
552.603	1108.12
552.816	1121.12
553.029	1118.12
553.242	1113.12
553.455	1164.12
553.667	1151.12
553.88	1133.12
554.093	1070.12
554.306	1069.12
554.519	1046.12
554.732	1042.12
554.944	1040.12
555.157	1003.12
555.37	1006.12
555.583	1010.12
555.795	978.12
556.008	964.12
556.221	970.12
556.433	951.12
556.646	955.12
556.859	902.12
557.071	962.12
557.284	907.12
557.496	908.12
557.709	939.12
557.921	938.12
558.134	894.12
558.346	920.12
558.559	912.12
558.771	901.12
558.984	904.12
559.196	886.12
559.409	904.12
559.621	854.12
559.833	886.12
560.046	869.12
560.258	860.12
560.47	860.12
560.683	898.12
560.895	885.12
561.107	892.12
561.32	862.12
561.532	881.12
561.744	882.12
561.956	890.12
562.168	854.12
562.381	856.12
562.593	887.12
562.805	890.12
563.017	900.12
563.229	869.12
563.441	896.12
563.653	896.12
563.865	903.12
564.077	921.12
564.289	918.12
564.501	946.12
564.713	951.12
564.925	943.12
565.137	983.12
565.349	977.12
565.561	1017.12
565.773	1055.12
565.985	1074.12
566.197	1136.12
566.408	1162.12
566.62	1255.12
566.832	1282.12
567.044	1313.12
567.255	1363.12
567.467	1387.12
567.679	1436.12
567.891	1490.12
568.102	1474.12
568.314	1404.12
568.526	1339.12
568.737	1256.12
568.949	1150.12
569.161	1107.12
569.372	1043.12
569.584	1018.12
569.795	962.12
570.007	950.12
570.218	923.12
570.43	909.12
570.641	873.12
570.853	909.12
571.064	891.12
571.276	879.12
571.487	858.12
571.698	834.12
571.91	807.12
572.121	796.12
572.333	806.12
572.544	790.12
572.755	761.12
572.966	765.12
573.178	742.12
573.389	728.12
573.6	727.12
573.811	698.12
574.023	707.12
574.234	732.12
574.445	715.12
574.656	708.12
574.867	695.12
575.078	716.12
575.289	700.12
575.501	691.12
575.712	709.12
575.923	670.12
576.134	678.12
576.345	690.12
576.556	709.12
576.767	671.12
576.978	698.12
577.188	651.12
577.399	643.12
577.61	667.12
577.821	638.12
578.032	648.12
578.243	646.12
578.454	651.12
578.665	626.12
578.875	634.12
579.086	629.12
579.297	648.12
579.508	647.12
579.718	631.12
579.929	626.12
580.14	629.12
580.35	639.12
580.561	617.12
580.772	634.12
580.982	637.12
581.193	595.12
581.403	617.12
581.614	610.12
581.825	637.12
582.035	617.12
582.246	615.12
582.456	594.12
582.667	612.12
582.877	607.12
583.087	601.12
583.298	573.12
583.508	570.12
583.719	595.12
583.929	611.12
584.139	592.12
584.35	596.12
584.56	596.12
584.77	589.12
584.981	585.12
585.191	578.12
585.401	595.12
585.611	571.12
585.821	577.12
586.032	575.12
586.242	590.12
586.452	574.12
586.662	564.12
586.872	559.12
587.082	587.12
587.292	567.12
587.502	586.12
587.713	557.12
587.923	578.12
588.133	573.12
588.343	577.12
588.553	576.12
588.762	548.12
588.972	576.12
589.182	597.12
589.392	582.12
589.602	593.12
589.812	596.12
590.022	591.12
590.232	578.12
590.441	556.12
590.651	548.12
590.861	596.12
591.071	579.12
591.281	594.12
591.49	602.12
591.7	618.12
591.91	618.12
592.119	598.12
592.329	619.12
592.539	612.12
592.748	655.12
592.958	652.12
593.167	668.12
593.377	680.12
593.587	661.12
593.796	676.12
594.006	688.12
594.215	698.12
594.424	679.12
594.634	669.12
594.843	659.12
595.053	630.12
595.262	605.12
595.472	594.12
595.681	594.12
595.89	581.12
596.1	551.12
596.309	559.12
596.518	542.12
596.727	553.12
596.937	529.12
597.146	531.12
597.355	519.12
597.564	521.12
597.774	518.12
597.983	506.12
598.192	497.12
598.401	491.12
598.61	479.12
598.819	476.12
599.028	491.12
599.237	488.12
599.446	479.12
599.655	489.12
599.864	486.12
600.073	483.12
600.282	479.12
600.491	456.12
600.7	483.12
600.909	487.12
601.118	473.12
601.327	472.12
601.536	481.12
601.745	476.12
601.953	453.12
602.162	467.12
602.371	464.12
602.58	471.12
602.789	469.12
602.997	468.12
603.206	448.12
603.415	444.12
603.623	428.12
603.832	412.12
604.041	443.12
604.249	441.12
604.458	454.12
604.666	451.12
604.875	426.12
605.084	427.12
605.292	453.12
605.501	428.12
605.709	433.12
605.918	423.12
606.126	434.12
606.334	406.12
606.543	430.12
606.751	417.12
606.96	425.12
607.168	437.12
607.376	434.12
607.585	431.12
607.793	416.12
608.001	408.12
608.21	417.12
608.418	413.12
608.626	430.12
608.834	408.12
609.043	422.12
609.251	404.12
609.459	417.12
609.667	425.12
609.875	410.12
610.083	406.12
610.291	428.12
610.499	401.12
610.707	407.12
610.916	421.12
611.124	398.12
611.332	407.12
611.54	401.12
611.748	416.12
611.955	421.12
612.163	424.12
612.371	398.12
612.579	407.12
612.787	406.12
612.995	399.12
613.203	394.12
613.411	403.12
613.618	394.12
613.826	401.12
614.034	398.12
614.242	386.12
614.449	397.12
614.657	394.12
614.865	395.12
615.072	388.12
615.28	410.12
615.488	413.12
615.695	380.12
615.903	396.12
616.111	392.12
616.318	383.12
616.526	410.12
616.733	423.12
616.941	409.12
617.148	416.12
617.356	382.12
617.563	388.12
617.771	392.12
617.978	406.12
618.185	402.12
618.393	418.12
618.6	394.12
618.807	400.12
619.015	385.12
619.222	379.12
619.429	392.12
619.637	374.12
619.844	392.12
620.051	384.12
620.258	377.12
620.466	356.12
620.673	358.12
620.88	340.12
621.087	355.12
621.294	374.12
621.501	374.12
621.708	373.12
621.915	351.12
622.122	362.12
622.329	364.12
622.536	371.12
622.743	351.12
622.95	339.12
623.157	347.12
623.364	352.12
623.571	365.12
623.778	358.12
623.985	360.12
624.192	349.12
624.399	347.12
624.606	344.12
624.812	334.12
625.019	333.12
625.226	326.12
625.433	322.12
625.639	320.12
625.846	314.12
626.053	347.12
626.259	354.12
626.466	327.12
626.673	315.12
626.879	330.12
627.086	336.12
627.293	334.12
627.499	325.12
627.706	335.12
627.912	332.12
628.119	345.12
628.325	331.12
628.532	322.12
628.738	312.12
628.945	327.12
629.151	311.12
629.357	320.12
629.564	292.12
629.77	327.12
629.976	310.12
630.183	315.12
630.389	318.12
630.595	310.12
630.802	295.12
631.008	296.12
631.214	287.12
631.42	295.12
631.627	297.12
631.833	291.12
632.039	311.12
632.245	312.12
632.451	290.12
632.657	310.12
632.863	292.12
633.069	307.12
633.275	308.12
633.481	295.12
633.688	278.12
633.893	298.12
634.099	324.12
634.305	295.12
634.511	298.12
634.717	287.12
634.923	286.12
635.129	286.12
635.335	295.12
635.541	289.12
635.747	309.12
635.952	296.12
636.158	274.12
636.364	275.12
636.57	293.12
636.775	272.12
636.981	294.12
637.187	296.12
637.392	282.12
637.598	284.12
637.804	293.12
638.009	282.12
638.215	279.12
638.421	273.12
638.626	299.12
638.832	253.12
639.037	271.12
639.243	272.12
639.448	274.12
639.654	296.12
639.859	285.12
640.065	262.12
640.27	255.12
640.475	280.12
640.681	289.12
640.886	271.12
641.091	266.12
641.297	294.12
641.502	261.12
641.707	266.12
641.913	276.12
642.118	273.12
642.323	264.12
642.528	280.12
642.733	254.12
642.939	265.12
643.144	274.12
643.349	270.12
643.554	268.12
643.759	274.12
643.964	278.12
644.169	272.12
644.374	262.12
644.579	265.12
644.784	268.12
644.989	274.12
645.194	256.12
645.399	269.12
645.604	256.12
645.809	284.12
646.014	283.12
646.219	282.12
646.423	276.12
646.628	296.12
646.833	274.12
647.038	280.12
647.243	273.12
647.447	292.12
647.652	282.12
647.857	275.12
648.062	312.12
648.266	322.12
648.471	285.12
648.676	285.12
648.88	300.12
649.085	299.12
649.289	304.12
649.494	299.12
649.698	270.12
649.903	272.12
650.107	289.12
650.312	286.12
650.516	287.12
650.721	285.12
650.925	282.12
651.13	277.12
651.334	287.12
651.539	265.12
651.743	256.12
651.947	269.12
652.152	271.12
652.356	260.12
652.56	267.12
652.764	270.12
652.969	264.12
653.173	268.12
653.377	266.12
653.581	268.12
653.785	263.12
653.99	266.12
654.194	282.12
654.398	273.12
654.602	278.12
654.806	281.12
655.01	291.12
655.214	277.12
655.418	299.12
655.622	302.12
655.826	312.12
656.03	343.12
656.234	361.12
656.438	389.12
656.642	390.12
656.846	373.12
657.049	329.12
657.253	294.12
657.457	270.12
657.661	246.12
657.865	217.12
658.068	218.12
658.272	196.12
658.476	186.12
658.68	178.12
658.883	175.12
659.087	160.12
659.291	147.12
659.494	144.12
659.698	143.12
659.901	157.12
660.105	130.12
660.309	115.12
660.512	122.12
660.716	112.12
660.919	112.12
661.123	114.12
661.326	108.12
661.53	101.12
661.733	116.12
661.936	107.12
662.14	97.12
662.343	94.12
662.546	94.12
662.75	91.12
662.953	109.12
663.156	83.12
663.36	98.12
663.563	75.12
663.766	79.12
663.969	75.12
664.173	102.12
664.376	80.12
664.579	76.12
664.782	74.12
664.985	100.12
665.188	70.12
665.391	72.12
665.594	61.12
665.797	77.12
666	81.12
666.203	89.12
666.406	80.12
666.609	82.12
666.812	93.12
667.015	78.12
667.218	86.12
667.421	81.12
667.624	76.12
667.827	84.12
668.03	86.12
668.232	75.12
668.435	94.12
668.638	91.12
668.841	91.12
669.043	96.12
669.246	85.12
669.449	66.12
669.651	78.12
669.854	80.12
670.057	82.12
670.259	67.12
670.462	81.12
670.665	85.12
670.867	75.12
671.07	88.12
671.272	83.12
671.475	83.12
671.677	80.12
671.88	80.12
672.082	85.12
672.284	74.12
672.487	101.12
672.689	78.12
672.892	89.12
