Data from NiCl2@0.25M.TitratingCurve.Agarose3%dH2O.NegLispCup.LampEnergy10.LIBS07252019_HRD10591_18-22-44-572.txt Node
Date: Thu Jul 25 18:22:44 EDT 2019
User: cochatt
Spectrometer: HR+D1059
Trigger mode: 1
Integration Time (sec): 1.000000E-1
Scans to average: 1
Electric dark correction enabled: true
Nonlinearity correction enabled: false
Boxcar width: 0
XAxis mode: Wavelengths
Number of Pixels in Spectrum: 2048
>>>>>Begin Spectral Data<<<<<
223.165	-15.38
223.4	-15.38
223.635	-15.38
223.869	-13.38
224.104	-18.38
224.338	-1.38
224.573	-23.38
224.808	-11.38
225.042	-0.38
225.277	-12.38
225.511	1.62
225.746	14.62
225.98	-14.38
226.215	4.62
226.449	13.62
226.683	25.62
226.918	17.62
227.152	32.62
227.387	32.62
227.621	20.62
227.856	36.62
228.09	40.62
228.324	57.62
228.559	40.62
228.793	57.62
229.027	83.62
229.262	84.62
229.496	97.62
229.73	96.62
229.964	103.62
230.199	96.62
230.433	117.62
230.667	113.62
230.901	122.62
231.136	103.62
231.37	126.62
231.604	118.62
231.838	121.62
232.072	125.62
232.306	107.62
232.541	125.62
232.775	117.62
233.009	128.62
233.243	112.62
233.477	124.62
233.711	112.62
233.945	120.62
234.179	114.62
234.413	114.62
234.647	110.62
234.881	129.62
235.115	116.62
235.349	122.62
235.583	121.62
235.817	120.62
236.051	132.62
236.285	130.62
236.519	142.62
236.753	132.62
236.987	121.62
237.221	135.62
237.455	123.62
237.689	131.62
237.922	129.62
238.156	142.62
238.39	144.62
238.624	137.62
238.858	149.62
239.091	127.62
239.325	124.62
239.559	128.62
239.793	139.62
240.027	151.62
240.26	132.62
240.494	147.62
240.728	157.62
240.961	145.62
241.195	138.62
241.429	166.62
241.662	145.62
241.896	158.62
242.13	154.62
242.363	161.62
242.597	151.62
242.83	165.62
243.064	143.62
243.298	152.62
243.531	146.62
243.765	153.62
243.998	150.62
244.232	158.62
244.465	162.62
244.699	150.62
244.932	151.62
245.166	167.62
245.399	168.62
245.633	161.62
245.866	157.62
246.099	166.62
246.333	167.62
246.566	163.62
246.8	159.62
247.033	165.62
247.266	152.62
247.5	178.62
247.733	164.62
247.966	183.62
248.2	188.62
248.433	161.62
248.666	177.62
248.899	181.62
249.133	196.62
249.366	175.62
249.599	184.62
249.832	177.62
250.066	189.62
250.299	183.62
250.532	186.62
250.765	194.62
250.998	196.62
251.231	189.62
251.465	189.62
251.698	194.62
251.931	205.62
252.164	186.62
252.397	183.62
252.63	196.62
252.863	200.62
253.096	212.62
253.329	219.62
253.562	189.62
253.795	212.62
254.028	209.62
254.261	206.62
254.494	185.62
254.727	206.62
254.96	201.62
255.193	207.62
255.426	220.62
255.659	186.62
255.892	205.62
256.124	209.62
256.357	190.62
256.59	199.62
256.823	222.62
257.056	216.62
257.289	222.62
257.521	204.62
257.754	222.62
257.987	224.62
258.22	221.62
258.452	245.62
258.685	222.62
258.918	221.62
259.151	203.62
259.383	238.62
259.616	229.62
259.849	233.62
260.081	207.62
260.314	232.62
260.547	229.62
260.779	237.62
261.012	239.62
261.244	225.62
261.477	242.62
261.71	223.62
261.942	225.62
262.175	220.62
262.407	223.62
262.64	228.62
262.872	221.62
263.105	254.62
263.337	254.62
263.57	238.62
263.802	242.62
264.035	258.62
264.267	251.62
264.499	245.62
264.732	237.62
264.964	243.62
265.197	265.62
265.429	248.62
265.661	256.62
265.894	252.62
266.126	253.62
266.358	252.62
266.591	258.62
266.823	247.62
267.055	272.62
267.287	260.62
267.52	264.62
267.752	253.62
267.984	263.62
268.216	261.62
268.448	264.62
268.681	283.62
268.913	280.62
269.145	264.62
269.377	267.62
269.609	262.62
269.841	287.62
270.073	276.62
270.306	287.62
270.538	277.62
270.77	281.62
271.002	267.62
271.234	277.62
271.466	279.62
271.698	287.62
271.93	285.62
272.162	280.62
272.394	284.62
272.626	272.62
272.858	295.62
273.09	267.62
273.322	289.62
273.553	292.62
273.785	279.62
274.017	309.62
274.249	307.62
274.481	288.62
274.713	320.62
274.945	285.62
275.176	284.62
275.408	305.62
275.64	295.62
275.872	290.62
276.104	304.62
276.335	292.62
276.567	309.62
276.799	300.62
277.031	306.62
277.262	321.62
277.494	320.62
277.726	316.62
277.957	297.62
278.189	300.62
278.421	301.62
278.652	309.62
278.884	325.62
279.115	328.62
279.347	322.62
279.579	314.62
279.81	306.62
280.042	323.62
280.273	304.62
280.505	307.62
280.736	326.62
280.968	321.62
281.199	336.62
281.431	339.62
281.662	329.62
281.894	341.62
282.125	329.62
282.356	345.62
282.588	350.62
282.819	336.62
283.051	337.62
283.282	354.62
283.513	326.62
283.745	336.62
283.976	333.62
284.207	350.62
284.439	351.62
284.67	357.62
284.901	351.62
285.132	342.62
285.364	362.62
285.595	353.62
285.826	343.62
286.057	357.62
286.288	348.62
286.52	351.62
286.751	349.62
286.982	348.62
287.213	353.62
287.444	362.62
287.675	346.62
287.906	360.62
288.138	348.62
288.369	361.62
288.6	367.62
288.831	341.62
289.062	388.62
289.293	378.62
289.524	343.62
289.755	351.62
289.986	371.62
290.217	355.62
290.448	354.62
290.679	387.62
290.91	365.62
291.141	398.62
291.371	372.62
291.602	383.62
291.833	377.62
292.064	377.62
292.295	360.62
292.526	368.62
292.757	380.62
292.987	356.62
293.218	345.62
293.449	383.62
293.68	370.62
293.91	374.62
294.141	371.62
294.372	369.62
294.603	380.62
294.833	378.62
295.064	386.62
295.295	379.62
295.525	393.62
295.756	380.62
295.987	384.62
296.217	400.62
296.448	401.62
296.679	397.62
296.909	395.62
297.14	388.62
297.37	394.62
297.601	385.62
297.831	395.62
298.062	400.62
298.292	392.62
298.523	401.62
298.753	403.62
298.984	382.62
299.214	405.62
299.445	401.62
299.675	404.62
299.905	394.62
300.136	416.62
300.366	414.62
300.597	404.62
300.827	420.62
301.057	431.62
301.288	416.62
301.518	420.62
301.748	426.62
301.979	412.62
302.209	435.62
302.439	414.62
302.669	426.62
302.9	429.62
303.13	421.62
303.36	424.62
303.59	414.62
303.82	430.62
304.051	426.62
304.281	452.62
304.511	426.62
304.741	431.62
304.971	435.62
305.201	434.62
305.431	423.62
305.661	413.62
305.891	433.62
306.121	413.62
306.352	421.62
306.582	415.62
306.812	414.62
307.042	432.62
307.272	400.62
307.502	435.62
307.731	399.62
307.961	414.62
308.191	396.62
308.421	417.62
308.651	410.62
308.881	394.62
309.111	410.62
309.341	405.62
309.571	416.62
309.8	430.62
310.03	420.62
310.26	402.62
310.49	428.62
310.72	423.62
310.949	435.62
311.179	438.62
311.409	415.62
311.639	437.62
311.868	440.62
312.098	445.62
312.328	447.62
312.557	435.62
312.787	429.62
313.017	436.62
313.246	445.62
313.476	436.62
313.706	439.62
313.935	450.62
314.165	464.62
314.394	447.62
314.624	456.62
314.853	441.62
315.083	447.62
315.312	471.62
315.542	449.62
315.771	439.62
316.001	436.62
316.23	439.62
316.46	439.62
316.689	454.62
316.919	440.62
317.148	457.62
317.377	440.62
317.607	429.62
317.836	448.62
318.065	449.62
318.295	466.62
318.524	438.62
318.753	445.62
318.983	440.62
319.212	448.62
319.441	438.62
319.67	437.62
319.9	441.62
320.129	477.62
320.358	456.62
320.587	438.62
320.816	457.62
321.046	439.62
321.275	467.62
321.504	452.62
321.733	433.62
321.962	424.62
322.191	424.62
322.42	461.62
322.649	442.62
322.878	458.62
323.108	486.62
323.337	463.62
323.566	452.62
323.795	438.62
324.024	452.62
324.253	459.62
324.482	449.62
324.71	463.62
324.939	472.62
325.168	473.62
325.397	453.62
325.626	468.62
325.855	488.62
326.084	477.62
326.313	477.62
326.542	485.62
326.77	479.62
326.999	485.62
327.228	480.62
327.457	482.62
327.686	482.62
327.914	493.62
328.143	480.62
328.372	492.62
328.6	479.62
328.829	499.62
329.058	486.62
329.287	487.62
329.515	465.62
329.744	476.62
329.972	498.62
330.201	486.62
330.43	490.62
330.658	515.62
330.887	510.62
331.115	502.62
331.344	509.62
331.572	515.62
331.801	500.62
332.03	552.62
332.258	543.62
332.486	545.62
332.715	566.62
332.943	588.62
333.172	621.62
333.4	630.62
333.629	633.62
333.857	638.62
334.085	649.62
334.314	624.62
334.542	620.62
334.771	613.62
334.999	611.62
335.227	586.62
335.455	610.62
335.684	606.62
335.912	592.62
336.14	590.62
336.369	592.62
336.597	601.62
336.825	598.62
337.053	586.62
337.281	583.62
337.51	552.62
337.738	556.62
337.966	560.62
338.194	545.62
338.422	560.62
338.65	543.62
338.878	552.62
339.106	553.62
339.334	529.62
339.562	521.62
339.79	498.62
340.018	510.62
340.246	514.62
340.474	499.62
340.702	508.62
340.93	508.62
341.158	512.62
341.386	501.62
341.614	530.62
341.842	513.62
342.07	530.62
342.298	528.62
342.526	513.62
342.754	522.62
342.981	498.62
343.209	528.62
343.437	549.62
343.665	574.62
343.893	599.62
344.12	597.62
344.348	609.62
344.576	576.62
344.804	564.62
345.031	541.62
345.259	540.62
345.487	524.62
345.714	506.62
345.942	519.62
346.17	514.62
346.397	505.62
346.625	503.62
346.853	503.62
347.08	501.62
347.308	517.62
347.535	500.62
347.763	502.62
347.99	492.62
348.218	508.62
348.445	508.62
348.673	480.62
348.9	488.62
349.128	484.62
349.355	494.62
349.583	487.62
349.81	503.62
350.037	476.62
350.265	474.62
350.492	477.62
350.72	484.62
350.947	486.62
351.174	489.62
351.402	479.62
351.629	465.62
351.856	468.62
352.083	489.62
352.311	492.62
352.538	466.62
352.765	508.62
352.992	488.62
353.22	468.62
353.447	478.62
353.674	472.62
353.901	457.62
354.128	470.62
354.355	468.62
354.583	476.62
354.81	477.62
355.037	476.62
355.264	466.62
355.491	455.62
355.718	477.62
355.945	481.62
356.172	491.62
356.399	470.62
356.626	480.62
356.853	487.62
357.08	488.62
357.307	487.62
357.534	451.62
357.761	480.62
357.988	494.62
358.215	484.62
358.441	492.62
358.668	500.62
358.895	463.62
359.122	507.62
359.349	462.62
359.576	487.62
359.802	477.62
360.029	473.62
360.256	476.62
360.483	482.62
360.709	472.62
360.936	504.62
361.163	487.62
361.39	481.62
361.616	493.62
361.843	493.62
362.07	498.62
362.296	498.62
362.523	488.62
362.749	498.62
362.976	469.62
363.203	496.62
363.429	471.62
363.656	478.62
363.882	474.62
364.109	466.62
364.335	476.62
364.562	468.62
364.788	459.62
365.015	474.62
365.241	458.62
365.468	482.62
365.694	458.62
365.92	465.62
366.147	479.62
366.373	483.62
366.599	487.62
366.826	467.62
367.052	475.62
367.278	481.62
367.505	492.62
367.731	482.62
367.957	487.62
368.184	475.62
368.41	483.62
368.636	500.62
368.862	487.62
369.089	482.62
369.315	502.62
369.541	512.62
369.767	515.62
369.993	506.62
370.219	490.62
370.445	514.62
370.672	503.62
370.898	510.62
371.124	510.62
371.35	522.62
371.576	496.62
371.802	520.62
372.028	507.62
372.254	521.62
372.48	508.62
372.706	546.62
372.932	537.62
373.158	540.62
373.384	536.62
373.61	521.62
373.835	530.62
374.061	537.62
374.287	531.62
374.513	550.62
374.739	539.62
374.965	553.62
375.191	579.62
375.416	573.62
375.642	563.62
375.868	537.62
376.094	545.62
376.319	530.62
376.545	531.62
376.771	528.62
376.997	522.62
377.222	530.62
377.448	538.62
377.674	510.62
377.899	536.62
378.125	493.62
378.35	530.62
378.576	526.62
378.802	534.62
379.027	516.62
379.253	512.62
379.478	521.62
379.704	516.62
379.929	490.62
380.155	542.62
380.38	520.62
380.606	534.62
380.831	503.62
381.057	528.62
381.282	523.62
381.507	501.62
381.733	511.62
381.958	526.62
382.184	536.62
382.409	518.62
382.634	547.62
382.86	526.62
383.085	542.62
383.31	559.62
383.535	574.62
383.761	594.62
383.986	569.62
384.211	605.62
384.436	590.62
384.662	605.62
384.887	598.62
385.112	627.62
385.337	626.62
385.562	620.62
385.787	609.62
386.013	630.62
386.238	620.62
386.463	610.62
386.688	624.62
386.913	602.62
387.138	614.62
387.363	617.62
387.588	616.62
387.813	590.62
388.038	612.62
388.263	626.62
388.488	624.62
388.713	606.62
388.938	615.62
389.163	610.62
389.387	599.62
389.612	587.62
389.837	590.62
390.062	570.62
390.287	576.62
390.512	615.62
390.736	613.62
390.961	626.62
391.186	632.62
391.411	644.62
391.636	649.62
391.86	656.62
392.085	686.62
392.31	697.62
392.534	678.62
392.759	673.62
392.984	669.62
393.208	660.62
393.433	648.62
393.658	655.62
393.882	657.62
394.107	690.62
394.331	686.62
394.556	650.62
394.78	670.62
395.005	657.62
395.229	633.62
395.454	677.62
395.678	703.62
395.903	688.62
396.127	685.62
396.352	671.62
396.576	659.62
396.801	625.62
397.025	647.62
397.249	692.62
397.474	687.62
397.698	709.62
397.922	705.62
398.147	703.62
398.371	705.62
398.595	735.62
398.82	759.62
399.044	814.62
399.268	880.62
399.492	1006.62
399.717	1101.62
399.941	1109.62
400.165	1023.62
400.389	892.62
400.613	865.62
400.837	775.62
401.062	782.62
401.286	805.62
401.51	768.62
401.734	784.62
401.958	763.62
402.182	778.62
402.406	793.62
402.63	807.62
402.854	841.62
403.078	795.62
403.302	840.62
403.526	847.62
403.75	873.62
403.974	885.62
404.198	856.62
404.422	875.62
404.645	859.62
404.869	850.62
405.093	847.62
405.317	832.62
405.541	861.62
405.765	832.62
405.988	846.62
406.212	830.62
406.436	816.62
406.66	878.62
406.883	870.62
407.107	898.62
407.331	950.62
407.555	980.62
407.778	974.62
408.002	941.62
408.226	940.62
408.449	908.62
408.673	909.62
408.896	871.62
409.12	845.62
409.344	882.62
409.567	853.62
409.791	866.62
410.014	865.62
410.238	852.62
410.461	872.62
410.685	841.62
410.908	821.62
411.132	837.62
411.355	788.62
411.578	812.62
411.802	794.62
412.025	825.62
412.249	822.62
412.472	829.62
412.695	776.62
412.919	760.62
413.142	759.62
413.365	765.62
413.589	764.62
413.812	790.62
414.035	753.62
414.258	765.62
414.482	803.62
414.705	804.62
414.928	777.62
415.151	772.62
415.374	778.62
415.597	730.62
415.821	744.62
416.044	743.62
416.267	755.62
416.49	744.62
416.713	755.62
416.936	768.62
417.159	762.62
417.382	766.62
417.605	758.62
417.828	757.62
418.051	761.62
418.274	776.62
418.497	785.62
418.72	788.62
418.943	791.62
419.166	822.62
419.389	872.62
419.611	826.62
419.834	789.62
420.057	771.62
420.28	794.62
420.503	753.62
420.726	756.62
420.948	741.62
421.171	744.62
421.394	788.62
421.617	756.62
421.839	745.62
422.062	768.62
422.285	762.62
422.507	787.62
422.73	788.62
422.953	784.62
423.175	800.62
423.398	774.62
423.621	781.62
423.843	805.62
424.066	838.62
424.288	800.62
424.511	818.62
424.733	804.62
424.956	777.62
425.178	745.62
425.401	743.62
425.623	745.62
425.846	723.62
426.068	756.62
426.291	734.62
426.513	723.62
426.735	737.62
426.958	733.62
427.18	701.62
427.402	680.62
427.625	686.62
427.847	675.62
428.069	688.62
428.292	694.62
428.514	704.62
428.736	667.62
428.958	695.62
429.181	667.62
429.403	690.62
429.625	695.62
429.847	670.62
430.069	682.62
430.292	700.62
430.514	672.62
430.736	679.62
430.958	701.62
431.18	658.62
431.402	686.62
431.624	664.62
431.846	674.62
432.068	704.62
432.29	709.62
432.512	688.62
432.734	694.62
432.956	666.62
433.178	685.62
433.4	692.62
433.622	697.62
433.844	710.62
434.066	702.62
434.287	702.62
434.509	740.62
434.731	761.62
434.953	770.62
435.175	754.62
435.397	769.62
435.618	742.62
435.84	704.62
436.062	721.62
436.284	697.62
436.505	679.62
436.727	690.62
436.949	700.62
437.17	678.62
437.392	664.62
437.614	647.62
437.835	651.62
438.057	661.62
438.278	661.62
438.5	665.62
438.721	664.62
438.943	678.62
439.165	652.62
439.386	698.62
439.608	674.62
439.829	668.62
440.05	689.62
440.272	685.62
440.493	700.62
440.715	714.62
440.936	701.62
441.158	713.62
441.379	750.62
441.6	748.62
441.822	774.62
442.043	784.62
442.264	738.62
442.486	749.62
442.707	746.62
442.928	744.62
443.149	765.62
443.371	786.62
443.592	775.62
443.813	771.62
444.034	790.62
444.255	779.62
444.476	828.62
444.698	897.62
444.919	920.62
445.14	984.62
445.361	854.62
445.582	777.62
445.803	758.62
446.024	744.62
446.245	737.62
446.466	719.62
446.687	711.62
446.908	676.62
447.129	670.62
447.35	687.62
447.571	647.62
447.792	640.62
448.013	631.62
448.234	646.62
448.455	640.62
448.675	640.62
448.896	647.62
449.117	597.62
449.338	636.62
449.559	656.62
449.779	625.62
450	639.62
450.221	645.62
450.442	631.62
450.662	640.62
450.883	649.62
451.104	648.62
451.324	624.62
451.545	628.62
451.766	627.62
451.986	633.62
452.207	622.62
452.428	618.62
452.648	620.62
452.869	610.62
453.089	599.62
453.31	645.62
453.53	607.62
453.751	607.62
453.971	582.62
454.192	596.62
454.412	605.62
454.633	629.62
454.853	610.62
455.073	582.62
455.294	588.62
455.514	616.62
455.734	594.62
455.955	572.62
456.175	592.62
456.395	580.62
456.616	569.62
456.836	585.62
457.056	593.62
457.276	576.62
457.497	615.62
457.717	578.62
457.937	607.62
458.157	589.62
458.377	612.62
458.598	624.62
458.818	612.62
459.038	654.62
459.258	661.62
459.478	686.62
459.698	695.62
459.918	740.62
460.138	764.62
460.358	797.62
460.578	812.62
460.798	794.62
461.018	816.62
461.238	786.62
461.458	809.62
461.678	806.62
461.898	818.62
462.118	828.62
462.338	856.62
462.558	894.62
462.777	901.62
462.997	1001.62
463.217	1035.62
463.437	1065.62
463.657	970.62
463.876	935.62
464.096	927.62
464.316	917.62
464.536	940.62
464.755	885.62
464.975	858.62
465.195	832.62
465.414	781.62
465.634	770.62
465.854	722.62
466.073	701.62
466.293	676.62
466.512	692.62
466.732	671.62
466.951	676.62
467.171	670.62
467.391	669.62
467.61	648.62
467.829	668.62
468.049	647.62
468.268	636.62
468.488	649.62
468.707	635.62
468.927	642.62
469.146	631.62
469.365	652.62
469.585	655.62
469.804	684.62
470.023	660.62
470.243	662.62
470.462	685.62
470.681	694.62
470.901	682.62
471.12	682.62
471.339	670.62
471.558	665.62
471.777	657.62
471.997	656.62
472.216	646.62
472.435	638.62
472.654	646.62
472.873	621.62
473.092	628.62
473.311	625.62
473.53	611.62
473.749	620.62
473.968	617.62
474.187	613.62
474.406	634.62
474.625	632.62
474.844	614.62
475.063	631.62
475.282	614.62
475.501	638.62
475.72	654.62
475.939	655.62
476.158	658.62
476.377	658.62
476.596	647.62
476.814	654.62
477.033	684.62
477.252	680.62
477.471	679.62
477.69	722.62
477.908	737.62
478.127	732.62
478.346	743.62
478.564	756.62
478.783	751.62
479.002	798.62
479.22	788.62
479.439	768.62
479.658	746.62
479.876	774.62
480.095	760.62
480.313	813.62
480.532	837.62
480.751	800.62
480.969	805.62
481.188	770.62
481.406	735.62
481.624	714.62
481.843	755.62
482.061	718.62
482.28	733.62
482.498	712.62
482.717	735.62
482.935	713.62
483.153	714.62
483.372	723.62
483.59	728.62
483.808	725.62
484.027	720.62
484.245	729.62
484.463	738.62
484.681	734.62
484.9	740.62
485.118	752.62
485.336	727.62
485.554	743.62
485.772	744.62
485.99	753.62
486.209	765.62
486.427	772.62
486.645	779.62
486.863	777.62
487.081	780.62
487.299	752.62
487.517	754.62
487.735	744.62
487.953	753.62
488.171	750.62
488.389	786.62
488.607	734.62
488.825	733.62
489.043	733.62
489.261	726.62
489.479	751.62
489.696	727.62
489.914	726.62
490.132	766.62
490.35	754.62
490.568	744.62
490.786	762.62
491.003	760.62
491.221	758.62
491.439	789.62
491.657	742.62
491.874	772.62
492.092	762.62
492.31	783.62
492.527	784.62
492.745	771.62
492.963	801.62
493.18	784.62
493.398	792.62
493.615	818.62
493.833	782.62
494.05	789.62
494.268	815.62
494.485	806.62
494.703	806.62
494.92	788.62
495.138	801.62
495.355	795.62
495.573	807.62
495.79	827.62
496.008	805.62
496.225	824.62
496.442	847.62
496.66	844.62
496.877	843.62
497.094	853.62
497.312	871.62
497.529	926.62
497.746	918.62
497.963	938.62
498.181	970.62
498.398	994.62
498.615	1059.62
498.832	1119.62
499.049	1225.62
499.267	1326.62
499.484	1420.62
499.701	1589.62
499.918	1704.62
500.135	1913.62
500.352	2122.62
500.569	2207.62
500.786	2224.62
501.003	2026.62
501.22	1873.62
501.437	1688.62
501.654	1478.62
501.871	1420.62
502.088	1288.62
502.305	1216.62
502.522	1144.62
502.739	1136.62
502.956	1064.62
503.172	984.62
503.389	950.62
503.606	952.62
503.823	934.62
504.04	919.62
504.256	916.62
504.473	929.62
504.69	949.62
504.907	933.62
505.123	886.62
505.34	846.62
505.557	805.62
505.773	774.62
505.99	772.62
506.207	784.62
506.423	779.62
506.64	729.62
506.856	741.62
507.073	706.62
507.289	749.62
507.506	730.62
507.722	735.62
507.939	701.62
508.155	695.62
508.372	690.62
508.588	708.62
508.805	693.62
509.021	697.62
509.238	677.62
509.454	690.62
509.67	684.62
509.887	664.62
510.103	688.62
510.319	661.62
510.536	678.62
510.752	644.62
510.968	646.62
511.184	633.62
511.401	646.62
511.617	650.62
511.833	661.62
512.049	652.62
512.265	649.62
512.481	643.62
512.698	660.62
512.914	645.62
513.13	651.62
513.346	662.62
513.562	641.62
513.778	666.62
513.994	658.62
514.21	647.62
514.426	654.62
514.642	649.62
514.858	651.62
515.074	663.62
515.29	673.62
515.506	681.62
515.721	695.62
515.937	692.62
516.153	710.62
516.369	734.62
516.585	744.62
516.801	749.62
517.016	770.62
517.232	822.62
517.448	836.62
517.664	866.62
517.879	877.62
518.095	887.62
518.311	877.62
518.527	838.62
518.742	790.62
518.958	780.62
519.173	756.62
519.389	710.62
519.605	721.62
519.82	695.62
520.036	677.62
520.251	680.62
520.467	682.62
520.682	670.62
520.898	627.62
521.113	627.62
521.329	603.62
521.544	594.62
521.76	630.62
521.975	634.62
522.19	625.62
522.406	626.62
522.621	622.62
522.836	629.62
523.052	627.62
523.267	614.62
523.482	608.62
523.698	583.62
523.913	603.62
524.128	600.62
524.343	600.62
524.559	610.62
524.774	596.62
524.989	594.62
525.204	602.62
525.419	618.62
525.634	582.62
525.849	590.62
526.064	585.62
526.28	608.62
526.495	564.62
526.71	586.62
526.925	577.62
527.14	573.62
527.355	608.62
527.57	604.62
527.785	597.62
527.999	600.62
528.214	589.62
528.429	582.62
528.644	594.62
528.859	574.62
529.074	600.62
529.289	605.62
529.503	609.62
529.718	588.62
529.933	613.62
530.148	584.62
530.363	589.62
530.577	576.62
530.792	576.62
531.007	570.62
531.221	592.62
531.436	569.62
531.651	560.62
531.865	592.62
532.08	591.62
532.295	589.62
532.509	583.62
532.724	587.62
532.938	592.62
533.153	598.62
533.367	560.62
533.582	590.62
533.796	584.62
534.011	576.62
534.225	582.62
534.44	568.62
534.654	557.62
534.868	565.62
535.083	564.62
535.297	548.62
535.511	559.62
535.726	559.62
535.94	552.62
536.154	561.62
536.369	544.62
536.583	556.62
536.797	528.62
537.011	546.62
537.225	559.62
537.44	542.62
537.654	542.62
537.868	525.62
538.082	532.62
538.296	537.62
538.51	539.62
538.724	554.62
538.938	538.62
539.153	540.62
539.367	544.62
539.581	524.62
539.795	539.62
540.009	528.62
540.222	515.62
540.436	522.62
540.65	532.62
540.864	533.62
541.078	520.62
541.292	526.62
541.506	532.62
541.72	527.62
541.934	534.62
542.147	530.62
542.361	545.62
542.575	550.62
542.789	541.62
543.002	528.62
543.216	528.62
543.43	528.62
543.644	506.62
543.857	519.62
544.071	516.62
544.285	539.62
544.498	521.62
544.712	546.62
544.925	526.62
545.139	518.62
545.352	522.62
545.566	558.62
545.779	546.62
545.993	529.62
546.206	563.62
546.42	546.62
546.633	534.62
546.847	528.62
547.06	530.62
547.274	547.62
547.487	531.62
547.7	534.62
547.914	578.62
548.127	549.62
548.34	558.62
548.554	547.62
548.767	552.62
548.98	545.62
549.193	549.62
549.407	545.62
549.62	546.62
549.833	543.62
550.046	557.62
550.259	550.62
550.473	558.62
550.686	549.62
550.899	552.62
551.112	536.62
551.325	529.62
551.538	530.62
551.751	534.62
551.964	540.62
552.177	542.62
552.39	546.62
552.603	559.62
552.816	526.62
553.029	575.62
553.242	565.62
553.455	590.62
553.667	574.62
553.88	568.62
554.093	564.62
554.306	557.62
554.519	540.62
554.732	554.62
554.944	520.62
555.157	518.62
555.37	521.62
555.583	508.62
555.795	492.62
556.008	464.62
556.221	477.62
556.433	468.62
556.646	496.62
556.859	484.62
557.071	494.62
557.284	474.62
557.496	460.62
557.709	456.62
557.921	461.62
558.134	445.62
558.346	467.62
558.559	470.62
558.771	469.62
558.984	437.62
559.196	442.62
559.409	452.62
559.621	444.62
559.833	450.62
560.046	426.62
560.258	449.62
560.47	425.62
560.683	451.62
560.895	430.62
561.107	456.62
561.32	457.62
561.532	446.62
561.744	446.62
561.956	450.62
562.168	465.62
562.381	444.62
562.593	448.62
562.805	465.62
563.017	449.62
563.229	441.62
563.441	452.62
563.653	458.62
563.865	453.62
564.077	480.62
564.289	443.62
564.501	460.62
564.713	485.62
564.925	498.62
565.137	490.62
565.349	506.62
565.561	509.62
565.773	520.62
565.985	534.62
566.197	583.62
566.408	585.62
566.62	646.62
566.832	694.62
567.044	688.62
567.255	723.62
567.467	730.62
567.679	772.62
567.891	803.62
568.102	779.62
568.314	772.62
568.526	709.62
568.737	650.62
568.949	598.62
569.161	552.62
569.372	541.62
569.584	503.62
569.795	477.62
570.007	470.62
570.218	468.62
570.43	457.62
570.641	450.62
570.853	460.62
571.064	463.62
571.276	462.62
571.487	456.62
571.698	423.62
571.91	416.62
572.121	414.62
572.333	391.62
572.544	396.62
572.755	402.62
572.966	396.62
573.178	381.62
573.389	392.62
573.6	378.62
573.811	386.62
574.023	374.62
574.234	364.62
574.445	355.62
574.656	372.62
574.867	388.62
575.078	386.62
575.289	360.62
575.501	358.62
575.712	329.62
575.923	341.62
576.134	330.62
576.345	367.62
576.556	358.62
576.767	354.62
576.978	358.62
577.188	345.62
577.399	351.62
577.61	345.62
577.821	349.62
578.032	340.62
578.243	354.62
578.454	348.62
578.665	339.62
578.875	323.62
579.086	325.62
579.297	322.62
579.508	348.62
579.718	324.62
579.929	331.62
580.14	326.62
580.35	344.62
580.561	322.62
580.772	329.62
580.982	307.62
581.193	329.62
581.403	341.62
581.614	325.62
581.825	321.62
582.035	297.62
582.246	318.62
582.456	322.62
582.667	316.62
582.877	322.62
583.087	324.62
583.298	312.62
583.508	317.62
583.719	302.62
583.929	316.62
584.139	301.62
584.35	312.62
584.56	289.62
584.77	306.62
584.981	324.62
585.191	314.62
585.401	312.62
585.611	318.62
585.821	292.62
586.032	294.62
586.242	297.62
586.452	309.62
586.662	306.62
586.872	307.62
587.082	301.62
587.292	294.62
587.502	303.62
587.713	302.62
587.923	270.62
588.133	317.62
588.343	308.62
588.553	298.62
588.762	331.62
588.972	314.62
589.182	303.62
589.392	333.62
589.602	327.62
589.812	310.62
590.022	316.62
590.232	311.62
590.441	315.62
590.651	312.62
590.861	310.62
591.071	317.62
591.281	312.62
591.49	302.62
591.7	322.62
591.91	336.62
592.119	326.62
592.329	334.62
592.539	346.62
592.748	352.62
592.958	350.62
593.167	345.62
593.377	355.62
593.587	388.62
593.796	380.62
594.006	398.62
594.215	389.62
594.424	386.62
594.634	368.62
594.843	357.62
595.053	352.62
595.262	341.62
595.472	338.62
595.681	326.62
595.89	318.62
596.1	304.62
596.309	288.62
596.518	300.62
596.727	286.62
596.937	305.62
597.146	251.62
597.355	278.62
597.564	274.62
597.774	271.62
597.983	259.62
598.192	260.62
598.401	258.62
598.61	274.62
598.819	264.62
599.028	260.62
599.237	258.62
599.446	263.62
599.655	267.62
599.864	258.62
600.073	259.62
600.282	254.62
600.491	246.62
600.7	256.62
600.909	250.62
601.118	270.62
601.327	259.62
601.536	229.62
601.745	256.62
601.953	245.62
602.162	268.62
602.371	241.62
602.58	260.62
602.789	272.62
602.997	240.62
603.206	245.62
603.415	248.62
603.623	229.62
603.832	252.62
604.041	246.62
604.249	250.62
604.458	249.62
604.666	239.62
604.875	241.62
605.084	232.62
605.292	243.62
605.501	236.62
605.709	242.62
605.918	234.62
606.126	242.62
606.334	246.62
606.543	232.62
606.751	252.62
606.96	239.62
607.168	228.62
607.376	205.62
607.585	232.62
607.793	240.62
608.001	247.62
608.21	249.62
608.418	229.62
608.626	231.62
608.834	241.62
609.043	239.62
609.251	229.62
609.459	244.62
609.667	224.62
609.875	243.62
610.083	233.62
610.291	237.62
610.499	232.62
610.707	230.62
610.916	237.62
611.124	221.62
611.332	237.62
611.54	235.62
611.748	229.62
611.955	211.62
612.163	213.62
612.371	233.62
612.579	235.62
612.787	217.62
612.995	224.62
613.203	223.62
613.411	229.62
613.618	213.62
613.826	217.62
614.034	209.62
614.242	214.62
614.449	216.62
614.657	210.62
614.865	221.62
615.072	212.62
615.28	215.62
615.488	221.62
615.695	226.62
615.903	219.62
616.111	241.62
616.318	226.62
616.526	227.62
616.733	231.62
616.941	221.62
617.148	218.62
617.356	227.62
617.563	206.62
617.771	227.62
617.978	223.62
618.185	217.62
618.393	208.62
618.6	225.62
618.807	217.62
619.015	233.62
619.222	214.62
619.429	210.62
619.637	228.62
619.844	229.62
620.051	218.62
620.258	211.62
620.466	224.62
620.673	178.62
620.88	218.62
621.087	201.62
621.294	210.62
621.501	215.62
621.708	214.62
621.915	198.62
622.122	225.62
622.329	199.62
622.536	220.62
622.743	204.62
622.95	205.62
623.157	215.62
623.364	201.62
623.571	171.62
623.778	189.62
623.985	200.62
624.192	200.62
624.399	208.62
624.606	210.62
624.812	192.62
625.019	197.62
625.226	197.62
625.433	199.62
625.639	192.62
625.846	188.62
626.053	181.62
626.259	193.62
626.466	192.62
626.673	189.62
626.879	202.62
627.086	197.62
627.293	186.62
627.499	185.62
627.706	192.62
627.912	195.62
628.119	201.62
628.325	205.62
628.532	193.62
628.738	181.62
628.945	191.62
629.151	183.62
629.357	189.62
629.564	199.62
629.77	194.62
629.976	188.62
630.183	194.62
630.389	186.62
630.595	178.62
630.802	196.62
631.008	186.62
631.214	185.62
631.42	193.62
631.627	187.62
631.833	167.62
632.039	174.62
632.245	181.62
632.451	195.62
632.657	196.62
632.863	180.62
633.069	189.62
633.275	178.62
633.481	169.62
633.688	174.62
633.893	169.62
634.099	181.62
634.305	175.62
634.511	165.62
634.717	182.62
634.923	169.62
635.129	162.62
635.335	172.62
635.541	182.62
635.747	181.62
635.952	167.62
636.158	176.62
636.364	170.62
636.57	173.62
636.775	162.62
636.981	154.62
637.187	166.62
637.392	158.62
637.598	174.62
637.804	200.62
638.009	168.62
638.215	184.62
638.421	188.62
638.626	131.62
638.832	164.62
639.037	151.62
639.243	184.62
639.448	165.62
639.654	172.62
639.859	165.62
640.065	165.62
640.27	172.62
640.475	156.62
640.681	148.62
640.886	156.62
641.091	148.62
641.297	180.62
641.502	174.62
641.707	156.62
641.913	143.62
642.118	155.62
642.323	153.62
642.528	168.62
642.733	155.62
642.939	159.62
643.144	152.62
643.349	160.62
643.554	153.62
643.759	166.62
643.964	165.62
644.169	148.62
644.374	151.62
644.579	162.62
644.784	166.62
644.989	159.62
645.194	167.62
645.399	171.62
645.604	147.62
645.809	153.62
646.014	143.62
646.219	163.62
646.423	157.62
646.628	164.62
646.833	156.62
647.038	137.62
647.243	152.62
647.447	156.62
647.652	167.62
647.857	162.62
648.062	143.62
648.266	174.62
648.471	164.62
648.676	164.62
648.88	158.62
649.085	162.62
649.289	161.62
649.494	151.62
649.698	135.62
649.903	146.62
650.107	153.62
650.312	158.62
650.516	157.62
650.721	142.62
650.925	140.62
651.13	138.62
651.334	132.62
651.539	144.62
651.743	126.62
651.947	152.62
652.152	135.62
652.356	126.62
652.56	137.62
652.764	130.62
652.969	143.62
653.173	140.62
653.377	146.62
653.581	140.62
653.785	132.62
653.99	127.62
654.194	117.62
654.398	136.62
654.602	126.62
654.806	134.62
655.01	133.62
655.214	121.62
655.418	138.62
655.622	149.62
655.826	104.62
656.03	129.62
656.234	128.62
656.438	132.62
656.642	104.62
656.846	121.62
657.049	113.62
657.253	122.62
657.457	113.62
657.661	105.62
657.865	113.62
658.068	104.62
658.272	112.62
658.476	99.62
658.68	112.62
658.883	102.62
659.087	98.62
659.291	97.62
659.494	95.62
659.698	104.62
659.901	99.62
660.105	81.62
660.309	91.62
660.512	95.62
660.716	104.62
660.919	97.62
661.123	96.62
661.326	101.62
661.53	110.62
661.733	72.62
661.936	90.62
662.14	73.62
662.343	87.62
662.546	88.62
662.75	88.62
662.953	83.62
663.156	82.62
663.36	81.62
663.563	68.62
663.766	72.62
663.969	81.62
664.173	62.62
664.376	78.62
664.579	79.62
664.782	77.62
664.985	84.62
665.188	87.62
665.391	78.62
665.594	84.62
665.797	87.62
666	79.62
666.203	89.62
666.406	73.62
666.609	76.62
666.812	64.62
667.015	86.62
667.218	80.62
667.421	77.62
667.624	85.62
667.827	87.62
668.03	89.62
668.232	69.62
668.435	72.62
668.638	86.62
668.841	81.62
669.043	71.62
669.246	83.62
669.449	80.62
669.651	89.62
669.854	74.62
670.057	84.62
670.259	72.62
670.462	73.62
670.665	74.62
670.867	89.62
671.07	84.62
671.272	74.62
671.475	103.62
671.677	77.62
671.88	89.62
672.082	81.62
672.284	71.62
672.487	85.62
672.689	81.62
672.892	78.62
