Data from NiCl2@0.5M.TitratingCurve.Agarose3%dH2O.NegLispCup.LampEnergy10.LIBS07252019_HRD10591_18-21-13-572.txt Node
Date: Thu Jul 25 18:21:13 EDT 2019
User: cochatt
Spectrometer: HR+D1059
Trigger mode: 1
Integration Time (sec): 1.000000E-1
Scans to average: 1
Electric dark correction enabled: true
Nonlinearity correction enabled: false
Boxcar width: 0
XAxis mode: Wavelengths
Number of Pixels in Spectrum: 2048
>>>>>Begin Spectral Data<<<<<
223.165	-24.62
223.4	-24.62
223.635	-24.62
223.869	-29.62
224.104	-22.62
224.338	-15.62
224.573	-23.62
224.808	3.38
225.042	7.38
225.277	10.38
225.511	-3.62
225.746	3.38
225.98	-14.62
226.215	21.38
226.449	13.38
226.683	25.38
226.918	19.38
227.152	30.38
227.387	39.38
227.621	38.38
227.856	43.38
228.09	41.38
228.324	53.38
228.559	54.38
228.793	70.38
229.027	94.38
229.262	111.38
229.496	107.38
229.73	111.38
229.964	115.38
230.199	127.38
230.433	121.38
230.667	128.38
230.901	124.38
231.136	137.38
231.37	139.38
231.604	135.38
231.838	137.38
232.072	131.38
232.306	125.38
232.541	138.38
232.775	153.38
233.009	133.38
233.243	139.38
233.477	148.38
233.711	139.38
233.945	141.38
234.179	156.38
234.413	136.38
234.647	147.38
234.881	137.38
235.115	139.38
235.349	157.38
235.583	160.38
235.817	149.38
236.051	137.38
236.285	144.38
236.519	152.38
236.753	141.38
236.987	140.38
237.221	140.38
237.455	146.38
237.689	146.38
237.922	146.38
238.156	153.38
238.39	163.38
238.624	166.38
238.858	156.38
239.091	173.38
239.325	171.38
239.559	169.38
239.793	162.38
240.027	157.38
240.26	166.38
240.494	180.38
240.728	160.38
240.961	168.38
241.195	184.38
241.429	166.38
241.662	163.38
241.896	178.38
242.13	183.38
242.363	164.38
242.597	180.38
242.83	189.38
243.064	203.38
243.298	161.38
243.531	194.38
243.765	201.38
243.998	196.38
244.232	201.38
244.465	200.38
244.699	189.38
244.932	197.38
245.166	203.38
245.399	203.38
245.633	192.38
245.866	208.38
246.099	209.38
246.333	200.38
246.566	189.38
246.8	204.38
247.033	201.38
247.266	202.38
247.5	205.38
247.733	215.38
247.966	227.38
248.2	211.38
248.433	218.38
248.666	205.38
248.899	212.38
249.133	228.38
249.366	222.38
249.599	220.38
249.832	223.38
250.066	229.38
250.299	221.38
250.532	231.38
250.765	239.38
250.998	221.38
251.231	232.38
251.465	222.38
251.698	219.38
251.931	234.38
252.164	241.38
252.397	241.38
252.63	232.38
252.863	263.38
253.096	244.38
253.329	257.38
253.562	239.38
253.795	248.38
254.028	260.38
254.261	252.38
254.494	256.38
254.727	270.38
254.96	242.38
255.193	249.38
255.426	259.38
255.659	258.38
255.892	254.38
256.124	279.38
256.357	282.38
256.59	250.38
256.823	276.38
257.056	258.38
257.289	272.38
257.521	287.38
257.754	293.38
257.987	274.38
258.22	262.38
258.452	263.38
258.685	297.38
258.918	283.38
259.151	290.38
259.383	298.38
259.616	292.38
259.849	273.38
260.081	299.38
260.314	291.38
260.547	296.38
260.779	296.38
261.012	288.38
261.244	298.38
261.477	296.38
261.71	289.38
261.942	303.38
262.175	312.38
262.407	297.38
262.64	292.38
262.872	308.38
263.105	305.38
263.337	315.38
263.57	323.38
263.802	329.38
264.035	303.38
264.267	306.38
264.499	306.38
264.732	318.38
264.964	311.38
265.197	306.38
265.429	341.38
265.661	322.38
265.894	318.38
266.126	323.38
266.358	309.38
266.591	328.38
266.823	318.38
267.055	326.38
267.287	331.38
267.52	342.38
267.752	337.38
267.984	329.38
268.216	329.38
268.448	335.38
268.681	332.38
268.913	340.38
269.145	339.38
269.377	359.38
269.609	339.38
269.841	348.38
270.073	348.38
270.306	340.38
270.538	346.38
270.77	368.38
271.002	339.38
271.234	359.38
271.466	348.38
271.698	349.38
271.93	355.38
272.162	355.38
272.394	363.38
272.626	363.38
272.858	344.38
273.09	363.38
273.322	367.38
273.553	367.38
273.785	357.38
274.017	373.38
274.249	386.38
274.481	373.38
274.713	383.38
274.945	361.38
275.176	383.38
275.408	377.38
275.64	376.38
275.872	375.38
276.104	373.38
276.335	396.38
276.567	381.38
276.799	399.38
277.031	395.38
277.262	387.38
277.494	386.38
277.726	391.38
277.957	397.38
278.189	394.38
278.421	396.38
278.652	388.38
278.884	395.38
279.115	420.38
279.347	415.38
279.579	416.38
279.81	405.38
280.042	393.38
280.273	410.38
280.505	413.38
280.736	433.38
280.968	409.38
281.199	411.38
281.431	418.38
281.662	412.38
281.894	414.38
282.125	423.38
282.356	443.38
282.588	425.38
282.819	445.38
283.051	435.38
283.282	434.38
283.513	439.38
283.745	456.38
283.976	451.38
284.207	436.38
284.439	436.38
284.67	458.38
284.901	446.38
285.132	423.38
285.364	459.38
285.595	439.38
285.826	439.38
286.057	448.38
286.288	447.38
286.52	464.38
286.751	460.38
286.982	467.38
287.213	428.38
287.444	459.38
287.675	485.38
287.906	465.38
288.138	454.38
288.369	457.38
288.6	468.38
288.831	485.38
289.062	452.38
289.293	491.38
289.524	463.38
289.755	456.38
289.986	463.38
290.217	456.38
290.448	486.38
290.679	480.38
290.91	470.38
291.141	463.38
291.371	484.38
291.602	488.38
291.833	471.38
292.064	478.38
292.295	483.38
292.526	483.38
292.757	493.38
292.987	495.38
293.218	460.38
293.449	487.38
293.68	490.38
293.91	492.38
294.141	484.38
294.372	526.38
294.603	492.38
294.833	498.38
295.064	491.38
295.295	484.38
295.525	503.38
295.756	508.38
295.987	480.38
296.217	497.38
296.448	505.38
296.679	504.38
296.909	505.38
297.14	532.38
297.37	491.38
297.601	519.38
297.831	509.38
298.062	519.38
298.292	499.38
298.523	551.38
298.753	531.38
298.984	516.38
299.214	511.38
299.445	545.38
299.675	537.38
299.905	535.38
300.136	544.38
300.366	548.38
300.597	534.38
300.827	538.38
301.057	572.38
301.288	548.38
301.518	577.38
301.748	563.38
301.979	545.38
302.209	573.38
302.439	571.38
302.669	571.38
302.9	563.38
303.13	549.38
303.36	568.38
303.59	553.38
303.82	556.38
304.051	565.38
304.281	563.38
304.511	547.38
304.741	563.38
304.971	578.38
305.201	570.38
305.431	562.38
305.661	554.38
305.891	539.38
306.121	560.38
306.352	564.38
306.582	561.38
306.812	551.38
307.042	543.38
307.272	563.38
307.502	545.38
307.731	550.38
307.961	556.38
308.191	549.38
308.421	521.38
308.651	561.38
308.881	555.38
309.111	548.38
309.341	552.38
309.571	543.38
309.8	554.38
310.03	560.38
310.26	580.38
310.49	547.38
310.72	540.38
310.949	567.38
311.179	568.38
311.409	562.38
311.639	569.38
311.868	595.38
312.098	575.38
312.328	581.38
312.557	572.38
312.787	578.38
313.017	570.38
313.246	604.38
313.476	595.38
313.706	608.38
313.935	631.38
314.165	587.38
314.394	585.38
314.624	590.38
314.853	583.38
315.083	595.38
315.312	594.38
315.542	609.38
315.771	589.38
316.001	574.38
316.23	588.38
316.46	560.38
316.689	587.38
316.919	583.38
317.148	581.38
317.377	594.38
317.607	581.38
317.836	581.38
318.065	577.38
318.295	595.38
318.524	591.38
318.753	567.38
318.983	574.38
319.212	555.38
319.441	549.38
319.67	602.38
319.9	596.38
320.129	597.38
320.358	601.38
320.587	568.38
320.816	591.38
321.046	595.38
321.275	602.38
321.504	605.38
321.733	581.38
321.962	599.38
322.191	559.38
322.42	576.38
322.649	582.38
322.878	592.38
323.108	596.38
323.337	609.38
323.566	611.38
323.795	627.38
324.024	605.38
324.253	604.38
324.482	587.38
324.71	598.38
324.939	618.38
325.168	625.38
325.397	631.38
325.626	626.38
325.855	625.38
326.084	620.38
326.313	649.38
326.542	620.38
326.77	649.38
326.999	641.38
327.228	640.38
327.457	637.38
327.686	627.38
327.914	628.38
328.143	644.38
328.372	623.38
328.6	646.38
328.829	633.38
329.058	638.38
329.287	657.38
329.515	648.38
329.744	635.38
329.972	673.38
330.201	638.38
330.43	636.38
330.658	681.38
330.887	687.38
331.115	657.38
331.344	666.38
331.572	695.38
331.801	691.38
332.03	691.38
332.258	729.38
332.486	726.38
332.715	751.38
332.943	778.38
333.172	823.38
333.4	826.38
333.629	852.38
333.857	865.38
334.085	827.38
334.314	846.38
334.542	819.38
334.771	793.38
334.999	803.38
335.227	779.38
335.455	805.38
335.684	795.38
335.912	782.38
336.14	794.38
336.369	774.38
336.597	793.38
336.825	792.38
337.053	782.38
337.281	763.38
337.51	737.38
337.738	743.38
337.966	750.38
338.194	717.38
338.422	704.38
338.65	698.38
338.878	689.38
339.106	721.38
339.334	711.38
339.562	685.38
339.79	672.38
340.018	670.38
340.246	674.38
340.474	672.38
340.702	684.38
340.93	672.38
341.158	697.38
341.386	700.38
341.614	695.38
341.842	676.38
342.07	659.38
342.298	636.38
342.526	669.38
342.754	657.38
342.981	654.38
343.209	663.38
343.437	720.38
343.665	756.38
343.893	791.38
344.12	834.38
344.348	770.38
344.576	743.38
344.804	734.38
345.031	694.38
345.259	706.38
345.487	684.38
345.714	657.38
345.942	652.38
346.17	677.38
346.397	651.38
346.625	667.38
346.853	645.38
347.08	652.38
347.308	644.38
347.535	660.38
347.763	661.38
347.99	631.38
348.218	641.38
348.445	647.38
348.673	641.38
348.9	643.38
349.128	641.38
349.355	643.38
349.583	652.38
349.81	631.38
350.037	629.38
350.265	625.38
350.492	626.38
350.72	602.38
350.947	627.38
351.174	637.38
351.402	636.38
351.629	626.38
351.856	624.38
352.083	613.38
352.311	608.38
352.538	619.38
352.765	643.38
352.992	634.38
353.22	603.38
353.447	619.38
353.674	648.38
353.901	624.38
354.128	598.38
354.355	619.38
354.583	618.38
354.81	637.38
355.037	617.38
355.264	626.38
355.491	599.38
355.718	612.38
355.945	622.38
356.172	612.38
356.399	607.38
356.626	616.38
356.853	635.38
357.08	603.38
357.307	627.38
357.534	641.38
357.761	611.38
357.988	620.38
358.215	611.38
358.441	619.38
358.668	643.38
358.895	606.38
359.122	593.38
359.349	618.38
359.576	620.38
359.802	639.38
360.029	610.38
360.256	603.38
360.483	610.38
360.709	612.38
360.936	626.38
361.163	624.38
361.39	616.38
361.616	608.38
361.843	622.38
362.07	629.38
362.296	619.38
362.523	629.38
362.749	611.38
362.976	620.38
363.203	604.38
363.429	599.38
363.656	593.38
363.882	628.38
364.109	600.38
364.335	593.38
364.562	612.38
364.788	576.38
365.015	619.38
365.241	604.38
365.468	607.38
365.694	620.38
365.92	597.38
366.147	598.38
366.373	620.38
366.599	628.38
366.826	615.38
367.052	628.38
367.278	637.38
367.505	600.38
367.731	614.38
367.957	623.38
368.184	611.38
368.41	607.38
368.636	619.38
368.862	604.38
369.089	593.38
369.315	633.38
369.541	610.38
369.767	637.38
369.993	642.38
370.219	633.38
370.445	637.38
370.672	628.38
370.898	647.38
371.124	629.38
371.35	674.38
371.576	655.38
371.802	633.38
372.028	660.38
372.254	639.38
372.48	638.38
372.706	675.38
372.932	708.38
373.158	665.38
373.384	663.38
373.61	635.38
373.835	660.38
374.061	651.38
374.287	648.38
374.513	689.38
374.739	699.38
374.965	709.38
375.191	715.38
375.416	699.38
375.642	688.38
375.868	705.38
376.094	696.38
376.319	676.38
376.545	676.38
376.771	662.38
376.997	657.38
377.222	657.38
377.448	669.38
377.674	672.38
377.899	658.38
378.125	646.38
378.35	647.38
378.576	662.38
378.802	663.38
379.027	652.38
379.253	658.38
379.478	649.38
379.704	647.38
379.929	628.38
380.155	634.38
380.38	653.38
380.606	651.38
380.831	629.38
381.057	650.38
381.282	640.38
381.507	633.38
381.733	648.38
381.958	649.38
382.184	650.38
382.409	657.38
382.634	687.38
382.86	704.38
383.085	684.38
383.31	676.38
383.535	711.38
383.761	722.38
383.986	716.38
384.211	727.38
384.436	745.38
384.662	760.38
384.887	748.38
385.112	774.38
385.337	768.38
385.562	799.38
385.787	755.38
386.013	764.38
386.238	764.38
386.463	783.38
386.688	786.38
386.913	770.38
387.138	772.38
387.363	777.38
387.588	743.38
387.813	768.38
388.038	775.38
388.263	775.38
388.488	792.38
388.713	771.38
388.938	762.38
389.163	770.38
389.387	747.38
389.612	740.38
389.837	775.38
390.062	755.38
390.287	753.38
390.512	765.38
390.736	757.38
390.961	794.38
391.186	820.38
391.411	810.38
391.636	827.38
391.86	857.38
392.085	890.38
392.31	844.38
392.534	841.38
392.759	848.38
392.984	823.38
393.208	823.38
393.433	839.38
393.658	816.38
393.882	832.38
394.107	823.38
394.331	833.38
394.556	827.38
394.78	847.38
395.005	836.38
395.229	856.38
395.454	868.38
395.678	872.38
395.903	893.38
396.127	869.38
396.352	844.38
396.576	818.38
396.801	817.38
397.025	841.38
397.249	851.38
397.474	857.38
397.698	854.38
397.922	878.38
398.147	871.38
398.371	905.38
398.595	929.38
398.82	957.38
399.044	1035.38
399.268	1140.38
399.492	1279.38
399.717	1433.38
399.941	1393.38
400.165	1268.38
400.389	1146.38
400.613	1065.38
400.837	1033.38
401.062	993.38
401.286	974.38
401.51	962.38
401.734	942.38
401.958	971.38
402.182	993.38
402.406	989.38
402.63	1007.38
402.854	1045.38
403.078	1056.38
403.302	1045.38
403.526	1067.38
403.75	1091.38
403.974	1101.38
404.198	1113.38
404.422	1140.38
404.645	1121.38
404.869	1083.38
405.093	1091.38
405.317	1067.38
405.541	1081.38
405.765	1043.38
405.988	1063.38
406.212	1076.38
406.436	1085.38
406.66	1093.38
406.883	1103.38
407.107	1176.38
407.331	1235.38
407.555	1272.38
407.778	1245.38
408.002	1239.38
408.226	1168.38
408.449	1155.38
408.673	1117.38
408.896	1098.38
409.12	1097.38
409.344	1106.38
409.567	1100.38
409.791	1101.38
410.014	1100.38
410.238	1102.38
410.461	1100.38
410.685	1064.38
410.908	1057.38
411.132	1051.38
411.355	1020.38
411.578	1037.38
411.802	1019.38
412.025	1014.38
412.249	1019.38
412.472	1047.38
412.695	1010.38
412.919	1005.38
413.142	995.38
413.365	1001.38
413.589	985.38
413.812	983.38
414.035	959.38
414.258	979.38
414.482	1032.38
414.705	999.38
414.928	985.38
415.151	993.38
415.374	1000.38
415.597	984.38
415.821	965.38
416.044	987.38
416.267	921.38
416.49	955.38
416.713	976.38
416.936	985.38
417.159	977.38
417.382	960.38
417.605	960.38
417.828	964.38
418.051	965.38
418.274	997.38
418.497	989.38
418.72	1013.38
418.943	985.38
419.166	1045.38
419.389	1106.38
419.611	1085.38
419.834	1043.38
420.057	1035.38
420.28	997.38
420.503	996.38
420.726	937.38
420.948	960.38
421.171	947.38
421.394	953.38
421.617	977.38
421.839	982.38
422.062	951.38
422.285	979.38
422.507	997.38
422.73	982.38
422.953	992.38
423.175	998.38
423.398	1012.38
423.621	1027.38
423.843	1027.38
424.066	1025.38
424.288	1000.38
424.511	1025.38
424.733	1015.38
424.956	987.38
425.178	995.38
425.401	992.38
425.623	997.38
425.846	937.38
426.068	920.38
426.291	957.38
426.513	936.38
426.735	891.38
426.958	914.38
427.18	917.38
427.402	882.38
427.625	904.38
427.847	882.38
428.069	904.38
428.292	899.38
428.514	879.38
428.736	884.38
428.958	867.38
429.181	887.38
429.403	875.38
429.625	853.38
429.847	876.38
430.069	838.38
430.292	851.38
430.514	859.38
430.736	868.38
430.958	843.38
431.18	863.38
431.402	855.38
431.624	866.38
431.846	901.38
432.068	871.38
432.29	915.38
432.512	887.38
432.734	894.38
432.956	889.38
433.178	904.38
433.4	877.38
433.622	892.38
433.844	887.38
434.066	902.38
434.287	906.38
434.509	946.38
434.731	988.38
434.953	1007.38
435.175	1012.38
435.397	943.38
435.618	939.38
435.84	928.38
436.062	897.38
436.284	867.38
436.505	871.38
436.727	877.38
436.949	908.38
437.17	893.38
437.392	859.38
437.614	841.38
437.835	837.38
438.057	867.38
438.278	845.38
438.5	865.38
438.721	853.38
438.943	884.38
439.165	849.38
439.386	887.38
439.608	881.38
439.829	906.38
440.05	875.38
440.272	919.38
440.493	895.38
440.715	892.38
440.936	922.38
441.158	946.38
441.379	924.38
441.6	986.38
441.822	992.38
442.043	1011.38
442.264	997.38
442.486	971.38
442.707	977.38
442.928	970.38
443.149	972.38
443.371	999.38
443.592	988.38
443.813	974.38
444.034	1015.38
444.255	1055.38
444.476	1070.38
444.698	1116.38
444.919	1156.38
445.14	1218.38
445.361	1131.38
445.582	1035.38
445.803	988.38
446.024	949.38
446.245	927.38
446.466	922.38
446.687	888.38
446.908	924.38
447.129	896.38
447.35	896.38
447.571	858.38
447.792	842.38
448.013	861.38
448.234	842.38
448.455	837.38
448.675	833.38
448.896	819.38
449.117	800.38
449.338	801.38
449.559	799.38
449.779	780.38
450	840.38
450.221	835.38
450.442	857.38
450.662	825.38
450.883	862.38
451.104	852.38
451.324	843.38
451.545	833.38
451.766	843.38
451.986	836.38
452.207	810.38
452.428	805.38
452.648	822.38
452.869	799.38
453.089	793.38
453.31	812.38
453.53	799.38
453.751	776.38
453.971	762.38
454.192	785.38
454.412	785.38
454.633	783.38
454.853	770.38
455.073	783.38
455.294	785.38
455.514	781.38
455.734	751.38
455.955	772.38
456.175	740.38
456.395	754.38
456.616	765.38
456.836	753.38
457.056	753.38
457.276	724.38
457.497	789.38
457.717	743.38
457.937	771.38
458.157	781.38
458.377	802.38
458.598	794.38
458.818	837.38
459.038	821.38
459.258	877.38
459.478	910.38
459.698	927.38
459.918	960.38
460.138	978.38
460.358	1025.38
460.578	1036.38
460.798	1061.38
461.018	1053.38
461.238	1026.38
461.458	1047.38
461.678	1035.38
461.898	1048.38
462.118	1061.38
462.338	1146.38
462.558	1130.38
462.777	1216.38
462.997	1293.38
463.217	1377.38
463.437	1382.38
463.657	1300.38
463.876	1266.38
464.096	1223.38
464.316	1208.38
464.536	1238.38
464.755	1191.38
464.975	1111.38
465.195	1083.38
465.414	1022.38
465.634	959.38
465.854	929.38
466.073	902.38
466.293	925.38
466.512	863.38
466.732	869.38
466.951	893.38
467.171	869.38
467.391	889.38
467.61	865.38
467.829	884.38
468.049	863.38
468.268	834.38
468.488	851.38
468.707	832.38
468.927	849.38
469.146	837.38
469.365	837.38
469.585	849.38
469.804	867.38
470.023	856.38
470.243	890.38
470.462	890.38
470.681	900.38
470.901	915.38
471.12	892.38
471.339	866.38
471.558	858.38
471.777	855.38
471.997	863.38
472.216	831.38
472.435	831.38
472.654	836.38
472.873	829.38
473.092	795.38
473.311	818.38
473.53	828.38
473.749	822.38
473.968	808.38
474.187	809.38
474.406	771.38
474.625	810.38
474.844	825.38
475.063	817.38
475.282	827.38
475.501	824.38
475.72	840.38
475.939	824.38
476.158	832.38
476.377	851.38
476.596	829.38
476.814	875.38
477.033	841.38
477.252	840.38
477.471	852.38
477.69	881.38
477.908	931.38
478.127	934.38
478.346	985.38
478.564	979.38
478.783	1004.38
479.002	1029.38
479.22	1032.38
479.439	1001.38
479.658	1032.38
479.876	1022.38
480.095	1024.38
480.313	1068.38
480.532	1111.38
480.751	1105.38
480.969	1047.38
481.188	1001.38
481.406	965.38
481.624	954.38
481.843	949.38
482.061	944.38
482.28	931.38
482.498	892.38
482.717	934.38
482.935	913.38
483.153	920.38
483.372	944.38
483.59	938.38
483.808	933.38
484.027	935.38
484.245	939.38
484.463	951.38
484.681	937.38
484.9	937.38
485.118	944.38
485.336	975.38
485.554	963.38
485.772	1000.38
485.99	986.38
486.209	968.38
486.427	974.38
486.645	995.38
486.863	996.38
487.081	968.38
487.299	975.38
487.517	951.38
487.735	984.38
487.953	973.38
488.171	970.38
488.389	978.38
488.607	968.38
488.825	933.38
489.043	928.38
489.261	955.38
489.479	946.38
489.696	947.38
489.914	996.38
490.132	971.38
490.35	995.38
490.568	980.38
490.786	992.38
491.003	1012.38
491.221	995.38
491.439	990.38
491.657	996.38
491.874	1004.38
492.092	1018.38
492.31	1043.38
492.527	1004.38
492.745	1007.38
492.963	1037.38
493.18	1021.38
493.398	1008.38
493.615	1020.38
493.833	1026.38
494.05	1016.38
494.268	1061.38
494.485	1050.38
494.703	1042.38
494.92	1037.38
495.138	1035.38
495.355	1034.38
495.573	1036.38
495.79	1046.38
496.008	1071.38
496.225	1075.38
496.442	1061.38
496.66	1064.38
496.877	1111.38
497.094	1116.38
497.312	1134.38
497.529	1169.38
497.746	1177.38
497.963	1218.38
498.181	1252.38
498.398	1275.38
498.615	1389.38
498.832	1489.38
499.049	1575.38
499.267	1716.38
499.484	1868.38
499.701	2044.38
499.918	2257.38
500.135	2577.38
500.352	2869.38
500.569	2980.38
500.786	2945.38
501.003	2766.38
501.22	2506.38
501.437	2217.38
501.654	1971.38
501.871	1771.38
502.088	1669.38
502.305	1575.38
502.522	1463.38
502.739	1409.38
502.956	1355.38
503.172	1304.38
503.389	1268.38
503.606	1233.38
503.823	1188.38
504.04	1171.38
504.256	1203.38
504.473	1212.38
504.69	1247.38
504.907	1165.38
505.123	1120.38
505.34	1083.38
505.557	1030.38
505.773	994.38
505.99	987.38
506.207	938.38
506.423	966.38
506.64	970.38
506.856	927.38
507.073	919.38
507.289	917.38
507.506	948.38
507.722	947.38
507.939	920.38
508.155	888.38
508.372	874.38
508.588	884.38
508.805	857.38
509.021	895.38
509.238	858.38
509.454	839.38
509.67	816.38
509.887	821.38
510.103	845.38
510.319	822.38
510.536	832.38
510.752	816.38
510.968	829.38
511.184	839.38
511.401	836.38
511.617	829.38
511.833	827.38
512.049	850.38
512.265	842.38
512.481	832.38
512.698	823.38
512.914	827.38
513.13	823.38
513.346	818.38
513.562	810.38
513.778	833.38
513.994	844.38
514.21	855.38
514.426	839.38
514.642	861.38
514.858	857.38
515.074	839.38
515.29	863.38
515.506	861.38
515.721	895.38
515.937	897.38
516.153	898.38
516.369	913.38
516.585	949.38
516.801	944.38
517.016	979.38
517.232	1044.38
517.448	1092.38
517.664	1118.38
517.879	1135.38
518.095	1137.38
518.311	1114.38
518.527	1075.38
518.742	1048.38
518.958	1000.38
519.173	964.38
519.389	975.38
519.605	906.38
519.82	890.38
520.036	896.38
520.251	850.38
520.467	852.38
520.682	850.38
520.898	841.38
521.113	825.38
521.329	818.38
521.544	804.38
521.76	802.38
521.975	773.38
522.19	786.38
522.406	779.38
522.621	763.38
522.836	772.38
523.052	755.38
523.267	755.38
523.482	764.38
523.698	767.38
523.913	755.38
524.128	755.38
524.343	775.38
524.559	740.38
524.774	741.38
524.989	752.38
525.204	769.38
525.419	754.38
525.634	730.38
525.849	733.38
526.064	744.38
526.28	758.38
526.495	740.38
526.71	729.38
526.925	725.38
527.14	738.38
527.355	736.38
527.57	731.38
527.785	729.38
527.999	742.38
528.214	751.38
528.429	737.38
528.644	759.38
528.859	763.38
529.074	746.38
529.289	733.38
529.503	723.38
529.718	744.38
529.933	723.38
530.148	730.38
530.363	725.38
530.577	725.38
530.792	736.38
531.007	736.38
531.221	723.38
531.436	712.38
531.651	739.38
531.865	721.38
532.08	717.38
532.295	756.38
532.509	763.38
532.724	746.38
532.938	735.38
533.153	728.38
533.367	736.38
533.582	731.38
533.796	726.38
534.011	711.38
534.225	741.38
534.44	716.38
534.654	704.38
534.868	717.38
535.083	699.38
535.297	694.38
535.511	705.38
535.726	695.38
535.94	700.38
536.154	689.38
536.369	690.38
536.583	664.38
536.797	684.38
537.011	706.38
537.225	687.38
537.44	662.38
537.654	690.38
537.868	690.38
538.082	691.38
538.296	695.38
538.51	659.38
538.724	707.38
538.938	678.38
539.153	657.38
539.367	684.38
539.581	652.38
539.795	648.38
540.009	653.38
540.222	660.38
540.436	659.38
540.65	650.38
540.864	650.38
541.078	660.38
541.292	667.38
541.506	676.38
541.72	625.38
541.934	659.38
542.147	668.38
542.361	678.38
542.575	661.38
542.789	683.38
543.002	668.38
543.216	687.38
543.43	673.38
543.644	637.38
543.857	646.38
544.071	647.38
544.285	656.38
544.498	665.38
544.712	672.38
544.925	663.38
545.139	674.38
545.352	670.38
545.566	672.38
545.779	678.38
545.993	693.38
546.206	697.38
546.42	668.38
546.633	684.38
546.847	686.38
547.06	681.38
547.274	672.38
547.487	675.38
547.7	687.38
547.914	691.38
548.127	705.38
548.34	690.38
548.554	671.38
548.767	675.38
548.98	679.38
549.193	708.38
549.407	680.38
549.62	699.38
549.833	694.38
550.046	691.38
550.259	705.38
550.473	688.38
550.686	662.38
550.899	655.38
551.112	699.38
551.325	640.38
551.538	678.38
551.751	647.38
551.964	668.38
552.177	660.38
552.39	669.38
552.603	699.38
552.816	718.38
553.029	719.38
553.242	753.38
553.455	757.38
553.667	744.38
553.88	768.38
554.093	756.38
554.306	703.38
554.519	672.38
554.732	662.38
554.944	664.38
555.157	659.38
555.37	658.38
555.583	670.38
555.795	635.38
556.008	623.38
556.221	626.38
556.433	601.38
556.646	607.38
556.859	605.38
557.071	595.38
557.284	613.38
557.496	592.38
557.709	580.38
557.921	592.38
558.134	568.38
558.346	575.38
558.559	585.38
558.771	573.38
558.984	564.38
559.196	567.38
559.409	564.38
559.621	584.38
559.833	553.38
560.046	542.38
560.258	561.38
560.47	573.38
560.683	559.38
560.895	550.38
561.107	570.38
561.32	555.38
561.532	571.38
561.744	552.38
561.956	581.38
562.168	573.38
562.381	554.38
562.593	553.38
562.805	580.38
563.017	575.38
563.229	574.38
563.441	574.38
563.653	579.38
563.865	567.38
564.077	580.38
564.289	566.38
564.501	577.38
564.713	595.38
564.925	594.38
565.137	612.38
565.349	631.38
565.561	641.38
565.773	668.38
565.985	683.38
566.197	720.38
566.408	782.38
566.62	815.38
566.832	885.38
567.044	895.38
567.255	874.38
567.467	902.38
567.679	946.38
567.891	1007.38
568.102	1048.38
568.314	994.38
568.526	901.38
568.737	815.38
568.949	771.38
569.161	717.38
569.372	690.38
569.584	647.38
569.795	599.38
570.007	588.38
570.218	584.38
570.43	552.38
570.641	571.38
570.853	571.38
571.064	568.38
571.276	557.38
571.487	577.38
571.698	547.38
571.91	529.38
572.121	516.38
572.333	501.38
572.544	483.38
572.755	463.38
572.966	488.38
573.178	495.38
573.389	476.38
573.6	468.38
573.811	457.38
574.023	441.38
574.234	445.38
574.445	464.38
574.656	452.38
574.867	461.38
575.078	461.38
575.289	455.38
575.501	454.38
575.712	449.38
575.923	438.38
576.134	445.38
576.345	445.38
576.556	432.38
576.767	443.38
576.978	431.38
577.188	412.38
577.399	429.38
577.61	435.38
577.821	444.38
578.032	406.38
578.243	425.38
578.454	424.38
578.665	417.38
578.875	408.38
579.086	413.38
579.297	414.38
579.508	408.38
579.718	390.38
579.929	376.38
580.14	390.38
580.35	389.38
580.561	397.38
580.772	385.38
580.982	377.38
581.193	416.38
581.403	386.38
581.614	387.38
581.825	381.38
582.035	406.38
582.246	382.38
582.456	382.38
582.667	360.38
582.877	391.38
583.087	386.38
583.298	397.38
583.508	369.38
583.719	387.38
583.929	377.38
584.139	352.38
584.35	370.38
584.56	377.38
584.77	387.38
584.981	359.38
585.191	381.38
585.401	352.38
585.611	339.38
585.821	370.38
586.032	376.38
586.242	357.38
586.452	357.38
586.662	377.38
586.872	365.38
587.082	375.38
587.292	365.38
587.502	352.38
587.713	376.38
587.923	363.38
588.133	372.38
588.343	380.38
588.553	382.38
588.762	371.38
588.972	365.38
589.182	423.38
589.392	423.38
589.602	382.38
589.812	417.38
590.022	427.38
590.232	386.38
590.441	392.38
590.651	375.38
590.861	380.38
591.071	387.38
591.281	389.38
591.49	392.38
591.7	393.38
591.91	401.38
592.119	406.38
592.329	390.38
592.539	415.38
592.748	418.38
592.958	441.38
593.167	431.38
593.377	453.38
593.587	476.38
593.796	435.38
594.006	440.38
594.215	465.38
594.424	475.38
594.634	464.38
594.843	423.38
595.053	445.38
595.262	401.38
595.472	383.38
595.681	377.38
595.89	387.38
596.1	352.38
596.309	369.38
596.518	367.38
596.727	358.38
596.937	346.38
597.146	360.38
597.355	332.38
597.564	314.38
597.774	343.38
597.983	317.38
598.192	346.38
598.401	333.38
598.61	312.38
598.819	344.38
599.028	333.38
599.237	313.38
599.446	300.38
599.655	301.38
599.864	305.38
600.073	320.38
600.282	323.38
600.491	316.38
600.7	322.38
600.909	303.38
601.118	319.38
601.327	289.38
601.536	298.38
601.745	311.38
601.953	310.38
602.162	320.38
602.371	308.38
602.58	327.38
602.789	289.38
602.997	296.38
603.206	286.38
603.415	308.38
603.623	319.38
603.832	314.38
604.041	296.38
604.249	284.38
604.458	288.38
604.666	297.38
604.875	289.38
605.084	284.38
605.292	279.38
605.501	295.38
605.709	279.38
605.918	276.38
606.126	295.38
606.334	295.38
606.543	295.38
606.751	292.38
606.96	265.38
607.168	279.38
607.376	291.38
607.585	274.38
607.793	291.38
608.001	303.38
608.21	268.38
608.418	291.38
608.626	289.38
608.834	267.38
609.043	286.38
609.251	277.38
609.459	273.38
609.667	276.38
609.875	284.38
610.083	275.38
610.291	276.38
610.499	277.38
610.707	287.38
610.916	289.38
611.124	261.38
611.332	280.38
611.54	270.38
611.748	289.38
611.955	265.38
612.163	261.38
612.371	286.38
612.579	247.38
612.787	249.38
612.995	280.38
613.203	265.38
613.411	277.38
613.618	269.38
613.826	264.38
614.034	256.38
614.242	273.38
614.449	253.38
614.657	250.38
614.865	253.38
615.072	269.38
615.28	268.38
615.488	262.38
615.695	268.38
615.903	290.38
616.111	283.38
616.318	285.38
616.526	270.38
616.733	269.38
616.941	267.38
617.148	264.38
617.356	268.38
617.563	275.38
617.771	279.38
617.978	279.38
618.185	273.38
618.393	260.38
618.6	272.38
618.807	261.38
619.015	271.38
619.222	250.38
619.429	273.38
619.637	267.38
619.844	250.38
620.051	257.38
620.258	245.38
620.466	265.38
620.673	247.38
620.88	233.38
621.087	236.38
621.294	242.38
621.501	230.38
621.708	244.38
621.915	239.38
622.122	257.38
622.329	256.38
622.536	245.38
622.743	244.38
622.95	247.38
623.157	232.38
623.364	244.38
623.571	233.38
623.778	251.38
623.985	240.38
624.192	243.38
624.399	243.38
624.606	235.38
624.812	236.38
625.019	217.38
625.226	235.38
625.433	224.38
625.639	252.38
625.846	219.38
626.053	233.38
626.259	230.38
626.466	229.38
626.673	220.38
626.879	226.38
627.086	222.38
627.293	240.38
627.499	228.38
627.706	233.38
627.912	212.38
628.119	218.38
628.325	227.38
628.532	225.38
628.738	211.38
628.945	220.38
629.151	221.38
629.357	201.38
629.564	216.38
629.77	212.38
629.976	223.38
630.183	207.38
630.389	218.38
630.595	236.38
630.802	215.38
631.008	210.38
631.214	224.38
631.42	217.38
631.627	209.38
631.833	214.38
632.039	192.38
632.245	203.38
632.451	205.38
632.657	207.38
632.863	193.38
633.069	200.38
633.275	183.38
633.481	194.38
633.688	187.38
633.893	197.38
634.099	196.38
634.305	183.38
634.511	207.38
634.717	187.38
634.923	211.38
635.129	187.38
635.335	195.38
635.541	208.38
635.747	202.38
635.952	197.38
636.158	215.38
636.364	188.38
636.57	196.38
636.775	204.38
636.981	199.38
637.187	208.38
637.392	194.38
637.598	195.38
637.804	191.38
638.009	180.38
638.215	189.38
638.421	194.38
638.626	181.38
638.832	185.38
639.037	188.38
639.243	193.38
639.448	181.38
639.654	195.38
639.859	185.38
640.065	166.38
640.27	201.38
640.475	200.38
640.681	189.38
640.886	187.38
641.091	166.38
641.297	179.38
641.502	180.38
641.707	186.38
641.913	184.38
642.118	167.38
642.323	181.38
642.528	183.38
642.733	184.38
642.939	180.38
643.144	184.38
643.349	188.38
643.554	194.38
643.759	177.38
643.964	177.38
644.169	188.38
644.374	183.38
644.579	185.38
644.784	171.38
644.989	192.38
645.194	176.38
645.399	194.38
645.604	170.38
645.809	190.38
646.014	178.38
646.219	172.38
646.423	185.38
646.628	183.38
646.833	194.38
647.038	164.38
647.243	197.38
647.447	179.38
647.652	168.38
647.857	194.38
648.062	194.38
648.266	185.38
648.471	195.38
648.676	183.38
648.88	163.38
649.085	174.38
649.289	183.38
649.494	176.38
649.698	184.38
649.903	169.38
650.107	170.38
650.312	181.38
650.516	168.38
650.721	163.38
650.925	146.38
651.13	172.38
651.334	158.38
651.539	159.38
651.743	160.38
651.947	159.38
652.152	159.38
652.356	160.38
652.56	138.38
652.764	157.38
652.969	152.38
653.173	143.38
653.377	145.38
653.581	153.38
653.785	146.38
653.99	160.38
654.194	149.38
654.398	137.38
654.602	143.38
654.806	146.38
655.01	132.38
655.214	146.38
655.418	149.38
655.622	133.38
655.826	137.38
656.03	138.38
656.234	141.38
656.438	157.38
656.642	155.38
656.846	145.38
657.049	145.38
657.253	138.38
657.457	138.38
657.661	129.38
657.865	114.38
658.068	130.38
658.272	120.38
658.476	125.38
658.68	95.38
658.883	106.38
659.087	108.38
659.291	99.38
659.494	102.38
659.698	102.38
659.901	107.38
660.105	93.38
660.309	98.38
660.512	100.38
660.716	99.38
660.919	92.38
661.123	103.38
661.326	84.38
661.53	82.38
661.733	106.38
661.936	96.38
662.14	88.38
662.343	99.38
662.546	88.38
662.75	75.38
662.953	81.38
663.156	81.38
663.36	80.38
663.563	83.38
663.766	96.38
663.969	80.38
664.173	88.38
664.376	77.38
664.579	92.38
664.782	91.38
664.985	86.38
665.188	81.38
665.391	91.38
665.594	85.38
665.797	81.38
666	87.38
666.203	82.38
666.406	77.38
666.609	86.38
666.812	65.38
667.015	83.38
667.218	77.38
667.421	75.38
667.624	81.38
667.827	81.38
668.03	85.38
668.232	94.38
668.435	83.38
668.638	74.38
668.841	73.38
669.043	76.38
669.246	75.38
669.449	81.38
669.651	78.38
669.854	84.38
670.057	66.38
670.259	73.38
670.462	67.38
670.665	89.38
670.867	85.38
671.07	88.38
671.272	70.38
671.475	95.38
671.677	79.38
671.88	78.38
672.082	86.38
672.284	79.38
672.487	81.38
672.689	90.38
672.892	75.38
