Data from NiCl2@0.5M.TitratingCurve.Agarose3%dH2O.NegLispCup.LampEnergy10.LIBS07252019_HRD10591_18-18-43-576.txt Node
Date: Thu Jul 25 18:18:43 EDT 2019
User: cochatt
Spectrometer: HR+D1059
Trigger mode: 1
Integration Time (sec): 1.000000E-1
Scans to average: 1
Electric dark correction enabled: true
Nonlinearity correction enabled: false
Boxcar width: 0
XAxis mode: Wavelengths
Number of Pixels in Spectrum: 2048
>>>>>Begin Spectral Data<<<<<
223.165	-7.88
223.4	-7.88
223.635	-7.88
223.869	-15.88
224.104	-23.88
224.338	-7.88
224.573	-17.88
224.808	-22.88
225.042	-10.88
225.277	-4.88
225.511	-1.88
225.746	7.12
225.98	11.12
226.215	21.12
226.449	7.12
226.683	8.12
226.918	29.12
227.152	30.12
227.387	26.12
227.621	33.12
227.856	43.12
228.09	38.12
228.324	66.12
228.559	58.12
228.793	68.12
229.027	136.12
229.262	172.12
229.496	159.12
229.73	159.12
229.964	161.12
230.199	201.12
230.433	186.12
230.667	183.12
230.901	185.12
231.136	188.12
231.37	186.12
231.604	202.12
231.838	212.12
232.072	210.12
232.306	213.12
232.541	207.12
232.775	208.12
233.009	187.12
233.243	190.12
233.477	221.12
233.711	208.12
233.945	205.12
234.179	205.12
234.413	191.12
234.647	201.12
234.881	229.12
235.115	195.12
235.349	199.12
235.583	198.12
235.817	197.12
236.051	208.12
236.285	207.12
236.519	212.12
236.753	235.12
236.987	199.12
237.221	224.12
237.455	218.12
237.689	235.12
237.922	230.12
238.156	235.12
238.39	220.12
238.624	224.12
238.858	237.12
239.091	236.12
239.325	240.12
239.559	246.12
239.793	261.12
240.027	255.12
240.26	256.12
240.494	251.12
240.728	240.12
240.961	254.12
241.195	258.12
241.429	267.12
241.662	282.12
241.896	301.12
242.13	292.12
242.363	292.12
242.597	284.12
242.83	278.12
243.064	272.12
243.298	292.12
243.531	281.12
243.765	285.12
243.998	295.12
244.232	307.12
244.465	296.12
244.699	303.12
244.932	296.12
245.166	301.12
245.399	303.12
245.633	293.12
245.866	312.12
246.099	312.12
246.333	300.12
246.566	310.12
246.8	317.12
247.033	313.12
247.266	334.12
247.5	327.12
247.733	335.12
247.966	345.12
248.2	335.12
248.433	335.12
248.666	351.12
248.899	338.12
249.133	348.12
249.366	341.12
249.599	363.12
249.832	359.12
250.066	362.12
250.299	368.12
250.532	350.12
250.765	376.12
250.998	368.12
251.231	380.12
251.465	394.12
251.698	394.12
251.931	389.12
252.164	392.12
252.397	392.12
252.63	396.12
252.863	381.12
253.096	414.12
253.329	408.12
253.562	388.12
253.795	396.12
254.028	403.12
254.261	401.12
254.494	411.12
254.727	416.12
254.96	410.12
255.193	431.12
255.426	408.12
255.659	420.12
255.892	432.12
256.124	415.12
256.357	419.12
256.59	430.12
256.823	430.12
257.056	467.12
257.289	451.12
257.521	434.12
257.754	434.12
257.987	446.12
258.22	456.12
258.452	457.12
258.685	462.12
258.918	455.12
259.151	464.12
259.383	467.12
259.616	472.12
259.849	471.12
260.081	486.12
260.314	487.12
260.547	484.12
260.779	483.12
261.012	476.12
261.244	473.12
261.477	488.12
261.71	480.12
261.942	487.12
262.175	484.12
262.407	499.12
262.64	502.12
262.872	510.12
263.105	511.12
263.337	500.12
263.57	531.12
263.802	500.12
264.035	525.12
264.267	509.12
264.499	509.12
264.732	533.12
264.964	528.12
265.197	528.12
265.429	537.12
265.661	515.12
265.894	543.12
266.126	539.12
266.358	550.12
266.591	527.12
266.823	546.12
267.055	543.12
267.287	538.12
267.52	564.12
267.752	540.12
267.984	563.12
268.216	555.12
268.448	564.12
268.681	562.12
268.913	570.12
269.145	590.12
269.377	586.12
269.609	590.12
269.841	567.12
270.073	586.12
270.306	596.12
270.538	572.12
270.77	590.12
271.002	570.12
271.234	593.12
271.466	613.12
271.698	609.12
271.93	598.12
272.162	603.12
272.394	605.12
272.626	593.12
272.858	629.12
273.09	627.12
273.322	619.12
273.553	623.12
273.785	627.12
274.017	646.12
274.249	628.12
274.481	651.12
274.713	642.12
274.945	641.12
275.176	654.12
275.408	634.12
275.64	638.12
275.872	647.12
276.104	657.12
276.335	668.12
276.567	631.12
276.799	656.12
277.031	673.12
277.262	655.12
277.494	674.12
277.726	678.12
277.957	674.12
278.189	663.12
278.421	687.12
278.652	674.12
278.884	674.12
279.115	683.12
279.347	675.12
279.579	703.12
279.81	692.12
280.042	682.12
280.273	691.12
280.505	702.12
280.736	719.12
280.968	725.12
281.199	731.12
281.431	720.12
281.662	733.12
281.894	744.12
282.125	688.12
282.356	720.12
282.588	751.12
282.819	750.12
283.051	747.12
283.282	723.12
283.513	772.12
283.745	751.12
283.976	748.12
284.207	722.12
284.439	719.12
284.67	740.12
284.901	747.12
285.132	779.12
285.364	756.12
285.595	780.12
285.826	767.12
286.057	785.12
286.288	775.12
286.52	790.12
286.751	790.12
286.982	787.12
287.213	783.12
287.444	777.12
287.675	764.12
287.906	789.12
288.138	805.12
288.369	802.12
288.6	786.12
288.831	797.12
289.062	788.12
289.293	822.12
289.524	813.12
289.755	806.12
289.986	807.12
290.217	803.12
290.448	807.12
290.679	844.12
290.91	811.12
291.141	839.12
291.371	835.12
291.602	831.12
291.833	826.12
292.064	815.12
292.295	800.12
292.526	850.12
292.757	823.12
292.987	824.12
293.218	797.12
293.449	799.12
293.68	819.12
293.91	837.12
294.141	798.12
294.372	810.12
294.603	826.12
294.833	847.12
295.064	835.12
295.295	826.12
295.525	828.12
295.756	847.12
295.987	836.12
296.217	852.12
296.448	827.12
296.679	843.12
296.909	888.12
297.14	847.12
297.37	896.12
297.601	890.12
297.831	892.12
298.062	860.12
298.292	927.12
298.523	907.12
298.753	895.12
298.984	914.12
299.214	890.12
299.445	895.12
299.675	898.12
299.905	919.12
300.136	903.12
300.366	928.12
300.597	952.12
300.827	947.12
301.057	950.12
301.288	949.12
301.518	978.12
301.748	939.12
301.979	941.12
302.209	968.12
302.439	934.12
302.669	918.12
302.9	924.12
303.13	918.12
303.36	963.12
303.59	954.12
303.82	979.12
304.051	1001.12
304.281	982.12
304.511	933.12
304.741	939.12
304.971	998.12
305.201	1001.12
305.431	985.12
305.661	983.12
305.891	991.12
306.121	985.12
306.352	950.12
306.582	948.12
306.812	917.12
307.042	927.12
307.272	932.12
307.502	954.12
307.731	936.12
307.961	946.12
308.191	933.12
308.421	957.12
308.651	963.12
308.881	950.12
309.111	937.12
309.341	921.12
309.571	958.12
309.8	992.12
310.03	1004.12
310.26	1030.12
310.49	1010.12
310.72	987.12
310.949	959.12
311.179	974.12
311.409	954.12
311.639	979.12
311.868	986.12
312.098	975.12
312.328	988.12
312.557	1012.12
312.787	999.12
313.017	1006.12
313.246	1044.12
313.476	1036.12
313.706	1041.12
313.935	1012.12
314.165	1045.12
314.394	1029.12
314.624	1030.12
314.853	1007.12
315.083	1014.12
315.312	1025.12
315.542	1032.12
315.771	1031.12
316.001	1024.12
316.23	993.12
316.46	1010.12
316.689	1014.12
316.919	1013.12
317.148	1030.12
317.377	1004.12
317.607	986.12
317.836	983.12
318.065	1030.12
318.295	1028.12
318.524	1020.12
318.753	1044.12
318.983	1009.12
319.212	1010.12
319.441	1030.12
319.67	1011.12
319.9	1014.12
320.129	1015.12
320.358	1037.12
320.587	1006.12
320.816	1022.12
321.046	1028.12
321.275	1023.12
321.504	1034.12
321.733	1046.12
321.962	1038.12
322.191	1035.12
322.42	1040.12
322.649	1044.12
322.878	1076.12
323.108	1062.12
323.337	1087.12
323.566	1058.12
323.795	1070.12
324.024	1104.12
324.253	1072.12
324.482	1086.12
324.71	1097.12
324.939	1102.12
325.168	1098.12
325.397	1106.12
325.626	1112.12
325.855	1077.12
326.084	1103.12
326.313	1098.12
326.542	1090.12
326.77	1146.12
326.999	1144.12
327.228	1121.12
327.457	1111.12
327.686	1107.12
327.914	1116.12
328.143	1111.12
328.372	1114.12
328.6	1099.12
328.829	1113.12
329.058	1082.12
329.287	1128.12
329.515	1120.12
329.744	1136.12
329.972	1164.12
330.201	1170.12
330.43	1144.12
330.658	1186.12
330.887	1128.12
331.115	1161.12
331.344	1172.12
331.572	1190.12
331.801	1228.12
332.03	1211.12
332.258	1272.12
332.486	1248.12
332.715	1261.12
332.943	1269.12
333.172	1292.12
333.4	1359.12
333.629	1350.12
333.857	1388.12
334.085	1370.12
334.314	1385.12
334.542	1385.12
334.771	1365.12
334.999	1351.12
335.227	1325.12
335.455	1404.12
335.684	1338.12
335.912	1371.12
336.14	1332.12
336.369	1397.12
336.597	1374.12
336.825	1409.12
337.053	1359.12
337.281	1357.12
337.51	1320.12
337.738	1314.12
337.966	1301.12
338.194	1338.12
338.422	1290.12
338.65	1241.12
338.878	1247.12
339.106	1255.12
339.334	1324.12
339.562	1286.12
339.79	1218.12
340.018	1220.12
340.246	1191.12
340.474	1197.12
340.702	1180.12
340.93	1187.12
341.158	1226.12
341.386	1239.12
341.614	1327.12
341.842	1301.12
342.07	1182.12
342.298	1205.12
342.526	1230.12
342.754	1204.12
342.981	1168.12
343.209	1199.12
343.437	1299.12
343.665	1322.12
343.893	1366.12
344.12	1367.12
344.348	1334.12
344.576	1333.12
344.804	1367.12
345.031	1268.12
345.259	1203.12
345.487	1220.12
345.714	1224.12
345.942	1282.12
346.17	1301.12
346.397	1283.12
346.625	1182.12
346.853	1151.12
347.08	1155.12
347.308	1167.12
347.535	1170.12
347.763	1147.12
347.99	1168.12
348.218	1151.12
348.445	1125.12
348.673	1108.12
348.9	1160.12
349.128	1141.12
349.355	1202.12
349.583	1223.12
349.81	1136.12
350.037	1118.12
350.265	1111.12
350.492	1114.12
350.72	1116.12
350.947	1135.12
351.174	1167.12
351.402	1150.12
351.629	1222.12
351.856	1192.12
352.083	1140.12
352.311	1133.12
352.538	1208.12
352.765	1238.12
352.992	1107.12
353.22	1091.12
353.447	1097.12
353.674	1051.12
353.901	1075.12
354.128	1094.12
354.355	1077.12
354.583	1063.12
354.81	1072.12
355.037	1102.12
355.264	1086.12
355.491	1079.12
355.718	1111.12
355.945	1070.12
356.172	1044.12
356.399	1100.12
356.626	1150.12
356.853	1190.12
357.08	1113.12
357.307	1133.12
357.534	1125.12
357.761	1101.12
357.988	1096.12
358.215	1085.12
358.441	1061.12
358.668	1093.12
358.895	1052.12
359.122	1070.12
359.349	1082.12
359.576	1086.12
359.802	1094.12
360.029	1116.12
360.256	1102.12
360.483	1093.12
360.709	1102.12
360.936	1086.12
361.163	1147.12
361.39	1127.12
361.616	1122.12
361.843	1149.12
362.07	1189.12
362.296	1195.12
362.523	1097.12
362.749	1106.12
362.976	1066.12
363.203	1069.12
363.429	1053.12
363.656	1087.12
363.882	1067.12
364.109	1084.12
364.335	1076.12
364.562	1055.12
364.788	1079.12
365.015	1052.12
365.241	1051.12
365.468	1076.12
365.694	1088.12
365.92	1077.12
366.147	1048.12
366.373	1068.12
366.599	1097.12
366.826	1057.12
367.052	1058.12
367.278	1082.12
367.505	1086.12
367.731	1101.12
367.957	1085.12
368.184	1069.12
368.41	1057.12
368.636	1110.12
368.862	1100.12
369.089	1058.12
369.315	1086.12
369.541	1074.12
369.767	1076.12
369.993	1102.12
370.219	1085.12
370.445	1109.12
370.672	1098.12
370.898	1133.12
371.124	1164.12
371.35	1148.12
371.576	1153.12
371.802	1128.12
372.028	1131.12
372.254	1167.12
372.48	1130.12
372.706	1144.12
372.932	1160.12
373.158	1159.12
373.384	1147.12
373.61	1136.12
373.835	1140.12
374.061	1123.12
374.287	1156.12
374.513	1165.12
374.739	1181.12
374.965	1214.12
375.191	1229.12
375.416	1239.12
375.642	1194.12
375.868	1194.12
376.094	1162.12
376.319	1146.12
376.545	1140.12
376.771	1157.12
376.997	1127.12
377.222	1141.12
377.448	1133.12
377.674	1180.12
377.899	1160.12
378.125	1127.12
378.35	1143.12
378.576	1114.12
378.802	1119.12
379.027	1132.12
379.253	1117.12
379.478	1112.12
379.704	1099.12
379.929	1123.12
380.155	1104.12
380.38	1097.12
380.606	1130.12
380.831	1156.12
381.057	1154.12
381.282	1143.12
381.507	1131.12
381.733	1163.12
381.958	1154.12
382.184	1155.12
382.409	1156.12
382.634	1150.12
382.86	1150.12
383.085	1183.12
383.31	1190.12
383.535	1163.12
383.761	1190.12
383.986	1223.12
384.211	1231.12
384.436	1240.12
384.662	1227.12
384.887	1304.12
385.112	1303.12
385.337	1298.12
385.562	1299.12
385.787	1314.12
386.013	1403.12
386.238	1342.12
386.463	1354.12
386.688	1340.12
386.913	1334.12
387.138	1339.12
387.363	1337.12
387.588	1318.12
387.813	1350.12
388.038	1309.12
388.263	1330.12
388.488	1332.12
388.713	1316.12
388.938	1306.12
389.163	1344.12
389.387	1325.12
389.612	1322.12
389.837	1283.12
390.062	1325.12
390.287	1338.12
390.512	1344.12
390.736	1364.12
390.961	1361.12
391.186	1376.12
391.411	1384.12
391.636	1384.12
391.86	1451.12
392.085	1480.12
392.31	1454.12
392.534	1426.12
392.759	1417.12
392.984	1412.12
393.208	1421.12
393.433	1397.12
393.658	1428.12
393.882	1369.12
394.107	1414.12
394.331	1397.12
394.556	1403.12
394.78	1407.12
395.005	1416.12
395.229	1422.12
395.454	1441.12
395.678	1475.12
395.903	1492.12
396.127	1476.12
396.352	1424.12
396.576	1458.12
396.801	1412.12
397.025	1452.12
397.249	1493.12
397.474	1499.12
397.698	1493.12
397.922	1508.12
398.147	1500.12
398.371	1572.12
398.595	1601.12
398.82	1647.12
399.044	1672.12
399.268	1848.12
399.492	1960.12
399.717	2104.12
399.941	2138.12
400.165	2032.12
400.389	1940.12
400.613	1814.12
400.837	1775.12
401.062	1713.12
401.286	1717.12
401.51	1678.12
401.734	1659.12
401.958	1693.12
402.182	1662.12
402.406	1673.12
402.63	1674.12
402.854	1683.12
403.078	1667.12
403.302	1700.12
403.526	1730.12
403.75	1749.12
403.974	1761.12
404.198	1711.12
404.422	1711.12
404.645	1732.12
404.869	1726.12
405.093	1735.12
405.317	1737.12
405.541	1720.12
405.765	1723.12
405.988	1730.12
406.212	1753.12
406.436	1785.12
406.66	1800.12
406.883	1807.12
407.107	1864.12
407.331	1963.12
407.555	1973.12
407.778	1986.12
408.002	1977.12
408.226	1926.12
408.449	1902.12
408.673	1889.12
408.896	1846.12
409.12	1844.12
409.344	1837.12
409.567	1796.12
409.791	1837.12
410.014	1825.12
410.238	1791.12
410.461	1811.12
410.685	1784.12
410.908	1757.12
411.132	1742.12
411.355	1679.12
411.578	1752.12
411.802	1715.12
412.025	1744.12
412.249	1698.12
412.472	1722.12
412.695	1714.12
412.919	1694.12
413.142	1679.12
413.365	1612.12
413.589	1694.12
413.812	1692.12
414.035	1667.12
414.258	1628.12
414.482	1678.12
414.705	1647.12
414.928	1638.12
415.151	1665.12
415.374	1645.12
415.597	1666.12
415.821	1598.12
416.044	1587.12
416.267	1607.12
416.49	1621.12
416.713	1577.12
416.936	1652.12
417.159	1562.12
417.382	1582.12
417.605	1543.12
417.828	1570.12
418.051	1578.12
418.274	1606.12
418.497	1577.12
418.72	1602.12
418.943	1587.12
419.166	1746.12
419.389	1813.12
419.611	1769.12
419.834	1730.12
420.057	1687.12
420.28	1627.12
420.503	1613.12
420.726	1588.12
420.948	1596.12
421.171	1560.12
421.394	1592.12
421.617	1603.12
421.839	1607.12
422.062	1654.12
422.285	1604.12
422.507	1641.12
422.73	1620.12
422.953	1650.12
423.175	1625.12
423.398	1622.12
423.621	1656.12
423.843	1650.12
424.066	1647.12
424.288	1629.12
424.511	1614.12
424.733	1613.12
424.956	1630.12
425.178	1618.12
425.401	1624.12
425.623	1629.12
425.846	1567.12
426.068	1582.12
426.291	1567.12
426.513	1557.12
426.735	1562.12
426.958	1574.12
427.18	1561.12
427.402	1571.12
427.625	1567.12
427.847	1524.12
428.069	1511.12
428.292	1509.12
428.514	1508.12
428.736	1540.12
428.958	1548.12
429.181	1486.12
429.403	1481.12
429.625	1493.12
429.847	1509.12
430.069	1502.12
430.292	1461.12
430.514	1475.12
430.736	1476.12
430.958	1503.12
431.18	1489.12
431.402	1478.12
431.624	1481.12
431.846	1550.12
432.068	1498.12
432.29	1544.12
432.512	1481.12
432.734	1514.12
432.956	1509.12
433.178	1527.12
433.4	1584.12
433.622	1558.12
433.844	1562.12
434.066	1546.12
434.287	1567.12
434.509	1579.12
434.731	1574.12
434.953	1610.12
435.175	1662.12
435.397	1662.12
435.618	1608.12
435.84	1593.12
436.062	1529.12
436.284	1563.12
436.505	1554.12
436.727	1540.12
436.949	1515.12
437.17	1519.12
437.392	1511.12
437.614	1542.12
437.835	1486.12
438.057	1506.12
438.278	1467.12
438.5	1465.12
438.721	1447.12
438.943	1503.12
439.165	1500.12
439.386	1482.12
439.608	1478.12
439.829	1490.12
440.05	1475.12
440.272	1516.12
440.493	1510.12
440.715	1534.12
440.936	1596.12
441.158	1561.12
441.379	1609.12
441.6	1654.12
441.822	1674.12
442.043	1654.12
442.264	1586.12
442.486	1623.12
442.707	1632.12
442.928	1609.12
443.149	1602.12
443.371	1592.12
443.592	1701.12
443.813	1658.12
444.034	1682.12
444.255	1716.12
444.476	1746.12
444.698	1815.12
444.919	1885.12
445.14	1890.12
445.361	1808.12
445.582	1734.12
445.803	1678.12
446.024	1602.12
446.245	1582.12
446.466	1546.12
446.687	1534.12
446.908	1557.12
447.129	1499.12
447.35	1511.12
447.571	1496.12
447.792	1425.12
448.013	1486.12
448.234	1404.12
448.455	1504.12
448.675	1455.12
448.896	1463.12
449.117	1399.12
449.338	1430.12
449.559	1378.12
449.779	1363.12
450	1386.12
450.221	1347.12
450.442	1384.12
450.662	1394.12
450.883	1407.12
451.104	1444.12
451.324	1416.12
451.545	1429.12
451.766	1394.12
451.986	1366.12
452.207	1370.12
452.428	1404.12
452.648	1373.12
452.869	1321.12
453.089	1356.12
453.31	1410.12
453.53	1351.12
453.751	1391.12
453.971	1339.12
454.192	1364.12
454.412	1341.12
454.633	1336.12
454.853	1342.12
455.073	1341.12
455.294	1310.12
455.514	1326.12
455.734	1357.12
455.955	1357.12
456.175	1342.12
456.395	1306.12
456.616	1335.12
456.836	1332.12
457.056	1332.12
457.276	1351.12
457.497	1359.12
457.717	1379.12
457.937	1368.12
458.157	1351.12
458.377	1415.12
458.598	1404.12
458.818	1406.12
459.038	1454.12
459.258	1492.12
459.478	1580.12
459.698	1616.12
459.918	1639.12
460.138	1645.12
460.358	1719.12
460.578	1730.12
460.798	1755.12
461.018	1838.12
461.238	1764.12
461.458	1738.12
461.678	1757.12
461.898	1795.12
462.118	1767.12
462.338	1846.12
462.558	1885.12
462.777	1959.12
462.997	2084.12
463.217	2149.12
463.437	2166.12
463.657	2095.12
463.876	2026.12
464.096	2004.12
464.316	1979.12
464.536	1996.12
464.755	1929.12
464.975	1843.12
465.195	1816.12
465.414	1771.12
465.634	1658.12
465.854	1609.12
466.073	1588.12
466.293	1555.12
466.512	1553.12
466.732	1533.12
466.951	1523.12
467.171	1538.12
467.391	1506.12
467.61	1486.12
467.829	1496.12
468.049	1453.12
468.268	1446.12
468.488	1479.12
468.707	1447.12
468.927	1478.12
469.146	1470.12
469.365	1466.12
469.585	1474.12
469.804	1463.12
470.023	1523.12
470.243	1486.12
470.462	1524.12
470.681	1493.12
470.901	1532.12
471.12	1512.12
471.339	1498.12
471.558	1501.12
471.777	1509.12
471.997	1476.12
472.216	1422.12
472.435	1434.12
472.654	1416.12
472.873	1421.12
473.092	1462.12
473.311	1416.12
473.53	1444.12
473.749	1440.12
473.968	1417.12
474.187	1442.12
474.406	1452.12
474.625	1475.12
474.844	1464.12
475.063	1448.12
475.282	1443.12
475.501	1480.12
475.72	1508.12
475.939	1503.12
476.158	1522.12
476.377	1530.12
476.596	1481.12
476.814	1550.12
477.033	1563.12
477.252	1550.12
477.471	1538.12
477.69	1658.12
477.908	1654.12
478.127	1658.12
478.346	1717.12
478.564	1730.12
478.783	1709.12
479.002	1752.12
479.22	1805.12
479.439	1780.12
479.658	1769.12
479.876	1754.12
480.095	1779.12
480.313	1804.12
480.532	1824.12
480.751	1827.12
480.969	1779.12
481.188	1768.12
481.406	1788.12
481.624	1754.12
481.843	1707.12
482.061	1693.12
482.28	1683.12
482.498	1682.12
482.717	1682.12
482.935	1723.12
483.153	1742.12
483.372	1742.12
483.59	1745.12
483.808	1731.12
484.027	1679.12
484.245	1762.12
484.463	1752.12
484.681	1768.12
484.9	1775.12
485.118	1771.12
485.336	1767.12
485.554	1791.12
485.772	1821.12
485.99	1818.12
486.209	1783.12
486.427	1772.12
486.645	1830.12
486.863	1815.12
487.081	1727.12
487.299	1788.12
487.517	1762.12
487.735	1823.12
487.953	1808.12
488.171	1812.12
488.389	1766.12
488.607	1792.12
488.825	1756.12
489.043	1734.12
489.261	1747.12
489.479	1774.12
489.696	1774.12
489.914	1777.12
490.132	1778.12
490.35	1776.12
490.568	1795.12
490.786	1785.12
491.003	1795.12
491.221	1782.12
491.439	1831.12
491.657	1806.12
491.874	1818.12
492.092	1862.12
492.31	1832.12
492.527	1827.12
492.745	1882.12
492.963	1836.12
493.18	1807.12
493.398	1858.12
493.615	1872.12
493.833	1897.12
494.05	1909.12
494.268	1871.12
494.485	1870.12
494.703	1909.12
494.92	1926.12
495.138	1896.12
495.355	1880.12
495.573	1936.12
495.79	1924.12
496.008	1971.12
496.225	1958.12
496.442	1956.12
496.66	2007.12
496.877	2052.12
497.094	2067.12
497.312	2061.12
497.529	2124.12
497.746	2142.12
497.963	2261.12
498.181	2337.12
498.398	2375.12
498.615	2545.12
498.832	2630.12
499.049	2752.12
499.267	2937.12
499.484	3063.12
499.701	3302.12
499.918	3491.12
500.135	3827.12
500.352	4123.12
500.569	4185.12
500.786	4093.12
501.003	4056.12
501.22	3763.12
501.437	3528.12
501.654	3253.12
501.871	3063.12
502.088	2891.12
502.305	2719.12
502.522	2616.12
502.739	2538.12
502.956	2428.12
503.172	2352.12
503.389	2281.12
503.606	2218.12
503.823	2220.12
504.04	2162.12
504.256	2144.12
504.473	2145.12
504.69	2098.12
504.907	2025.12
505.123	2029.12
505.34	1968.12
505.557	1907.12
505.773	1851.12
505.99	1807.12
506.207	1782.12
506.423	1716.12
506.64	1737.12
506.856	1675.12
507.073	1746.12
507.289	1668.12
507.506	1676.12
507.722	1665.12
507.939	1671.12
508.155	1653.12
508.372	1672.12
508.588	1625.12
508.805	1602.12
509.021	1572.12
509.238	1567.12
509.454	1547.12
509.67	1538.12
509.887	1552.12
510.103	1510.12
510.319	1526.12
510.536	1486.12
510.752	1480.12
510.968	1490.12
511.184	1494.12
511.401	1524.12
511.617	1517.12
511.833	1493.12
512.049	1471.12
512.265	1455.12
512.481	1511.12
512.698	1521.12
512.914	1498.12
513.13	1499.12
513.346	1475.12
513.562	1471.12
513.778	1502.12
513.994	1491.12
514.21	1474.12
514.426	1531.12
514.642	1514.12
514.858	1511.12
515.074	1525.12
515.29	1565.12
515.506	1576.12
515.721	1566.12
515.937	1605.12
516.153	1619.12
516.369	1609.12
516.585	1664.12
516.801	1714.12
517.016	1765.12
517.232	1780.12
517.448	1809.12
517.664	1873.12
517.879	1847.12
518.095	1852.12
518.311	1804.12
518.527	1762.12
518.742	1737.12
518.958	1704.12
519.173	1658.12
519.389	1655.12
519.605	1602.12
519.82	1551.12
520.036	1522.12
520.251	1519.12
520.467	1518.12
520.682	1474.12
520.898	1468.12
521.113	1467.12
521.329	1449.12
521.544	1472.12
521.76	1422.12
521.975	1438.12
522.19	1416.12
522.406	1375.12
522.621	1378.12
522.836	1371.12
523.052	1399.12
523.267	1396.12
523.482	1367.12
523.698	1354.12
523.913	1379.12
524.128	1366.12
524.343	1383.12
524.559	1360.12
524.774	1360.12
524.989	1331.12
525.204	1341.12
525.419	1335.12
525.634	1363.12
525.849	1307.12
526.064	1346.12
526.28	1313.12
526.495	1308.12
526.71	1359.12
526.925	1300.12
527.14	1302.12
527.355	1331.12
527.57	1328.12
527.785	1318.12
527.999	1305.12
528.214	1303.12
528.429	1291.12
528.644	1288.12
528.859	1315.12
529.074	1317.12
529.289	1309.12
529.503	1355.12
529.718	1335.12
529.933	1319.12
530.148	1296.12
530.363	1312.12
530.577	1262.12
530.792	1282.12
531.007	1288.12
531.221	1290.12
531.436	1295.12
531.651	1299.12
531.865	1284.12
532.08	1312.12
532.295	1304.12
532.509	1271.12
532.724	1298.12
532.938	1294.12
533.153	1276.12
533.367	1262.12
533.582	1295.12
533.796	1286.12
534.011	1274.12
534.225	1245.12
534.44	1260.12
534.654	1261.12
534.868	1234.12
535.083	1275.12
535.297	1238.12
535.511	1284.12
535.726	1252.12
535.94	1254.12
536.154	1235.12
536.369	1198.12
536.583	1232.12
536.797	1231.12
537.011	1202.12
537.225	1184.12
537.44	1216.12
537.654	1214.12
537.868	1176.12
538.082	1198.12
538.296	1202.12
538.51	1201.12
538.724	1231.12
538.938	1196.12
539.153	1166.12
539.367	1189.12
539.581	1177.12
539.795	1157.12
540.009	1172.12
540.222	1177.12
540.436	1166.12
540.65	1200.12
540.864	1158.12
541.078	1189.12
541.292	1183.12
541.506	1174.12
541.72	1181.12
541.934	1177.12
542.147	1172.12
542.361	1186.12
542.575	1154.12
542.789	1190.12
543.002	1140.12
543.216	1144.12
543.43	1133.12
543.644	1174.12
543.857	1156.12
544.071	1142.12
544.285	1190.12
544.498	1146.12
544.712	1147.12
544.925	1178.12
545.139	1186.12
545.352	1182.12
545.566	1176.12
545.779	1194.12
545.993	1191.12
546.206	1191.12
546.42	1191.12
546.633	1200.12
546.847	1195.12
547.06	1169.12
547.274	1170.12
547.487	1208.12
547.7	1224.12
547.914	1211.12
548.127	1194.12
548.34	1180.12
548.554	1176.12
548.767	1219.12
548.98	1192.12
549.193	1192.12
549.407	1161.12
549.62	1195.12
549.833	1241.12
550.046	1185.12
550.259	1182.12
550.473	1176.12
550.686	1178.12
550.899	1165.12
551.112	1167.12
551.325	1183.12
551.538	1163.12
551.751	1160.12
551.964	1166.12
552.177	1171.12
552.39	1176.12
552.603	1169.12
552.816	1206.12
553.029	1227.12
553.242	1212.12
553.455	1203.12
553.667	1232.12
553.88	1206.12
554.093	1215.12
554.306	1152.12
554.519	1158.12
554.732	1157.12
554.944	1123.12
555.157	1111.12
555.37	1102.12
555.583	1085.12
555.795	1065.12
556.008	1054.12
556.221	1044.12
556.433	1051.12
556.646	1031.12
556.859	1048.12
557.071	1031.12
557.284	1011.12
557.496	999.12
557.709	1030.12
557.921	1011.12
558.134	1000.12
558.346	966.12
558.559	995.12
558.771	1014.12
558.984	1003.12
559.196	996.12
559.409	981.12
559.621	997.12
559.833	974.12
560.046	975.12
560.258	966.12
560.47	973.12
560.683	960.12
560.895	957.12
561.107	940.12
561.32	962.12
561.532	959.12
561.744	982.12
561.956	976.12
562.168	988.12
562.381	972.12
562.593	983.12
562.805	1011.12
563.017	1006.12
563.229	1016.12
563.441	983.12
563.653	1026.12
563.865	976.12
564.077	1007.12
564.289	1011.12
564.501	1036.12
564.713	1045.12
564.925	1061.12
565.137	1075.12
565.349	1065.12
565.561	1106.12
565.773	1161.12
565.985	1186.12
566.197	1219.12
566.408	1258.12
566.62	1306.12
566.832	1375.12
567.044	1386.12
567.255	1395.12
567.467	1432.12
567.679	1443.12
567.891	1518.12
568.102	1464.12
568.314	1444.12
568.526	1391.12
568.737	1306.12
568.949	1225.12
569.161	1139.12
569.372	1114.12
569.584	1070.12
569.795	1014.12
570.007	1040.12
570.218	1010.12
570.43	968.12
570.641	962.12
570.853	973.12
571.064	973.12
571.276	939.12
571.487	939.12
571.698	937.12
571.91	890.12
572.121	858.12
572.333	863.12
572.544	860.12
572.755	838.12
572.966	847.12
573.178	830.12
573.389	841.12
573.6	830.12
573.811	815.12
574.023	788.12
574.234	807.12
574.445	792.12
574.656	802.12
574.867	777.12
575.078	795.12
575.289	785.12
575.501	791.12
575.712	740.12
575.923	739.12
576.134	760.12
576.345	731.12
576.556	740.12
576.767	751.12
576.978	717.12
577.188	716.12
577.399	729.12
577.61	719.12
577.821	730.12
578.032	715.12
578.243	716.12
578.454	732.12
578.665	694.12
578.875	692.12
579.086	694.12
579.297	697.12
579.508	697.12
579.718	706.12
579.929	703.12
580.14	679.12
580.35	680.12
580.561	667.12
580.772	663.12
580.982	668.12
581.193	662.12
581.403	657.12
581.614	655.12
581.825	682.12
582.035	645.12
582.246	638.12
582.456	654.12
582.667	649.12
582.877	645.12
583.087	666.12
583.298	660.12
583.508	643.12
583.719	667.12
583.929	660.12
584.139	627.12
584.35	629.12
584.56	646.12
584.77	652.12
584.981	610.12
585.191	638.12
585.401	604.12
585.611	606.12
585.821	618.12
586.032	620.12
586.242	618.12
586.452	615.12
586.662	591.12
586.872	606.12
587.082	614.12
587.292	634.12
587.502	614.12
587.713	607.12
587.923	632.12
588.133	596.12
588.343	626.12
588.553	616.12
588.762	616.12
588.972	662.12
589.182	813.12
589.392	772.12
589.602	697.12
589.812	792.12
590.022	709.12
590.232	618.12
590.441	621.12
590.651	631.12
590.861	621.12
591.071	634.12
591.281	631.12
591.49	638.12
591.7	638.12
591.91	639.12
592.119	653.12
592.329	667.12
592.539	667.12
592.748	693.12
592.958	691.12
593.167	704.12
593.377	703.12
593.587	703.12
593.796	701.12
594.006	734.12
594.215	698.12
594.424	687.12
594.634	698.12
594.843	700.12
595.053	698.12
595.262	654.12
595.472	660.12
595.681	622.12
595.89	625.12
596.1	617.12
596.309	592.12
596.518	604.12
596.727	592.12
596.937	573.12
597.146	564.12
597.355	583.12
597.564	526.12
597.774	540.12
597.983	540.12
598.192	549.12
598.401	554.12
598.61	532.12
598.819	519.12
599.028	521.12
599.237	516.12
599.446	522.12
599.655	527.12
599.864	527.12
600.073	512.12
600.282	524.12
600.491	532.12
600.7	536.12
600.909	510.12
601.118	517.12
601.327	488.12
601.536	501.12
601.745	506.12
601.953	488.12
602.162	495.12
602.371	475.12
602.58	470.12
602.789	507.12
602.997	492.12
603.206	513.12
603.415	476.12
603.623	471.12
603.832	505.12
604.041	494.12
604.249	484.12
604.458	466.12
604.666	457.12
604.875	470.12
605.084	452.12
605.292	481.12
605.501	458.12
605.709	467.12
605.918	467.12
606.126	480.12
606.334	473.12
606.543	460.12
606.751	458.12
606.96	451.12
607.168	450.12
607.376	452.12
607.585	444.12
607.793	444.12
608.001	478.12
608.21	447.12
608.418	452.12
608.626	441.12
608.834	444.12
609.043	450.12
609.251	446.12
609.459	432.12
609.667	430.12
609.875	455.12
610.083	451.12
610.291	450.12
610.499	438.12
610.707	455.12
610.916	436.12
611.124	433.12
611.332	427.12
611.54	422.12
611.748	394.12
611.955	441.12
612.163	421.12
612.371	434.12
612.579	438.12
612.787	446.12
612.995	427.12
613.203	418.12
613.411	426.12
613.618	448.12
613.826	436.12
614.034	430.12
614.242	420.12
614.449	416.12
614.657	437.12
614.865	430.12
615.072	438.12
615.28	418.12
615.488	406.12
615.695	408.12
615.903	413.12
616.111	408.12
616.318	415.12
616.526	426.12
616.733	404.12
616.941	428.12
617.148	435.12
617.356	416.12
617.563	406.12
617.771	423.12
617.978	409.12
618.185	424.12
618.393	413.12
618.6	406.12
618.807	413.12
619.015	406.12
619.222	407.12
619.429	415.12
619.637	379.12
619.844	408.12
620.051	395.12
620.258	394.12
620.466	380.12
620.673	366.12
620.88	393.12
621.087	405.12
621.294	392.12
621.501	395.12
621.708	395.12
621.915	385.12
622.122	409.12
622.329	412.12
622.536	391.12
622.743	378.12
622.95	381.12
623.157	389.12
623.364	392.12
623.571	363.12
623.778	373.12
623.985	394.12
624.192	371.12
624.399	372.12
624.606	392.12
624.812	369.12
625.019	371.12
625.226	388.12
625.433	364.12
625.639	354.12
625.846	351.12
626.053	359.12
626.259	361.12
626.466	355.12
626.673	362.12
626.879	343.12
627.086	342.12
627.293	345.12
627.499	346.12
627.706	336.12
627.912	353.12
628.119	344.12
628.325	337.12
628.532	324.12
628.738	332.12
628.945	319.12
629.151	344.12
629.357	323.12
629.564	304.12
629.77	339.12
629.976	332.12
630.183	330.12
630.389	315.12
630.595	316.12
630.802	328.12
631.008	327.12
631.214	301.12
631.42	334.12
631.627	325.12
631.833	318.12
632.039	325.12
632.245	331.12
632.451	308.12
632.657	332.12
632.863	318.12
633.069	323.12
633.275	330.12
633.481	316.12
633.688	312.12
633.893	306.12
634.099	313.12
634.305	312.12
634.511	295.12
634.717	324.12
634.923	295.12
635.129	317.12
635.335	318.12
635.541	305.12
635.747	312.12
635.952	309.12
636.158	283.12
636.364	310.12
636.57	310.12
636.775	311.12
636.981	309.12
637.187	295.12
637.392	299.12
637.598	304.12
637.804	297.12
638.009	298.12
638.215	287.12
638.421	282.12
638.626	270.12
638.832	285.12
639.037	285.12
639.243	285.12
639.448	273.12
639.654	290.12
639.859	276.12
640.065	290.12
640.27	286.12
640.475	280.12
640.681	275.12
640.886	290.12
641.091	276.12
641.297	292.12
641.502	269.12
641.707	268.12
641.913	284.12
642.118	280.12
642.323	282.12
642.528	271.12
642.733	268.12
642.939	276.12
643.144	275.12
643.349	267.12
643.554	276.12
643.759	272.12
643.964	266.12
644.169	283.12
644.374	276.12
644.579	258.12
644.784	263.12
644.989	272.12
645.194	276.12
645.399	259.12
645.604	270.12
645.809	262.12
646.014	263.12
646.219	279.12
646.423	279.12
646.628	281.12
646.833	271.12
647.038	278.12
647.243	262.12
647.447	262.12
647.652	284.12
647.857	295.12
648.062	271.12
648.266	284.12
648.471	286.12
648.676	276.12
648.88	268.12
649.085	269.12
649.289	258.12
649.494	267.12
649.698	266.12
649.903	258.12
650.107	262.12
650.312	276.12
650.516	269.12
650.721	252.12
650.925	263.12
651.13	258.12
651.334	238.12
651.539	252.12
651.743	239.12
651.947	236.12
652.152	229.12
652.356	242.12
652.56	228.12
652.764	227.12
652.969	223.12
653.173	216.12
653.377	233.12
653.581	226.12
653.785	208.12
653.99	227.12
654.194	213.12
654.398	212.12
654.602	219.12
654.806	210.12
655.01	205.12
655.214	200.12
655.418	208.12
655.622	211.12
655.826	225.12
656.03	212.12
656.234	216.12
656.438	230.12
656.642	223.12
656.846	230.12
657.049	216.12
657.253	204.12
657.457	186.12
657.661	173.12
657.865	174.12
658.068	157.12
658.272	147.12
658.476	142.12
658.68	134.12
658.883	132.12
659.087	145.12
659.291	131.12
659.494	132.12
659.698	132.12
659.901	125.12
660.105	114.12
660.309	113.12
660.512	110.12
660.716	107.12
660.919	127.12
661.123	116.12
661.326	100.12
661.53	100.12
661.733	96.12
661.936	101.12
662.14	84.12
662.343	79.12
662.546	93.12
662.75	100.12
662.953	95.12
663.156	84.12
663.36	86.12
663.563	94.12
663.766	70.12
663.969	94.12
664.173	87.12
664.376	81.12
664.579	80.12
664.782	95.12
664.985	100.12
665.188	91.12
665.391	89.12
665.594	82.12
665.797	91.12
666	71.12
666.203	101.12
666.406	90.12
666.609	98.12
666.812	100.12
667.015	79.12
667.218	86.12
667.421	86.12
667.624	86.12
667.827	87.12
668.03	90.12
668.232	73.12
668.435	86.12
668.638	70.12
668.841	83.12
669.043	85.12
669.246	76.12
669.449	83.12
669.651	85.12
669.854	85.12
670.057	91.12
670.259	75.12
670.462	72.12
670.665	85.12
670.867	85.12
671.07	85.12
671.272	89.12
671.475	107.12
671.677	84.12
671.88	88.12
672.082	80.12
672.284	80.12
672.487	71.12
672.689	90.12
672.892	91.12
