Data from NiCl2@0.25M.TitratingCurve.Agarose3%dH2O.NegLispCup.LampEnergy10.LIBS07252019_HRD10591_18-26-13-574.txt Node
Date: Thu Jul 25 18:26:13 EDT 2019
User: cochatt
Spectrometer: HR+D1059
Trigger mode: 1
Integration Time (sec): 1.000000E-1
Scans to average: 1
Electric dark correction enabled: true
Nonlinearity correction enabled: false
Boxcar width: 0
XAxis mode: Wavelengths
Number of Pixels in Spectrum: 2048
>>>>>Begin Spectral Data<<<<<
223.165	-20.5
223.4	-20.5
223.635	-20.5
223.869	-21.5
224.104	-17.5
224.338	-24.5
224.573	-17.5
224.808	-12.5
225.042	4.5
225.277	-11.5
225.511	6.5
225.746	5.5
225.98	1.5
226.215	6.5
226.449	16.5
226.683	16.5
226.918	33.5
227.152	34.5
227.387	41.5
227.621	47.5
227.856	41.5
228.09	39.5
228.324	52.5
228.559	54.5
228.793	65.5
229.027	121.5
229.262	132.5
229.496	122.5
229.73	124.5
229.964	135.5
230.199	144.5
230.433	138.5
230.667	138.5
230.901	159.5
231.136	152.5
231.37	142.5
231.604	145.5
231.838	176.5
232.072	148.5
232.306	169.5
232.541	164.5
232.775	167.5
233.009	162.5
233.243	161.5
233.477	159.5
233.711	179.5
233.945	183.5
234.179	171.5
234.413	162.5
234.647	162.5
234.881	179.5
235.115	174.5
235.349	179.5
235.583	167.5
235.817	170.5
236.051	169.5
236.285	182.5
236.519	176.5
236.753	172.5
236.987	185.5
237.221	171.5
237.455	179.5
237.689	176.5
237.922	201.5
238.156	197.5
238.39	195.5
238.624	179.5
238.858	205.5
239.091	202.5
239.325	202.5
239.559	192.5
239.793	212.5
240.027	224.5
240.26	204.5
240.494	218.5
240.728	213.5
240.961	221.5
241.195	212.5
241.429	221.5
241.662	231.5
241.896	232.5
242.13	226.5
242.363	223.5
242.597	221.5
242.83	227.5
243.064	244.5
243.298	239.5
243.531	242.5
243.765	244.5
243.998	252.5
244.232	218.5
244.465	240.5
244.699	254.5
244.932	247.5
245.166	255.5
245.399	243.5
245.633	238.5
245.866	262.5
246.099	266.5
246.333	258.5
246.566	247.5
246.8	272.5
247.033	248.5
247.266	282.5
247.5	283.5
247.733	281.5
247.966	272.5
248.2	293.5
248.433	294.5
248.666	287.5
248.899	293.5
249.133	289.5
249.366	293.5
249.599	291.5
249.832	297.5
250.066	292.5
250.299	295.5
250.532	289.5
250.765	302.5
250.998	302.5
251.231	310.5
251.465	307.5
251.698	295.5
251.931	311.5
252.164	327.5
252.397	321.5
252.63	305.5
252.863	315.5
253.096	337.5
253.329	326.5
253.562	330.5
253.795	314.5
254.028	329.5
254.261	327.5
254.494	327.5
254.727	343.5
254.96	343.5
255.193	329.5
255.426	338.5
255.659	359.5
255.892	338.5
256.124	351.5
256.357	335.5
256.59	356.5
256.823	353.5
257.056	348.5
257.289	382.5
257.521	363.5
257.754	354.5
257.987	359.5
258.22	376.5
258.452	355.5
258.685	344.5
258.918	376.5
259.151	356.5
259.383	371.5
259.616	368.5
259.849	391.5
260.081	384.5
260.314	391.5
260.547	386.5
260.779	374.5
261.012	372.5
261.244	374.5
261.477	382.5
261.71	401.5
261.942	404.5
262.175	411.5
262.407	419.5
262.64	386.5
262.872	392.5
263.105	408.5
263.337	366.5
263.57	400.5
263.802	412.5
264.035	407.5
264.267	422.5
264.499	393.5
264.732	414.5
264.964	436.5
265.197	410.5
265.429	406.5
265.661	433.5
265.894	434.5
266.126	420.5
266.358	423.5
266.591	408.5
266.823	448.5
267.055	410.5
267.287	447.5
267.52	422.5
267.752	418.5
267.984	464.5
268.216	434.5
268.448	462.5
268.681	429.5
268.913	449.5
269.145	440.5
269.377	456.5
269.609	450.5
269.841	474.5
270.073	466.5
270.306	452.5
270.538	446.5
270.77	459.5
271.002	461.5
271.234	450.5
271.466	463.5
271.698	466.5
271.93	478.5
272.162	475.5
272.394	482.5
272.626	454.5
272.858	472.5
273.09	483.5
273.322	476.5
273.553	475.5
273.785	487.5
274.017	490.5
274.249	502.5
274.481	507.5
274.713	481.5
274.945	502.5
275.176	514.5
275.408	508.5
275.64	511.5
275.872	511.5
276.104	517.5
276.335	476.5
276.567	530.5
276.799	497.5
277.031	516.5
277.262	535.5
277.494	539.5
277.726	524.5
277.957	497.5
278.189	500.5
278.421	549.5
278.652	508.5
278.884	556.5
279.115	541.5
279.347	545.5
279.579	535.5
279.81	544.5
280.042	553.5
280.273	539.5
280.505	544.5
280.736	545.5
280.968	541.5
281.199	546.5
281.431	569.5
281.662	568.5
281.894	577.5
282.125	560.5
282.356	560.5
282.588	588.5
282.819	560.5
283.051	601.5
283.282	591.5
283.513	607.5
283.745	577.5
283.976	588.5
284.207	584.5
284.439	575.5
284.67	603.5
284.901	586.5
285.132	594.5
285.364	586.5
285.595	612.5
285.826	588.5
286.057	598.5
286.288	590.5
286.52	608.5
286.751	600.5
286.982	603.5
287.213	606.5
287.444	602.5
287.675	622.5
287.906	620.5
288.138	608.5
288.369	623.5
288.6	614.5
288.831	634.5
289.062	651.5
289.293	626.5
289.524	627.5
289.755	634.5
289.986	625.5
290.217	619.5
290.448	638.5
290.679	620.5
290.91	662.5
291.141	650.5
291.371	636.5
291.602	642.5
291.833	638.5
292.064	630.5
292.295	625.5
292.526	649.5
292.757	635.5
292.987	647.5
293.218	639.5
293.449	643.5
293.68	643.5
293.91	638.5
294.141	677.5
294.372	639.5
294.603	624.5
294.833	655.5
295.064	636.5
295.295	684.5
295.525	642.5
295.756	640.5
295.987	628.5
296.217	678.5
296.448	662.5
296.679	668.5
296.909	673.5
297.14	681.5
297.37	692.5
297.601	698.5
297.831	667.5
298.062	697.5
298.292	702.5
298.523	708.5
298.753	722.5
298.984	722.5
299.214	719.5
299.445	711.5
299.675	690.5
299.905	698.5
300.136	701.5
300.366	684.5
300.597	701.5
300.827	708.5
301.057	715.5
301.288	738.5
301.518	743.5
301.748	740.5
301.979	723.5
302.209	750.5
302.439	736.5
302.669	750.5
302.9	740.5
303.13	725.5
303.36	735.5
303.59	734.5
303.82	721.5
304.051	773.5
304.281	747.5
304.511	734.5
304.741	712.5
304.971	716.5
305.201	734.5
305.431	703.5
305.661	726.5
305.891	732.5
306.121	712.5
306.352	750.5
306.582	712.5
306.812	706.5
307.042	708.5
307.272	723.5
307.502	688.5
307.731	718.5
307.961	724.5
308.191	712.5
308.421	729.5
308.651	716.5
308.881	685.5
309.111	700.5
309.341	711.5
309.571	728.5
309.8	730.5
310.03	737.5
310.26	709.5
310.49	704.5
310.72	726.5
310.949	705.5
311.179	728.5
311.409	722.5
311.639	727.5
311.868	752.5
312.098	728.5
312.328	762.5
312.557	735.5
312.787	721.5
313.017	753.5
313.246	756.5
313.476	743.5
313.706	752.5
313.935	772.5
314.165	767.5
314.394	758.5
314.624	758.5
314.853	743.5
315.083	754.5
315.312	745.5
315.542	767.5
315.771	755.5
316.001	762.5
316.23	755.5
316.46	744.5
316.689	761.5
316.919	731.5
317.148	767.5
317.377	748.5
317.607	737.5
317.836	736.5
318.065	745.5
318.295	742.5
318.524	734.5
318.753	737.5
318.983	741.5
319.212	727.5
319.441	740.5
319.67	755.5
319.9	728.5
320.129	753.5
320.358	731.5
320.587	753.5
320.816	743.5
321.046	746.5
321.275	762.5
321.504	743.5
321.733	774.5
321.962	768.5
322.191	775.5
322.42	786.5
322.649	750.5
322.878	773.5
323.108	750.5
323.337	768.5
323.566	762.5
323.795	773.5
324.024	776.5
324.253	767.5
324.482	746.5
324.71	784.5
324.939	805.5
325.168	786.5
325.397	754.5
325.626	809.5
325.855	812.5
326.084	798.5
326.313	840.5
326.542	796.5
326.77	838.5
326.999	824.5
327.228	806.5
327.457	824.5
327.686	809.5
327.914	809.5
328.143	841.5
328.372	831.5
328.6	804.5
328.829	823.5
329.058	810.5
329.287	827.5
329.515	833.5
329.744	846.5
329.972	855.5
330.201	849.5
330.43	870.5
330.658	863.5
330.887	830.5
331.115	851.5
331.344	874.5
331.572	868.5
331.801	891.5
332.03	900.5
332.258	935.5
332.486	947.5
332.715	994.5
332.943	997.5
333.172	1051.5
333.4	1095.5
333.629	1123.5
333.857	1154.5
334.085	1152.5
334.314	1099.5
334.542	1063.5
334.771	1109.5
334.999	1046.5
335.227	1067.5
335.455	1044.5
335.684	1043.5
335.912	1050.5
336.14	1030.5
336.369	994.5
336.597	1003.5
336.825	1003.5
337.053	998.5
337.281	995.5
337.51	961.5
337.738	937.5
337.966	942.5
338.194	916.5
338.422	901.5
338.65	875.5
338.878	894.5
339.106	906.5
339.334	892.5
339.562	903.5
339.79	862.5
340.018	857.5
340.246	874.5
340.474	858.5
340.702	850.5
340.93	879.5
341.158	882.5
341.386	894.5
341.614	873.5
341.842	870.5
342.07	866.5
342.298	871.5
342.526	842.5
342.754	863.5
342.981	850.5
343.209	892.5
343.437	910.5
343.665	975.5
343.893	1043.5
344.12	1062.5
344.348	1028.5
344.576	992.5
344.804	931.5
345.031	907.5
345.259	878.5
345.487	882.5
345.714	853.5
345.942	843.5
346.17	850.5
346.397	852.5
346.625	841.5
346.853	841.5
347.08	831.5
347.308	856.5
347.535	846.5
347.763	852.5
347.99	848.5
348.218	863.5
348.445	857.5
348.673	841.5
348.9	826.5
349.128	822.5
349.355	806.5
349.583	815.5
349.81	792.5
350.037	807.5
350.265	823.5
350.492	830.5
350.72	820.5
350.947	806.5
351.174	803.5
351.402	823.5
351.629	805.5
351.856	803.5
352.083	815.5
352.311	807.5
352.538	803.5
352.765	812.5
352.992	781.5
353.22	776.5
353.447	794.5
353.674	766.5
353.901	786.5
354.128	786.5
354.355	779.5
354.583	780.5
354.81	777.5
355.037	824.5
355.264	789.5
355.491	789.5
355.718	799.5
355.945	831.5
356.172	806.5
356.399	816.5
356.626	818.5
356.853	826.5
357.08	814.5
357.307	816.5
357.534	802.5
357.761	825.5
357.988	816.5
358.215	814.5
358.441	783.5
358.668	790.5
358.895	803.5
359.122	784.5
359.349	772.5
359.576	810.5
359.802	804.5
360.029	793.5
360.256	809.5
360.483	806.5
360.709	787.5
360.936	822.5
361.163	821.5
361.39	822.5
361.616	781.5
361.843	816.5
362.07	793.5
362.296	808.5
362.523	793.5
362.749	834.5
362.976	789.5
363.203	791.5
363.429	792.5
363.656	801.5
363.882	800.5
364.109	804.5
364.335	804.5
364.562	807.5
364.788	758.5
365.015	807.5
365.241	792.5
365.468	806.5
365.694	783.5
365.92	814.5
366.147	788.5
366.373	785.5
366.599	786.5
366.826	796.5
367.052	796.5
367.278	796.5
367.505	807.5
367.731	812.5
367.957	807.5
368.184	815.5
368.41	804.5
368.636	802.5
368.862	819.5
369.089	847.5
369.315	804.5
369.541	842.5
369.767	827.5
369.993	816.5
370.219	839.5
370.445	834.5
370.672	844.5
370.898	843.5
371.124	853.5
371.35	862.5
371.576	894.5
371.802	876.5
372.028	855.5
372.254	878.5
372.48	869.5
372.706	905.5
372.932	913.5
373.158	909.5
373.384	891.5
373.61	899.5
373.835	888.5
374.061	886.5
374.287	901.5
374.513	887.5
374.739	906.5
374.965	959.5
375.191	969.5
375.416	969.5
375.642	914.5
375.868	939.5
376.094	942.5
376.319	906.5
376.545	920.5
376.771	886.5
376.997	849.5
377.222	896.5
377.448	871.5
377.674	861.5
377.899	888.5
378.125	880.5
378.35	844.5
378.576	856.5
378.802	869.5
379.027	850.5
379.253	870.5
379.478	848.5
379.704	856.5
379.929	860.5
380.155	870.5
380.38	861.5
380.606	875.5
380.831	848.5
381.057	887.5
381.282	887.5
381.507	864.5
381.733	870.5
381.958	871.5
382.184	901.5
382.409	901.5
382.634	920.5
382.86	896.5
383.085	927.5
383.31	932.5
383.535	930.5
383.761	951.5
383.986	986.5
384.211	1003.5
384.436	1028.5
384.662	1014.5
384.887	1056.5
385.112	1027.5
385.337	1053.5
385.562	1078.5
385.787	1075.5
386.013	1081.5
386.238	1069.5
386.463	1051.5
386.688	1064.5
386.913	1046.5
387.138	1051.5
387.363	1031.5
387.588	1012.5
387.813	1009.5
388.038	1040.5
388.263	1036.5
388.488	1042.5
388.713	1027.5
388.938	1075.5
389.163	1031.5
389.387	1012.5
389.612	1027.5
389.837	1023.5
390.062	1011.5
390.287	1054.5
390.512	1015.5
390.736	1029.5
390.961	1071.5
391.186	1094.5
391.411	1112.5
391.636	1160.5
391.86	1206.5
392.085	1191.5
392.31	1187.5
392.534	1161.5
392.759	1132.5
392.984	1108.5
393.208	1112.5
393.433	1146.5
393.658	1104.5
393.882	1110.5
394.107	1139.5
394.331	1140.5
394.556	1109.5
394.78	1126.5
395.005	1145.5
395.229	1150.5
395.454	1179.5
395.678	1195.5
395.903	1189.5
396.127	1194.5
396.352	1155.5
396.576	1136.5
396.801	1136.5
397.025	1146.5
397.249	1162.5
397.474	1201.5
397.698	1177.5
397.922	1198.5
398.147	1213.5
398.371	1216.5
398.595	1266.5
398.82	1330.5
399.044	1407.5
399.268	1565.5
399.492	1795.5
399.717	2009.5
399.941	2027.5
400.165	1837.5
400.389	1662.5
400.613	1537.5
400.837	1417.5
401.062	1396.5
401.286	1369.5
401.51	1360.5
401.734	1322.5
401.958	1336.5
402.182	1350.5
402.406	1390.5
402.63	1384.5
402.854	1407.5
403.078	1456.5
403.302	1486.5
403.526	1510.5
403.75	1556.5
403.974	1551.5
404.198	1573.5
404.422	1570.5
404.645	1520.5
404.869	1512.5
405.093	1532.5
405.317	1502.5
405.541	1454.5
405.765	1469.5
405.988	1466.5
406.212	1515.5
406.436	1487.5
406.66	1488.5
406.883	1513.5
407.107	1593.5
407.331	1704.5
407.555	1713.5
407.778	1709.5
408.002	1688.5
408.226	1644.5
408.449	1590.5
408.673	1564.5
408.896	1501.5
409.12	1544.5
409.344	1524.5
409.567	1511.5
409.791	1506.5
410.014	1473.5
410.238	1476.5
410.461	1482.5
410.685	1468.5
410.908	1461.5
411.132	1416.5
411.355	1380.5
411.578	1415.5
411.802	1352.5
412.025	1372.5
412.249	1406.5
412.472	1412.5
412.695	1361.5
412.919	1298.5
413.142	1304.5
413.365	1336.5
413.589	1339.5
413.812	1279.5
414.035	1296.5
414.258	1327.5
414.482	1316.5
414.705	1335.5
414.928	1314.5
415.151	1358.5
415.374	1317.5
415.597	1332.5
415.821	1300.5
416.044	1303.5
416.267	1312.5
416.49	1290.5
416.713	1277.5
416.936	1290.5
417.159	1270.5
417.382	1285.5
417.605	1296.5
417.828	1298.5
418.051	1330.5
418.274	1287.5
418.497	1329.5
418.72	1353.5
418.943	1355.5
419.166	1445.5
419.389	1516.5
419.611	1478.5
419.834	1440.5
420.057	1393.5
420.28	1343.5
420.503	1319.5
420.726	1319.5
420.948	1287.5
421.171	1293.5
421.394	1284.5
421.617	1284.5
421.839	1311.5
422.062	1304.5
422.285	1286.5
422.507	1362.5
422.73	1332.5
422.953	1334.5
423.175	1342.5
423.398	1368.5
423.621	1373.5
423.843	1351.5
424.066	1390.5
424.288	1385.5
424.511	1369.5
424.733	1331.5
424.956	1321.5
425.178	1348.5
425.401	1314.5
425.623	1312.5
425.846	1282.5
426.068	1303.5
426.291	1268.5
426.513	1246.5
426.735	1202.5
426.958	1227.5
427.18	1186.5
427.402	1183.5
427.625	1195.5
427.847	1189.5
428.069	1164.5
428.292	1154.5
428.514	1153.5
428.736	1143.5
428.958	1145.5
429.181	1132.5
429.403	1136.5
429.625	1124.5
429.847	1144.5
430.069	1126.5
430.292	1108.5
430.514	1108.5
430.736	1129.5
430.958	1094.5
431.18	1155.5
431.402	1165.5
431.624	1138.5
431.846	1196.5
432.068	1150.5
432.29	1205.5
432.512	1163.5
432.734	1162.5
432.956	1151.5
433.178	1144.5
433.4	1153.5
433.622	1150.5
433.844	1141.5
434.066	1151.5
434.287	1168.5
434.509	1224.5
434.731	1244.5
434.953	1300.5
435.175	1314.5
435.397	1318.5
435.618	1239.5
435.84	1196.5
436.062	1151.5
436.284	1158.5
436.505	1161.5
436.727	1174.5
436.949	1170.5
437.17	1155.5
437.392	1147.5
437.614	1102.5
437.835	1082.5
438.057	1115.5
438.278	1077.5
438.5	1101.5
438.721	1092.5
438.943	1081.5
439.165	1080.5
439.386	1114.5
439.608	1130.5
439.829	1107.5
440.05	1131.5
440.272	1157.5
440.493	1147.5
440.715	1194.5
440.936	1182.5
441.158	1208.5
441.379	1258.5
441.6	1304.5
441.822	1316.5
442.043	1292.5
442.264	1308.5
442.486	1253.5
442.707	1287.5
442.928	1273.5
443.149	1228.5
443.371	1249.5
443.592	1288.5
443.813	1288.5
444.034	1279.5
444.255	1335.5
444.476	1407.5
444.698	1485.5
444.919	1568.5
445.14	1602.5
445.361	1467.5
445.582	1378.5
445.803	1284.5
446.024	1226.5
446.245	1219.5
446.466	1162.5
446.687	1170.5
446.908	1174.5
447.129	1123.5
447.35	1108.5
447.571	1100.5
447.792	1073.5
448.013	1074.5
448.234	1104.5
448.455	1051.5
448.675	1055.5
448.896	1058.5
449.117	1028.5
449.338	1047.5
449.559	1036.5
449.779	1019.5
450	1009.5
450.221	1004.5
450.442	1047.5
450.662	1042.5
450.883	1050.5
451.104	1057.5
451.324	1088.5
451.545	1066.5
451.766	1076.5
451.986	1040.5
452.207	1067.5
452.428	1048.5
452.648	1030.5
452.869	1028.5
453.089	1023.5
453.31	1040.5
453.53	1007.5
453.751	1026.5
453.971	1027.5
454.192	1022.5
454.412	985.5
454.633	992.5
454.853	986.5
455.073	977.5
455.294	991.5
455.514	948.5
455.734	956.5
455.955	981.5
456.175	993.5
456.395	986.5
456.616	938.5
456.836	978.5
457.056	978.5
457.276	948.5
457.497	1010.5
457.717	983.5
457.937	983.5
458.157	996.5
458.377	1032.5
458.598	1048.5
458.818	1066.5
459.038	1108.5
459.258	1129.5
459.478	1186.5
459.698	1218.5
459.918	1228.5
460.138	1267.5
460.358	1308.5
460.578	1365.5
460.798	1379.5
461.018	1385.5
461.238	1384.5
461.458	1399.5
461.678	1360.5
461.898	1401.5
462.118	1420.5
462.338	1479.5
462.558	1511.5
462.777	1609.5
462.997	1732.5
463.217	1850.5
463.437	1835.5
463.657	1726.5
463.876	1651.5
464.096	1624.5
464.316	1625.5
464.536	1648.5
464.755	1539.5
464.975	1501.5
465.195	1449.5
465.414	1358.5
465.634	1257.5
465.854	1228.5
466.073	1218.5
466.293	1182.5
466.512	1159.5
466.732	1128.5
466.951	1107.5
467.171	1113.5
467.391	1108.5
467.61	1109.5
467.829	1088.5
468.049	1095.5
468.268	1081.5
468.488	1052.5
468.707	1065.5
468.927	1061.5
469.146	1033.5
469.365	1061.5
469.585	1072.5
469.804	1109.5
470.023	1127.5
470.243	1132.5
470.462	1148.5
470.681	1152.5
470.901	1150.5
471.12	1136.5
471.339	1114.5
471.558	1080.5
471.777	1079.5
471.997	1090.5
472.216	1038.5
472.435	1052.5
472.654	1037.5
472.873	1034.5
473.092	1013.5
473.311	1041.5
473.53	1001.5
473.749	1019.5
473.968	1021.5
474.187	1023.5
474.406	1023.5
474.625	1065.5
474.844	1024.5
475.063	1040.5
475.282	1050.5
475.501	1074.5
475.72	1084.5
475.939	1077.5
476.158	1109.5
476.377	1119.5
476.596	1082.5
476.814	1097.5
477.033	1109.5
477.252	1152.5
477.471	1145.5
477.69	1146.5
477.908	1191.5
478.127	1234.5
478.346	1247.5
478.564	1304.5
478.783	1275.5
479.002	1309.5
479.22	1311.5
479.439	1307.5
479.658	1307.5
479.876	1287.5
480.095	1337.5
480.313	1377.5
480.532	1367.5
480.751	1402.5
480.969	1350.5
481.188	1302.5
481.406	1272.5
481.624	1239.5
481.843	1230.5
482.061	1202.5
482.28	1189.5
482.498	1203.5
482.717	1186.5
482.935	1196.5
483.153	1158.5
483.372	1185.5
483.59	1188.5
483.808	1183.5
484.027	1212.5
484.245	1228.5
484.463	1214.5
484.681	1236.5
484.9	1235.5
485.118	1236.5
485.336	1243.5
485.554	1258.5
485.772	1244.5
485.99	1279.5
486.209	1267.5
486.427	1257.5
486.645	1273.5
486.863	1266.5
487.081	1244.5
487.299	1257.5
487.517	1255.5
487.735	1254.5
487.953	1278.5
488.171	1242.5
488.389	1234.5
488.607	1236.5
488.825	1237.5
489.043	1222.5
489.261	1283.5
489.479	1226.5
489.696	1235.5
489.914	1239.5
490.132	1252.5
490.35	1234.5
490.568	1232.5
490.786	1266.5
491.003	1234.5
491.221	1268.5
491.439	1275.5
491.657	1265.5
491.874	1250.5
492.092	1278.5
492.31	1280.5
492.527	1261.5
492.745	1299.5
492.963	1299.5
493.18	1307.5
493.398	1256.5
493.615	1269.5
493.833	1287.5
494.05	1311.5
494.268	1303.5
494.485	1374.5
494.703	1357.5
494.92	1329.5
495.138	1344.5
495.355	1356.5
495.573	1331.5
495.79	1371.5
496.008	1353.5
496.225	1362.5
496.442	1384.5
496.66	1395.5
496.877	1358.5
497.094	1406.5
497.312	1466.5
497.529	1458.5
497.746	1547.5
497.963	1637.5
498.181	1656.5
498.398	1713.5
498.615	1817.5
498.832	1947.5
499.049	2097.5
499.267	2294.5
499.484	2479.5
499.701	2814.5
499.918	3069.5
500.135	3541.5
500.352	3942.5
500.569	4203.5
500.786	4146.5
501.003	3860.5
501.22	3500.5
501.437	3071.5
501.654	2695.5
501.871	2495.5
502.088	2229.5
502.305	2073.5
502.522	1983.5
502.739	1895.5
502.956	1803.5
503.172	1739.5
503.389	1664.5
503.606	1613.5
503.823	1599.5
504.04	1552.5
504.256	1573.5
504.473	1619.5
504.69	1611.5
504.907	1627.5
505.123	1466.5
505.34	1393.5
505.557	1345.5
505.773	1320.5
505.99	1294.5
506.207	1272.5
506.423	1232.5
506.64	1232.5
506.856	1208.5
507.073	1231.5
507.289	1194.5
507.506	1162.5
507.722	1171.5
507.939	1184.5
508.155	1116.5
508.372	1147.5
508.588	1149.5
508.805	1128.5
509.021	1092.5
509.238	1131.5
509.454	1112.5
509.67	1087.5
509.887	1092.5
510.103	1071.5
510.319	1067.5
510.536	1120.5
510.752	1088.5
510.968	1043.5
511.184	1068.5
511.401	1070.5
511.617	1083.5
511.833	1098.5
512.049	1098.5
512.265	1058.5
512.481	1058.5
512.698	1050.5
512.914	1072.5
513.13	1079.5
513.346	1053.5
513.562	1091.5
513.778	1061.5
513.994	1076.5
514.21	1078.5
514.426	1078.5
514.642	1122.5
514.858	1106.5
515.074	1131.5
515.29	1116.5
515.506	1112.5
515.721	1149.5
515.937	1161.5
516.153	1159.5
516.369	1186.5
516.585	1251.5
516.801	1241.5
517.016	1320.5
517.232	1394.5
517.448	1434.5
517.664	1507.5
517.879	1573.5
518.095	1518.5
518.311	1484.5
518.527	1453.5
518.742	1402.5
518.958	1319.5
519.173	1252.5
519.389	1257.5
519.605	1204.5
519.82	1144.5
520.036	1158.5
520.251	1126.5
520.467	1098.5
520.682	1111.5
520.898	1097.5
521.113	1050.5
521.329	1060.5
521.544	1060.5
521.76	1062.5
521.975	1015.5
522.19	1067.5
522.406	1042.5
522.621	1006.5
522.836	1020.5
523.052	977.5
523.267	1019.5
523.482	1020.5
523.698	1025.5
523.913	982.5
524.128	990.5
524.343	1002.5
524.559	996.5
524.774	991.5
524.989	995.5
525.204	979.5
525.419	964.5
525.634	954.5
525.849	974.5
526.064	1011.5
526.28	1001.5
526.495	960.5
526.71	952.5
526.925	980.5
527.14	969.5
527.355	978.5
527.57	973.5
527.785	974.5
527.999	961.5
528.214	956.5
528.429	952.5
528.644	935.5
528.859	963.5
529.074	963.5
529.289	951.5
529.503	979.5
529.718	985.5
529.933	963.5
530.148	942.5
530.363	942.5
530.577	979.5
530.792	950.5
531.007	936.5
531.221	976.5
531.436	975.5
531.651	968.5
531.865	938.5
532.08	980.5
532.295	961.5
532.509	934.5
532.724	960.5
532.938	982.5
533.153	946.5
533.367	979.5
533.582	940.5
533.796	925.5
534.011	988.5
534.225	946.5
534.44	952.5
534.654	915.5
534.868	943.5
535.083	951.5
535.297	945.5
535.511	900.5
535.726	917.5
535.94	946.5
536.154	928.5
536.369	895.5
536.583	897.5
536.797	884.5
537.011	888.5
537.225	889.5
537.44	877.5
537.654	900.5
537.868	897.5
538.082	900.5
538.296	871.5
538.51	876.5
538.724	870.5
538.938	894.5
539.153	866.5
539.367	853.5
539.581	843.5
539.795	870.5
540.009	856.5
540.222	864.5
540.436	872.5
540.65	844.5
540.864	843.5
541.078	858.5
541.292	884.5
541.506	872.5
541.72	862.5
541.934	866.5
542.147	886.5
542.361	858.5
542.575	852.5
542.789	840.5
543.002	830.5
543.216	865.5
543.43	831.5
543.644	850.5
543.857	880.5
544.071	855.5
544.285	854.5
544.498	880.5
544.712	879.5
544.925	869.5
545.139	880.5
545.352	871.5
545.566	876.5
545.779	905.5
545.993	889.5
546.206	891.5
546.42	883.5
546.633	896.5
546.847	871.5
547.06	859.5
547.274	888.5
547.487	898.5
547.7	891.5
547.914	865.5
548.127	904.5
548.34	876.5
548.554	899.5
548.767	922.5
548.98	891.5
549.193	886.5
549.407	926.5
549.62	896.5
549.833	929.5
550.046	896.5
550.259	884.5
550.473	866.5
550.686	846.5
550.899	850.5
551.112	863.5
551.325	866.5
551.538	837.5
551.751	858.5
551.964	874.5
552.177	877.5
552.39	899.5
552.603	913.5
552.816	938.5
553.029	920.5
553.242	966.5
553.455	989.5
553.667	980.5
553.88	960.5
554.093	937.5
554.306	935.5
554.519	907.5
554.732	903.5
554.944	861.5
555.157	841.5
555.37	856.5
555.583	839.5
555.795	818.5
556.008	800.5
556.221	778.5
556.433	788.5
556.646	762.5
556.859	740.5
557.071	747.5
557.284	752.5
557.496	754.5
557.709	741.5
557.921	755.5
558.134	742.5
558.346	739.5
558.559	720.5
558.771	758.5
558.984	712.5
559.196	726.5
559.409	710.5
559.621	741.5
559.833	734.5
560.046	722.5
560.258	715.5
560.47	713.5
560.683	715.5
560.895	727.5
561.107	738.5
561.32	723.5
561.532	727.5
561.744	718.5
561.956	684.5
562.168	729.5
562.381	719.5
562.593	723.5
562.805	726.5
563.017	711.5
563.229	720.5
563.441	712.5
563.653	731.5
563.865	735.5
564.077	721.5
564.289	750.5
564.501	759.5
564.713	778.5
564.925	800.5
565.137	781.5
565.349	819.5
565.561	848.5
565.773	890.5
565.985	951.5
566.197	987.5
566.408	1028.5
566.62	1091.5
566.832	1199.5
567.044	1201.5
567.255	1243.5
567.467	1256.5
567.679	1346.5
567.891	1420.5
568.102	1427.5
568.314	1357.5
568.526	1238.5
568.737	1139.5
568.949	1027.5
569.161	946.5
569.372	878.5
569.584	844.5
569.795	806.5
570.007	775.5
570.218	793.5
570.43	757.5
570.641	747.5
570.853	773.5
571.064	774.5
571.276	764.5
571.487	723.5
571.698	715.5
571.91	675.5
572.121	690.5
572.333	646.5
572.544	652.5
572.755	629.5
572.966	631.5
573.178	620.5
573.389	613.5
573.6	613.5
573.811	602.5
574.023	606.5
574.234	594.5
574.445	591.5
574.656	589.5
574.867	583.5
575.078	587.5
575.289	596.5
575.501	596.5
575.712	587.5
575.923	592.5
576.134	564.5
576.345	560.5
576.556	555.5
576.767	570.5
576.978	585.5
577.188	574.5
577.399	570.5
577.61	550.5
577.821	538.5
578.032	549.5
578.243	550.5
578.454	542.5
578.665	542.5
578.875	534.5
579.086	544.5
579.297	536.5
579.508	532.5
579.718	521.5
579.929	509.5
580.14	533.5
580.35	507.5
580.561	502.5
580.772	509.5
580.982	510.5
581.193	520.5
581.403	502.5
581.614	523.5
581.825	497.5
582.035	505.5
582.246	498.5
582.456	494.5
582.667	478.5
582.877	493.5
583.087	486.5
583.298	494.5
583.508	487.5
583.719	487.5
583.929	507.5
584.139	499.5
584.35	491.5
584.56	473.5
584.77	474.5
584.981	481.5
585.191	483.5
585.401	467.5
585.611	488.5
585.821	490.5
586.032	503.5
586.242	488.5
586.452	475.5
586.662	478.5
586.872	465.5
587.082	470.5
587.292	483.5
587.502	461.5
587.713	475.5
587.923	475.5
588.133	479.5
588.343	470.5
588.553	499.5
588.762	475.5
588.972	477.5
589.182	503.5
589.392	514.5
589.602	478.5
589.812	494.5
590.022	469.5
590.232	459.5
590.441	478.5
590.651	478.5
590.861	458.5
591.071	468.5
591.281	507.5
591.49	545.5
591.7	505.5
591.91	504.5
592.119	515.5
592.329	518.5
592.539	571.5
592.748	563.5
592.958	578.5
593.167	604.5
593.377	590.5
593.587	631.5
593.796	602.5
594.006	636.5
594.215	606.5
594.424	623.5
594.634	590.5
594.843	574.5
595.053	561.5
595.262	550.5
595.472	516.5
595.681	496.5
595.89	491.5
596.1	488.5
596.309	484.5
596.518	473.5
596.727	445.5
596.937	449.5
597.146	417.5
597.355	450.5
597.564	458.5
597.774	431.5
597.983	427.5
598.192	417.5
598.401	430.5
598.61	436.5
598.819	426.5
599.028	427.5
599.237	405.5
599.446	414.5
599.655	406.5
599.864	416.5
600.073	390.5
600.282	400.5
600.491	396.5
600.7	407.5
600.909	403.5
601.118	381.5
601.327	388.5
601.536	379.5
601.745	383.5
601.953	389.5
602.162	397.5
602.371	380.5
602.58	382.5
602.789	401.5
602.997	376.5
603.206	373.5
603.415	374.5
603.623	361.5
603.832	378.5
604.041	390.5
604.249	381.5
604.458	376.5
604.666	364.5
604.875	360.5
605.084	374.5
605.292	358.5
605.501	376.5
605.709	372.5
605.918	362.5
606.126	361.5
606.334	361.5
606.543	379.5
606.751	366.5
606.96	355.5
607.168	358.5
607.376	382.5
607.585	356.5
607.793	353.5
608.001	350.5
608.21	360.5
608.418	354.5
608.626	348.5
608.834	366.5
609.043	345.5
609.251	347.5
609.459	347.5
609.667	356.5
609.875	343.5
610.083	346.5
610.291	333.5
610.499	340.5
610.707	345.5
610.916	352.5
611.124	353.5
611.332	339.5
611.54	359.5
611.748	346.5
611.955	359.5
612.163	332.5
612.371	339.5
612.579	351.5
612.787	355.5
612.995	340.5
613.203	340.5
613.411	341.5
613.618	348.5
613.826	338.5
614.034	342.5
614.242	333.5
614.449	351.5
614.657	357.5
614.865	328.5
615.072	342.5
615.28	332.5
615.488	327.5
615.695	356.5
615.903	336.5
616.111	321.5
616.318	367.5
616.526	339.5
616.733	336.5
616.941	323.5
617.148	322.5
617.356	318.5
617.563	344.5
617.771	361.5
617.978	327.5
618.185	343.5
618.393	336.5
618.6	345.5
618.807	331.5
619.015	335.5
619.222	325.5
619.429	307.5
619.637	309.5
619.844	323.5
620.051	317.5
620.258	314.5
620.466	317.5
620.673	307.5
620.88	318.5
621.087	312.5
621.294	308.5
621.501	329.5
621.708	326.5
621.915	302.5
622.122	299.5
622.329	319.5
622.536	302.5
622.743	329.5
622.95	315.5
623.157	297.5
623.364	306.5
623.571	312.5
623.778	318.5
623.985	288.5
624.192	296.5
624.399	308.5
624.606	320.5
624.812	278.5
625.019	290.5
625.226	295.5
625.433	302.5
625.639	285.5
625.846	280.5
626.053	280.5
626.259	273.5
626.466	296.5
626.673	292.5
626.879	275.5
627.086	260.5
627.293	296.5
627.499	292.5
627.706	275.5
627.912	278.5
628.119	286.5
628.325	280.5
628.532	291.5
628.738	276.5
628.945	270.5
629.151	269.5
629.357	283.5
629.564	278.5
629.77	272.5
629.976	266.5
630.183	282.5
630.389	266.5
630.595	249.5
630.802	255.5
631.008	279.5
631.214	241.5
631.42	262.5
631.627	270.5
631.833	259.5
632.039	277.5
632.245	235.5
632.451	246.5
632.657	240.5
632.863	254.5
633.069	257.5
633.275	252.5
633.481	260.5
633.688	236.5
633.893	235.5
634.099	247.5
634.305	243.5
634.511	246.5
634.717	232.5
634.923	254.5
635.129	256.5
635.335	241.5
635.541	261.5
635.747	256.5
635.952	232.5
636.158	243.5
636.364	250.5
636.57	254.5
636.775	234.5
636.981	227.5
637.187	242.5
637.392	240.5
637.598	234.5
637.804	243.5
638.009	254.5
638.215	239.5
638.421	243.5
638.626	234.5
638.832	225.5
639.037	225.5
639.243	228.5
639.448	225.5
639.654	233.5
639.859	204.5
640.065	234.5
640.27	219.5
640.475	218.5
640.681	221.5
640.886	222.5
641.091	220.5
641.297	225.5
641.502	233.5
641.707	222.5
641.913	216.5
642.118	222.5
642.323	212.5
642.528	219.5
642.733	213.5
642.939	214.5
643.144	208.5
643.349	225.5
643.554	200.5
643.759	224.5
643.964	217.5
644.169	196.5
644.374	213.5
644.579	210.5
644.784	191.5
644.989	219.5
645.194	204.5
645.399	211.5
645.604	215.5
645.809	206.5
646.014	211.5
646.219	205.5
646.423	219.5
646.628	202.5
646.833	186.5
647.038	210.5
647.243	214.5
647.447	210.5
647.652	215.5
647.857	220.5
648.062	232.5
648.266	236.5
648.471	222.5
648.676	215.5
648.88	219.5
649.085	219.5
649.289	213.5
649.494	217.5
649.698	199.5
649.903	196.5
650.107	208.5
650.312	206.5
650.516	187.5
650.721	190.5
650.925	182.5
651.13	209.5
651.334	192.5
651.539	202.5
651.743	184.5
651.947	190.5
652.152	185.5
652.356	186.5
652.56	174.5
652.764	180.5
652.969	180.5
653.173	186.5
653.377	176.5
653.581	170.5
653.785	168.5
653.99	174.5
654.194	158.5
654.398	158.5
654.602	162.5
654.806	148.5
655.01	161.5
655.214	166.5
655.418	152.5
655.622	158.5
655.826	150.5
656.03	158.5
656.234	157.5
656.438	148.5
656.642	147.5
656.846	150.5
657.049	150.5
657.253	155.5
657.457	139.5
657.661	132.5
657.865	116.5
658.068	125.5
658.272	139.5
658.476	123.5
658.68	122.5
658.883	118.5
659.087	120.5
659.291	99.5
659.494	106.5
659.698	116.5
659.901	104.5
660.105	115.5
660.309	111.5
660.512	95.5
660.716	97.5
660.919	93.5
661.123	94.5
661.326	81.5
661.53	95.5
661.733	96.5
661.936	83.5
662.14	90.5
662.343	81.5
662.546	103.5
662.75	95.5
662.953	79.5
663.156	87.5
663.36	80.5
663.563	89.5
663.766	81.5
663.969	85.5
664.173	84.5
664.376	85.5
664.579	80.5
664.782	85.5
664.985	87.5
665.188	81.5
665.391	74.5
665.594	76.5
665.797	94.5
666	81.5
666.203	88.5
666.406	76.5
666.609	84.5
666.812	91.5
667.015	86.5
667.218	82.5
667.421	80.5
667.624	96.5
667.827	82.5
668.03	65.5
668.232	84.5
668.435	87.5
668.638	75.5
668.841	94.5
669.043	76.5
669.246	80.5
669.449	85.5
669.651	88.5
669.854	90.5
670.057	80.5
670.259	87.5
670.462	80.5
670.665	69.5
670.867	88.5
671.07	75.5
671.272	84.5
671.475	106.5
671.677	76.5
671.88	76.5
672.082	83.5
672.284	72.5
672.487	78.5
672.689	83.5
672.892	78.5
