Data from NiCl2@0.0625M.TitratingCurve.Agarose3%dH2O.NegLispCup.LampEnergy10.LIBS07252019_HRD10591_18-33-30-576.txt Node
Date: Thu Jul 25 18:33:30 EDT 2019
User: cochatt
Spectrometer: HR+D1059
Trigger mode: 1
Integration Time (sec): 1.000000E-1
Scans to average: 1
Electric dark correction enabled: true
Nonlinearity correction enabled: false
Boxcar width: 0
XAxis mode: Wavelengths
Number of Pixels in Spectrum: 2048
>>>>>Begin Spectral Data<<<<<
223.165	-8.38
223.4	-8.38
223.635	-8.38
223.869	-16.38
224.104	-23.38
224.338	-2.38
224.573	-6.38
224.808	0.62
225.042	-0.38
225.277	-8.38
225.511	-6.38
225.746	-6.38
225.98	1.62
226.215	10.62
226.449	6.62
226.683	17.62
226.918	13.62
227.152	27.62
227.387	35.62
227.621	33.62
227.856	38.62
228.09	56.62
228.324	63.62
228.559	51.62
228.793	82.62
229.027	138.62
229.262	172.62
229.496	151.62
229.73	172.62
229.964	179.62
230.199	189.62
230.433	177.62
230.667	185.62
230.901	159.62
231.136	178.62
231.37	178.62
231.604	192.62
231.838	210.62
232.072	196.62
232.306	188.62
232.541	200.62
232.775	197.62
233.009	209.62
233.243	194.62
233.477	203.62
233.711	205.62
233.945	197.62
234.179	219.62
234.413	203.62
234.647	219.62
234.881	217.62
235.115	212.62
235.349	221.62
235.583	224.62
235.817	226.62
236.051	214.62
236.285	242.62
236.519	232.62
236.753	224.62
236.987	218.62
237.221	209.62
237.455	236.62
237.689	228.62
237.922	246.62
238.156	254.62
238.39	259.62
238.624	242.62
238.858	256.62
239.091	251.62
239.325	269.62
239.559	256.62
239.793	289.62
240.027	256.62
240.26	275.62
240.494	290.62
240.728	281.62
240.961	288.62
241.195	293.62
241.429	289.62
241.662	285.62
241.896	296.62
242.13	321.62
242.363	283.62
242.597	311.62
242.83	318.62
243.064	295.62
243.298	312.62
243.531	311.62
243.765	326.62
243.998	346.62
244.232	333.62
244.465	330.62
244.699	334.62
244.932	333.62
245.166	352.62
245.399	339.62
245.633	326.62
245.866	343.62
246.099	349.62
246.333	350.62
246.566	348.62
246.8	354.62
247.033	353.62
247.266	352.62
247.5	356.62
247.733	363.62
247.966	364.62
248.2	374.62
248.433	393.62
248.666	368.62
248.899	361.62
249.133	380.62
249.366	391.62
249.599	420.62
249.832	405.62
250.066	384.62
250.299	381.62
250.532	411.62
250.765	417.62
250.998	425.62
251.231	408.62
251.465	414.62
251.698	429.62
251.931	420.62
252.164	442.62
252.397	419.62
252.63	437.62
252.863	438.62
253.096	440.62
253.329	445.62
253.562	432.62
253.795	456.62
254.028	459.62
254.261	439.62
254.494	456.62
254.727	464.62
254.96	437.62
255.193	461.62
255.426	466.62
255.659	475.62
255.892	460.62
256.124	492.62
256.357	483.62
256.59	474.62
256.823	484.62
257.056	469.62
257.289	501.62
257.521	495.62
257.754	513.62
257.987	518.62
258.22	519.62
258.452	519.62
258.685	507.62
258.918	524.62
259.151	511.62
259.383	501.62
259.616	534.62
259.849	506.62
260.081	516.62
260.314	529.62
260.547	531.62
260.779	522.62
261.012	536.62
261.244	536.62
261.477	529.62
261.71	539.62
261.942	540.62
262.175	526.62
262.407	545.62
262.64	553.62
262.872	556.62
263.105	552.62
263.337	569.62
263.57	545.62
263.802	585.62
264.035	571.62
264.267	581.62
264.499	575.62
264.732	596.62
264.964	565.62
265.197	578.62
265.429	579.62
265.661	575.62
265.894	591.62
266.126	574.62
266.358	598.62
266.591	601.62
266.823	627.62
267.055	612.62
267.287	615.62
267.52	608.62
267.752	612.62
267.984	619.62
268.216	619.62
268.448	629.62
268.681	614.62
268.913	629.62
269.145	604.62
269.377	623.62
269.609	639.62
269.841	647.62
270.073	641.62
270.306	647.62
270.538	654.62
270.77	640.62
271.002	670.62
271.234	649.62
271.466	682.62
271.698	647.62
271.93	666.62
272.162	683.62
272.394	674.62
272.626	677.62
272.858	651.62
273.09	653.62
273.322	672.62
273.553	678.62
273.785	705.62
274.017	692.62
274.249	700.62
274.481	707.62
274.713	689.62
274.945	729.62
275.176	699.62
275.408	729.62
275.64	715.62
275.872	705.62
276.104	723.62
276.335	751.62
276.567	746.62
276.799	730.62
277.031	727.62
277.262	711.62
277.494	730.62
277.726	727.62
277.957	739.62
278.189	754.62
278.421	764.62
278.652	746.62
278.884	775.62
279.115	767.62
279.347	774.62
279.579	774.62
279.81	755.62
280.042	730.62
280.273	803.62
280.505	776.62
280.736	773.62
280.968	789.62
281.199	789.62
281.431	767.62
281.662	768.62
281.894	794.62
282.125	799.62
282.356	804.62
282.588	799.62
282.819	803.62
283.051	831.62
283.282	797.62
283.513	813.62
283.745	817.62
283.976	812.62
284.207	816.62
284.439	855.62
284.67	839.62
284.901	839.62
285.132	858.62
285.364	833.62
285.595	855.62
285.826	845.62
286.057	836.62
286.288	847.62
286.52	855.62
286.751	865.62
286.982	869.62
287.213	845.62
287.444	856.62
287.675	852.62
287.906	884.62
288.138	889.62
288.369	868.62
288.6	864.62
288.831	893.62
289.062	874.62
289.293	881.62
289.524	889.62
289.755	879.62
289.986	886.62
290.217	887.62
290.448	879.62
290.679	912.62
290.91	897.62
291.141	887.62
291.371	874.62
291.602	903.62
291.833	915.62
292.064	874.62
292.295	899.62
292.526	909.62
292.757	898.62
292.987	919.62
293.218	921.62
293.449	906.62
293.68	921.62
293.91	919.62
294.141	909.62
294.372	907.62
294.603	920.62
294.833	917.62
295.064	913.62
295.295	941.62
295.525	911.62
295.756	915.62
295.987	905.62
296.217	960.62
296.448	938.62
296.679	927.62
296.909	932.62
297.14	936.62
297.37	937.62
297.601	955.62
297.831	970.62
298.062	971.62
298.292	954.62
298.523	984.62
298.753	994.62
298.984	970.62
299.214	1010.62
299.445	964.62
299.675	976.62
299.905	969.62
300.136	973.62
300.366	952.62
300.597	971.62
300.827	1014.62
301.057	1013.62
301.288	1025.62
301.518	1037.62
301.748	1021.62
301.979	1029.62
302.209	1047.62
302.439	1015.62
302.669	1042.62
302.9	1054.62
303.13	1031.62
303.36	1038.62
303.59	1036.62
303.82	1003.62
304.051	1045.62
304.281	1051.62
304.511	1016.62
304.741	1031.62
304.971	1033.62
305.201	1016.62
305.431	1028.62
305.661	1020.62
305.891	1031.62
306.121	994.62
306.352	1010.62
306.582	983.62
306.812	1018.62
307.042	1040.62
307.272	1017.62
307.502	996.62
307.731	1025.62
307.961	1033.62
308.191	989.62
308.421	1022.62
308.651	1055.62
308.881	1024.62
309.111	1033.62
309.341	1010.62
309.571	1009.62
309.8	1049.62
310.03	1031.62
310.26	1008.62
310.49	1059.62
310.72	1020.62
310.949	1031.62
311.179	1034.62
311.409	1075.62
311.639	1055.62
311.868	1043.62
312.098	1116.62
312.328	1077.62
312.557	1081.62
312.787	1087.62
313.017	1074.62
313.246	1087.62
313.476	1088.62
313.706	1079.62
313.935	1074.62
314.165	1094.62
314.394	1117.62
314.624	1114.62
314.853	1109.62
315.083	1124.62
315.312	1091.62
315.542	1110.62
315.771	1101.62
316.001	1085.62
316.23	1109.62
316.46	1093.62
316.689	1097.62
316.919	1097.62
317.148	1135.62
317.377	1084.62
317.607	1089.62
317.836	1073.62
318.065	1082.62
318.295	1090.62
318.524	1101.62
318.753	1085.62
318.983	1090.62
319.212	1077.62
319.441	1110.62
319.67	1079.62
319.9	1092.62
320.129	1067.62
320.358	1102.62
320.587	1087.62
320.816	1083.62
321.046	1117.62
321.275	1113.62
321.504	1109.62
321.733	1113.62
321.962	1127.62
322.191	1103.62
322.42	1116.62
322.649	1128.62
322.878	1126.62
323.108	1120.62
323.337	1142.62
323.566	1107.62
323.795	1103.62
324.024	1138.62
324.253	1153.62
324.482	1136.62
324.71	1144.62
324.939	1141.62
325.168	1165.62
325.397	1167.62
325.626	1187.62
325.855	1186.62
326.084	1187.62
326.313	1219.62
326.542	1188.62
326.77	1199.62
326.999	1185.62
327.228	1174.62
327.457	1219.62
327.686	1183.62
327.914	1198.62
328.143	1188.62
328.372	1190.62
328.6	1195.62
328.829	1225.62
329.058	1197.62
329.287	1235.62
329.515	1207.62
329.744	1242.62
329.972	1218.62
330.201	1219.62
330.43	1230.62
330.658	1225.62
330.887	1220.62
331.115	1241.62
331.344	1267.62
331.572	1270.62
331.801	1292.62
332.03	1300.62
332.258	1328.62
332.486	1368.62
332.715	1377.62
332.943	1416.62
333.172	1457.62
333.4	1505.62
333.629	1513.62
333.857	1573.62
334.085	1545.62
334.314	1525.62
334.542	1504.62
334.771	1521.62
334.999	1495.62
335.227	1499.62
335.455	1467.62
335.684	1477.62
335.912	1417.62
336.14	1426.62
336.369	1438.62
336.597	1445.62
336.825	1395.62
337.053	1405.62
337.281	1443.62
337.51	1393.62
337.738	1369.62
337.966	1344.62
338.194	1330.62
338.422	1349.62
338.65	1306.62
338.878	1276.62
339.106	1291.62
339.334	1309.62
339.562	1331.62
339.79	1260.62
340.018	1254.62
340.246	1269.62
340.474	1285.62
340.702	1251.62
340.93	1271.62
341.158	1225.62
341.386	1259.62
341.614	1243.62
341.842	1258.62
342.07	1235.62
342.298	1245.62
342.526	1235.62
342.754	1258.62
342.981	1268.62
343.209	1285.62
343.437	1314.62
343.665	1364.62
343.893	1437.62
344.12	1479.62
344.348	1464.62
344.576	1395.62
344.804	1363.62
345.031	1325.62
345.259	1304.62
345.487	1290.62
345.714	1248.62
345.942	1254.62
346.17	1237.62
346.397	1219.62
346.625	1233.62
346.853	1212.62
347.08	1217.62
347.308	1216.62
347.535	1256.62
347.763	1218.62
347.99	1223.62
348.218	1201.62
348.445	1220.62
348.673	1200.62
348.9	1189.62
349.128	1172.62
349.355	1201.62
349.583	1191.62
349.81	1217.62
350.037	1193.62
350.265	1175.62
350.492	1147.62
350.72	1141.62
350.947	1161.62
351.174	1180.62
351.402	1172.62
351.629	1148.62
351.856	1166.62
352.083	1156.62
352.311	1175.62
352.538	1139.62
352.765	1182.62
352.992	1173.62
353.22	1163.62
353.447	1172.62
353.674	1135.62
353.901	1141.62
354.128	1159.62
354.355	1189.62
354.583	1171.62
354.81	1173.62
355.037	1170.62
355.264	1164.62
355.491	1167.62
355.718	1159.62
355.945	1165.62
356.172	1184.62
356.399	1194.62
356.626	1212.62
356.853	1190.62
357.08	1165.62
357.307	1154.62
357.534	1199.62
357.761	1175.62
357.988	1148.62
358.215	1177.62
358.441	1157.62
358.668	1174.62
358.895	1185.62
359.122	1149.62
359.349	1177.62
359.576	1179.62
359.802	1171.62
360.029	1151.62
360.256	1189.62
360.483	1174.62
360.709	1175.62
360.936	1177.62
361.163	1184.62
361.39	1181.62
361.616	1182.62
361.843	1169.62
362.07	1174.62
362.296	1210.62
362.523	1164.62
362.749	1184.62
362.976	1189.62
363.203	1177.62
363.429	1158.62
363.656	1165.62
363.882	1179.62
364.109	1192.62
364.335	1166.62
364.562	1177.62
364.788	1167.62
365.015	1164.62
365.241	1151.62
365.468	1156.62
365.694	1127.62
365.92	1157.62
366.147	1164.62
366.373	1156.62
366.599	1181.62
366.826	1183.62
367.052	1137.62
367.278	1157.62
367.505	1188.62
367.731	1164.62
367.957	1168.62
368.184	1193.62
368.41	1211.62
368.636	1180.62
368.862	1195.62
369.089	1203.62
369.315	1192.62
369.541	1214.62
369.767	1228.62
369.993	1207.62
370.219	1196.62
370.445	1209.62
370.672	1239.62
370.898	1253.62
371.124	1236.62
371.35	1243.62
371.576	1257.62
371.802	1242.62
372.028	1276.62
372.254	1251.62
372.48	1266.62
372.706	1297.62
372.932	1306.62
373.158	1318.62
373.384	1314.62
373.61	1290.62
373.835	1281.62
374.061	1274.62
374.287	1277.62
374.513	1339.62
374.739	1338.62
374.965	1370.62
375.191	1376.62
375.416	1384.62
375.642	1313.62
375.868	1332.62
376.094	1312.62
376.319	1301.62
376.545	1295.62
376.771	1255.62
376.997	1248.62
377.222	1297.62
377.448	1266.62
377.674	1273.62
377.899	1248.62
378.125	1244.62
378.35	1232.62
378.576	1239.62
378.802	1245.62
379.027	1255.62
379.253	1255.62
379.478	1244.62
379.704	1233.62
379.929	1289.62
380.155	1249.62
380.38	1261.62
380.606	1273.62
380.831	1268.62
381.057	1279.62
381.282	1248.62
381.507	1306.62
381.733	1270.62
381.958	1268.62
382.184	1295.62
382.409	1291.62
382.634	1322.62
382.86	1356.62
383.085	1338.62
383.31	1348.62
383.535	1378.62
383.761	1375.62
383.986	1408.62
384.211	1413.62
384.436	1401.62
384.662	1442.62
384.887	1451.62
385.112	1464.62
385.337	1461.62
385.562	1498.62
385.787	1519.62
386.013	1518.62
386.238	1517.62
386.463	1505.62
386.688	1558.62
386.913	1504.62
387.138	1485.62
387.363	1506.62
387.588	1537.62
387.813	1518.62
388.038	1505.62
388.263	1512.62
388.488	1529.62
388.713	1503.62
388.938	1500.62
389.163	1491.62
389.387	1480.62
389.612	1510.62
389.837	1504.62
390.062	1452.62
390.287	1509.62
390.512	1483.62
390.736	1503.62
390.961	1522.62
391.186	1545.62
391.411	1596.62
391.636	1654.62
391.86	1647.62
392.085	1641.62
392.31	1673.62
392.534	1642.62
392.759	1628.62
392.984	1628.62
393.208	1602.62
393.433	1603.62
393.658	1626.62
393.882	1573.62
394.107	1587.62
394.331	1601.62
394.556	1603.62
394.78	1611.62
395.005	1639.62
395.229	1622.62
395.454	1671.62
395.678	1652.62
395.903	1671.62
396.127	1691.62
396.352	1678.62
396.576	1618.62
396.801	1620.62
397.025	1647.62
397.249	1669.62
397.474	1687.62
397.698	1663.62
397.922	1731.62
398.147	1702.62
398.371	1732.62
398.595	1810.62
398.82	1846.62
399.044	1949.62
399.268	2134.62
399.492	2360.62
399.717	2548.62
399.941	2615.62
400.165	2446.62
400.389	2242.62
400.613	2095.62
400.837	2013.62
401.062	1961.62
401.286	1933.62
401.51	1853.62
401.734	1893.62
401.958	1885.62
402.182	1884.62
402.406	1891.62
402.63	1906.62
402.854	1943.62
403.078	1979.62
403.302	1962.62
403.526	2009.62
403.75	2049.62
403.974	2065.62
404.198	2029.62
404.422	2056.62
404.645	2068.62
404.869	2036.62
405.093	2021.62
405.317	2003.62
405.541	2041.62
405.765	2033.62
405.988	2004.62
406.212	2027.62
406.436	2035.62
406.66	2066.62
406.883	2133.62
407.107	2182.62
407.331	2313.62
407.555	2399.62
407.778	2330.62
408.002	2309.62
408.226	2308.62
408.449	2224.62
408.673	2124.62
408.896	2107.62
409.12	2076.62
409.344	2093.62
409.567	2072.62
409.791	2085.62
410.014	2031.62
410.238	2023.62
410.461	2080.62
410.685	2034.62
410.908	2052.62
411.132	1964.62
411.355	1925.62
411.578	1990.62
411.802	1945.62
412.025	1941.62
412.249	1971.62
412.472	1939.62
412.695	1879.62
412.919	1900.62
413.142	1929.62
413.365	1833.62
413.589	1887.62
413.812	1890.62
414.035	1850.62
414.258	1865.62
414.482	1871.62
414.705	1920.62
414.928	1884.62
415.151	1875.62
415.374	1887.62
415.597	1846.62
415.821	1820.62
416.044	1813.62
416.267	1808.62
416.49	1804.62
416.713	1792.62
416.936	1778.62
417.159	1744.62
417.382	1799.62
417.605	1806.62
417.828	1808.62
418.051	1839.62
418.274	1779.62
418.497	1790.62
418.72	1827.62
418.943	1841.62
419.166	1943.62
419.389	2081.62
419.611	2020.62
419.834	1943.62
420.057	1870.62
420.28	1860.62
420.503	1777.62
420.726	1783.62
420.948	1802.62
421.171	1764.62
421.394	1762.62
421.617	1762.62
421.839	1803.62
422.062	1813.62
422.285	1776.62
422.507	1827.62
422.73	1829.62
422.953	1839.62
423.175	1848.62
423.398	1818.62
423.621	1846.62
423.843	1854.62
424.066	1885.62
424.288	1892.62
424.511	1839.62
424.733	1839.62
424.956	1810.62
425.178	1859.62
425.401	1815.62
425.623	1819.62
425.846	1805.62
426.068	1798.62
426.291	1763.62
426.513	1736.62
426.735	1708.62
426.958	1694.62
427.18	1685.62
427.402	1676.62
427.625	1708.62
427.847	1664.62
428.069	1658.62
428.292	1685.62
428.514	1651.62
428.736	1639.62
428.958	1661.62
429.181	1600.62
429.403	1588.62
429.625	1631.62
429.847	1627.62
430.069	1595.62
430.292	1640.62
430.514	1591.62
430.736	1635.62
430.958	1645.62
431.18	1618.62
431.402	1635.62
431.624	1679.62
431.846	1667.62
432.068	1663.62
432.29	1697.62
432.512	1667.62
432.734	1642.62
432.956	1628.62
433.178	1689.62
433.4	1673.62
433.622	1679.62
433.844	1707.62
434.066	1705.62
434.287	1725.62
434.509	1717.62
434.731	1802.62
434.953	1795.62
435.175	1863.62
435.397	1816.62
435.618	1752.62
435.84	1741.62
436.062	1695.62
436.284	1657.62
436.505	1670.62
436.727	1627.62
436.949	1643.62
437.17	1660.62
437.392	1624.62
437.614	1644.62
437.835	1575.62
438.057	1579.62
438.278	1591.62
438.5	1554.62
438.721	1573.62
438.943	1575.62
439.165	1578.62
439.386	1568.62
439.608	1615.62
439.829	1634.62
440.05	1621.62
440.272	1611.62
440.493	1596.62
440.715	1603.62
440.936	1677.62
441.158	1659.62
441.379	1698.62
441.6	1781.62
441.822	1790.62
442.043	1770.62
442.264	1747.62
442.486	1727.62
442.707	1761.62
442.928	1732.62
443.149	1789.62
443.371	1769.62
443.592	1772.62
443.813	1796.62
444.034	1810.62
444.255	1880.62
444.476	1933.62
444.698	1970.62
444.919	1991.62
445.14	2126.62
445.361	1953.62
445.582	1835.62
445.803	1751.62
446.024	1725.62
446.245	1693.62
446.466	1658.62
446.687	1622.62
446.908	1597.62
447.129	1550.62
447.35	1536.62
447.571	1572.62
447.792	1499.62
448.013	1535.62
448.234	1489.62
448.455	1513.62
448.675	1487.62
448.896	1471.62
449.117	1434.62
449.338	1466.62
449.559	1458.62
449.779	1428.62
450	1471.62
450.221	1439.62
450.442	1458.62
450.662	1451.62
450.883	1477.62
451.104	1496.62
451.324	1461.62
451.545	1441.62
451.766	1466.62
451.986	1463.62
452.207	1444.62
452.428	1469.62
452.648	1441.62
452.869	1410.62
453.089	1405.62
453.31	1427.62
453.53	1380.62
453.751	1394.62
453.971	1397.62
454.192	1446.62
454.412	1381.62
454.633	1372.62
454.853	1385.62
455.073	1385.62
455.294	1360.62
455.514	1368.62
455.734	1385.62
455.955	1360.62
456.175	1376.62
456.395	1365.62
456.616	1348.62
456.836	1354.62
457.056	1377.62
457.276	1329.62
457.497	1388.62
457.717	1373.62
457.937	1416.62
458.157	1421.62
458.377	1397.62
458.598	1440.62
458.818	1485.62
459.038	1509.62
459.258	1571.62
459.478	1602.62
459.698	1671.62
459.918	1705.62
460.138	1696.62
460.358	1805.62
460.578	1804.62
460.798	1830.62
461.018	1839.62
461.238	1832.62
461.458	1801.62
461.678	1852.62
461.898	1899.62
462.118	1886.62
462.338	1944.62
462.558	2023.62
462.777	2017.62
462.997	2164.62
463.217	2287.62
463.437	2327.62
463.657	2262.62
463.876	2112.62
464.096	2144.62
464.316	2143.62
464.536	2087.62
464.755	2069.62
464.975	2020.62
465.195	1927.62
465.414	1826.62
465.634	1699.62
465.854	1700.62
466.073	1669.62
466.293	1637.62
466.512	1572.62
466.732	1600.62
466.951	1559.62
467.171	1508.62
467.391	1549.62
467.61	1523.62
467.829	1528.62
468.049	1497.62
468.268	1499.62
468.488	1474.62
468.707	1455.62
468.927	1498.62
469.146	1489.62
469.365	1507.62
469.585	1508.62
469.804	1553.62
470.023	1557.62
470.243	1513.62
470.462	1537.62
470.681	1580.62
470.901	1571.62
471.12	1572.62
471.339	1554.62
471.558	1490.62
471.777	1527.62
471.997	1493.62
472.216	1492.62
472.435	1488.62
472.654	1500.62
472.873	1469.62
473.092	1436.62
473.311	1511.62
473.53	1461.62
473.749	1436.62
473.968	1484.62
474.187	1465.62
474.406	1460.62
474.625	1465.62
474.844	1494.62
475.063	1512.62
475.282	1471.62
475.501	1519.62
475.72	1481.62
475.939	1506.62
476.158	1495.62
476.377	1525.62
476.596	1550.62
476.814	1570.62
477.033	1563.62
477.252	1612.62
477.471	1597.62
477.69	1673.62
477.908	1705.62
478.127	1709.62
478.346	1714.62
478.564	1781.62
478.783	1805.62
479.002	1855.62
479.22	1841.62
479.439	1847.62
479.658	1831.62
479.876	1841.62
480.095	1857.62
480.313	1921.62
480.532	1971.62
480.751	1928.62
480.969	1917.62
481.188	1884.62
481.406	1858.62
481.624	1823.62
481.843	1794.62
482.061	1831.62
482.28	1798.62
482.498	1801.62
482.717	1748.62
482.935	1809.62
483.153	1783.62
483.372	1785.62
483.59	1821.62
483.808	1855.62
484.027	1833.62
484.245	1852.62
484.463	1875.62
484.681	1912.62
484.9	1951.62
485.118	1917.62
485.336	1951.62
485.554	1973.62
485.772	1962.62
485.99	1993.62
486.209	1993.62
486.427	1975.62
486.645	1942.62
486.863	2015.62
487.081	1920.62
487.299	1943.62
487.517	1966.62
487.735	1966.62
487.953	1891.62
488.171	1895.62
488.389	1943.62
488.607	1903.62
488.825	1873.62
489.043	1843.62
489.261	1840.62
489.479	1874.62
489.696	1854.62
489.914	1868.62
490.132	1836.62
490.35	1845.62
490.568	1859.62
490.786	1846.62
491.003	1860.62
491.221	1876.62
491.439	1874.62
491.657	1854.62
491.874	1876.62
492.092	1851.62
492.31	1866.62
492.527	1830.62
492.745	1875.62
492.963	1891.62
493.18	1844.62
493.398	1882.62
493.615	1883.62
493.833	1875.62
494.05	1869.62
494.268	1883.62
494.485	1883.62
494.703	1897.62
494.92	1916.62
495.138	1869.62
495.355	1877.62
495.573	1885.62
495.79	1933.62
496.008	1937.62
496.225	1968.62
496.442	1946.62
496.66	1987.62
496.877	1998.62
497.094	2032.62
497.312	2077.62
497.529	2108.62
497.746	2148.62
497.963	2195.62
498.181	2255.62
498.398	2394.62
498.615	2503.62
498.832	2622.62
499.049	2809.62
499.267	2980.62
499.484	3221.62
499.701	3495.62
499.918	3759.62
500.135	4194.62
500.352	4518.62
500.569	4693.62
500.786	4719.62
501.003	4465.62
501.22	4117.62
501.437	3753.62
501.654	3365.62
501.871	3127.62
502.088	2938.62
502.305	2765.62
502.522	2607.62
502.739	2551.62
502.956	2425.62
503.172	2312.62
503.389	2195.62
503.606	2095.62
503.823	2144.62
504.04	2132.62
504.256	2140.62
504.473	2145.62
504.69	2139.62
504.907	2087.62
505.123	2021.62
505.34	1922.62
505.557	1853.62
505.773	1791.62
505.99	1755.62
506.207	1729.62
506.423	1734.62
506.64	1673.62
506.856	1687.62
507.073	1645.62
507.289	1632.62
507.506	1588.62
507.722	1632.62
507.939	1573.62
508.155	1624.62
508.372	1591.62
508.588	1584.62
508.805	1575.62
509.021	1525.62
509.238	1523.62
509.454	1539.62
509.67	1509.62
509.887	1479.62
510.103	1502.62
510.319	1463.62
510.536	1469.62
510.752	1421.62
510.968	1499.62
511.184	1475.62
511.401	1477.62
511.617	1455.62
511.833	1467.62
512.049	1444.62
512.265	1485.62
512.481	1455.62
512.698	1467.62
512.914	1442.62
513.13	1471.62
513.346	1458.62
513.562	1470.62
513.778	1461.62
513.994	1447.62
514.21	1459.62
514.426	1486.62
514.642	1484.62
514.858	1534.62
515.074	1513.62
515.29	1515.62
515.506	1522.62
515.721	1562.62
515.937	1539.62
516.153	1572.62
516.369	1633.62
516.585	1669.62
516.801	1692.62
517.016	1738.62
517.232	1813.62
517.448	1865.62
517.664	1910.62
517.879	1914.62
518.095	1897.62
518.311	1923.62
518.527	1819.62
518.742	1795.62
518.958	1742.62
519.173	1676.62
519.389	1657.62
519.605	1605.62
519.82	1542.62
520.036	1527.62
520.251	1494.62
520.467	1499.62
520.682	1488.62
520.898	1475.62
521.113	1455.62
521.329	1411.62
521.544	1426.62
521.76	1421.62
521.975	1407.62
522.19	1404.62
522.406	1400.62
522.621	1370.62
522.836	1353.62
523.052	1351.62
523.267	1360.62
523.482	1368.62
523.698	1339.62
523.913	1325.62
524.128	1352.62
524.343	1357.62
524.559	1334.62
524.774	1333.62
524.989	1316.62
525.204	1340.62
525.419	1309.62
525.634	1307.62
525.849	1297.62
526.064	1329.62
526.28	1287.62
526.495	1289.62
526.71	1266.62
526.925	1315.62
527.14	1305.62
527.355	1284.62
527.57	1265.62
527.785	1315.62
527.999	1283.62
528.214	1312.62
528.429	1308.62
528.644	1314.62
528.859	1296.62
529.074	1309.62
529.289	1292.62
529.503	1304.62
529.718	1321.62
529.933	1284.62
530.148	1259.62
530.363	1292.62
530.577	1244.62
530.792	1290.62
531.007	1285.62
531.221	1303.62
531.436	1311.62
531.651	1274.62
531.865	1269.62
532.08	1294.62
532.295	1293.62
532.509	1296.62
532.724	1299.62
532.938	1265.62
533.153	1312.62
533.367	1277.62
533.582	1253.62
533.796	1256.62
534.011	1272.62
534.225	1253.62
534.44	1239.62
534.654	1239.62
534.868	1248.62
535.083	1229.62
535.297	1248.62
535.511	1201.62
535.726	1237.62
535.94	1212.62
536.154	1217.62
536.369	1201.62
536.583	1187.62
536.797	1234.62
537.011	1190.62
537.225	1221.62
537.44	1193.62
537.654	1200.62
537.868	1179.62
538.082	1173.62
538.296	1177.62
538.51	1168.62
538.724	1156.62
538.938	1157.62
539.153	1132.62
539.367	1159.62
539.581	1135.62
539.795	1104.62
540.009	1130.62
540.222	1158.62
540.436	1151.62
540.65	1159.62
540.864	1130.62
541.078	1111.62
541.292	1142.62
541.506	1144.62
541.72	1107.62
541.934	1115.62
542.147	1139.62
542.361	1132.62
542.575	1105.62
542.789	1107.62
543.002	1125.62
543.216	1116.62
543.43	1113.62
543.644	1085.62
543.857	1103.62
544.071	1137.62
544.285	1104.62
544.498	1149.62
544.712	1130.62
544.925	1155.62
545.139	1131.62
545.352	1097.62
545.566	1180.62
545.779	1157.62
545.993	1144.62
546.206	1160.62
546.42	1120.62
546.633	1157.62
546.847	1157.62
547.06	1148.62
547.274	1149.62
547.487	1161.62
547.7	1165.62
547.914	1147.62
548.127	1159.62
548.34	1147.62
548.554	1178.62
548.767	1161.62
548.98	1145.62
549.193	1133.62
549.407	1153.62
549.62	1147.62
549.833	1186.62
550.046	1179.62
550.259	1180.62
550.473	1133.62
550.686	1129.62
550.899	1137.62
551.112	1126.62
551.325	1132.62
551.538	1171.62
551.751	1123.62
551.964	1112.62
552.177	1143.62
552.39	1143.62
552.603	1186.62
552.816	1184.62
553.029	1214.62
553.242	1232.62
553.455	1210.62
553.667	1222.62
553.88	1236.62
554.093	1207.62
554.306	1139.62
554.519	1155.62
554.732	1159.62
554.944	1120.62
555.157	1074.62
555.37	1083.62
555.583	1052.62
555.795	1075.62
556.008	1032.62
556.221	1016.62
556.433	1025.62
556.646	1021.62
556.859	1014.62
557.071	988.62
557.284	979.62
557.496	988.62
557.709	986.62
557.921	990.62
558.134	995.62
558.346	988.62
558.559	959.62
558.771	991.62
558.984	948.62
559.196	964.62
559.409	988.62
559.621	955.62
559.833	972.62
560.046	935.62
560.258	936.62
560.47	937.62
560.683	939.62
560.895	914.62
561.107	919.62
561.32	919.62
561.532	934.62
561.744	939.62
561.956	954.62
562.168	979.62
562.381	953.62
562.593	938.62
562.805	918.62
563.017	960.62
563.229	951.62
563.441	933.62
563.653	972.62
563.865	987.62
564.077	993.62
564.289	955.62
564.501	987.62
564.713	994.62
564.925	1026.62
565.137	1047.62
565.349	1094.62
565.561	1092.62
565.773	1147.62
565.985	1183.62
566.197	1201.62
566.408	1285.62
566.62	1383.62
566.832	1451.62
567.044	1497.62
567.255	1481.62
567.467	1524.62
567.679	1598.62
567.891	1643.62
568.102	1681.62
568.314	1567.62
568.526	1455.62
568.737	1343.62
568.949	1315.62
569.161	1201.62
569.372	1121.62
569.584	1069.62
569.795	1056.62
570.007	995.62
570.218	998.62
570.43	960.62
570.641	970.62
570.853	960.62
571.064	960.62
571.276	951.62
571.487	929.62
571.698	909.62
571.91	887.62
572.121	882.62
572.333	861.62
572.544	868.62
572.755	824.62
572.966	827.62
573.178	796.62
573.389	773.62
573.6	791.62
573.811	787.62
574.023	785.62
574.234	789.62
574.445	767.62
574.656	781.62
574.867	774.62
575.078	754.62
575.289	765.62
575.501	778.62
575.712	715.62
575.923	737.62
576.134	738.62
576.345	728.62
576.556	716.62
576.767	720.62
576.978	718.62
577.188	736.62
577.399	721.62
577.61	706.62
577.821	695.62
578.032	691.62
578.243	678.62
578.454	680.62
578.665	688.62
578.875	684.62
579.086	682.62
579.297	677.62
579.508	681.62
579.718	684.62
579.929	665.62
580.14	672.62
580.35	670.62
580.561	666.62
580.772	648.62
580.982	667.62
581.193	659.62
581.403	662.62
581.614	676.62
581.825	650.62
582.035	648.62
582.246	647.62
582.456	636.62
582.667	642.62
582.877	653.62
583.087	660.62
583.298	633.62
583.508	625.62
583.719	635.62
583.929	647.62
584.139	644.62
584.35	645.62
584.56	638.62
584.77	633.62
584.981	628.62
585.191	623.62
585.401	623.62
585.611	628.62
585.821	599.62
586.032	623.62
586.242	620.62
586.452	604.62
586.662	614.62
586.872	610.62
587.082	599.62
587.292	596.62
587.502	607.62
587.713	585.62
587.923	633.62
588.133	619.62
588.343	600.62
588.553	605.62
588.762	618.62
588.972	624.62
589.182	626.62
589.392	632.62
589.602	576.62
589.812	626.62
590.022	605.62
590.232	581.62
590.441	609.62
590.651	611.62
590.861	605.62
591.071	610.62
591.281	637.62
591.49	631.62
591.7	648.62
591.91	653.62
592.119	633.62
592.329	680.62
592.539	661.62
592.748	691.62
592.958	712.62
593.167	731.62
593.377	733.62
593.587	726.62
593.796	740.62
594.006	753.62
594.215	744.62
594.424	756.62
594.634	735.62
594.843	711.62
595.053	673.62
595.262	668.62
595.472	661.62
595.681	639.62
595.89	612.62
596.1	623.62
596.309	607.62
596.518	584.62
596.727	586.62
596.937	559.62
597.146	565.62
597.355	565.62
597.564	528.62
597.774	525.62
597.983	537.62
598.192	541.62
598.401	541.62
598.61	524.62
598.819	522.62
599.028	526.62
599.237	529.62
599.446	517.62
599.655	529.62
599.864	524.62
600.073	497.62
600.282	527.62
600.491	513.62
600.7	528.62
600.909	524.62
601.118	501.62
601.327	529.62
601.536	501.62
601.745	497.62
601.953	484.62
602.162	493.62
602.371	491.62
602.58	487.62
602.789	511.62
602.997	496.62
603.206	483.62
603.415	491.62
603.623	473.62
603.832	487.62
604.041	483.62
604.249	461.62
604.458	483.62
604.666	458.62
604.875	463.62
605.084	464.62
605.292	459.62
605.501	471.62
605.709	474.62
605.918	461.62
606.126	465.62
606.334	448.62
606.543	474.62
606.751	444.62
606.96	467.62
607.168	450.62
607.376	422.62
607.585	443.62
607.793	449.62
608.001	452.62
608.21	447.62
608.418	448.62
608.626	435.62
608.834	436.62
609.043	442.62
609.251	450.62
609.459	437.62
609.667	440.62
609.875	442.62
610.083	449.62
610.291	451.62
610.499	420.62
610.707	435.62
610.916	444.62
611.124	426.62
611.332	435.62
611.54	435.62
611.748	432.62
611.955	411.62
612.163	415.62
612.371	423.62
612.579	443.62
612.787	427.62
612.995	409.62
613.203	433.62
613.411	421.62
613.618	452.62
613.826	439.62
614.034	415.62
614.242	426.62
614.449	417.62
614.657	416.62
614.865	426.62
615.072	434.62
615.28	435.62
615.488	425.62
615.695	427.62
615.903	431.62
616.111	423.62
616.318	449.62
616.526	408.62
616.733	421.62
616.941	412.62
617.148	437.62
617.356	434.62
617.563	436.62
617.771	438.62
617.978	429.62
618.185	425.62
618.393	449.62
618.6	424.62
618.807	427.62
619.015	412.62
619.222	397.62
619.429	396.62
619.637	419.62
619.844	406.62
620.051	395.62
620.258	402.62
620.466	369.62
620.673	376.62
620.88	393.62
621.087	413.62
621.294	398.62
621.501	400.62
621.708	393.62
621.915	385.62
622.122	388.62
622.329	380.62
622.536	379.62
622.743	392.62
622.95	387.62
623.157	384.62
623.364	382.62
623.571	361.62
623.778	377.62
623.985	387.62
624.192	364.62
624.399	341.62
624.606	377.62
624.812	370.62
625.019	375.62
625.226	355.62
625.433	370.62
625.639	367.62
625.846	375.62
626.053	360.62
626.259	357.62
626.466	340.62
626.673	370.62
626.879	353.62
627.086	356.62
627.293	362.62
627.499	371.62
627.706	345.62
627.912	336.62
628.119	333.62
628.325	354.62
628.532	351.62
628.738	340.62
628.945	333.62
629.151	353.62
629.357	351.62
629.564	329.62
629.77	332.62
629.976	345.62
630.183	337.62
630.389	325.62
630.595	319.62
630.802	324.62
631.008	321.62
631.214	313.62
631.42	303.62
631.627	332.62
631.833	324.62
632.039	311.62
632.245	331.62
632.451	309.62
632.657	327.62
632.863	316.62
633.069	321.62
633.275	319.62
633.481	315.62
633.688	322.62
633.893	321.62
634.099	326.62
634.305	312.62
634.511	321.62
634.717	314.62
634.923	305.62
635.129	300.62
635.335	315.62
635.541	322.62
635.747	286.62
635.952	314.62
636.158	309.62
636.364	329.62
636.57	318.62
636.775	299.62
636.981	315.62
637.187	300.62
637.392	299.62
637.598	304.62
637.804	299.62
638.009	287.62
638.215	300.62
638.421	314.62
638.626	296.62
638.832	283.62
639.037	290.62
639.243	280.62
639.448	297.62
639.654	296.62
639.859	292.62
640.065	291.62
640.27	297.62
640.475	265.62
640.681	280.62
640.886	301.62
641.091	294.62
641.297	280.62
641.502	285.62
641.707	281.62
641.913	279.62
642.118	290.62
642.323	277.62
642.528	275.62
642.733	291.62
642.939	281.62
643.144	297.62
643.349	299.62
643.554	292.62
643.759	284.62
643.964	274.62
644.169	273.62
644.374	268.62
644.579	285.62
644.784	281.62
644.989	304.62
645.194	281.62
645.399	296.62
645.604	291.62
645.809	285.62
646.014	282.62
646.219	284.62
646.423	279.62
646.628	298.62
646.833	299.62
647.038	316.62
647.243	295.62
647.447	318.62
647.652	295.62
647.857	306.62
648.062	297.62
648.266	319.62
648.471	315.62
648.676	341.62
648.88	313.62
649.085	322.62
649.289	314.62
649.494	298.62
649.698	304.62
649.903	289.62
650.107	284.62
650.312	289.62
650.516	287.62
650.721	280.62
650.925	282.62
651.13	275.62
651.334	292.62
651.539	267.62
651.743	276.62
651.947	292.62
652.152	276.62
652.356	264.62
652.56	291.62
652.764	261.62
652.969	272.62
653.173	282.62
653.377	276.62
653.581	285.62
653.785	274.62
653.99	278.62
654.194	291.62
654.398	290.62
654.602	288.62
654.806	270.62
655.01	308.62
655.214	304.62
655.418	314.62
655.622	330.62
655.826	328.62
656.03	362.62
656.234	387.62
656.438	409.62
656.642	425.62
656.846	405.62
657.049	356.62
657.253	321.62
657.457	275.62
657.661	258.62
657.865	253.62
658.068	221.62
658.272	192.62
658.476	178.62
658.68	172.62
658.883	171.62
659.087	143.62
659.291	163.62
659.494	153.62
659.698	151.62
659.901	139.62
660.105	121.62
660.309	136.62
660.512	118.62
660.716	114.62
660.919	126.62
661.123	130.62
661.326	105.62
661.53	108.62
661.733	106.62
661.936	108.62
662.14	93.62
662.343	91.62
662.546	109.62
662.75	100.62
662.953	101.62
663.156	101.62
663.36	90.62
663.563	96.62
663.766	79.62
663.969	82.62
664.173	82.62
664.376	83.62
664.579	84.62
664.782	83.62
664.985	76.62
665.188	85.62
665.391	89.62
665.594	83.62
665.797	73.62
666	80.62
666.203	79.62
666.406	76.62
666.609	82.62
666.812	85.62
667.015	81.62
667.218	74.62
667.421	89.62
667.624	83.62
667.827	84.62
668.03	83.62
668.232	74.62
668.435	82.62
668.638	80.62
668.841	74.62
669.043	81.62
669.246	85.62
669.449	81.62
669.651	82.62
669.854	97.62
670.057	83.62
670.259	86.62
670.462	82.62
670.665	81.62
670.867	85.62
671.07	70.62
671.272	81.62
671.475	76.62
671.677	84.62
671.88	89.62
672.082	90.62
672.284	88.62
672.487	70.62
672.689	71.62
672.892	93.62
