Data from NiCl2@0.125M.TitratingCurve.Agarose3%dH2O.NegLispCup.LampEnergy10.LIBS07252019_HRD10591_18-27-55-577.txt Node
Date: Thu Jul 25 18:27:55 EDT 2019
User: cochatt
Spectrometer: HR+D1059
Trigger mode: 1
Integration Time (sec): 1.000000E-1
Scans to average: 1
Electric dark correction enabled: true
Nonlinearity correction enabled: false
Boxcar width: 0
XAxis mode: Wavelengths
Number of Pixels in Spectrum: 2048
>>>>>Begin Spectral Data<<<<<
223.165	-15.88
223.4	-15.88
223.635	-15.88
223.869	-23.88
224.104	-23.88
224.338	-15.88
224.573	-8.88
224.808	-11.88
225.042	-11.88
225.277	-9.88
225.511	-9.88
225.746	3.12
225.98	6.12
226.215	3.12
226.449	28.12
226.683	23.12
226.918	32.12
227.152	36.12
227.387	24.12
227.621	53.12
227.856	45.12
228.09	41.12
228.324	41.12
228.559	51.12
228.793	65.12
229.027	107.12
229.262	127.12
229.496	111.12
229.73	116.12
229.964	132.12
230.199	105.12
230.433	145.12
230.667	148.12
230.901	143.12
231.136	135.12
231.37	149.12
231.604	149.12
231.838	159.12
232.072	156.12
232.306	140.12
232.541	159.12
232.775	155.12
233.009	142.12
233.243	143.12
233.477	158.12
233.711	159.12
233.945	152.12
234.179	164.12
234.413	155.12
234.647	170.12
234.881	155.12
235.115	159.12
235.349	168.12
235.583	179.12
235.817	157.12
236.051	175.12
236.285	153.12
236.519	162.12
236.753	163.12
236.987	175.12
237.221	172.12
237.455	193.12
237.689	179.12
237.922	182.12
238.156	171.12
238.39	168.12
238.624	181.12
238.858	177.12
239.091	185.12
239.325	184.12
239.559	187.12
239.793	193.12
240.027	200.12
240.26	204.12
240.494	193.12
240.728	184.12
240.961	197.12
241.195	200.12
241.429	207.12
241.662	198.12
241.896	198.12
242.13	209.12
242.363	213.12
242.597	203.12
242.83	219.12
243.064	229.12
243.298	222.12
243.531	217.12
243.765	235.12
243.998	219.12
244.232	239.12
244.465	235.12
244.699	235.12
244.932	222.12
245.166	237.12
245.399	239.12
245.633	242.12
245.866	243.12
246.099	259.12
246.333	249.12
246.566	260.12
246.8	251.12
247.033	235.12
247.266	228.12
247.5	269.12
247.733	260.12
247.966	253.12
248.2	275.12
248.433	261.12
248.666	251.12
248.899	278.12
249.133	259.12
249.366	253.12
249.599	277.12
249.832	283.12
250.066	283.12
250.299	275.12
250.532	278.12
250.765	279.12
250.998	270.12
251.231	280.12
251.465	286.12
251.698	293.12
251.931	281.12
252.164	287.12
252.397	300.12
252.63	307.12
252.863	297.12
253.096	310.12
253.329	301.12
253.562	304.12
253.795	303.12
254.028	309.12
254.261	323.12
254.494	338.12
254.727	304.12
254.96	321.12
255.193	299.12
255.426	293.12
255.659	319.12
255.892	315.12
256.124	320.12
256.357	332.12
256.59	326.12
256.823	310.12
257.056	327.12
257.289	336.12
257.521	327.12
257.754	326.12
257.987	306.12
258.22	331.12
258.452	327.12
258.685	342.12
258.918	325.12
259.151	337.12
259.383	347.12
259.616	357.12
259.849	368.12
260.081	345.12
260.314	371.12
260.547	361.12
260.779	346.12
261.012	349.12
261.244	355.12
261.477	356.12
261.71	357.12
261.942	375.12
262.175	357.12
262.407	366.12
262.64	361.12
262.872	380.12
263.105	380.12
263.337	382.12
263.57	368.12
263.802	381.12
264.035	380.12
264.267	364.12
264.499	374.12
264.732	388.12
264.964	377.12
265.197	384.12
265.429	396.12
265.661	391.12
265.894	387.12
266.126	397.12
266.358	390.12
266.591	397.12
266.823	387.12
267.055	397.12
267.287	414.12
267.52	392.12
267.752	408.12
267.984	417.12
268.216	406.12
268.448	409.12
268.681	401.12
268.913	405.12
269.145	406.12
269.377	413.12
269.609	429.12
269.841	435.12
270.073	405.12
270.306	417.12
270.538	418.12
270.77	421.12
271.002	402.12
271.234	402.12
271.466	429.12
271.698	414.12
271.93	407.12
272.162	406.12
272.394	416.12
272.626	433.12
272.858	445.12
273.09	457.12
273.322	473.12
273.553	433.12
273.785	446.12
274.017	441.12
274.249	458.12
274.481	456.12
274.713	438.12
274.945	445.12
275.176	448.12
275.408	457.12
275.64	453.12
275.872	470.12
276.104	467.12
276.335	460.12
276.567	443.12
276.799	473.12
277.031	472.12
277.262	481.12
277.494	464.12
277.726	463.12
277.957	469.12
278.189	469.12
278.421	497.12
278.652	470.12
278.884	488.12
279.115	486.12
279.347	495.12
279.579	508.12
279.81	502.12
280.042	514.12
280.273	511.12
280.505	502.12
280.736	507.12
280.968	495.12
281.199	497.12
281.431	510.12
281.662	500.12
281.894	513.12
282.125	507.12
282.356	537.12
282.588	528.12
282.819	529.12
283.051	525.12
283.282	508.12
283.513	512.12
283.745	532.12
283.976	535.12
284.207	524.12
284.439	544.12
284.67	542.12
284.901	557.12
285.132	539.12
285.364	537.12
285.595	568.12
285.826	538.12
286.057	545.12
286.288	584.12
286.52	553.12
286.751	547.12
286.982	524.12
287.213	534.12
287.444	555.12
287.675	568.12
287.906	567.12
288.138	582.12
288.369	563.12
288.6	581.12
288.831	574.12
289.062	577.12
289.293	584.12
289.524	568.12
289.755	590.12
289.986	555.12
290.217	582.12
290.448	599.12
290.679	579.12
290.91	575.12
291.141	604.12
291.371	598.12
291.602	602.12
291.833	587.12
292.064	600.12
292.295	607.12
292.526	596.12
292.757	595.12
292.987	572.12
293.218	581.12
293.449	596.12
293.68	602.12
293.91	593.12
294.141	607.12
294.372	585.12
294.603	598.12
294.833	622.12
295.064	585.12
295.295	575.12
295.525	605.12
295.756	599.12
295.987	620.12
296.217	591.12
296.448	608.12
296.679	622.12
296.909	613.12
297.14	601.12
297.37	636.12
297.601	639.12
297.831	639.12
298.062	654.12
298.292	643.12
298.523	659.12
298.753	666.12
298.984	665.12
299.214	647.12
299.445	646.12
299.675	617.12
299.905	650.12
300.136	649.12
300.366	649.12
300.597	630.12
300.827	665.12
301.057	684.12
301.288	645.12
301.518	688.12
301.748	661.12
301.979	681.12
302.209	676.12
302.439	676.12
302.669	680.12
302.9	669.12
303.13	647.12
303.36	663.12
303.59	676.12
303.82	669.12
304.051	679.12
304.281	649.12
304.511	668.12
304.741	682.12
304.971	677.12
305.201	673.12
305.431	652.12
305.661	659.12
305.891	641.12
306.121	658.12
306.352	664.12
306.582	650.12
306.812	644.12
307.042	647.12
307.272	669.12
307.502	647.12
307.731	663.12
307.961	631.12
308.191	642.12
308.421	629.12
308.651	632.12
308.881	641.12
309.111	633.12
309.341	654.12
309.571	667.12
309.8	666.12
310.03	629.12
310.26	670.12
310.49	658.12
310.72	671.12
310.949	636.12
311.179	672.12
311.409	670.12
311.639	653.12
311.868	670.12
312.098	675.12
312.328	656.12
312.557	657.12
312.787	662.12
313.017	686.12
313.246	689.12
313.476	695.12
313.706	683.12
313.935	716.12
314.165	709.12
314.394	708.12
314.624	718.12
314.853	678.12
315.083	703.12
315.312	711.12
315.542	670.12
315.771	693.12
316.001	705.12
316.23	702.12
316.46	678.12
316.689	728.12
316.919	708.12
317.148	699.12
317.377	704.12
317.607	664.12
317.836	663.12
318.065	683.12
318.295	680.12
318.524	672.12
318.753	685.12
318.983	691.12
319.212	687.12
319.441	688.12
319.67	683.12
319.9	665.12
320.129	696.12
320.358	683.12
320.587	688.12
320.816	687.12
321.046	696.12
321.275	691.12
321.504	675.12
321.733	694.12
321.962	686.12
322.191	672.12
322.42	691.12
322.649	691.12
322.878	688.12
323.108	712.12
323.337	699.12
323.566	714.12
323.795	713.12
324.024	707.12
324.253	704.12
324.482	694.12
324.71	703.12
324.939	707.12
325.168	728.12
325.397	717.12
325.626	731.12
325.855	754.12
326.084	742.12
326.313	766.12
326.542	757.12
326.77	765.12
326.999	768.12
327.228	725.12
327.457	728.12
327.686	747.12
327.914	744.12
328.143	753.12
328.372	739.12
328.6	752.12
328.829	758.12
329.058	750.12
329.287	739.12
329.515	780.12
329.744	739.12
329.972	765.12
330.201	725.12
330.43	760.12
330.658	771.12
330.887	777.12
331.115	762.12
331.344	793.12
331.572	816.12
331.801	793.12
332.03	827.12
332.258	855.12
332.486	873.12
332.715	922.12
332.943	945.12
333.172	985.12
333.4	1013.12
333.629	1047.12
333.857	1049.12
334.085	1008.12
334.314	992.12
334.542	957.12
334.771	961.12
334.999	932.12
335.227	971.12
335.455	916.12
335.684	927.12
335.912	919.12
336.14	891.12
336.369	891.12
336.597	935.12
336.825	918.12
337.053	918.12
337.281	906.12
337.51	868.12
337.738	899.12
337.966	849.12
338.194	813.12
338.422	845.12
338.65	819.12
338.878	826.12
339.106	847.12
339.334	809.12
339.562	822.12
339.79	787.12
340.018	797.12
340.246	783.12
340.474	784.12
340.702	775.12
340.93	802.12
341.158	785.12
341.386	795.12
341.614	804.12
341.842	785.12
342.07	740.12
342.298	781.12
342.526	777.12
342.754	789.12
342.981	802.12
343.209	823.12
343.437	836.12
343.665	861.12
343.893	963.12
344.12	1017.12
344.348	968.12
344.576	879.12
344.804	833.12
345.031	812.12
345.259	803.12
345.487	783.12
345.714	771.12
345.942	790.12
346.17	777.12
346.397	792.12
346.625	763.12
346.853	767.12
347.08	767.12
347.308	742.12
347.535	776.12
347.763	783.12
347.99	772.12
348.218	753.12
348.445	751.12
348.673	765.12
348.9	732.12
349.128	754.12
349.355	753.12
349.583	756.12
349.81	731.12
350.037	732.12
350.265	737.12
350.492	743.12
350.72	721.12
350.947	750.12
351.174	729.12
351.402	737.12
351.629	727.12
351.856	724.12
352.083	732.12
352.311	712.12
352.538	701.12
352.765	721.12
352.992	715.12
353.22	734.12
353.447	740.12
353.674	723.12
353.901	709.12
354.128	727.12
354.355	735.12
354.583	725.12
354.81	726.12
355.037	753.12
355.264	765.12
355.491	725.12
355.718	729.12
355.945	768.12
356.172	723.12
356.399	732.12
356.626	731.12
356.853	732.12
357.08	727.12
357.307	734.12
357.534	722.12
357.761	730.12
357.988	760.12
358.215	713.12
358.441	724.12
358.668	718.12
358.895	728.12
359.122	734.12
359.349	712.12
359.576	721.12
359.802	715.12
360.029	714.12
360.256	770.12
360.483	723.12
360.709	731.12
360.936	740.12
361.163	733.12
361.39	706.12
361.616	733.12
361.843	711.12
362.07	740.12
362.296	720.12
362.523	726.12
362.749	729.12
362.976	713.12
363.203	717.12
363.429	713.12
363.656	727.12
363.882	721.12
364.109	737.12
364.335	745.12
364.562	731.12
364.788	721.12
365.015	707.12
365.241	701.12
365.468	713.12
365.694	712.12
365.92	721.12
366.147	725.12
366.373	721.12
366.599	713.12
366.826	741.12
367.052	729.12
367.278	719.12
367.505	710.12
367.731	722.12
367.957	711.12
368.184	737.12
368.41	741.12
368.636	719.12
368.862	739.12
369.089	724.12
369.315	749.12
369.541	755.12
369.767	765.12
369.993	758.12
370.219	774.12
370.445	780.12
370.672	778.12
370.898	788.12
371.124	786.12
371.35	798.12
371.576	816.12
371.802	816.12
372.028	786.12
372.254	792.12
372.48	794.12
372.706	822.12
372.932	840.12
373.158	809.12
373.384	791.12
373.61	809.12
373.835	800.12
374.061	788.12
374.287	783.12
374.513	823.12
374.739	846.12
374.965	879.12
375.191	895.12
375.416	902.12
375.642	847.12
375.868	865.12
376.094	835.12
376.319	825.12
376.545	809.12
376.771	822.12
376.997	778.12
377.222	790.12
377.448	812.12
377.674	808.12
377.899	779.12
378.125	797.12
378.35	790.12
378.576	802.12
378.802	759.12
379.027	812.12
379.253	790.12
379.478	812.12
379.704	793.12
379.929	782.12
380.155	751.12
380.38	766.12
380.606	797.12
380.831	793.12
381.057	799.12
381.282	798.12
381.507	797.12
381.733	795.12
381.958	797.12
382.184	825.12
382.409	823.12
382.634	836.12
382.86	843.12
383.085	847.12
383.31	848.12
383.535	876.12
383.761	877.12
383.986	904.12
384.211	925.12
384.436	923.12
384.662	943.12
384.887	963.12
385.112	956.12
385.337	940.12
385.562	964.12
385.787	949.12
386.013	1013.12
386.238	972.12
386.463	968.12
386.688	996.12
386.913	964.12
387.138	951.12
387.363	948.12
387.588	915.12
387.813	933.12
388.038	933.12
388.263	902.12
388.488	939.12
388.713	951.12
388.938	947.12
389.163	928.12
389.387	953.12
389.612	934.12
389.837	966.12
390.062	921.12
390.287	926.12
390.512	925.12
390.736	958.12
390.961	941.12
391.186	963.12
391.411	1006.12
391.636	1032.12
391.86	1077.12
392.085	1098.12
392.31	1088.12
392.534	1063.12
392.759	1037.12
392.984	1030.12
393.208	1013.12
393.433	1011.12
393.658	1013.12
393.882	1051.12
394.107	1011.12
394.331	1072.12
394.556	994.12
394.78	1048.12
395.005	1045.12
395.229	1024.12
395.454	1077.12
395.678	1098.12
395.903	1097.12
396.127	1063.12
396.352	1021.12
396.576	998.12
396.801	975.12
397.025	1013.12
397.249	1061.12
397.474	1056.12
397.698	1076.12
397.922	1060.12
398.147	1031.12
398.371	1102.12
398.595	1149.12
398.82	1149.12
399.044	1266.12
399.268	1408.12
399.492	1639.12
399.717	1921.12
399.941	1917.12
400.165	1649.12
400.389	1461.12
400.613	1373.12
400.837	1269.12
401.062	1221.12
401.286	1208.12
401.51	1179.12
401.734	1212.12
401.958	1236.12
402.182	1226.12
402.406	1231.12
402.63	1268.12
402.854	1291.12
403.078	1336.12
403.302	1368.12
403.526	1390.12
403.75	1405.12
403.974	1427.12
404.198	1431.12
404.422	1443.12
404.645	1413.12
404.869	1392.12
405.093	1373.12
405.317	1362.12
405.541	1348.12
405.765	1330.12
405.988	1318.12
406.212	1342.12
406.436	1339.12
406.66	1359.12
406.883	1350.12
407.107	1473.12
407.331	1554.12
407.555	1583.12
407.778	1589.12
408.002	1534.12
408.226	1502.12
408.449	1452.12
408.673	1379.12
408.896	1356.12
409.12	1334.12
409.344	1345.12
409.567	1376.12
409.791	1377.12
410.014	1388.12
410.238	1353.12
410.461	1359.12
410.685	1359.12
410.908	1314.12
411.132	1292.12
411.355	1230.12
411.578	1278.12
411.802	1281.12
412.025	1255.12
412.249	1271.12
412.472	1288.12
412.695	1252.12
412.919	1185.12
413.142	1218.12
413.365	1205.12
413.589	1227.12
413.812	1187.12
414.035	1179.12
414.258	1210.12
414.482	1182.12
414.705	1230.12
414.928	1208.12
415.151	1214.12
415.374	1222.12
415.597	1228.12
415.821	1197.12
416.044	1183.12
416.267	1159.12
416.49	1192.12
416.713	1171.12
416.936	1192.12
417.159	1187.12
417.382	1186.12
417.605	1202.12
417.828	1205.12
418.051	1213.12
418.274	1183.12
418.497	1240.12
418.72	1220.12
418.943	1231.12
419.166	1304.12
419.389	1427.12
419.611	1374.12
419.834	1291.12
420.057	1234.12
420.28	1216.12
420.503	1192.12
420.726	1168.12
420.948	1182.12
421.171	1186.12
421.394	1182.12
421.617	1172.12
421.839	1190.12
422.062	1172.12
422.285	1197.12
422.507	1234.12
422.73	1221.12
422.953	1248.12
423.175	1266.12
423.398	1310.12
423.621	1279.12
423.843	1300.12
424.066	1314.12
424.288	1249.12
424.511	1263.12
424.733	1247.12
424.956	1238.12
425.178	1217.12
425.401	1210.12
425.623	1203.12
425.846	1181.12
426.068	1158.12
426.291	1175.12
426.513	1109.12
426.735	1093.12
426.958	1117.12
427.18	1105.12
427.402	1095.12
427.625	1088.12
427.847	1056.12
428.069	1080.12
428.292	1087.12
428.514	1075.12
428.736	1033.12
428.958	1045.12
429.181	1034.12
429.403	990.12
429.625	1029.12
429.847	1025.12
430.069	1025.12
430.292	1025.12
430.514	1037.12
430.736	1055.12
430.958	1050.12
431.18	1025.12
431.402	1053.12
431.624	1007.12
431.846	1047.12
432.068	1088.12
432.29	1069.12
432.512	1039.12
432.734	1047.12
432.956	1033.12
433.178	1059.12
433.4	1054.12
433.622	1051.12
433.844	1083.12
434.066	1092.12
434.287	1081.12
434.509	1103.12
434.731	1147.12
434.953	1206.12
435.175	1171.12
435.397	1187.12
435.618	1114.12
435.84	1075.12
436.062	1102.12
436.284	1064.12
436.505	1057.12
436.727	1068.12
436.949	1057.12
437.17	1049.12
437.392	1043.12
437.614	1040.12
437.835	1025.12
438.057	1026.12
438.278	1005.12
438.5	1009.12
438.721	1022.12
438.943	1052.12
439.165	1007.12
439.386	1029.12
439.608	1072.12
439.829	1073.12
440.05	1057.12
440.272	1074.12
440.493	1075.12
440.715	1093.12
440.936	1109.12
441.158	1081.12
441.379	1150.12
441.6	1205.12
441.822	1218.12
442.043	1215.12
442.264	1169.12
442.486	1164.12
442.707	1185.12
442.928	1200.12
443.149	1188.12
443.371	1163.12
443.592	1168.12
443.813	1195.12
444.034	1204.12
444.255	1232.12
444.476	1305.12
444.698	1396.12
444.919	1483.12
445.14	1530.12
445.361	1376.12
445.582	1248.12
445.803	1140.12
446.024	1115.12
446.245	1149.12
446.466	1087.12
446.687	1069.12
446.908	1077.12
447.129	1059.12
447.35	1038.12
447.571	1033.12
447.792	1017.12
448.013	1007.12
448.234	974.12
448.455	990.12
448.675	975.12
448.896	960.12
449.117	943.12
449.338	964.12
449.559	984.12
449.779	951.12
450	959.12
450.221	965.12
450.442	965.12
450.662	988.12
450.883	978.12
451.104	1024.12
451.324	1003.12
451.545	981.12
451.766	1006.12
451.986	1009.12
452.207	995.12
452.428	987.12
452.648	990.12
452.869	957.12
453.089	952.12
453.31	962.12
453.53	951.12
453.751	947.12
453.971	916.12
454.192	951.12
454.412	899.12
454.633	929.12
454.853	926.12
455.073	893.12
455.294	929.12
455.514	926.12
455.734	908.12
455.955	917.12
456.175	892.12
456.395	899.12
456.616	889.12
456.836	885.12
457.056	906.12
457.276	904.12
457.497	932.12
457.717	892.12
457.937	934.12
458.157	921.12
458.377	909.12
458.598	955.12
458.818	963.12
459.038	969.12
459.258	1053.12
459.478	1043.12
459.698	1132.12
459.918	1101.12
460.138	1125.12
460.358	1242.12
460.578	1251.12
460.798	1272.12
461.018	1251.12
461.238	1228.12
461.458	1237.12
461.678	1238.12
461.898	1248.12
462.118	1239.12
462.338	1343.12
462.558	1381.12
462.777	1417.12
462.997	1509.12
463.217	1729.12
463.437	1747.12
463.657	1544.12
463.876	1471.12
464.096	1461.12
464.316	1441.12
464.536	1495.12
464.755	1415.12
464.975	1362.12
465.195	1279.12
465.414	1225.12
465.634	1153.12
465.854	1104.12
466.073	1077.12
466.293	1055.12
466.512	1040.12
466.732	1018.12
466.951	1019.12
467.171	1021.12
467.391	1024.12
467.61	1009.12
467.829	991.12
468.049	985.12
468.268	989.12
468.488	969.12
468.707	968.12
468.927	973.12
469.146	969.12
469.365	992.12
469.585	990.12
469.804	993.12
470.023	1055.12
470.243	1047.12
470.462	1076.12
470.681	1057.12
470.901	1053.12
471.12	1016.12
471.339	1023.12
471.558	1009.12
471.777	985.12
471.997	990.12
472.216	965.12
472.435	936.12
472.654	933.12
472.873	923.12
473.092	946.12
473.311	943.12
473.53	937.12
473.749	924.12
473.968	917.12
474.187	932.12
474.406	930.12
474.625	946.12
474.844	949.12
475.063	955.12
475.282	941.12
475.501	961.12
475.72	959.12
475.939	932.12
476.158	969.12
476.377	978.12
476.596	981.12
476.814	973.12
477.033	980.12
477.252	1034.12
477.471	1026.12
477.69	1053.12
477.908	1066.12
478.127	1109.12
478.346	1142.12
478.564	1145.12
478.783	1165.12
479.002	1185.12
479.22	1181.12
479.439	1198.12
479.658	1169.12
479.876	1183.12
480.095	1190.12
480.313	1241.12
480.532	1269.12
480.751	1269.12
480.969	1193.12
481.188	1156.12
481.406	1134.12
481.624	1078.12
481.843	1086.12
482.061	1106.12
482.28	1083.12
482.498	1059.12
482.717	1044.12
482.935	1051.12
483.153	1063.12
483.372	1039.12
483.59	1047.12
483.808	1070.12
484.027	1057.12
484.245	1071.12
484.463	1091.12
484.681	1106.12
484.9	1084.12
485.118	1075.12
485.336	1107.12
485.554	1095.12
485.772	1125.12
485.99	1116.12
486.209	1169.12
486.427	1138.12
486.645	1115.12
486.863	1101.12
487.081	1125.12
487.299	1125.12
487.517	1137.12
487.735	1113.12
487.953	1112.12
488.171	1106.12
488.389	1101.12
488.607	1101.12
488.825	1078.12
489.043	1059.12
489.261	1097.12
489.479	1094.12
489.696	1116.12
489.914	1085.12
490.132	1118.12
490.35	1136.12
490.568	1101.12
490.786	1093.12
491.003	1129.12
491.221	1138.12
491.439	1128.12
491.657	1135.12
491.874	1138.12
492.092	1124.12
492.31	1109.12
492.527	1142.12
492.745	1144.12
492.963	1154.12
493.18	1175.12
493.398	1169.12
493.615	1142.12
493.833	1185.12
494.05	1184.12
494.268	1200.12
494.485	1168.12
494.703	1174.12
494.92	1173.12
495.138	1192.12
495.355	1193.12
495.573	1162.12
495.79	1191.12
496.008	1206.12
496.225	1215.12
496.442	1190.12
496.66	1236.12
496.877	1225.12
497.094	1264.12
497.312	1283.12
497.529	1312.12
497.746	1358.12
497.963	1363.12
498.181	1430.12
498.398	1475.12
498.615	1567.12
498.832	1687.12
499.049	1856.12
499.267	1974.12
499.484	2177.12
499.701	2397.12
499.918	2734.12
500.135	3067.12
500.352	3541.12
500.569	3805.12
500.786	3680.12
501.003	3461.12
501.22	3055.12
501.437	2673.12
501.654	2368.12
501.871	2094.12
502.088	1935.12
502.305	1837.12
502.522	1695.12
502.739	1672.12
502.956	1567.12
503.172	1476.12
503.389	1429.12
503.606	1399.12
503.823	1357.12
504.04	1339.12
504.256	1368.12
504.473	1395.12
504.69	1447.12
504.907	1406.12
505.123	1297.12
505.34	1265.12
505.557	1174.12
505.773	1155.12
505.99	1134.12
506.207	1097.12
506.423	1095.12
506.64	1076.12
506.856	1053.12
507.073	1045.12
507.289	1061.12
507.506	1042.12
507.722	1042.12
507.939	1063.12
508.155	1020.12
508.372	1001.12
508.588	1010.12
508.805	989.12
509.021	987.12
509.238	980.12
509.454	979.12
509.67	970.12
509.887	958.12
510.103	977.12
510.319	975.12
510.536	931.12
510.752	961.12
510.968	966.12
511.184	962.12
511.401	963.12
511.617	957.12
511.833	900.12
512.049	935.12
512.265	924.12
512.481	944.12
512.698	934.12
512.914	947.12
513.13	931.12
513.346	927.12
513.562	946.12
513.778	944.12
513.994	944.12
514.21	959.12
514.426	959.12
514.642	984.12
514.858	952.12
515.074	957.12
515.29	988.12
515.506	1004.12
515.721	999.12
515.937	1027.12
516.153	1040.12
516.369	1080.12
516.585	1091.12
516.801	1126.12
517.016	1173.12
517.232	1249.12
517.448	1294.12
517.664	1387.12
517.879	1378.12
518.095	1352.12
518.311	1328.12
518.527	1304.12
518.742	1199.12
518.958	1152.12
519.173	1124.12
519.389	1073.12
519.605	1074.12
519.82	1046.12
520.036	993.12
520.251	980.12
520.467	985.12
520.682	972.12
520.898	969.12
521.113	945.12
521.329	917.12
521.544	943.12
521.76	926.12
521.975	919.12
522.19	915.12
522.406	900.12
522.621	911.12
522.836	903.12
523.052	911.12
523.267	915.12
523.482	881.12
523.698	889.12
523.913	881.12
524.128	876.12
524.343	896.12
524.559	867.12
524.774	868.12
524.989	889.12
525.204	881.12
525.419	871.12
525.634	849.12
525.849	851.12
526.064	875.12
526.28	864.12
526.495	847.12
526.71	854.12
526.925	851.12
527.14	860.12
527.355	840.12
527.57	846.12
527.785	856.12
527.999	859.12
528.214	838.12
528.429	885.12
528.644	864.12
528.859	849.12
529.074	857.12
529.289	860.12
529.503	847.12
529.718	849.12
529.933	841.12
530.148	846.12
530.363	846.12
530.577	839.12
530.792	831.12
531.007	866.12
531.221	859.12
531.436	864.12
531.651	868.12
531.865	868.12
532.08	855.12
532.295	855.12
532.509	860.12
532.724	845.12
532.938	878.12
533.153	867.12
533.367	829.12
533.582	831.12
533.796	839.12
534.011	836.12
534.225	848.12
534.44	838.12
534.654	845.12
534.868	843.12
535.083	845.12
535.297	820.12
535.511	832.12
535.726	823.12
535.94	812.12
536.154	787.12
536.369	805.12
536.583	802.12
536.797	806.12
537.011	776.12
537.225	785.12
537.44	767.12
537.654	787.12
537.868	802.12
538.082	774.12
538.296	794.12
538.51	791.12
538.724	796.12
538.938	775.12
539.153	768.12
539.367	783.12
539.581	765.12
539.795	780.12
540.009	744.12
540.222	742.12
540.436	767.12
540.65	736.12
540.864	742.12
541.078	764.12
541.292	767.12
541.506	743.12
541.72	777.12
541.934	775.12
542.147	765.12
542.361	763.12
542.575	765.12
542.789	775.12
543.002	737.12
543.216	777.12
543.43	745.12
543.644	761.12
543.857	751.12
544.071	775.12
544.285	775.12
544.498	776.12
544.712	763.12
544.925	773.12
545.139	795.12
545.352	791.12
545.566	797.12
545.779	776.12
545.993	786.12
546.206	784.12
546.42	805.12
546.633	791.12
546.847	791.12
547.06	755.12
547.274	772.12
547.487	781.12
547.7	773.12
547.914	794.12
548.127	811.12
548.34	809.12
548.554	785.12
548.767	792.12
548.98	755.12
549.193	839.12
549.407	804.12
549.62	811.12
549.833	806.12
550.046	817.12
550.259	825.12
550.473	776.12
550.686	773.12
550.899	781.12
551.112	768.12
551.325	744.12
551.538	761.12
551.751	756.12
551.964	778.12
552.177	784.12
552.39	804.12
552.603	819.12
552.816	831.12
553.029	852.12
553.242	860.12
553.455	873.12
553.667	891.12
553.88	861.12
554.093	828.12
554.306	829.12
554.519	820.12
554.732	761.12
554.944	749.12
555.157	761.12
555.37	751.12
555.583	727.12
555.795	727.12
556.008	716.12
556.221	714.12
556.433	677.12
556.646	712.12
556.859	700.12
557.071	691.12
557.284	693.12
557.496	687.12
557.709	662.12
557.921	661.12
558.134	671.12
558.346	643.12
558.559	661.12
558.771	657.12
558.984	661.12
559.196	653.12
559.409	634.12
559.621	635.12
559.833	641.12
560.046	652.12
560.258	631.12
560.47	617.12
560.683	646.12
560.895	645.12
561.107	637.12
561.32	644.12
561.532	623.12
561.744	643.12
561.956	635.12
562.168	629.12
562.381	640.12
562.593	630.12
562.805	653.12
563.017	636.12
563.229	667.12
563.441	628.12
563.653	625.12
563.865	631.12
564.077	668.12
564.289	670.12
564.501	671.12
564.713	671.12
564.925	686.12
565.137	687.12
565.349	700.12
565.561	737.12
565.773	761.12
565.985	794.12
566.197	830.12
566.408	889.12
566.62	988.12
566.832	1069.12
567.044	1136.12
567.255	1110.12
567.467	1119.12
567.679	1156.12
567.891	1245.12
568.102	1335.12
568.314	1251.12
568.526	1090.12
568.737	1003.12
568.949	909.12
569.161	829.12
569.372	756.12
569.584	760.12
569.795	707.12
570.007	667.12
570.218	658.12
570.43	651.12
570.641	648.12
570.853	657.12
571.064	685.12
571.276	695.12
571.487	664.12
571.698	639.12
571.91	643.12
572.121	610.12
572.333	566.12
572.544	579.12
572.755	578.12
572.966	561.12
573.178	552.12
573.389	547.12
573.6	536.12
573.811	524.12
574.023	537.12
574.234	530.12
574.445	525.12
574.656	543.12
574.867	531.12
575.078	525.12
575.289	534.12
575.501	511.12
575.712	497.12
575.923	524.12
576.134	522.12
576.345	498.12
576.556	521.12
576.767	501.12
576.978	499.12
577.188	492.12
577.399	515.12
577.61	494.12
577.821	483.12
578.032	484.12
578.243	463.12
578.454	480.12
578.665	475.12
578.875	474.12
579.086	465.12
579.297	460.12
579.508	456.12
579.718	462.12
579.929	480.12
580.14	424.12
580.35	452.12
580.561	467.12
580.772	457.12
580.982	465.12
581.193	457.12
581.403	456.12
581.614	446.12
581.825	448.12
582.035	436.12
582.246	443.12
582.456	439.12
582.667	436.12
582.877	453.12
583.087	464.12
583.298	441.12
583.508	435.12
583.719	439.12
583.929	445.12
584.139	420.12
584.35	441.12
584.56	418.12
584.77	441.12
584.981	422.12
585.191	419.12
585.401	449.12
585.611	422.12
585.821	411.12
586.032	431.12
586.242	421.12
586.452	427.12
586.662	423.12
586.872	435.12
587.082	413.12
587.292	421.12
587.502	413.12
587.713	415.12
587.923	411.12
588.133	411.12
588.343	432.12
588.553	407.12
588.762	393.12
588.972	428.12
589.182	418.12
589.392	419.12
589.602	418.12
589.812	427.12
590.022	424.12
590.232	397.12
590.441	429.12
590.651	441.12
590.861	406.12
591.071	435.12
591.281	425.12
591.49	437.12
591.7	441.12
591.91	460.12
592.119	453.12
592.329	468.12
592.539	484.12
592.748	494.12
592.958	536.12
593.167	546.12
593.377	543.12
593.587	560.12
593.796	544.12
594.006	555.12
594.215	539.12
594.424	564.12
594.634	541.12
594.843	519.12
595.053	480.12
595.262	461.12
595.472	463.12
595.681	439.12
595.89	441.12
596.1	420.12
596.309	420.12
596.518	418.12
596.727	398.12
596.937	384.12
597.146	400.12
597.355	392.12
597.564	385.12
597.774	392.12
597.983	381.12
598.192	376.12
598.401	366.12
598.61	363.12
598.819	367.12
599.028	360.12
599.237	354.12
599.446	363.12
599.655	375.12
599.864	366.12
600.073	353.12
600.282	379.12
600.491	361.12
600.7	347.12
600.909	307.12
601.118	344.12
601.327	351.12
601.536	346.12
601.745	352.12
601.953	349.12
602.162	357.12
602.371	348.12
602.58	351.12
602.789	358.12
602.997	354.12
603.206	359.12
603.415	339.12
603.623	346.12
603.832	323.12
604.041	333.12
604.249	337.12
604.458	341.12
604.666	337.12
604.875	336.12
605.084	351.12
605.292	313.12
605.501	334.12
605.709	324.12
605.918	346.12
606.126	326.12
606.334	342.12
606.543	343.12
606.751	326.12
606.96	334.12
607.168	324.12
607.376	305.12
607.585	313.12
607.793	312.12
608.001	302.12
608.21	318.12
608.418	323.12
608.626	311.12
608.834	336.12
609.043	315.12
609.251	319.12
609.459	324.12
609.667	313.12
609.875	323.12
610.083	332.12
610.291	301.12
610.499	308.12
610.707	312.12
610.916	330.12
611.124	314.12
611.332	292.12
611.54	309.12
611.748	305.12
611.955	305.12
612.163	311.12
612.371	309.12
612.579	329.12
612.787	316.12
612.995	304.12
613.203	310.12
613.411	298.12
613.618	312.12
613.826	317.12
614.034	294.12
614.242	305.12
614.449	311.12
614.657	296.12
614.865	325.12
615.072	284.12
615.28	301.12
615.488	320.12
615.695	299.12
615.903	313.12
616.111	320.12
616.318	319.12
616.526	305.12
616.733	320.12
616.941	309.12
617.148	301.12
617.356	306.12
617.563	307.12
617.771	300.12
617.978	295.12
618.185	307.12
618.393	305.12
618.6	323.12
618.807	314.12
619.015	313.12
619.222	307.12
619.429	307.12
619.637	289.12
619.844	285.12
620.051	294.12
620.258	281.12
620.466	278.12
620.673	278.12
620.88	263.12
621.087	276.12
621.294	257.12
621.501	294.12
621.708	281.12
621.915	277.12
622.122	290.12
622.329	284.12
622.536	273.12
622.743	271.12
622.95	281.12
623.157	271.12
623.364	276.12
623.571	287.12
623.778	282.12
623.985	276.12
624.192	265.12
624.399	263.12
624.606	270.12
624.812	277.12
625.019	251.12
625.226	277.12
625.433	267.12
625.639	259.12
625.846	261.12
626.053	266.12
626.259	253.12
626.466	270.12
626.673	260.12
626.879	254.12
627.086	235.12
627.293	253.12
627.499	237.12
627.706	238.12
627.912	257.12
628.119	251.12
628.325	240.12
628.532	245.12
628.738	242.12
628.945	248.12
629.151	241.12
629.357	240.12
629.564	247.12
629.77	213.12
629.976	229.12
630.183	245.12
630.389	226.12
630.595	237.12
630.802	238.12
631.008	258.12
631.214	224.12
631.42	241.12
631.627	240.12
631.833	237.12
632.039	235.12
632.245	225.12
632.451	215.12
632.657	241.12
632.863	227.12
633.069	221.12
633.275	223.12
633.481	224.12
633.688	239.12
633.893	234.12
634.099	224.12
634.305	216.12
634.511	232.12
634.717	223.12
634.923	221.12
635.129	219.12
635.335	220.12
635.541	215.12
635.747	209.12
635.952	205.12
636.158	219.12
636.364	212.12
636.57	213.12
636.775	227.12
636.981	230.12
637.187	220.12
637.392	204.12
637.598	220.12
637.804	207.12
638.009	209.12
638.215	214.12
638.421	222.12
638.626	215.12
638.832	203.12
639.037	216.12
639.243	212.12
639.448	205.12
639.654	211.12
639.859	208.12
640.065	209.12
640.27	190.12
640.475	208.12
640.681	186.12
640.886	210.12
641.091	195.12
641.297	196.12
641.502	204.12
641.707	189.12
641.913	193.12
642.118	189.12
642.323	206.12
642.528	208.12
642.733	199.12
642.939	188.12
643.144	196.12
643.349	201.12
643.554	194.12
643.759	191.12
643.964	181.12
644.169	203.12
644.374	193.12
644.579	194.12
644.784	195.12
644.989	198.12
645.194	185.12
645.399	191.12
645.604	191.12
645.809	198.12
646.014	185.12
646.219	203.12
646.423	198.12
646.628	195.12
646.833	187.12
647.038	201.12
647.243	179.12
647.447	210.12
647.652	224.12
647.857	197.12
648.062	225.12
648.266	217.12
648.471	212.12
648.676	219.12
648.88	196.12
649.085	191.12
649.289	197.12
649.494	183.12
649.698	193.12
649.903	197.12
650.107	179.12
650.312	176.12
650.516	173.12
650.721	174.12
650.925	168.12
651.13	161.12
651.334	161.12
651.539	166.12
651.743	153.12
651.947	175.12
652.152	163.12
652.356	149.12
652.56	150.12
652.764	157.12
652.969	137.12
653.173	144.12
653.377	149.12
653.581	147.12
653.785	157.12
653.99	156.12
654.194	144.12
654.398	144.12
654.602	148.12
654.806	132.12
655.01	152.12
655.214	146.12
655.418	140.12
655.622	127.12
655.826	129.12
656.03	124.12
656.234	133.12
656.438	143.12
656.642	118.12
656.846	147.12
657.049	123.12
657.253	117.12
657.457	111.12
657.661	120.12
657.865	117.12
658.068	113.12
658.272	99.12
658.476	116.12
658.68	94.12
658.883	103.12
659.087	101.12
659.291	101.12
659.494	88.12
659.698	93.12
659.901	104.12
660.105	95.12
660.309	89.12
660.512	87.12
660.716	93.12
660.919	94.12
661.123	89.12
661.326	85.12
661.53	84.12
661.733	98.12
661.936	83.12
662.14	92.12
662.343	80.12
662.546	70.12
662.75	71.12
662.953	78.12
663.156	83.12
663.36	71.12
663.563	70.12
663.766	91.12
663.969	89.12
664.173	87.12
664.376	91.12
664.579	85.12
664.782	87.12
664.985	78.12
665.188	70.12
665.391	73.12
665.594	77.12
665.797	69.12
666	89.12
666.203	71.12
666.406	68.12
666.609	69.12
666.812	68.12
667.015	69.12
667.218	92.12
667.421	86.12
667.624	72.12
667.827	83.12
668.03	75.12
668.232	73.12
668.435	77.12
668.638	74.12
668.841	78.12
669.043	83.12
669.246	75.12
669.449	73.12
669.651	77.12
669.854	86.12
670.057	70.12
670.259	63.12
670.462	81.12
670.665	85.12
670.867	79.12
671.07	81.12
671.272	80.12
671.475	89.12
671.677	73.12
671.88	79.12
672.082	61.12
672.284	71.12
672.487	91.12
672.689	75.12
672.892	67.12
