Data from NiCl2@0.5M.TitratingCurve.Agarose3%dH2O.NegLispCup.LampEnergy10.LIBS07252019_HRD10591_18-21-28-572.txt Node
Date: Thu Jul 25 18:21:28 EDT 2019
User: cochatt
Spectrometer: HR+D1059
Trigger mode: 1
Integration Time (sec): 1.000000E-1
Scans to average: 1
Electric dark correction enabled: true
Nonlinearity correction enabled: false
Boxcar width: 0
XAxis mode: Wavelengths
Number of Pixels in Spectrum: 2048
>>>>>Begin Spectral Data<<<<<
223.165	-16.25
223.4	-16.25
223.635	-16.25
223.869	-28.25
224.104	-6.25
224.338	-23.25
224.573	-17.25
224.808	-9.25
225.042	-9.25
225.277	-4.25
225.511	-7.25
225.746	1.75
225.98	8.75
226.215	14.75
226.449	11.75
226.683	16.75
226.918	30.75
227.152	36.75
227.387	26.75
227.621	40.75
227.856	51.75
228.09	48.75
228.324	52.75
228.559	50.75
228.793	73.75
229.027	102.75
229.262	98.75
229.496	119.75
229.73	109.75
229.964	130.75
230.199	143.75
230.433	137.75
230.667	116.75
230.901	134.75
231.136	128.75
231.37	131.75
231.604	145.75
231.838	140.75
232.072	132.75
232.306	145.75
232.541	150.75
232.775	146.75
233.009	153.75
233.243	146.75
233.477	146.75
233.711	152.75
233.945	126.75
234.179	142.75
234.413	156.75
234.647	138.75
234.881	145.75
235.115	139.75
235.349	147.75
235.583	146.75
235.817	148.75
236.051	144.75
236.285	150.75
236.519	156.75
236.753	163.75
236.987	158.75
237.221	152.75
237.455	141.75
237.689	156.75
237.922	151.75
238.156	147.75
238.39	170.75
238.624	168.75
238.858	159.75
239.091	163.75
239.325	181.75
239.559	154.75
239.793	177.75
240.027	168.75
240.26	179.75
240.494	178.75
240.728	179.75
240.961	182.75
241.195	174.75
241.429	179.75
241.662	179.75
241.896	211.75
242.13	193.75
242.363	186.75
242.597	186.75
242.83	193.75
243.064	178.75
243.298	188.75
243.531	195.75
243.765	197.75
243.998	215.75
244.232	204.75
244.465	197.75
244.699	191.75
244.932	216.75
245.166	208.75
245.399	216.75
245.633	217.75
245.866	222.75
246.099	212.75
246.333	217.75
246.566	218.75
246.8	204.75
247.033	228.75
247.266	226.75
247.5	220.75
247.733	229.75
247.966	223.75
248.2	238.75
248.433	248.75
248.666	229.75
248.899	238.75
249.133	238.75
249.366	233.75
249.599	224.75
249.832	239.75
250.066	250.75
250.299	244.75
250.532	252.75
250.765	260.75
250.998	260.75
251.231	252.75
251.465	248.75
251.698	251.75
251.931	279.75
252.164	274.75
252.397	262.75
252.63	266.75
252.863	250.75
253.096	279.75
253.329	272.75
253.562	243.75
253.795	270.75
254.028	267.75
254.261	281.75
254.494	276.75
254.727	270.75
254.96	305.75
255.193	280.75
255.426	269.75
255.659	264.75
255.892	288.75
256.124	284.75
256.357	273.75
256.59	299.75
256.823	288.75
257.056	285.75
257.289	294.75
257.521	276.75
257.754	299.75
257.987	304.75
258.22	294.75
258.452	298.75
258.685	299.75
258.918	294.75
259.151	302.75
259.383	306.75
259.616	293.75
259.849	310.75
260.081	309.75
260.314	314.75
260.547	299.75
260.779	325.75
261.012	315.75
261.244	322.75
261.477	321.75
261.71	304.75
261.942	318.75
262.175	330.75
262.407	323.75
262.64	323.75
262.872	328.75
263.105	340.75
263.337	329.75
263.57	329.75
263.802	323.75
264.035	327.75
264.267	346.75
264.499	328.75
264.732	338.75
264.964	346.75
265.197	342.75
265.429	358.75
265.661	346.75
265.894	347.75
266.126	371.75
266.358	343.75
266.591	338.75
266.823	354.75
267.055	340.75
267.287	351.75
267.52	362.75
267.752	358.75
267.984	352.75
268.216	364.75
268.448	372.75
268.681	385.75
268.913	360.75
269.145	363.75
269.377	380.75
269.609	372.75
269.841	356.75
270.073	375.75
270.306	346.75
270.538	367.75
270.77	376.75
271.002	391.75
271.234	380.75
271.466	368.75
271.698	372.75
271.93	383.75
272.162	392.75
272.394	390.75
272.626	361.75
272.858	390.75
273.09	391.75
273.322	382.75
273.553	378.75
273.785	402.75
274.017	391.75
274.249	405.75
274.481	396.75
274.713	413.75
274.945	394.75
275.176	396.75
275.408	411.75
275.64	405.75
275.872	401.75
276.104	419.75
276.335	403.75
276.567	401.75
276.799	427.75
277.031	418.75
277.262	421.75
277.494	420.75
277.726	412.75
277.957	439.75
278.189	434.75
278.421	434.75
278.652	434.75
278.884	427.75
279.115	431.75
279.347	443.75
279.579	442.75
279.81	444.75
280.042	443.75
280.273	443.75
280.505	427.75
280.736	440.75
280.968	444.75
281.199	452.75
281.431	450.75
281.662	454.75
281.894	461.75
282.125	464.75
282.356	470.75
282.588	446.75
282.819	460.75
283.051	466.75
283.282	461.75
283.513	458.75
283.745	471.75
283.976	473.75
284.207	480.75
284.439	477.75
284.67	485.75
284.901	471.75
285.132	487.75
285.364	498.75
285.595	498.75
285.826	496.75
286.057	479.75
286.288	484.75
286.52	501.75
286.751	505.75
286.982	500.75
287.213	482.75
287.444	498.75
287.675	495.75
287.906	513.75
288.138	499.75
288.369	513.75
288.6	505.75
288.831	517.75
289.062	508.75
289.293	505.75
289.524	502.75
289.755	510.75
289.986	513.75
290.217	516.75
290.448	516.75
290.679	503.75
290.91	523.75
291.141	512.75
291.371	510.75
291.602	513.75
291.833	500.75
292.064	523.75
292.295	518.75
292.526	500.75
292.757	522.75
292.987	502.75
293.218	506.75
293.449	525.75
293.68	514.75
293.91	523.75
294.141	514.75
294.372	526.75
294.603	544.75
294.833	537.75
295.064	534.75
295.295	536.75
295.525	525.75
295.756	547.75
295.987	529.75
296.217	540.75
296.448	553.75
296.679	544.75
296.909	574.75
297.14	570.75
297.37	570.75
297.601	583.75
297.831	560.75
298.062	573.75
298.292	562.75
298.523	594.75
298.753	599.75
298.984	563.75
299.214	582.75
299.445	574.75
299.675	589.75
299.905	560.75
300.136	573.75
300.366	602.75
300.597	577.75
300.827	595.75
301.057	602.75
301.288	595.75
301.518	596.75
301.748	600.75
301.979	608.75
302.209	603.75
302.439	596.75
302.669	613.75
302.9	598.75
303.13	608.75
303.36	579.75
303.59	597.75
303.82	608.75
304.051	605.75
304.281	603.75
304.511	599.75
304.741	627.75
304.971	598.75
305.201	606.75
305.431	612.75
305.661	594.75
305.891	581.75
306.121	574.75
306.352	594.75
306.582	586.75
306.812	574.75
307.042	610.75
307.272	592.75
307.502	587.75
307.731	600.75
307.961	587.75
308.191	600.75
308.421	573.75
308.651	571.75
308.881	598.75
309.111	611.75
309.341	579.75
309.571	597.75
309.8	628.75
310.03	595.75
310.26	610.75
310.49	614.75
310.72	568.75
310.949	596.75
311.179	620.75
311.409	604.75
311.639	632.75
311.868	610.75
312.098	588.75
312.328	606.75
312.557	620.75
312.787	616.75
313.017	620.75
313.246	649.75
313.476	642.75
313.706	645.75
313.935	638.75
314.165	616.75
314.394	653.75
314.624	626.75
314.853	640.75
315.083	630.75
315.312	639.75
315.542	650.75
315.771	643.75
316.001	639.75
316.23	651.75
316.46	623.75
316.689	624.75
316.919	625.75
317.148	618.75
317.377	634.75
317.607	625.75
317.836	636.75
318.065	620.75
318.295	609.75
318.524	630.75
318.753	632.75
318.983	648.75
319.212	629.75
319.441	666.75
319.67	638.75
319.9	591.75
320.129	619.75
320.358	623.75
320.587	608.75
320.816	625.75
321.046	616.75
321.275	629.75
321.504	631.75
321.733	650.75
321.962	646.75
322.191	628.75
322.42	652.75
322.649	648.75
322.878	651.75
323.108	622.75
323.337	641.75
323.566	631.75
323.795	661.75
324.024	637.75
324.253	675.75
324.482	649.75
324.71	650.75
324.939	650.75
325.168	660.75
325.397	638.75
325.626	638.75
325.855	678.75
326.084	686.75
326.313	676.75
326.542	679.75
326.77	690.75
326.999	681.75
327.228	698.75
327.457	680.75
327.686	675.75
327.914	678.75
328.143	690.75
328.372	696.75
328.6	698.75
328.829	697.75
329.058	688.75
329.287	680.75
329.515	720.75
329.744	701.75
329.972	693.75
330.201	707.75
330.43	686.75
330.658	711.75
330.887	695.75
331.115	705.75
331.344	741.75
331.572	732.75
331.801	742.75
332.03	773.75
332.258	783.75
332.486	804.75
332.715	822.75
332.943	872.75
333.172	906.75
333.4	907.75
333.629	932.75
333.857	938.75
334.085	917.75
334.314	909.75
334.542	927.75
334.771	914.75
334.999	887.75
335.227	889.75
335.455	874.75
335.684	878.75
335.912	857.75
336.14	855.75
336.369	843.75
336.597	822.75
336.825	815.75
337.053	814.75
337.281	829.75
337.51	806.75
337.738	796.75
337.966	800.75
338.194	798.75
338.422	778.75
338.65	769.75
338.878	752.75
339.106	760.75
339.334	778.75
339.562	760.75
339.79	742.75
340.018	733.75
340.246	705.75
340.474	716.75
340.702	751.75
340.93	739.75
341.158	746.75
341.386	757.75
341.614	734.75
341.842	780.75
342.07	724.75
342.298	736.75
342.526	735.75
342.754	730.75
342.981	719.75
343.209	721.75
343.437	774.75
343.665	832.75
343.893	893.75
344.12	890.75
344.348	854.75
344.576	822.75
344.804	797.75
345.031	772.75
345.259	724.75
345.487	740.75
345.714	719.75
345.942	719.75
346.17	750.75
346.397	727.75
346.625	716.75
346.853	686.75
347.08	695.75
347.308	706.75
347.535	710.75
347.763	688.75
347.99	702.75
348.218	698.75
348.445	698.75
348.673	677.75
348.9	687.75
349.128	706.75
349.355	699.75
349.583	717.75
349.81	681.75
350.037	664.75
350.265	664.75
350.492	662.75
350.72	668.75
350.947	688.75
351.174	661.75
351.402	704.75
351.629	656.75
351.856	684.75
352.083	670.75
352.311	682.75
352.538	667.75
352.765	706.75
352.992	672.75
353.22	667.75
353.447	641.75
353.674	660.75
353.901	668.75
354.128	652.75
354.355	620.75
354.583	634.75
354.81	671.75
355.037	669.75
355.264	666.75
355.491	681.75
355.718	693.75
355.945	667.75
356.172	683.75
356.399	672.75
356.626	668.75
356.853	702.75
357.08	691.75
357.307	689.75
357.534	662.75
357.761	664.75
357.988	658.75
358.215	642.75
358.441	666.75
358.668	638.75
358.895	659.75
359.122	670.75
359.349	661.75
359.576	653.75
359.802	710.75
360.029	678.75
360.256	684.75
360.483	660.75
360.709	673.75
360.936	670.75
361.163	671.75
361.39	665.75
361.616	651.75
361.843	682.75
362.07	676.75
362.296	655.75
362.523	672.75
362.749	652.75
362.976	658.75
363.203	657.75
363.429	673.75
363.656	651.75
363.882	656.75
364.109	668.75
364.335	638.75
364.562	666.75
364.788	648.75
365.015	653.75
365.241	651.75
365.468	653.75
365.694	640.75
365.92	651.75
366.147	658.75
366.373	654.75
366.599	664.75
366.826	660.75
367.052	646.75
367.278	666.75
367.505	663.75
367.731	675.75
367.957	684.75
368.184	653.75
368.41	640.75
368.636	650.75
368.862	660.75
369.089	659.75
369.315	699.75
369.541	671.75
369.767	702.75
369.993	664.75
370.219	694.75
370.445	655.75
370.672	669.75
370.898	699.75
371.124	688.75
371.35	702.75
371.576	714.75
371.802	708.75
372.028	703.75
372.254	696.75
372.48	702.75
372.706	737.75
372.932	750.75
373.158	722.75
373.384	744.75
373.61	715.75
373.835	672.75
374.061	721.75
374.287	737.75
374.513	724.75
374.739	750.75
374.965	770.75
375.191	772.75
375.416	799.75
375.642	770.75
375.868	740.75
376.094	750.75
376.319	723.75
376.545	707.75
376.771	714.75
376.997	709.75
377.222	678.75
377.448	708.75
377.674	718.75
377.899	686.75
378.125	697.75
378.35	725.75
378.576	679.75
378.802	684.75
379.027	697.75
379.253	695.75
379.478	694.75
379.704	694.75
379.929	698.75
380.155	684.75
380.38	717.75
380.606	694.75
380.831	693.75
381.057	716.75
381.282	703.75
381.507	688.75
381.733	707.75
381.958	722.75
382.184	729.75
382.409	704.75
382.634	710.75
382.86	719.75
383.085	733.75
383.31	763.75
383.535	772.75
383.761	804.75
383.986	818.75
384.211	815.75
384.436	806.75
384.662	831.75
384.887	866.75
385.112	834.75
385.337	840.75
385.562	846.75
385.787	871.75
386.013	880.75
386.238	850.75
386.463	853.75
386.688	841.75
386.913	860.75
387.138	845.75
387.363	845.75
387.588	796.75
387.813	828.75
388.038	836.75
388.263	871.75
388.488	849.75
388.713	831.75
388.938	794.75
389.163	828.75
389.387	820.75
389.612	819.75
389.837	800.75
390.062	839.75
390.287	818.75
390.512	835.75
390.736	842.75
390.961	868.75
391.186	863.75
391.411	915.75
391.636	909.75
391.86	981.75
392.085	961.75
392.31	918.75
392.534	914.75
392.759	929.75
392.984	927.75
393.208	897.75
393.433	882.75
393.658	886.75
393.882	893.75
394.107	937.75
394.331	907.75
394.556	882.75
394.78	928.75
395.005	924.75
395.229	913.75
395.454	930.75
395.678	971.75
395.903	950.75
396.127	936.75
396.352	886.75
396.576	923.75
396.801	918.75
397.025	896.75
397.249	968.75
397.474	961.75
397.698	962.75
397.922	957.75
398.147	947.75
398.371	972.75
398.595	1011.75
398.82	1060.75
399.044	1162.75
399.268	1246.75
399.492	1464.75
399.717	1586.75
399.941	1549.75
400.165	1451.75
400.389	1298.75
400.613	1178.75
400.837	1101.75
401.062	1120.75
401.286	1086.75
401.51	1056.75
401.734	1094.75
401.958	1080.75
402.182	1084.75
402.406	1104.75
402.63	1134.75
402.854	1142.75
403.078	1154.75
403.302	1185.75
403.526	1234.75
403.75	1214.75
403.974	1228.75
404.198	1212.75
404.422	1222.75
404.645	1192.75
404.869	1186.75
405.093	1224.75
405.317	1183.75
405.541	1177.75
405.765	1188.75
405.988	1125.75
406.212	1168.75
406.436	1164.75
406.66	1226.75
406.883	1186.75
407.107	1268.75
407.331	1336.75
407.555	1387.75
407.778	1380.75
408.002	1331.75
408.226	1322.75
408.449	1291.75
408.673	1259.75
408.896	1193.75
409.12	1210.75
409.344	1202.75
409.567	1179.75
409.791	1199.75
410.014	1190.75
410.238	1163.75
410.461	1196.75
410.685	1143.75
410.908	1168.75
411.132	1118.75
411.355	1108.75
411.578	1125.75
411.802	1100.75
412.025	1114.75
412.249	1141.75
412.472	1141.75
412.695	1115.75
412.919	1088.75
413.142	1112.75
413.365	1073.75
413.589	1098.75
413.812	1058.75
414.035	1028.75
414.258	1038.75
414.482	1084.75
414.705	1060.75
414.928	1095.75
415.151	1102.75
415.374	1097.75
415.597	1079.75
415.821	1044.75
416.044	1046.75
416.267	1046.75
416.49	1037.75
416.713	1066.75
416.936	1048.75
417.159	1049.75
417.382	1037.75
417.605	1023.75
417.828	1055.75
418.051	1072.75
418.274	1050.75
418.497	1066.75
418.72	1104.75
418.943	1095.75
419.166	1145.75
419.389	1212.75
419.611	1221.75
419.834	1146.75
420.057	1102.75
420.28	1088.75
420.503	1065.75
420.726	1051.75
420.948	1042.75
421.171	1049.75
421.394	1064.75
421.617	1076.75
421.839	1071.75
422.062	1076.75
422.285	1065.75
422.507	1100.75
422.73	1085.75
422.953	1094.75
423.175	1087.75
423.398	1103.75
423.621	1060.75
423.843	1140.75
424.066	1144.75
424.288	1118.75
424.511	1106.75
424.733	1091.75
424.956	1087.75
425.178	1080.75
425.401	1094.75
425.623	1056.75
425.846	1028.75
426.068	1040.75
426.291	1022.75
426.513	1012.75
426.735	979.75
426.958	994.75
427.18	978.75
427.402	976.75
427.625	980.75
427.847	986.75
428.069	975.75
428.292	958.75
428.514	956.75
428.736	948.75
428.958	976.75
429.181	951.75
429.403	938.75
429.625	935.75
429.847	957.75
430.069	938.75
430.292	922.75
430.514	872.75
430.736	919.75
430.958	939.75
431.18	922.75
431.402	937.75
431.624	926.75
431.846	943.75
432.068	964.75
432.29	973.75
432.512	958.75
432.734	966.75
432.956	959.75
433.178	949.75
433.4	966.75
433.622	961.75
433.844	946.75
434.066	969.75
434.287	967.75
434.509	978.75
434.731	1034.75
434.953	1078.75
435.175	1080.75
435.397	1070.75
435.618	985.75
435.84	983.75
436.062	995.75
436.284	985.75
436.505	937.75
436.727	949.75
436.949	956.75
437.17	940.75
437.392	943.75
437.614	947.75
437.835	891.75
438.057	903.75
438.278	909.75
438.5	906.75
438.721	910.75
438.943	937.75
439.165	911.75
439.386	954.75
439.608	958.75
439.829	979.75
440.05	945.75
440.272	990.75
440.493	975.75
440.715	959.75
440.936	982.75
441.158	1009.75
441.379	1036.75
441.6	1070.75
441.822	1072.75
442.043	1066.75
442.264	1060.75
442.486	1033.75
442.707	1036.75
442.928	1063.75
443.149	1064.75
443.371	1043.75
443.592	1066.75
443.813	1104.75
444.034	1103.75
444.255	1116.75
444.476	1156.75
444.698	1214.75
444.919	1298.75
445.14	1321.75
445.361	1242.75
445.582	1122.75
445.803	1060.75
446.024	1041.75
446.245	998.75
446.466	1002.75
446.687	988.75
446.908	983.75
447.129	930.75
447.35	955.75
447.571	939.75
447.792	936.75
448.013	924.75
448.234	916.75
448.455	886.75
448.675	884.75
448.896	871.75
449.117	864.75
449.338	850.75
449.559	884.75
449.779	865.75
450	886.75
450.221	896.75
450.442	905.75
450.662	894.75
450.883	896.75
451.104	912.75
451.324	888.75
451.545	880.75
451.766	907.75
451.986	873.75
452.207	878.75
452.428	866.75
452.648	885.75
452.869	889.75
453.089	855.75
453.31	880.75
453.53	875.75
453.751	848.75
453.971	847.75
454.192	855.75
454.412	822.75
454.633	832.75
454.853	830.75
455.073	839.75
455.294	849.75
455.514	820.75
455.734	811.75
455.955	812.75
456.175	818.75
456.395	844.75
456.616	814.75
456.836	840.75
457.056	825.75
457.276	832.75
457.497	835.75
457.717	822.75
457.937	845.75
458.157	844.75
458.377	843.75
458.598	856.75
458.818	889.75
459.038	906.75
459.258	929.75
459.478	974.75
459.698	977.75
459.918	1033.75
460.138	1044.75
460.358	1082.75
460.578	1125.75
460.798	1128.75
461.018	1140.75
461.238	1114.75
461.458	1136.75
461.678	1113.75
461.898	1154.75
462.118	1144.75
462.338	1225.75
462.558	1218.75
462.777	1297.75
462.997	1392.75
463.217	1544.75
463.437	1518.75
463.657	1407.75
463.876	1331.75
464.096	1326.75
464.316	1340.75
464.536	1350.75
464.755	1289.75
464.975	1275.75
465.195	1185.75
465.414	1088.75
465.634	1083.75
465.854	1011.75
466.073	993.75
466.293	986.75
466.512	946.75
466.732	920.75
466.951	925.75
467.171	931.75
467.391	922.75
467.61	936.75
467.829	913.75
468.049	897.75
468.268	907.75
468.488	898.75
468.707	884.75
468.927	914.75
469.146	886.75
469.365	919.75
469.585	918.75
469.804	931.75
470.023	947.75
470.243	948.75
470.462	932.75
470.681	967.75
470.901	967.75
471.12	960.75
471.339	956.75
471.558	921.75
471.777	943.75
471.997	880.75
472.216	898.75
472.435	893.75
472.654	904.75
472.873	857.75
473.092	889.75
473.311	864.75
473.53	860.75
473.749	867.75
473.968	873.75
474.187	881.75
474.406	873.75
474.625	869.75
474.844	871.75
475.063	859.75
475.282	882.75
475.501	875.75
475.72	886.75
475.939	861.75
476.158	908.75
476.377	934.75
476.596	930.75
476.814	940.75
477.033	915.75
477.252	932.75
477.471	931.75
477.69	1024.75
477.908	983.75
478.127	1026.75
478.346	1025.75
478.564	1044.75
478.783	1036.75
479.002	1113.75
479.22	1083.75
479.439	1079.75
479.658	1079.75
479.876	1066.75
480.095	1088.75
480.313	1138.75
480.532	1195.75
480.751	1168.75
480.969	1110.75
481.188	1067.75
481.406	1057.75
481.624	1041.75
481.843	1004.75
482.061	989.75
482.28	972.75
482.498	979.75
482.717	975.75
482.935	979.75
483.153	999.75
483.372	981.75
483.59	1000.75
483.808	1022.75
484.027	1016.75
484.245	1029.75
484.463	994.75
484.681	1016.75
484.9	1050.75
485.118	1041.75
485.336	997.75
485.554	1025.75
485.772	1056.75
485.99	1017.75
486.209	1058.75
486.427	1031.75
486.645	1026.75
486.863	1046.75
487.081	1054.75
487.299	1049.75
487.517	1052.75
487.735	1051.75
487.953	1036.75
488.171	1074.75
488.389	1048.75
488.607	1020.75
488.825	1036.75
489.043	1020.75
489.261	1018.75
489.479	1044.75
489.696	1041.75
489.914	1057.75
490.132	1063.75
490.35	1073.75
490.568	1042.75
490.786	1047.75
491.003	1052.75
491.221	1070.75
491.439	1036.75
491.657	1064.75
491.874	1065.75
492.092	1073.75
492.31	1083.75
492.527	1106.75
492.745	1070.75
492.963	1080.75
493.18	1097.75
493.398	1074.75
493.615	1092.75
493.833	1082.75
494.05	1114.75
494.268	1128.75
494.485	1089.75
494.703	1089.75
494.92	1090.75
495.138	1140.75
495.355	1115.75
495.573	1129.75
495.79	1126.75
496.008	1126.75
496.225	1121.75
496.442	1148.75
496.66	1163.75
496.877	1153.75
497.094	1207.75
497.312	1215.75
497.529	1241.75
497.746	1288.75
497.963	1321.75
498.181	1364.75
498.398	1442.75
498.615	1512.75
498.832	1659.75
499.049	1714.75
499.267	1846.75
499.484	2054.75
499.701	2265.75
499.918	2462.75
500.135	2844.75
500.352	3207.75
500.569	3364.75
500.786	3279.75
501.003	3022.75
501.22	2724.75
501.437	2452.75
501.654	2160.75
501.871	1966.75
502.088	1826.75
502.305	1684.75
502.522	1592.75
502.739	1526.75
502.956	1444.75
503.172	1392.75
503.389	1336.75
503.606	1323.75
503.823	1290.75
504.04	1305.75
504.256	1258.75
504.473	1301.75
504.69	1371.75
504.907	1311.75
505.123	1209.75
505.34	1170.75
505.557	1105.75
505.773	1105.75
505.99	1071.75
506.207	1022.75
506.423	1013.75
506.64	1015.75
506.856	1011.75
507.073	980.75
507.289	953.75
507.506	944.75
507.722	962.75
507.939	961.75
508.155	953.75
508.372	931.75
508.588	902.75
508.805	905.75
509.021	945.75
509.238	935.75
509.454	909.75
509.67	900.75
509.887	891.75
510.103	891.75
510.319	893.75
510.536	912.75
510.752	874.75
510.968	883.75
511.184	878.75
511.401	879.75
511.617	869.75
511.833	882.75
512.049	863.75
512.265	869.75
512.481	882.75
512.698	845.75
512.914	874.75
513.13	879.75
513.346	880.75
513.562	880.75
513.778	868.75
513.994	887.75
514.21	906.75
514.426	890.75
514.642	922.75
514.858	933.75
515.074	930.75
515.29	914.75
515.506	927.75
515.721	919.75
515.937	958.75
516.153	998.75
516.369	975.75
516.585	1015.75
516.801	1048.75
517.016	1082.75
517.232	1146.75
517.448	1190.75
517.664	1256.75
517.879	1234.75
518.095	1251.75
518.311	1232.75
518.527	1187.75
518.742	1101.75
518.958	1065.75
519.173	1041.75
519.389	984.75
519.605	986.75
519.82	959.75
520.036	921.75
520.251	898.75
520.467	863.75
520.682	888.75
520.898	898.75
521.113	855.75
521.329	875.75
521.544	868.75
521.76	866.75
521.975	867.75
522.19	827.75
522.406	842.75
522.621	838.75
522.836	836.75
523.052	835.75
523.267	807.75
523.482	798.75
523.698	832.75
523.913	832.75
524.128	818.75
524.343	811.75
524.559	825.75
524.774	803.75
524.989	842.75
525.204	800.75
525.419	816.75
525.634	822.75
525.849	807.75
526.064	785.75
526.28	801.75
526.495	776.75
526.71	797.75
526.925	792.75
527.14	786.75
527.355	803.75
527.57	785.75
527.785	778.75
527.999	784.75
528.214	793.75
528.429	790.75
528.644	759.75
528.859	780.75
529.074	784.75
529.289	794.75
529.503	811.75
529.718	815.75
529.933	812.75
530.148	787.75
530.363	793.75
530.577	785.75
530.792	774.75
531.007	763.75
531.221	798.75
531.436	796.75
531.651	786.75
531.865	774.75
532.08	802.75
532.295	805.75
532.509	783.75
532.724	780.75
532.938	757.75
533.153	777.75
533.367	788.75
533.582	781.75
533.796	775.75
534.011	776.75
534.225	785.75
534.44	758.75
534.654	757.75
534.868	754.75
535.083	771.75
535.297	755.75
535.511	743.75
535.726	768.75
535.94	752.75
536.154	741.75
536.369	712.75
536.583	733.75
536.797	720.75
537.011	734.75
537.225	703.75
537.44	743.75
537.654	743.75
537.868	730.75
538.082	726.75
538.296	722.75
538.51	734.75
538.724	706.75
538.938	698.75
539.153	721.75
539.367	722.75
539.581	715.75
539.795	702.75
540.009	691.75
540.222	682.75
540.436	690.75
540.65	727.75
540.864	714.75
541.078	703.75
541.292	724.75
541.506	715.75
541.72	694.75
541.934	734.75
542.147	713.75
542.361	712.75
542.575	716.75
542.789	700.75
543.002	696.75
543.216	707.75
543.43	700.75
543.644	691.75
543.857	678.75
544.071	710.75
544.285	742.75
544.498	707.75
544.712	715.75
544.925	746.75
545.139	718.75
545.352	730.75
545.566	715.75
545.779	738.75
545.993	743.75
546.206	723.75
546.42	740.75
546.633	739.75
546.847	749.75
547.06	739.75
547.274	707.75
547.487	695.75
547.7	704.75
547.914	737.75
548.127	724.75
548.34	713.75
548.554	745.75
548.767	745.75
548.98	720.75
549.193	720.75
549.407	741.75
549.62	752.75
549.833	758.75
550.046	762.75
550.259	727.75
550.473	713.75
550.686	703.75
550.899	722.75
551.112	715.75
551.325	710.75
551.538	711.75
551.751	696.75
551.964	722.75
552.177	728.75
552.39	715.75
552.603	746.75
552.816	778.75
553.029	756.75
553.242	805.75
553.455	800.75
553.667	790.75
553.88	798.75
554.093	762.75
554.306	752.75
554.519	742.75
554.732	716.75
554.944	698.75
555.157	705.75
555.37	686.75
555.583	644.75
555.795	672.75
556.008	635.75
556.221	625.75
556.433	654.75
556.646	657.75
556.859	627.75
557.071	622.75
557.284	644.75
557.496	632.75
557.709	640.75
557.921	611.75
558.134	619.75
558.346	628.75
558.559	600.75
558.771	614.75
558.984	605.75
559.196	612.75
559.409	625.75
559.621	579.75
559.833	596.75
560.046	580.75
560.258	587.75
560.47	581.75
560.683	603.75
560.895	606.75
561.107	598.75
561.32	609.75
561.532	578.75
561.744	586.75
561.956	588.75
562.168	610.75
562.381	619.75
562.593	594.75
562.805	590.75
563.017	592.75
563.229	604.75
563.441	584.75
563.653	598.75
563.865	610.75
564.077	618.75
564.289	630.75
564.501	626.75
564.713	634.75
564.925	653.75
565.137	670.75
565.349	651.75
565.561	682.75
565.773	729.75
565.985	743.75
566.197	771.75
566.408	818.75
566.62	901.75
566.832	948.75
567.044	979.75
567.255	956.75
567.467	1011.75
567.679	1064.75
567.891	1098.75
568.102	1150.75
568.314	1105.75
568.526	998.75
568.737	883.75
568.949	830.75
569.161	743.75
569.372	702.75
569.584	660.75
569.795	657.75
570.007	631.75
570.218	619.75
570.43	609.75
570.641	600.75
570.853	626.75
571.064	614.75
571.276	626.75
571.487	597.75
571.698	577.75
571.91	550.75
572.121	548.75
572.333	533.75
572.544	522.75
572.755	522.75
572.966	527.75
573.178	519.75
573.389	497.75
573.6	485.75
573.811	498.75
574.023	510.75
574.234	492.75
574.445	499.75
574.656	491.75
574.867	477.75
575.078	484.75
575.289	495.75
575.501	482.75
575.712	470.75
575.923	452.75
576.134	474.75
576.345	470.75
576.556	475.75
576.767	462.75
576.978	474.75
577.188	456.75
577.399	464.75
577.61	463.75
577.821	428.75
578.032	408.75
578.243	441.75
578.454	431.75
578.665	436.75
578.875	445.75
579.086	422.75
579.297	442.75
579.508	441.75
579.718	414.75
579.929	423.75
580.14	411.75
580.35	414.75
580.561	421.75
580.772	426.75
580.982	409.75
581.193	410.75
581.403	418.75
581.614	409.75
581.825	420.75
582.035	434.75
582.246	391.75
582.456	402.75
582.667	392.75
582.877	416.75
583.087	406.75
583.298	388.75
583.508	422.75
583.719	400.75
583.929	402.75
584.139	410.75
584.35	385.75
584.56	394.75
584.77	383.75
584.981	393.75
585.191	392.75
585.401	391.75
585.611	380.75
585.821	392.75
586.032	416.75
586.242	394.75
586.452	390.75
586.662	386.75
586.872	387.75
587.082	388.75
587.292	384.75
587.502	371.75
587.713	404.75
587.923	395.75
588.133	390.75
588.343	371.75
588.553	386.75
588.762	406.75
588.972	402.75
589.182	426.75
589.392	442.75
589.602	412.75
589.812	437.75
590.022	431.75
590.232	393.75
590.441	403.75
590.651	412.75
590.861	401.75
591.071	410.75
591.281	420.75
591.49	406.75
591.7	431.75
591.91	436.75
592.119	432.75
592.329	434.75
592.539	448.75
592.748	479.75
592.958	486.75
593.167	485.75
593.377	482.75
593.587	481.75
593.796	493.75
594.006	515.75
594.215	515.75
594.424	508.75
594.634	476.75
594.843	473.75
595.053	456.75
595.262	452.75
595.472	424.75
595.681	408.75
595.89	384.75
596.1	389.75
596.309	387.75
596.518	370.75
596.727	380.75
596.937	357.75
597.146	366.75
597.355	379.75
597.564	356.75
597.774	342.75
597.983	345.75
598.192	354.75
598.401	340.75
598.61	349.75
598.819	342.75
599.028	337.75
599.237	333.75
599.446	359.75
599.655	322.75
599.864	328.75
600.073	335.75
600.282	323.75
600.491	334.75
600.7	322.75
600.909	324.75
601.118	324.75
601.327	313.75
601.536	312.75
601.745	322.75
601.953	326.75
602.162	333.75
602.371	335.75
602.58	325.75
602.789	321.75
602.997	314.75
603.206	310.75
603.415	318.75
603.623	324.75
603.832	307.75
604.041	329.75
604.249	335.75
604.458	325.75
604.666	298.75
604.875	276.75
605.084	291.75
605.292	313.75
605.501	310.75
605.709	328.75
605.918	316.75
606.126	292.75
606.334	306.75
606.543	298.75
606.751	288.75
606.96	306.75
607.168	302.75
607.376	308.75
607.585	292.75
607.793	283.75
608.001	308.75
608.21	300.75
608.418	298.75
608.626	289.75
608.834	287.75
609.043	300.75
609.251	290.75
609.459	275.75
609.667	295.75
609.875	295.75
610.083	278.75
610.291	276.75
610.499	299.75
610.707	274.75
610.916	281.75
611.124	287.75
611.332	281.75
611.54	287.75
611.748	273.75
611.955	290.75
612.163	306.75
612.371	290.75
612.579	288.75
612.787	262.75
612.995	274.75
613.203	273.75
613.411	286.75
613.618	282.75
613.826	284.75
614.034	283.75
614.242	264.75
614.449	274.75
614.657	293.75
614.865	262.75
615.072	283.75
615.28	268.75
615.488	275.75
615.695	297.75
615.903	286.75
616.111	279.75
616.318	276.75
616.526	257.75
616.733	269.75
616.941	288.75
617.148	294.75
617.356	282.75
617.563	262.75
617.771	269.75
617.978	295.75
618.185	284.75
618.393	272.75
618.6	286.75
618.807	286.75
619.015	291.75
619.222	269.75
619.429	273.75
619.637	279.75
619.844	279.75
620.051	281.75
620.258	275.75
620.466	279.75
620.673	262.75
620.88	262.75
621.087	264.75
621.294	236.75
621.501	259.75
621.708	266.75
621.915	239.75
622.122	249.75
622.329	259.75
622.536	270.75
622.743	253.75
622.95	254.75
623.157	257.75
623.364	246.75
623.571	242.75
623.778	254.75
623.985	242.75
624.192	241.75
624.399	247.75
624.606	240.75
624.812	239.75
625.019	236.75
625.226	247.75
625.433	238.75
625.639	220.75
625.846	240.75
626.053	244.75
626.259	238.75
626.466	240.75
626.673	234.75
626.879	233.75
627.086	223.75
627.293	241.75
627.499	233.75
627.706	248.75
627.912	240.75
628.119	230.75
628.325	246.75
628.532	249.75
628.738	223.75
628.945	229.75
629.151	219.75
629.357	229.75
629.564	226.75
629.77	239.75
629.976	236.75
630.183	227.75
630.389	211.75
630.595	219.75
630.802	231.75
631.008	225.75
631.214	226.75
631.42	224.75
631.627	231.75
631.833	216.75
632.039	208.75
632.245	217.75
632.451	227.75
632.657	214.75
632.863	217.75
633.069	223.75
633.275	226.75
633.481	187.75
633.688	211.75
633.893	202.75
634.099	186.75
634.305	196.75
634.511	194.75
634.717	202.75
634.923	204.75
635.129	203.75
635.335	210.75
635.541	203.75
635.747	224.75
635.952	216.75
636.158	191.75
636.364	206.75
636.57	197.75
636.775	206.75
636.981	202.75
637.187	203.75
637.392	191.75
637.598	199.75
637.804	198.75
638.009	203.75
638.215	199.75
638.421	191.75
638.626	201.75
638.832	187.75
639.037	193.75
639.243	187.75
639.448	198.75
639.654	190.75
639.859	187.75
640.065	203.75
640.27	193.75
640.475	206.75
640.681	203.75
640.886	190.75
641.091	192.75
641.297	190.75
641.502	185.75
641.707	182.75
641.913	183.75
642.118	190.75
642.323	164.75
642.528	174.75
642.733	179.75
642.939	191.75
643.144	175.75
643.349	172.75
643.554	186.75
643.759	201.75
643.964	181.75
644.169	187.75
644.374	195.75
644.579	178.75
644.784	168.75
644.989	182.75
645.194	170.75
645.399	187.75
645.604	183.75
645.809	181.75
646.014	166.75
646.219	184.75
646.423	179.75
646.628	197.75
646.833	190.75
647.038	191.75
647.243	188.75
647.447	176.75
647.652	179.75
647.857	184.75
648.062	183.75
648.266	188.75
648.471	211.75
648.676	185.75
648.88	189.75
649.085	189.75
649.289	189.75
649.494	174.75
649.698	190.75
649.903	176.75
650.107	160.75
650.312	176.75
650.516	168.75
650.721	181.75
650.925	178.75
651.13	178.75
651.334	170.75
651.539	172.75
651.743	171.75
651.947	158.75
652.152	167.75
652.356	157.75
652.56	160.75
652.764	160.75
652.969	169.75
653.173	161.75
653.377	153.75
653.581	139.75
653.785	140.75
653.99	150.75
654.194	156.75
654.398	149.75
654.602	160.75
654.806	136.75
655.01	133.75
655.214	139.75
655.418	142.75
655.622	138.75
655.826	152.75
656.03	136.75
656.234	140.75
656.438	135.75
656.642	165.75
656.846	129.75
657.049	124.75
657.253	128.75
657.457	125.75
657.661	134.75
657.865	124.75
658.068	130.75
658.272	100.75
658.476	112.75
658.68	117.75
658.883	122.75
659.087	110.75
659.291	105.75
659.494	114.75
659.698	104.75
659.901	96.75
660.105	98.75
660.309	95.75
660.512	106.75
660.716	92.75
660.919	103.75
661.123	102.75
661.326	80.75
661.53	96.75
661.733	98.75
661.936	94.75
662.14	91.75
662.343	95.75
662.546	101.75
662.75	84.75
662.953	89.75
663.156	90.75
663.36	84.75
663.563	96.75
663.766	74.75
663.969	71.75
664.173	90.75
664.376	77.75
664.579	74.75
664.782	76.75
664.985	79.75
665.188	75.75
665.391	89.75
665.594	82.75
665.797	88.75
666	68.75
666.203	68.75
666.406	69.75
666.609	65.75
666.812	73.75
667.015	89.75
667.218	81.75
667.421	79.75
667.624	80.75
667.827	77.75
668.03	77.75
668.232	76.75
668.435	70.75
668.638	85.75
668.841	68.75
669.043	89.75
669.246	87.75
669.449	74.75
669.651	78.75
669.854	78.75
670.057	83.75
670.259	86.75
670.462	79.75
670.665	79.75
670.867	73.75
671.07	83.75
671.272	72.75
671.475	84.75
671.677	83.75
671.88	73.75
672.082	76.75
672.284	77.75
672.487	64.75
672.689	92.75
672.892	89.75
