Data from NiCl2@0.0625M.TitratingCurve.Agarose3%dH2O.NegLispCup.LampEnergy10.LIBS07252019_HRD10591_18-33-17-576.txt Node
Date: Thu Jul 25 18:33:17 EDT 2019
User: cochatt
Spectrometer: HR+D1059
Trigger mode: 1
Integration Time (sec): 1.000000E-1
Scans to average: 1
Electric dark correction enabled: true
Nonlinearity correction enabled: false
Boxcar width: 0
XAxis mode: Wavelengths
Number of Pixels in Spectrum: 2048
>>>>>Begin Spectral Data<<<<<
223.165	-23.62
223.4	-23.62
223.635	-23.62
223.869	-22.62
224.104	-10.62
224.338	-13.62
224.573	-12.62
224.808	-21.62
225.042	-6.62
225.277	-13.62
225.511	-2.62
225.746	2.38
225.98	-1.62
226.215	14.38
226.449	28.38
226.683	20.38
226.918	25.38
227.152	38.38
227.387	29.38
227.621	34.38
227.856	34.38
228.09	40.38
228.324	53.38
228.559	54.38
228.793	84.38
229.027	150.38
229.262	159.38
229.496	153.38
229.73	161.38
229.964	175.38
230.199	202.38
230.433	190.38
230.667	192.38
230.901	184.38
231.136	193.38
231.37	183.38
231.604	201.38
231.838	205.38
232.072	211.38
232.306	188.38
232.541	194.38
232.775	195.38
233.009	218.38
233.243	214.38
233.477	227.38
233.711	207.38
233.945	214.38
234.179	211.38
234.413	206.38
234.647	215.38
234.881	233.38
235.115	232.38
235.349	208.38
235.583	228.38
235.817	227.38
236.051	213.38
236.285	221.38
236.519	241.38
236.753	241.38
236.987	231.38
237.221	232.38
237.455	233.38
237.689	245.38
237.922	253.38
238.156	252.38
238.39	257.38
238.624	256.38
238.858	246.38
239.091	263.38
239.325	259.38
239.559	280.38
239.793	274.38
240.027	269.38
240.26	277.38
240.494	279.38
240.728	287.38
240.961	281.38
241.195	270.38
241.429	278.38
241.662	308.38
241.896	289.38
242.13	305.38
242.363	302.38
242.597	314.38
242.83	316.38
243.064	305.38
243.298	315.38
243.531	313.38
243.765	326.38
243.998	326.38
244.232	337.38
244.465	347.38
244.699	323.38
244.932	352.38
245.166	342.38
245.399	329.38
245.633	336.38
245.866	348.38
246.099	343.38
246.333	334.38
246.566	343.38
246.8	349.38
247.033	365.38
247.266	379.38
247.5	365.38
247.733	366.38
247.966	374.38
248.2	389.38
248.433	371.38
248.666	386.38
248.899	395.38
249.133	406.38
249.366	405.38
249.599	405.38
249.832	396.38
250.066	394.38
250.299	400.38
250.532	420.38
250.765	416.38
250.998	410.38
251.231	424.38
251.465	427.38
251.698	419.38
251.931	434.38
252.164	424.38
252.397	441.38
252.63	445.38
252.863	450.38
253.096	448.38
253.329	463.38
253.562	438.38
253.795	441.38
254.028	477.38
254.261	462.38
254.494	433.38
254.727	474.38
254.96	446.38
255.193	469.38
255.426	471.38
255.659	476.38
255.892	470.38
256.124	488.38
256.357	496.38
256.59	479.38
256.823	493.38
257.056	488.38
257.289	507.38
257.521	504.38
257.754	495.38
257.987	506.38
258.22	522.38
258.452	501.38
258.685	504.38
258.918	515.38
259.151	504.38
259.383	527.38
259.616	512.38
259.849	542.38
260.081	530.38
260.314	559.38
260.547	534.38
260.779	527.38
261.012	542.38
261.244	547.38
261.477	550.38
261.71	557.38
261.942	554.38
262.175	563.38
262.407	551.38
262.64	545.38
262.872	542.38
263.105	582.38
263.337	565.38
263.57	564.38
263.802	569.38
264.035	568.38
264.267	568.38
264.499	573.38
264.732	572.38
264.964	596.38
265.197	573.38
265.429	565.38
265.661	576.38
265.894	606.38
266.126	600.38
266.358	603.38
266.591	621.38
266.823	627.38
267.055	612.38
267.287	618.38
267.52	615.38
267.752	602.38
267.984	620.38
268.216	625.38
268.448	640.38
268.681	629.38
268.913	634.38
269.145	631.38
269.377	642.38
269.609	650.38
269.841	645.38
270.073	645.38
270.306	652.38
270.538	639.38
270.77	659.38
271.002	673.38
271.234	665.38
271.466	655.38
271.698	655.38
271.93	650.38
272.162	687.38
272.394	674.38
272.626	657.38
272.858	657.38
273.09	698.38
273.322	710.38
273.553	685.38
273.785	712.38
274.017	696.38
274.249	698.38
274.481	695.38
274.713	715.38
274.945	707.38
275.176	735.38
275.408	752.38
275.64	719.38
275.872	708.38
276.104	735.38
276.335	731.38
276.567	723.38
276.799	718.38
277.031	754.38
277.262	737.38
277.494	734.38
277.726	747.38
277.957	770.38
278.189	727.38
278.421	760.38
278.652	756.38
278.884	741.38
279.115	798.38
279.347	772.38
279.579	791.38
279.81	762.38
280.042	784.38
280.273	828.38
280.505	794.38
280.736	794.38
280.968	811.38
281.199	805.38
281.431	820.38
281.662	815.38
281.894	809.38
282.125	849.38
282.356	808.38
282.588	825.38
282.819	797.38
283.051	833.38
283.282	805.38
283.513	830.38
283.745	850.38
283.976	825.38
284.207	840.38
284.439	848.38
284.67	872.38
284.901	860.38
285.132	856.38
285.364	864.38
285.595	838.38
285.826	849.38
286.057	860.38
286.288	872.38
286.52	859.38
286.751	865.38
286.982	904.38
287.213	897.38
287.444	875.38
287.675	870.38
287.906	903.38
288.138	889.38
288.369	877.38
288.6	904.38
288.831	886.38
289.062	863.38
289.293	886.38
289.524	873.38
289.755	914.38
289.986	893.38
290.217	889.38
290.448	934.38
290.679	914.38
290.91	922.38
291.141	934.38
291.371	917.38
291.602	927.38
291.833	914.38
292.064	907.38
292.295	905.38
292.526	946.38
292.757	933.38
292.987	913.38
293.218	937.38
293.449	933.38
293.68	914.38
293.91	921.38
294.141	931.38
294.372	932.38
294.603	939.38
294.833	950.38
295.064	937.38
295.295	950.38
295.525	930.38
295.756	930.38
295.987	926.38
296.217	976.38
296.448	958.38
296.679	975.38
296.909	965.38
297.14	956.38
297.37	973.38
297.601	966.38
297.831	988.38
298.062	1009.38
298.292	971.38
298.523	1001.38
298.753	1033.38
298.984	1011.38
299.214	977.38
299.445	1001.38
299.675	984.38
299.905	1002.38
300.136	1032.38
300.366	995.38
300.597	1014.38
300.827	1020.38
301.057	1032.38
301.288	1059.38
301.518	1041.38
301.748	1069.38
301.979	1069.38
302.209	1081.38
302.439	1049.38
302.669	1032.38
302.9	1056.38
303.13	1038.38
303.36	1044.38
303.59	1043.38
303.82	1035.38
304.051	1049.38
304.281	1048.38
304.511	1030.38
304.741	1055.38
304.971	1086.38
305.201	1051.38
305.431	1051.38
305.661	1083.38
305.891	1074.38
306.121	1061.38
306.352	1062.38
306.582	1049.38
306.812	1035.38
307.042	1027.38
307.272	1040.38
307.502	1027.38
307.731	1006.38
307.961	1057.38
308.191	1019.38
308.421	1035.38
308.651	1059.38
308.881	1049.38
309.111	1033.38
309.341	1053.38
309.571	1069.38
309.8	1058.38
310.03	1049.38
310.26	1025.38
310.49	1033.38
310.72	1091.38
310.949	1062.38
311.179	1093.38
311.409	1043.38
311.639	1053.38
311.868	1107.38
312.098	1107.38
312.328	1095.38
312.557	1098.38
312.787	1079.38
313.017	1106.38
313.246	1100.38
313.476	1090.38
313.706	1082.38
313.935	1121.38
314.165	1141.38
314.394	1131.38
314.624	1131.38
314.853	1130.38
315.083	1119.38
315.312	1125.38
315.542	1111.38
315.771	1123.38
316.001	1140.38
316.23	1119.38
316.46	1105.38
316.689	1120.38
316.919	1119.38
317.148	1115.38
317.377	1144.38
317.607	1086.38
317.836	1098.38
318.065	1126.38
318.295	1137.38
318.524	1137.38
318.753	1106.38
318.983	1105.38
319.212	1095.38
319.441	1108.38
319.67	1113.38
319.9	1123.38
320.129	1138.38
320.358	1085.38
320.587	1116.38
320.816	1133.38
321.046	1135.38
321.275	1128.38
321.504	1136.38
321.733	1120.38
321.962	1144.38
322.191	1104.38
322.42	1122.38
322.649	1133.38
322.878	1159.38
323.108	1144.38
323.337	1167.38
323.566	1156.38
323.795	1105.38
324.024	1162.38
324.253	1149.38
324.482	1137.38
324.71	1149.38
324.939	1167.38
325.168	1179.38
325.397	1168.38
325.626	1197.38
325.855	1197.38
326.084	1231.38
326.313	1236.38
326.542	1193.38
326.77	1242.38
326.999	1228.38
327.228	1189.38
327.457	1187.38
327.686	1203.38
327.914	1206.38
328.143	1247.38
328.372	1216.38
328.6	1222.38
328.829	1202.38
329.058	1208.38
329.287	1227.38
329.515	1242.38
329.744	1227.38
329.972	1253.38
330.201	1273.38
330.43	1258.38
330.658	1265.38
330.887	1250.38
331.115	1283.38
331.344	1291.38
331.572	1291.38
331.801	1297.38
332.03	1306.38
332.258	1349.38
332.486	1429.38
332.715	1428.38
332.943	1468.38
333.172	1492.38
333.4	1508.38
333.629	1554.38
333.857	1618.38
334.085	1588.38
334.314	1606.38
334.542	1518.38
334.771	1537.38
334.999	1521.38
335.227	1542.38
335.455	1506.38
335.684	1494.38
335.912	1517.38
336.14	1508.38
336.369	1506.38
336.597	1478.38
336.825	1472.38
337.053	1478.38
337.281	1400.38
337.51	1413.38
337.738	1414.38
337.966	1404.38
338.194	1363.38
338.422	1352.38
338.65	1375.38
338.878	1358.38
339.106	1343.38
339.334	1321.38
339.562	1320.38
339.79	1314.38
340.018	1290.38
340.246	1274.38
340.474	1298.38
340.702	1288.38
340.93	1329.38
341.158	1295.38
341.386	1309.38
341.614	1317.38
341.842	1272.38
342.07	1281.38
342.298	1288.38
342.526	1307.38
342.754	1262.38
342.981	1263.38
343.209	1326.38
343.437	1346.38
343.665	1386.38
343.893	1475.38
344.12	1544.38
344.348	1512.38
344.576	1442.38
344.804	1421.38
345.031	1364.38
345.259	1325.38
345.487	1322.38
345.714	1303.38
345.942	1267.38
346.17	1212.38
346.397	1277.38
346.625	1264.38
346.853	1210.38
347.08	1234.38
347.308	1228.38
347.535	1240.38
347.763	1208.38
347.99	1229.38
348.218	1235.38
348.445	1218.38
348.673	1232.38
348.9	1235.38
349.128	1203.38
349.355	1222.38
349.583	1191.38
349.81	1199.38
350.037	1214.38
350.265	1198.38
350.492	1180.38
350.72	1189.38
350.947	1187.38
351.174	1179.38
351.402	1168.38
351.629	1180.38
351.856	1175.38
352.083	1169.38
352.311	1194.38
352.538	1169.38
352.765	1206.38
352.992	1179.38
353.22	1153.38
353.447	1203.38
353.674	1181.38
353.901	1149.38
354.128	1165.38
354.355	1169.38
354.583	1183.38
354.81	1176.38
355.037	1175.38
355.264	1189.38
355.491	1171.38
355.718	1169.38
355.945	1182.38
356.172	1198.38
356.399	1215.38
356.626	1204.38
356.853	1219.38
357.08	1207.38
357.307	1190.38
357.534	1195.38
357.761	1203.38
357.988	1181.38
358.215	1165.38
358.441	1192.38
358.668	1203.38
358.895	1185.38
359.122	1202.38
359.349	1204.38
359.576	1177.38
359.802	1205.38
360.029	1182.38
360.256	1184.38
360.483	1206.38
360.709	1218.38
360.936	1189.38
361.163	1185.38
361.39	1189.38
361.616	1189.38
361.843	1170.38
362.07	1199.38
362.296	1193.38
362.523	1186.38
362.749	1193.38
362.976	1203.38
363.203	1178.38
363.429	1196.38
363.656	1193.38
363.882	1203.38
364.109	1169.38
364.335	1169.38
364.562	1177.38
364.788	1187.38
365.015	1221.38
365.241	1192.38
365.468	1187.38
365.694	1189.38
365.92	1186.38
366.147	1155.38
366.373	1214.38
366.599	1203.38
366.826	1190.38
367.052	1186.38
367.278	1201.38
367.505	1185.38
367.731	1233.38
367.957	1173.38
368.184	1160.38
368.41	1205.38
368.636	1231.38
368.862	1242.38
369.089	1232.38
369.315	1208.38
369.541	1253.38
369.767	1207.38
369.993	1246.38
370.219	1252.38
370.445	1275.38
370.672	1307.38
370.898	1274.38
371.124	1289.38
371.35	1303.38
371.576	1327.38
371.802	1298.38
372.028	1283.38
372.254	1288.38
372.48	1281.38
372.706	1290.38
372.932	1320.38
373.158	1334.38
373.384	1328.38
373.61	1310.38
373.835	1267.38
374.061	1281.38
374.287	1331.38
374.513	1341.38
374.739	1381.38
374.965	1429.38
375.191	1453.38
375.416	1408.38
375.642	1370.38
375.868	1330.38
376.094	1357.38
376.319	1361.38
376.545	1332.38
376.771	1307.38
376.997	1304.38
377.222	1331.38
377.448	1263.38
377.674	1280.38
377.899	1273.38
378.125	1247.38
378.35	1279.38
378.576	1252.38
378.802	1268.38
379.027	1285.38
379.253	1290.38
379.478	1257.38
379.704	1287.38
379.929	1279.38
380.155	1313.38
380.38	1280.38
380.606	1272.38
380.831	1281.38
381.057	1280.38
381.282	1293.38
381.507	1283.38
381.733	1300.38
381.958	1309.38
382.184	1357.38
382.409	1342.38
382.634	1333.38
382.86	1325.38
383.085	1347.38
383.31	1379.38
383.535	1413.38
383.761	1441.38
383.986	1447.38
384.211	1437.38
384.436	1461.38
384.662	1476.38
384.887	1506.38
385.112	1505.38
385.337	1547.38
385.562	1539.38
385.787	1554.38
386.013	1594.38
386.238	1582.38
386.463	1577.38
386.688	1565.38
386.913	1561.38
387.138	1534.38
387.363	1536.38
387.588	1514.38
387.813	1529.38
388.038	1511.38
388.263	1538.38
388.488	1534.38
388.713	1554.38
388.938	1525.38
389.163	1525.38
389.387	1533.38
389.612	1517.38
389.837	1531.38
390.062	1505.38
390.287	1494.38
390.512	1512.38
390.736	1546.38
390.961	1582.38
391.186	1598.38
391.411	1592.38
391.636	1657.38
391.86	1674.38
392.085	1706.38
392.31	1701.38
392.534	1664.38
392.759	1657.38
392.984	1661.38
393.208	1623.38
393.433	1693.38
393.658	1719.38
393.882	1655.38
394.107	1590.38
394.331	1612.38
394.556	1645.38
394.78	1638.38
395.005	1674.38
395.229	1638.38
395.454	1722.38
395.678	1716.38
395.903	1706.38
396.127	1698.38
396.352	1669.38
396.576	1654.38
396.801	1696.38
397.025	1717.38
397.249	1734.38
397.474	1729.38
397.698	1744.38
397.922	1744.38
398.147	1721.38
398.371	1767.38
398.595	1864.38
398.82	1921.38
399.044	2023.38
399.268	2173.38
399.492	2391.38
399.717	2653.38
399.941	2718.38
400.165	2505.38
400.389	2289.38
400.613	2168.38
400.837	2071.38
401.062	1976.38
401.286	1962.38
401.51	1938.38
401.734	1919.38
401.958	1973.38
402.182	1930.38
402.406	1955.38
402.63	1968.38
402.854	2000.38
403.078	2059.38
403.302	2003.38
403.526	2047.38
403.75	2089.38
403.974	2132.38
404.198	2128.38
404.422	2116.38
404.645	2077.38
404.869	2111.38
405.093	2133.38
405.317	2067.38
405.541	2066.38
405.765	2033.38
405.988	2074.38
406.212	2090.38
406.436	2114.38
406.66	2142.38
406.883	2171.38
407.107	2254.38
407.331	2345.38
407.555	2447.38
407.778	2375.38
408.002	2385.38
408.226	2309.38
408.449	2319.38
408.673	2136.38
408.896	2157.38
409.12	2155.38
409.344	2152.38
409.567	2126.38
409.791	2139.38
410.014	2121.38
410.238	2116.38
410.461	2109.38
410.685	2087.38
410.908	2058.38
411.132	2050.38
411.355	2018.38
411.578	2039.38
411.802	1980.38
412.025	2016.38
412.249	2018.38
412.472	2026.38
412.695	1963.38
412.919	1894.38
413.142	1941.38
413.365	1960.38
413.589	1949.38
413.812	1912.38
414.035	1907.38
414.258	1897.38
414.482	1928.38
414.705	1958.38
414.928	1900.38
415.151	1926.38
415.374	1932.38
415.597	1881.38
415.821	1856.38
416.044	1898.38
416.267	1842.38
416.49	1832.38
416.713	1839.38
416.936	1903.38
417.159	1823.38
417.382	1817.38
417.605	1882.38
417.828	1833.38
418.051	1868.38
418.274	1837.38
418.497	1815.38
418.72	1871.38
418.943	1868.38
419.166	1992.38
419.389	2137.38
419.611	2103.38
419.834	2023.38
420.057	1981.38
420.28	1910.38
420.503	1834.38
420.726	1837.38
420.948	1823.38
421.171	1842.38
421.394	1862.38
421.617	1857.38
421.839	1855.38
422.062	1880.38
422.285	1865.38
422.507	1880.38
422.73	1891.38
422.953	1868.38
423.175	1891.38
423.398	1927.38
423.621	1867.38
423.843	1910.38
424.066	1920.38
424.288	1898.38
424.511	1892.38
424.733	1898.38
424.956	1855.38
425.178	1840.38
425.401	1873.38
425.623	1845.38
425.846	1809.38
426.068	1828.38
426.291	1763.38
426.513	1741.38
426.735	1774.38
426.958	1779.38
427.18	1700.38
427.402	1681.38
427.625	1710.38
427.847	1691.38
428.069	1687.38
428.292	1719.38
428.514	1669.38
428.736	1689.38
428.958	1712.38
429.181	1689.38
429.403	1654.38
429.625	1636.38
429.847	1651.38
430.069	1631.38
430.292	1661.38
430.514	1639.38
430.736	1665.38
430.958	1623.38
431.18	1667.38
431.402	1663.38
431.624	1661.38
431.846	1693.38
432.068	1747.38
432.29	1738.38
432.512	1661.38
432.734	1727.38
432.956	1662.38
433.178	1710.38
433.4	1682.38
433.622	1703.38
433.844	1707.38
434.066	1733.38
434.287	1752.38
434.509	1785.38
434.731	1834.38
434.953	1913.38
435.175	1878.38
435.397	1879.38
435.618	1810.38
435.84	1767.38
436.062	1701.38
436.284	1729.38
436.505	1691.38
436.727	1689.38
436.949	1726.38
437.17	1677.38
437.392	1683.38
437.614	1630.38
437.835	1568.38
438.057	1584.38
438.278	1613.38
438.5	1596.38
438.721	1574.38
438.943	1628.38
439.165	1579.38
439.386	1616.38
439.608	1669.38
439.829	1653.38
440.05	1649.38
440.272	1659.38
440.493	1666.38
440.715	1689.38
440.936	1678.38
441.158	1731.38
441.379	1764.38
441.6	1848.38
441.822	1852.38
442.043	1825.38
442.264	1813.38
442.486	1755.38
442.707	1791.38
442.928	1778.38
443.149	1851.38
443.371	1801.38
443.592	1815.38
443.813	1816.38
444.034	1843.38
444.255	1881.38
444.476	1953.38
444.698	2053.38
444.919	2101.38
445.14	2186.38
445.361	2005.38
445.582	1880.38
445.803	1829.38
446.024	1754.38
446.245	1737.38
446.466	1720.38
446.687	1691.38
446.908	1675.38
447.129	1621.38
447.35	1609.38
447.571	1590.38
447.792	1585.38
448.013	1569.38
448.234	1542.38
448.455	1509.38
448.675	1511.38
448.896	1539.38
449.117	1478.38
449.338	1476.38
449.559	1508.38
449.779	1493.38
450	1490.38
450.221	1484.38
450.442	1503.38
450.662	1483.38
450.883	1450.38
451.104	1537.38
451.324	1476.38
451.545	1487.38
451.766	1496.38
451.986	1485.38
452.207	1479.38
452.428	1467.38
452.648	1477.38
452.869	1480.38
453.089	1411.38
453.31	1445.38
453.53	1442.38
453.751	1447.38
453.971	1428.38
454.192	1449.38
454.412	1453.38
454.633	1402.38
454.853	1409.38
455.073	1411.38
455.294	1448.38
455.514	1415.38
455.734	1406.38
455.955	1405.38
456.175	1398.38
456.395	1383.38
456.616	1423.38
456.836	1417.38
457.056	1415.38
457.276	1396.38
457.497	1417.38
457.717	1387.38
457.937	1404.38
458.157	1443.38
458.377	1458.38
458.598	1502.38
458.818	1531.38
459.038	1524.38
459.258	1630.38
459.478	1687.38
459.698	1695.38
459.918	1712.38
460.138	1812.38
460.358	1847.38
460.578	1856.38
460.798	1925.38
461.018	1894.38
461.238	1895.38
461.458	1905.38
461.678	1899.38
461.898	1937.38
462.118	1965.38
462.338	1968.38
462.558	2031.38
462.777	2134.38
462.997	2265.38
463.217	2381.38
463.437	2404.38
463.657	2263.38
463.876	2202.38
464.096	2224.38
464.316	2161.38
464.536	2150.38
464.755	2101.38
464.975	2023.38
465.195	1997.38
465.414	1866.38
465.634	1778.38
465.854	1734.38
466.073	1715.38
466.293	1681.38
466.512	1628.38
466.732	1605.38
466.951	1598.38
467.171	1622.38
467.391	1599.38
467.61	1573.38
467.829	1522.38
468.049	1590.38
468.268	1551.38
468.488	1493.38
468.707	1508.38
468.927	1529.38
469.146	1502.38
469.365	1532.38
469.585	1576.38
469.804	1587.38
470.023	1583.38
470.243	1616.38
470.462	1607.38
470.681	1615.38
470.901	1615.38
471.12	1622.38
471.339	1574.38
471.558	1562.38
471.777	1570.38
471.997	1546.38
472.216	1554.38
472.435	1481.38
472.654	1506.38
472.873	1538.38
473.092	1485.38
473.311	1501.38
473.53	1517.38
473.749	1483.38
473.968	1534.38
474.187	1477.38
474.406	1505.38
474.625	1471.38
474.844	1500.38
475.063	1536.38
475.282	1535.38
475.501	1535.38
475.72	1546.38
475.939	1532.38
476.158	1558.38
476.377	1591.38
476.596	1598.38
476.814	1625.38
477.033	1605.38
477.252	1614.38
477.471	1717.38
477.69	1697.38
477.908	1735.38
478.127	1763.38
478.346	1727.38
478.564	1821.38
478.783	1842.38
479.002	1881.38
479.22	1920.38
479.439	1929.38
479.658	1898.38
479.876	1919.38
480.095	1937.38
480.313	1985.38
480.532	2069.38
480.751	2007.38
480.969	1957.38
481.188	1913.38
481.406	1911.38
481.624	1837.38
481.843	1853.38
482.061	1800.38
482.28	1817.38
482.498	1771.38
482.717	1806.38
482.935	1793.38
483.153	1862.38
483.372	1847.38
483.59	1841.38
483.808	1866.38
484.027	1874.38
484.245	1929.38
484.463	1925.38
484.681	1992.38
484.9	1970.38
485.118	1921.38
485.336	1973.38
485.554	1980.38
485.772	2005.38
485.99	1983.38
486.209	1993.38
486.427	2014.38
486.645	1994.38
486.863	2003.38
487.081	1985.38
487.299	1928.38
487.517	2000.38
487.735	1944.38
487.953	1977.38
488.171	1977.38
488.389	1923.38
488.607	1900.38
488.825	1906.38
489.043	1907.38
489.261	1917.38
489.479	1867.38
489.696	1905.38
489.914	1901.38
490.132	1905.38
490.35	1922.38
490.568	1893.38
490.786	1867.38
491.003	1903.38
491.221	1905.38
491.439	1885.38
491.657	1865.38
491.874	1875.38
492.092	1866.38
492.31	1890.38
492.527	1903.38
492.745	1904.38
492.963	1871.38
493.18	1903.38
493.398	1893.38
493.615	1921.38
493.833	1904.38
494.05	1912.38
494.268	1946.38
494.485	1927.38
494.703	1972.38
494.92	1937.38
495.138	1926.38
495.355	1951.38
495.573	1926.38
495.79	1970.38
496.008	1955.38
496.225	1951.38
496.442	2020.38
496.66	2016.38
496.877	2040.38
497.094	2098.38
497.312	2108.38
497.529	2136.38
497.746	2173.38
497.963	2252.38
498.181	2347.38
498.398	2482.38
498.615	2567.38
498.832	2735.38
499.049	2896.38
499.267	3040.38
499.484	3335.38
499.701	3645.38
499.918	3929.38
500.135	4358.38
500.352	4766.38
500.569	4881.38
500.786	4854.38
501.003	4639.38
501.22	4249.38
501.437	3869.38
501.654	3528.38
501.871	3253.38
502.088	3034.38
502.305	2876.38
502.522	2718.38
502.739	2619.38
502.956	2489.38
503.172	2407.38
503.389	2309.38
503.606	2214.38
503.823	2157.38
504.04	2174.38
504.256	2197.38
504.473	2217.38
504.69	2182.38
504.907	2179.38
505.123	2034.38
505.34	2028.38
505.557	1902.38
505.773	1857.38
505.99	1793.38
506.207	1776.38
506.423	1776.38
506.64	1753.38
506.856	1693.38
507.073	1688.38
507.289	1689.38
507.506	1645.38
507.722	1700.38
507.939	1635.38
508.155	1615.38
508.372	1615.38
508.588	1622.38
508.805	1576.38
509.021	1600.38
509.238	1569.38
509.454	1544.38
509.67	1556.38
509.887	1536.38
510.103	1548.38
510.319	1566.38
510.536	1542.38
510.752	1477.38
510.968	1496.38
511.184	1495.38
511.401	1495.38
511.617	1515.38
511.833	1472.38
512.049	1480.38
512.265	1484.38
512.481	1526.38
512.698	1494.38
512.914	1497.38
513.13	1469.38
513.346	1505.38
513.562	1519.38
513.778	1501.38
513.994	1569.38
514.21	1487.38
514.426	1530.38
514.642	1503.38
514.858	1553.38
515.074	1589.38
515.29	1557.38
515.506	1606.38
515.721	1612.38
515.937	1619.38
516.153	1607.38
516.369	1661.38
516.585	1743.38
516.801	1739.38
517.016	1792.38
517.232	1888.38
517.448	1949.38
517.664	2013.38
517.879	2024.38
518.095	1984.38
518.311	1973.38
518.527	1870.38
518.742	1844.38
518.958	1759.38
519.173	1680.38
519.389	1681.38
519.605	1664.38
519.82	1629.38
520.036	1559.38
520.251	1535.38
520.467	1515.38
520.682	1541.38
520.898	1497.38
521.113	1478.38
521.329	1468.38
521.544	1438.38
521.76	1454.38
521.975	1425.38
522.19	1404.38
522.406	1413.38
522.621	1445.38
522.836	1446.38
523.052	1391.38
523.267	1408.38
523.482	1412.38
523.698	1366.38
523.913	1361.38
524.128	1365.38
524.343	1385.38
524.559	1365.38
524.774	1338.38
524.989	1351.38
525.204	1353.38
525.419	1355.38
525.634	1359.38
525.849	1357.38
526.064	1311.38
526.28	1360.38
526.495	1318.38
526.71	1331.38
526.925	1316.38
527.14	1331.38
527.355	1303.38
527.57	1334.38
527.785	1330.38
527.999	1341.38
528.214	1315.38
528.429	1309.38
528.644	1341.38
528.859	1339.38
529.074	1321.38
529.289	1322.38
529.503	1314.38
529.718	1345.38
529.933	1319.38
530.148	1337.38
530.363	1311.38
530.577	1297.38
530.792	1284.38
531.007	1295.38
531.221	1319.38
531.436	1328.38
531.651	1353.38
531.865	1327.38
532.08	1271.38
532.295	1338.38
532.509	1333.38
532.724	1342.38
532.938	1334.38
533.153	1317.38
533.367	1330.38
533.582	1305.38
533.796	1300.38
534.011	1303.38
534.225	1312.38
534.44	1290.38
534.654	1284.38
534.868	1285.38
535.083	1269.38
535.297	1279.38
535.511	1261.38
535.726	1274.38
535.94	1274.38
536.154	1230.38
536.369	1213.38
536.583	1232.38
536.797	1246.38
537.011	1227.38
537.225	1219.38
537.44	1235.38
537.654	1180.38
537.868	1227.38
538.082	1189.38
538.296	1177.38
538.51	1205.38
538.724	1194.38
538.938	1185.38
539.153	1169.38
539.367	1201.38
539.581	1231.38
539.795	1201.38
540.009	1146.38
540.222	1158.38
540.436	1153.38
540.65	1198.38
540.864	1167.38
541.078	1170.38
541.292	1187.38
541.506	1193.38
541.72	1149.38
541.934	1175.38
542.147	1154.38
542.361	1162.38
542.575	1129.38
542.789	1149.38
543.002	1130.38
543.216	1139.38
543.43	1134.38
543.644	1175.38
543.857	1165.38
544.071	1145.38
544.285	1141.38
544.498	1147.38
544.712	1143.38
544.925	1161.38
545.139	1145.38
545.352	1201.38
545.566	1177.38
545.779	1177.38
545.993	1208.38
546.206	1177.38
546.42	1175.38
546.633	1175.38
546.847	1177.38
547.06	1159.38
547.274	1183.38
547.487	1177.38
547.7	1167.38
547.914	1174.38
548.127	1176.38
548.34	1180.38
548.554	1196.38
548.767	1201.38
548.98	1199.38
549.193	1188.38
549.407	1223.38
549.62	1191.38
549.833	1209.38
550.046	1206.38
550.259	1189.38
550.473	1181.38
550.686	1145.38
550.899	1163.38
551.112	1158.38
551.325	1162.38
551.538	1157.38
551.751	1140.38
551.964	1168.38
552.177	1195.38
552.39	1205.38
552.603	1211.38
552.816	1213.38
553.029	1233.38
553.242	1230.38
553.455	1265.38
553.667	1301.38
553.88	1227.38
554.093	1254.38
554.306	1221.38
554.519	1164.38
554.732	1167.38
554.944	1145.38
555.157	1137.38
555.37	1104.38
555.583	1114.38
555.795	1073.38
556.008	1065.38
556.221	1054.38
556.433	1059.38
556.646	1059.38
556.859	1011.38
557.071	1030.38
557.284	979.38
557.496	995.38
557.709	998.38
557.921	1002.38
558.134	1026.38
558.346	1005.38
558.559	992.38
558.771	997.38
558.984	998.38
559.196	1001.38
559.409	954.38
559.621	975.38
559.833	986.38
560.046	985.38
560.258	977.38
560.47	965.38
560.683	959.38
560.895	988.38
561.107	960.38
561.32	942.38
561.532	947.38
561.744	973.38
561.956	979.38
562.168	967.38
562.381	977.38
562.593	970.38
562.805	978.38
563.017	968.38
563.229	977.38
563.441	990.38
563.653	992.38
563.865	991.38
564.077	989.38
564.289	1000.38
564.501	1003.38
564.713	1054.38
564.925	1058.38
565.137	1068.38
565.349	1108.38
565.561	1117.38
565.773	1146.38
565.985	1202.38
566.197	1241.38
566.408	1318.38
566.62	1409.38
566.832	1473.38
567.044	1517.38
567.255	1546.38
567.467	1550.38
567.679	1638.38
567.891	1710.38
568.102	1711.38
568.314	1658.38
568.526	1517.38
568.737	1416.38
568.949	1292.38
569.161	1238.38
569.372	1143.38
569.584	1114.38
569.795	1098.38
570.007	1048.38
570.218	998.38
570.43	1014.38
570.641	1003.38
570.853	1001.38
571.064	971.38
571.276	966.38
571.487	958.38
571.698	935.38
571.91	888.38
572.121	897.38
572.333	888.38
572.544	836.38
572.755	856.38
572.966	831.38
573.178	834.38
573.389	831.38
573.6	831.38
573.811	794.38
574.023	794.38
574.234	802.38
574.445	806.38
574.656	794.38
574.867	771.38
575.078	793.38
575.289	793.38
575.501	783.38
575.712	776.38
575.923	753.38
576.134	767.38
576.345	771.38
576.556	714.38
576.767	740.38
576.978	730.38
577.188	737.38
577.399	730.38
577.61	739.38
577.821	704.38
578.032	716.38
578.243	726.38
578.454	713.38
578.665	707.38
578.875	672.38
579.086	712.38
579.297	691.38
579.508	687.38
579.718	682.38
579.929	673.38
580.14	663.38
580.35	685.38
580.561	686.38
580.772	691.38
580.982	680.38
581.193	663.38
581.403	657.38
581.614	669.38
581.825	654.38
582.035	666.38
582.246	643.38
582.456	660.38
582.667	646.38
582.877	666.38
583.087	630.38
583.298	632.38
583.508	668.38
583.719	649.38
583.929	659.38
584.139	634.38
584.35	629.38
584.56	658.38
584.77	619.38
584.981	655.38
585.191	633.38
585.401	628.38
585.611	623.38
585.821	632.38
586.032	621.38
586.242	613.38
586.452	637.38
586.662	611.38
586.872	604.38
587.082	633.38
587.292	617.38
587.502	629.38
587.713	639.38
587.923	632.38
588.133	630.38
588.343	616.38
588.553	631.38
588.762	641.38
588.972	609.38
589.182	677.38
589.392	635.38
589.602	624.38
589.812	636.38
590.022	632.38
590.232	600.38
590.441	640.38
590.651	625.38
590.861	641.38
591.071	652.38
591.281	637.38
591.49	654.38
591.7	672.38
591.91	655.38
592.119	669.38
592.329	674.38
592.539	692.38
592.748	730.38
592.958	727.38
593.167	730.38
593.377	754.38
593.587	761.38
593.796	762.38
594.006	777.38
594.215	795.38
594.424	765.38
594.634	764.38
594.843	727.38
595.053	713.38
595.262	655.38
595.472	653.38
595.681	637.38
595.89	623.38
596.1	646.38
596.309	599.38
596.518	608.38
596.727	613.38
596.937	583.38
597.146	587.38
597.355	570.38
597.564	560.38
597.774	583.38
597.983	546.38
598.192	541.38
598.401	571.38
598.61	540.38
598.819	561.38
599.028	516.38
599.237	497.38
599.446	505.38
599.655	518.38
599.864	521.38
600.073	517.38
600.282	502.38
600.491	507.38
600.7	501.38
600.909	511.38
601.118	504.38
601.327	519.38
601.536	478.38
601.745	515.38
601.953	535.38
602.162	520.38
602.371	486.38
602.58	513.38
602.789	495.38
602.997	498.38
603.206	498.38
603.415	487.38
603.623	476.38
603.832	471.38
604.041	501.38
604.249	477.38
604.458	489.38
604.666	480.38
604.875	469.38
605.084	476.38
605.292	480.38
605.501	496.38
605.709	464.38
605.918	467.38
606.126	493.38
606.334	464.38
606.543	467.38
606.751	461.38
606.96	455.38
607.168	471.38
607.376	446.38
607.585	460.38
607.793	474.38
608.001	455.38
608.21	453.38
608.418	462.38
608.626	447.38
608.834	433.38
609.043	459.38
609.251	456.38
609.459	443.38
609.667	445.38
609.875	438.38
610.083	444.38
610.291	439.38
610.499	436.38
610.707	443.38
610.916	453.38
611.124	454.38
611.332	447.38
611.54	425.38
611.748	445.38
611.955	461.38
612.163	435.38
612.371	456.38
612.579	445.38
612.787	438.38
612.995	450.38
613.203	426.38
613.411	423.38
613.618	431.38
613.826	438.38
614.034	429.38
614.242	433.38
614.449	429.38
614.657	423.38
614.865	433.38
615.072	430.38
615.28	446.38
615.488	420.38
615.695	422.38
615.903	414.38
616.111	441.38
616.318	431.38
616.526	448.38
616.733	440.38
616.941	451.38
617.148	436.38
617.356	445.38
617.563	440.38
617.771	447.38
617.978	420.38
618.185	438.38
618.393	430.38
618.6	430.38
618.807	435.38
619.015	437.38
619.222	428.38
619.429	403.38
619.637	415.38
619.844	423.38
620.051	404.38
620.258	410.38
620.466	388.38
620.673	411.38
620.88	395.38
621.087	412.38
621.294	404.38
621.501	399.38
621.708	395.38
621.915	390.38
622.122	397.38
622.329	373.38
622.536	404.38
622.743	375.38
622.95	376.38
623.157	382.38
623.364	364.38
623.571	389.38
623.778	378.38
623.985	386.38
624.192	394.38
624.399	382.38
624.606	379.38
624.812	372.38
625.019	369.38
625.226	384.38
625.433	375.38
625.639	358.38
625.846	370.38
626.053	348.38
626.259	341.38
626.466	365.38
626.673	352.38
626.879	354.38
627.086	362.38
627.293	372.38
627.499	360.38
627.706	350.38
627.912	360.38
628.119	354.38
628.325	349.38
628.532	344.38
628.738	359.38
628.945	356.38
629.151	368.38
629.357	363.38
629.564	341.38
629.77	357.38
629.976	332.38
630.183	348.38
630.389	333.38
630.595	357.38
630.802	347.38
631.008	327.38
631.214	315.38
631.42	326.38
631.627	320.38
631.833	327.38
632.039	346.38
632.245	330.38
632.451	326.38
632.657	329.38
632.863	328.38
633.069	334.38
633.275	324.38
633.481	322.38
633.688	316.38
633.893	335.38
634.099	320.38
634.305	323.38
634.511	320.38
634.717	313.38
634.923	320.38
635.129	309.38
635.335	310.38
635.541	303.38
635.747	318.38
635.952	319.38
636.158	313.38
636.364	319.38
636.57	327.38
636.775	319.38
636.981	311.38
637.187	314.38
637.392	303.38
637.598	311.38
637.804	312.38
638.009	309.38
638.215	320.38
638.421	303.38
638.626	303.38
638.832	285.38
639.037	302.38
639.243	316.38
639.448	306.38
639.654	287.38
639.859	279.38
640.065	299.38
640.27	301.38
640.475	269.38
640.681	280.38
640.886	295.38
641.091	284.38
641.297	290.38
641.502	286.38
641.707	285.38
641.913	278.38
642.118	302.38
642.323	275.38
642.528	293.38
642.733	301.38
642.939	277.38
643.144	290.38
643.349	294.38
643.554	298.38
643.759	297.38
643.964	297.38
644.169	276.38
644.374	277.38
644.579	305.38
644.784	273.38
644.989	281.38
645.194	281.38
645.399	288.38
645.604	279.38
645.809	305.38
646.014	281.38
646.219	288.38
646.423	280.38
646.628	286.38
646.833	293.38
647.038	309.38
647.243	304.38
647.447	303.38
647.652	308.38
647.857	314.38
648.062	316.38
648.266	301.38
648.471	304.38
648.676	338.38
648.88	321.38
649.085	317.38
649.289	308.38
649.494	295.38
649.698	309.38
649.903	305.38
650.107	312.38
650.312	289.38
650.516	282.38
650.721	285.38
650.925	255.38
651.13	282.38
651.334	296.38
651.539	278.38
651.743	269.38
651.947	273.38
652.152	286.38
652.356	277.38
652.56	277.38
652.764	290.38
652.969	294.38
653.173	282.38
653.377	286.38
653.581	265.38
653.785	286.38
653.99	283.38
654.194	285.38
654.398	273.38
654.602	274.38
654.806	270.38
655.01	303.38
655.214	303.38
655.418	311.38
655.622	318.38
655.826	331.38
656.03	335.38
656.234	373.38
656.438	378.38
656.642	394.38
656.846	371.38
657.049	333.38
657.253	291.38
657.457	279.38
657.661	245.38
657.865	215.38
658.068	209.38
658.272	184.38
658.476	214.38
658.68	184.38
658.883	170.38
659.087	144.38
659.291	158.38
659.494	164.38
659.698	128.38
659.901	126.38
660.105	141.38
660.309	143.38
660.512	133.38
660.716	128.38
660.919	99.38
661.123	98.38
661.326	112.38
661.53	92.38
661.733	101.38
661.936	88.38
662.14	81.38
662.343	87.38
662.546	75.38
662.75	91.38
662.953	89.38
663.156	84.38
663.36	90.38
663.563	83.38
663.766	95.38
663.969	85.38
664.173	91.38
664.376	79.38
664.579	79.38
664.782	78.38
664.985	76.38
665.188	83.38
665.391	86.38
665.594	91.38
665.797	81.38
666	87.38
666.203	83.38
666.406	81.38
666.609	73.38
666.812	89.38
667.015	74.38
667.218	74.38
667.421	74.38
667.624	80.38
667.827	81.38
668.03	95.38
668.232	91.38
668.435	98.38
668.638	85.38
668.841	93.38
669.043	72.38
669.246	81.38
669.449	71.38
669.651	78.38
669.854	79.38
670.057	88.38
670.259	81.38
670.462	92.38
670.665	81.38
670.867	83.38
671.07	80.38
671.272	80.38
671.475	98.38
671.677	89.38
671.88	72.38
672.082	79.38
672.284	91.38
672.487	82.38
672.689	88.38
672.892	77.38
