Data from NiCl2@0.5M.TitratingCurve.Agarose3%dH2O.NegLispCup.LampEnergy10.LIBS07252019_HRD10591_18-20-44-571.txt Node
Date: Thu Jul 25 18:20:44 EDT 2019
User: cochatt
Spectrometer: HR+D1059
Trigger mode: 1
Integration Time (sec): 1.000000E-1
Scans to average: 1
Electric dark correction enabled: true
Nonlinearity correction enabled: false
Boxcar width: 0
XAxis mode: Wavelengths
Number of Pixels in Spectrum: 2048
>>>>>Begin Spectral Data<<<<<
223.165	-13.44
223.4	-13.44
223.635	-13.44
223.869	-11.44
224.104	-19.44
224.338	-12.44
224.573	-3.44
224.808	-11.44
225.042	-9.44
225.277	2.56
225.511	0.56
225.746	-2.44
225.98	-4.44
226.215	13.56
226.449	10.56
226.683	14.56
226.918	26.56
227.152	19.56
227.387	26.56
227.621	28.56
227.856	40.56
228.09	45.56
228.324	44.56
228.559	71.56
228.793	74.56
229.027	102.56
229.262	138.56
229.496	137.56
229.73	128.56
229.964	107.56
230.199	136.56
230.433	128.56
230.667	131.56
230.901	127.56
231.136	130.56
231.37	132.56
231.604	158.56
231.838	161.56
232.072	156.56
232.306	152.56
232.541	159.56
232.775	169.56
233.009	151.56
233.243	140.56
233.477	162.56
233.711	158.56
233.945	164.56
234.179	141.56
234.413	146.56
234.647	158.56
234.881	148.56
235.115	163.56
235.349	147.56
235.583	156.56
235.817	161.56
236.051	143.56
236.285	165.56
236.519	166.56
236.753	143.56
236.987	184.56
237.221	173.56
237.455	176.56
237.689	154.56
237.922	179.56
238.156	162.56
238.39	160.56
238.624	168.56
238.858	165.56
239.091	161.56
239.325	166.56
239.559	178.56
239.793	184.56
240.027	181.56
240.26	173.56
240.494	181.56
240.728	178.56
240.961	184.56
241.195	185.56
241.429	194.56
241.662	202.56
241.896	193.56
242.13	198.56
242.363	206.56
242.597	195.56
242.83	219.56
243.064	219.56
243.298	209.56
243.531	224.56
243.765	211.56
243.998	211.56
244.232	220.56
244.465	213.56
244.699	195.56
244.932	213.56
245.166	228.56
245.399	229.56
245.633	232.56
245.866	228.56
246.099	233.56
246.333	240.56
246.566	217.56
246.8	214.56
247.033	237.56
247.266	244.56
247.5	231.56
247.733	234.56
247.966	240.56
248.2	244.56
248.433	253.56
248.666	253.56
248.899	237.56
249.133	232.56
249.366	265.56
249.599	259.56
249.832	251.56
250.066	243.56
250.299	244.56
250.532	266.56
250.765	262.56
250.998	264.56
251.231	260.56
251.465	262.56
251.698	275.56
251.931	279.56
252.164	268.56
252.397	295.56
252.63	273.56
252.863	272.56
253.096	275.56
253.329	276.56
253.562	282.56
253.795	272.56
254.028	299.56
254.261	297.56
254.494	273.56
254.727	296.56
254.96	303.56
255.193	290.56
255.426	303.56
255.659	289.56
255.892	278.56
256.124	292.56
256.357	310.56
256.59	313.56
256.823	292.56
257.056	309.56
257.289	309.56
257.521	294.56
257.754	317.56
257.987	285.56
258.22	318.56
258.452	300.56
258.685	319.56
258.918	310.56
259.151	329.56
259.383	307.56
259.616	319.56
259.849	333.56
260.081	313.56
260.314	317.56
260.547	329.56
260.779	329.56
261.012	332.56
261.244	324.56
261.477	316.56
261.71	348.56
261.942	327.56
262.175	329.56
262.407	332.56
262.64	327.56
262.872	341.56
263.105	358.56
263.337	339.56
263.57	340.56
263.802	354.56
264.035	350.56
264.267	353.56
264.499	352.56
264.732	353.56
264.964	355.56
265.197	360.56
265.429	359.56
265.661	362.56
265.894	365.56
266.126	379.56
266.358	374.56
266.591	377.56
266.823	361.56
267.055	366.56
267.287	370.56
267.52	362.56
267.752	378.56
267.984	393.56
268.216	390.56
268.448	402.56
268.681	387.56
268.913	384.56
269.145	394.56
269.377	395.56
269.609	387.56
269.841	373.56
270.073	390.56
270.306	405.56
270.538	375.56
270.77	394.56
271.002	394.56
271.234	387.56
271.466	396.56
271.698	404.56
271.93	414.56
272.162	417.56
272.394	430.56
272.626	403.56
272.858	417.56
273.09	411.56
273.322	419.56
273.553	419.56
273.785	418.56
274.017	437.56
274.249	433.56
274.481	426.56
274.713	428.56
274.945	413.56
275.176	418.56
275.408	416.56
275.64	429.56
275.872	423.56
276.104	443.56
276.335	452.56
276.567	440.56
276.799	420.56
277.031	451.56
277.262	466.56
277.494	437.56
277.726	460.56
277.957	442.56
278.189	461.56
278.421	460.56
278.652	456.56
278.884	454.56
279.115	454.56
279.347	458.56
279.579	491.56
279.81	477.56
280.042	477.56
280.273	461.56
280.505	454.56
280.736	470.56
280.968	487.56
281.199	472.56
281.431	468.56
281.662	478.56
281.894	466.56
282.125	501.56
282.356	501.56
282.588	517.56
282.819	492.56
283.051	503.56
283.282	508.56
283.513	474.56
283.745	513.56
283.976	490.56
284.207	516.56
284.439	507.56
284.67	500.56
284.901	534.56
285.132	516.56
285.364	504.56
285.595	532.56
285.826	507.56
286.057	520.56
286.288	502.56
286.52	531.56
286.751	534.56
286.982	532.56
287.213	526.56
287.444	518.56
287.675	524.56
287.906	526.56
288.138	541.56
288.369	513.56
288.6	538.56
288.831	544.56
289.062	544.56
289.293	534.56
289.524	535.56
289.755	532.56
289.986	520.56
290.217	524.56
290.448	550.56
290.679	545.56
290.91	533.56
291.141	542.56
291.371	565.56
291.602	562.56
291.833	523.56
292.064	546.56
292.295	558.56
292.526	551.56
292.757	550.56
292.987	563.56
293.218	523.56
293.449	566.56
293.68	558.56
293.91	562.56
294.141	570.56
294.372	548.56
294.603	549.56
294.833	547.56
295.064	564.56
295.295	581.56
295.525	556.56
295.756	576.56
295.987	557.56
296.217	581.56
296.448	552.56
296.679	578.56
296.909	582.56
297.14	602.56
297.37	582.56
297.601	584.56
297.831	582.56
298.062	589.56
298.292	589.56
298.523	605.56
298.753	608.56
298.984	605.56
299.214	578.56
299.445	637.56
299.675	600.56
299.905	610.56
300.136	586.56
300.366	632.56
300.597	620.56
300.827	631.56
301.057	632.56
301.288	639.56
301.518	604.56
301.748	628.56
301.979	618.56
302.209	639.56
302.439	610.56
302.669	631.56
302.9	620.56
303.13	604.56
303.36	617.56
303.59	651.56
303.82	654.56
304.051	625.56
304.281	621.56
304.511	644.56
304.741	644.56
304.971	635.56
305.201	652.56
305.431	629.56
305.661	625.56
305.891	643.56
306.121	640.56
306.352	622.56
306.582	632.56
306.812	612.56
307.042	630.56
307.272	624.56
307.502	624.56
307.731	629.56
307.961	602.56
308.191	622.56
308.421	628.56
308.651	624.56
308.881	610.56
309.111	619.56
309.341	634.56
309.571	620.56
309.8	626.56
310.03	638.56
310.26	648.56
310.49	646.56
310.72	653.56
310.949	652.56
311.179	615.56
311.409	648.56
311.639	650.56
311.868	638.56
312.098	633.56
312.328	674.56
312.557	650.56
312.787	660.56
313.017	660.56
313.246	666.56
313.476	664.56
313.706	680.56
313.935	683.56
314.165	659.56
314.394	665.56
314.624	680.56
314.853	665.56
315.083	680.56
315.312	706.56
315.542	700.56
315.771	682.56
316.001	676.56
316.23	663.56
316.46	650.56
316.689	647.56
316.919	672.56
317.148	707.56
317.377	685.56
317.607	665.56
317.836	672.56
318.065	650.56
318.295	661.56
318.524	649.56
318.753	643.56
318.983	651.56
319.212	639.56
319.441	680.56
319.67	666.56
319.9	660.56
320.129	653.56
320.358	652.56
320.587	659.56
320.816	668.56
321.046	661.56
321.275	698.56
321.504	692.56
321.733	659.56
321.962	689.56
322.191	692.56
322.42	663.56
322.649	693.56
322.878	669.56
323.108	655.56
323.337	674.56
323.566	701.56
323.795	706.56
324.024	701.56
324.253	690.56
324.482	713.56
324.71	721.56
324.939	697.56
325.168	720.56
325.397	674.56
325.626	704.56
325.855	724.56
326.084	731.56
326.313	736.56
326.542	713.56
326.77	713.56
326.999	727.56
327.228	734.56
327.457	713.56
327.686	738.56
327.914	716.56
328.143	730.56
328.372	705.56
328.6	725.56
328.829	714.56
329.058	731.56
329.287	735.56
329.515	738.56
329.744	753.56
329.972	738.56
330.201	770.56
330.43	739.56
330.658	736.56
330.887	749.56
331.115	780.56
331.344	761.56
331.572	804.56
331.801	786.56
332.03	816.56
332.258	788.56
332.486	803.56
332.715	838.56
332.943	854.56
333.172	888.56
333.4	891.56
333.629	921.56
333.857	930.56
334.085	936.56
334.314	913.56
334.542	926.56
334.771	952.56
334.999	886.56
335.227	912.56
335.455	914.56
335.684	925.56
335.912	874.56
336.14	884.56
336.369	860.56
336.597	867.56
336.825	874.56
337.053	875.56
337.281	881.56
337.51	847.56
337.738	837.56
337.966	828.56
338.194	837.56
338.422	824.56
338.65	796.56
338.878	809.56
339.106	818.56
339.334	832.56
339.562	824.56
339.79	773.56
340.018	793.56
340.246	753.56
340.474	749.56
340.702	753.56
340.93	800.56
341.158	789.56
341.386	818.56
341.614	794.56
341.842	794.56
342.07	764.56
342.298	756.56
342.526	747.56
342.754	769.56
342.981	756.56
343.209	779.56
343.437	804.56
343.665	830.56
343.893	857.56
344.12	903.56
344.348	880.56
344.576	857.56
344.804	859.56
345.031	814.56
345.259	822.56
345.487	782.56
345.714	781.56
345.942	761.56
346.17	794.56
346.397	784.56
346.625	756.56
346.853	744.56
347.08	697.56
347.308	751.56
347.535	747.56
347.763	740.56
347.99	726.56
348.218	731.56
348.445	739.56
348.673	741.56
348.9	772.56
349.128	760.56
349.355	729.56
349.583	747.56
349.81	706.56
350.037	725.56
350.265	731.56
350.492	704.56
350.72	690.56
350.947	692.56
351.174	717.56
351.402	722.56
351.629	749.56
351.856	740.56
352.083	707.56
352.311	707.56
352.538	732.56
352.765	738.56
352.992	701.56
353.22	689.56
353.447	695.56
353.674	691.56
353.901	701.56
354.128	701.56
354.355	669.56
354.583	696.56
354.81	690.56
355.037	716.56
355.264	695.56
355.491	674.56
355.718	698.56
355.945	706.56
356.172	685.56
356.399	721.56
356.626	704.56
356.853	734.56
357.08	722.56
357.307	714.56
357.534	727.56
357.761	707.56
357.988	691.56
358.215	711.56
358.441	691.56
358.668	700.56
358.895	699.56
359.122	707.56
359.349	698.56
359.576	676.56
359.802	672.56
360.029	685.56
360.256	715.56
360.483	699.56
360.709	701.56
360.936	723.56
361.163	695.56
361.39	702.56
361.616	702.56
361.843	685.56
362.07	745.56
362.296	731.56
362.523	685.56
362.749	708.56
362.976	683.56
363.203	696.56
363.429	670.56
363.656	704.56
363.882	680.56
364.109	690.56
364.335	702.56
364.562	678.56
364.788	708.56
365.015	688.56
365.241	682.56
365.468	700.56
365.694	666.56
365.92	706.56
366.147	679.56
366.373	712.56
366.599	700.56
366.826	676.56
367.052	685.56
367.278	679.56
367.505	712.56
367.731	676.56
367.957	702.56
368.184	681.56
368.41	669.56
368.636	680.56
368.862	708.56
369.089	712.56
369.315	707.56
369.541	725.56
369.767	717.56
369.993	709.56
370.219	726.56
370.445	702.56
370.672	715.56
370.898	730.56
371.124	714.56
371.35	745.56
371.576	732.56
371.802	745.56
372.028	737.56
372.254	732.56
372.48	775.56
372.706	732.56
372.932	760.56
373.158	748.56
373.384	768.56
373.61	742.56
373.835	734.56
374.061	737.56
374.287	741.56
374.513	773.56
374.739	797.56
374.965	809.56
375.191	820.56
375.416	811.56
375.642	821.56
375.868	796.56
376.094	769.56
376.319	768.56
376.545	723.56
376.771	728.56
376.997	758.56
377.222	728.56
377.448	747.56
377.674	740.56
377.899	755.56
378.125	746.56
378.35	759.56
378.576	716.56
378.802	713.56
379.027	731.56
379.253	727.56
379.478	748.56
379.704	723.56
379.929	760.56
380.155	741.56
380.38	736.56
380.606	733.56
380.831	728.56
381.057	732.56
381.282	754.56
381.507	722.56
381.733	745.56
381.958	755.56
382.184	748.56
382.409	786.56
382.634	772.56
382.86	756.56
383.085	764.56
383.31	788.56
383.535	784.56
383.761	782.56
383.986	802.56
384.211	834.56
384.436	838.56
384.662	843.56
384.887	851.56
385.112	861.56
385.337	858.56
385.562	870.56
385.787	865.56
386.013	850.56
386.238	875.56
386.463	868.56
386.688	856.56
386.913	849.56
387.138	870.56
387.363	880.56
387.588	887.56
387.813	867.56
388.038	884.56
388.263	883.56
388.488	868.56
388.713	866.56
388.938	877.56
389.163	856.56
389.387	876.56
389.612	843.56
389.837	860.56
390.062	881.56
390.287	857.56
390.512	860.56
390.736	894.56
390.961	896.56
391.186	886.56
391.411	941.56
391.636	921.56
391.86	956.56
392.085	968.56
392.31	960.56
392.534	972.56
392.759	947.56
392.984	949.56
393.208	923.56
393.433	914.56
393.658	922.56
393.882	932.56
394.107	942.56
394.331	953.56
394.556	922.56
394.78	928.56
395.005	941.56
395.229	951.56
395.454	951.56
395.678	979.56
395.903	977.56
396.127	953.56
396.352	939.56
396.576	935.56
396.801	935.56
397.025	933.56
397.249	958.56
397.474	994.56
397.698	1000.56
397.922	1002.56
398.147	993.56
398.371	1043.56
398.595	1040.56
398.82	1098.56
399.044	1100.56
399.268	1236.56
399.492	1358.56
399.717	1456.56
399.941	1442.56
400.165	1387.56
400.389	1292.56
400.613	1243.56
400.837	1171.56
401.062	1161.56
401.286	1122.56
401.51	1150.56
401.734	1116.56
401.958	1092.56
402.182	1088.56
402.406	1096.56
402.63	1103.56
402.854	1144.56
403.078	1152.56
403.302	1144.56
403.526	1170.56
403.75	1175.56
403.974	1166.56
404.198	1197.56
404.422	1222.56
404.645	1172.56
404.869	1187.56
405.093	1165.56
405.317	1161.56
405.541	1180.56
405.765	1164.56
405.988	1167.56
406.212	1161.56
406.436	1176.56
406.66	1213.56
406.883	1204.56
407.107	1275.56
407.331	1314.56
407.555	1357.56
407.778	1348.56
408.002	1341.56
408.226	1266.56
408.449	1308.56
408.673	1262.56
408.896	1238.56
409.12	1239.56
409.344	1241.56
409.567	1230.56
409.791	1241.56
410.014	1222.56
410.238	1219.56
410.461	1184.56
410.685	1178.56
410.908	1197.56
411.132	1195.56
411.355	1133.56
411.578	1163.56
411.802	1172.56
412.025	1125.56
412.249	1164.56
412.472	1147.56
412.695	1140.56
412.919	1122.56
413.142	1109.56
413.365	1122.56
413.589	1124.56
413.812	1103.56
414.035	1103.56
414.258	1105.56
414.482	1100.56
414.705	1106.56
414.928	1131.56
415.151	1139.56
415.374	1111.56
415.597	1095.56
415.821	1088.56
416.044	1060.56
416.267	1091.56
416.49	1073.56
416.713	1101.56
416.936	1086.56
417.159	1061.56
417.382	1076.56
417.605	1053.56
417.828	1080.56
418.051	1126.56
418.274	1109.56
418.497	1104.56
418.72	1106.56
418.943	1090.56
419.166	1186.56
419.389	1239.56
419.611	1192.56
419.834	1196.56
420.057	1153.56
420.28	1115.56
420.503	1080.56
420.726	1076.56
420.948	1060.56
421.171	1088.56
421.394	1058.56
421.617	1058.56
421.839	1064.56
422.062	1118.56
422.285	1078.56
422.507	1109.56
422.73	1092.56
422.953	1100.56
423.175	1126.56
423.398	1134.56
423.621	1100.56
423.843	1114.56
424.066	1105.56
424.288	1098.56
424.511	1094.56
424.733	1124.56
424.956	1099.56
425.178	1072.56
425.401	1093.56
425.623	1095.56
425.846	1059.56
426.068	1051.56
426.291	1034.56
426.513	1008.56
426.735	1041.56
426.958	1036.56
427.18	1012.56
427.402	1013.56
427.625	1057.56
427.847	1014.56
428.069	1010.56
428.292	1010.56
428.514	973.56
428.736	1010.56
428.958	1014.56
429.181	981.56
429.403	963.56
429.625	975.56
429.847	963.56
430.069	949.56
430.292	989.56
430.514	1005.56
430.736	998.56
430.958	964.56
431.18	986.56
431.402	985.56
431.624	983.56
431.846	1008.56
432.068	989.56
432.29	1032.56
432.512	974.56
432.734	1006.56
432.956	1026.56
433.178	1005.56
433.4	988.56
433.622	1029.56
433.844	1052.56
434.066	1020.56
434.287	1016.56
434.509	1069.56
434.731	1086.56
434.953	1125.56
435.175	1143.56
435.397	1082.56
435.618	1062.56
435.84	1034.56
436.062	1019.56
436.284	1017.56
436.505	989.56
436.727	1036.56
436.949	1025.56
437.17	993.56
437.392	944.56
437.614	993.56
437.835	956.56
438.057	980.56
438.278	959.56
438.5	966.56
438.721	967.56
438.943	989.56
439.165	960.56
439.386	929.56
439.608	1003.56
439.829	1022.56
440.05	1005.56
440.272	1000.56
440.493	1005.56
440.715	1033.56
440.936	1063.56
441.158	1043.56
441.379	1056.56
441.6	1080.56
441.822	1081.56
442.043	1086.56
442.264	1086.56
442.486	1065.56
442.707	1066.56
442.928	1126.56
443.149	1084.56
443.371	1066.56
443.592	1098.56
443.813	1106.56
444.034	1116.56
444.255	1139.56
444.476	1190.56
444.698	1206.56
444.919	1273.56
445.14	1304.56
445.361	1245.56
445.582	1143.56
445.803	1104.56
446.024	1056.56
446.245	1083.56
446.466	1074.56
446.687	1021.56
446.908	1028.56
447.129	981.56
447.35	965.56
447.571	986.56
447.792	954.56
448.013	980.56
448.234	961.56
448.455	944.56
448.675	933.56
448.896	964.56
449.117	925.56
449.338	936.56
449.559	905.56
449.779	908.56
450	940.56
450.221	948.56
450.442	946.56
450.662	926.56
450.883	946.56
451.104	934.56
451.324	947.56
451.545	965.56
451.766	940.56
451.986	914.56
452.207	913.56
452.428	932.56
452.648	920.56
452.869	894.56
453.089	895.56
453.31	896.56
453.53	901.56
453.751	921.56
453.971	886.56
454.192	901.56
454.412	897.56
454.633	894.56
454.853	884.56
455.073	876.56
455.294	862.56
455.514	885.56
455.734	893.56
455.955	876.56
456.175	871.56
456.395	865.56
456.616	832.56
456.836	856.56
457.056	863.56
457.276	847.56
457.497	889.56
457.717	906.56
457.937	892.56
458.157	916.56
458.377	910.56
458.598	929.56
458.818	930.56
459.038	926.56
459.258	962.56
459.478	1032.56
459.698	1052.56
459.918	1096.56
460.138	1106.56
460.358	1148.56
460.578	1158.56
460.798	1142.56
461.018	1170.56
461.238	1184.56
461.458	1186.56
461.678	1153.56
461.898	1181.56
462.118	1207.56
462.338	1230.56
462.558	1302.56
462.777	1352.56
462.997	1414.56
463.217	1456.56
463.437	1473.56
463.657	1444.56
463.876	1393.56
464.096	1386.56
464.316	1328.56
464.536	1314.56
464.755	1294.56
464.975	1257.56
465.195	1205.56
465.414	1176.56
465.634	1093.56
465.854	1059.56
466.073	1048.56
466.293	1052.56
466.512	985.56
466.732	1008.56
466.951	1017.56
467.171	972.56
467.391	998.56
467.61	955.56
467.829	965.56
468.049	986.56
468.268	957.56
468.488	929.56
468.707	969.56
468.927	973.56
469.146	932.56
469.365	962.56
469.585	991.56
469.804	979.56
470.023	1018.56
470.243	966.56
470.462	1013.56
470.681	1027.56
470.901	1002.56
471.12	987.56
471.339	977.56
471.558	952.56
471.777	986.56
471.997	960.56
472.216	944.56
472.435	930.56
472.654	918.56
472.873	932.56
473.092	915.56
473.311	932.56
473.53	919.56
473.749	958.56
473.968	916.56
474.187	898.56
474.406	946.56
474.625	926.56
474.844	933.56
475.063	920.56
475.282	950.56
475.501	965.56
475.72	965.56
475.939	969.56
476.158	956.56
476.377	970.56
476.596	971.56
476.814	982.56
477.033	1002.56
477.252	998.56
477.471	1017.56
477.69	1054.56
477.908	1067.56
478.127	1107.56
478.346	1101.56
478.564	1103.56
478.783	1123.56
479.002	1188.56
479.22	1159.56
479.439	1170.56
479.658	1140.56
479.876	1131.56
480.095	1152.56
480.313	1171.56
480.532	1204.56
480.751	1212.56
480.969	1165.56
481.188	1146.56
481.406	1116.56
481.624	1058.56
481.843	1083.56
482.061	1088.56
482.28	1060.56
482.498	1051.56
482.717	1079.56
482.935	1063.56
483.153	1094.56
483.372	1065.56
483.59	1090.56
483.808	1054.56
484.027	1043.56
484.245	1066.56
484.463	1097.56
484.681	1109.56
484.9	1115.56
485.118	1112.56
485.336	1107.56
485.554	1097.56
485.772	1139.56
485.99	1152.56
486.209	1125.56
486.427	1110.56
486.645	1108.56
486.863	1129.56
487.081	1112.56
487.299	1134.56
487.517	1128.56
487.735	1100.56
487.953	1130.56
488.171	1097.56
488.389	1097.56
488.607	1107.56
488.825	1092.56
489.043	1081.56
489.261	1097.56
489.479	1101.56
489.696	1112.56
489.914	1123.56
490.132	1078.56
490.35	1126.56
490.568	1148.56
490.786	1148.56
491.003	1142.56
491.221	1135.56
491.439	1128.56
491.657	1140.56
491.874	1131.56
492.092	1161.56
492.31	1165.56
492.527	1128.56
492.745	1152.56
492.963	1202.56
493.18	1144.56
493.398	1158.56
493.615	1206.56
493.833	1172.56
494.05	1191.56
494.268	1206.56
494.485	1212.56
494.703	1196.56
494.92	1199.56
495.138	1184.56
495.355	1180.56
495.573	1227.56
495.79	1229.56
496.008	1238.56
496.225	1216.56
496.442	1244.56
496.66	1249.56
496.877	1280.56
497.094	1315.56
497.312	1334.56
497.529	1389.56
497.746	1399.56
497.963	1434.56
498.181	1503.56
498.398	1561.56
498.615	1621.56
498.832	1702.56
499.049	1820.56
499.267	1908.56
499.484	2100.56
499.701	2280.56
499.918	2427.56
500.135	2700.56
500.352	2877.56
500.569	3009.56
500.786	2966.56
501.003	2825.56
501.22	2675.56
501.437	2438.56
501.654	2211.56
501.871	2034.56
502.088	1921.56
502.305	1820.56
502.522	1728.56
502.739	1652.56
502.956	1573.56
503.172	1499.56
503.389	1464.56
503.606	1370.56
503.823	1378.56
504.04	1381.56
504.256	1342.56
504.473	1364.56
504.69	1366.56
504.907	1362.56
505.123	1282.56
505.34	1220.56
505.557	1193.56
505.773	1197.56
505.99	1148.56
506.207	1116.56
506.423	1115.56
506.64	1109.56
506.856	1070.56
507.073	1058.56
507.289	1060.56
507.506	1041.56
507.722	1076.56
507.939	1028.56
508.155	1038.56
508.372	1056.56
508.588	1018.56
508.805	1011.56
509.021	997.56
509.238	986.56
509.454	980.56
509.67	975.56
509.887	982.56
510.103	947.56
510.319	958.56
510.536	987.56
510.752	946.56
510.968	942.56
511.184	944.56
511.401	945.56
511.617	955.56
511.833	922.56
512.049	960.56
512.265	944.56
512.481	939.56
512.698	921.56
512.914	972.56
513.13	987.56
513.346	972.56
513.562	962.56
513.778	972.56
513.994	952.56
514.21	964.56
514.426	974.56
514.642	985.56
514.858	978.56
515.074	955.56
515.29	1002.56
515.506	989.56
515.721	999.56
515.937	1030.56
516.153	1012.56
516.369	1019.56
516.585	1070.56
516.801	1097.56
517.016	1150.56
517.232	1193.56
517.448	1211.56
517.664	1200.56
517.879	1295.56
518.095	1268.56
518.311	1204.56
518.527	1169.56
518.742	1155.56
518.958	1101.56
519.173	1066.56
519.389	1062.56
519.605	1038.56
519.82	1016.56
520.036	998.56
520.251	981.56
520.467	973.56
520.682	963.56
520.898	945.56
521.113	928.56
521.329	899.56
521.544	951.56
521.76	911.56
521.975	897.56
522.19	893.56
522.406	900.56
522.621	873.56
522.836	874.56
523.052	893.56
523.267	908.56
523.482	884.56
523.698	884.56
523.913	865.56
524.128	869.56
524.343	861.56
524.559	884.56
524.774	848.56
524.989	838.56
525.204	865.56
525.419	856.56
525.634	876.56
525.849	875.56
526.064	861.56
526.28	829.56
526.495	842.56
526.71	855.56
526.925	857.56
527.14	852.56
527.355	853.56
527.57	833.56
527.785	846.56
527.999	840.56
528.214	855.56
528.429	812.56
528.644	834.56
528.859	833.56
529.074	857.56
529.289	866.56
529.503	839.56
529.718	845.56
529.933	838.56
530.148	830.56
530.363	823.56
530.577	845.56
530.792	820.56
531.007	841.56
531.221	832.56
531.436	842.56
531.651	854.56
531.865	836.56
532.08	844.56
532.295	852.56
532.509	842.56
532.724	834.56
532.938	830.56
533.153	841.56
533.367	828.56
533.582	833.56
533.796	840.56
534.011	833.56
534.225	837.56
534.44	820.56
534.654	825.56
534.868	816.56
535.083	814.56
535.297	814.56
535.511	787.56
535.726	784.56
535.94	791.56
536.154	800.56
536.369	759.56
536.583	763.56
536.797	771.56
537.011	757.56
537.225	758.56
537.44	780.56
537.654	766.56
537.868	769.56
538.082	760.56
538.296	782.56
538.51	749.56
538.724	792.56
538.938	752.56
539.153	728.56
539.367	763.56
539.581	741.56
539.795	752.56
540.009	756.56
540.222	737.56
540.436	744.56
540.65	741.56
540.864	755.56
541.078	770.56
541.292	756.56
541.506	733.56
541.72	760.56
541.934	786.56
542.147	756.56
542.361	764.56
542.575	748.56
542.789	723.56
543.002	729.56
543.216	745.56
543.43	756.56
543.644	739.56
543.857	730.56
544.071	737.56
544.285	774.56
544.498	776.56
544.712	744.56
544.925	784.56
545.139	752.56
545.352	769.56
545.566	768.56
545.779	761.56
545.993	770.56
546.206	768.56
546.42	777.56
546.633	780.56
546.847	757.56
547.06	753.56
547.274	769.56
547.487	782.56
547.7	772.56
547.914	810.56
548.127	781.56
548.34	779.56
548.554	775.56
548.767	783.56
548.98	783.56
549.193	785.56
549.407	772.56
549.62	775.56
549.833	797.56
550.046	790.56
550.259	775.56
550.473	760.56
550.686	787.56
550.899	770.56
551.112	761.56
551.325	721.56
551.538	755.56
551.751	747.56
551.964	758.56
552.177	790.56
552.39	794.56
552.603	786.56
552.816	834.56
553.029	835.56
553.242	823.56
553.455	823.56
553.667	817.56
553.88	811.56
554.093	772.56
554.306	807.56
554.519	778.56
554.732	742.56
554.944	741.56
555.157	723.56
555.37	713.56
555.583	717.56
555.795	730.56
556.008	708.56
556.221	677.56
556.433	684.56
556.646	673.56
556.859	677.56
557.071	667.56
557.284	673.56
557.496	675.56
557.709	677.56
557.921	664.56
558.134	664.56
558.346	653.56
558.559	638.56
558.771	662.56
558.984	654.56
559.196	636.56
559.409	636.56
559.621	662.56
559.833	628.56
560.046	617.56
560.258	632.56
560.47	630.56
560.683	639.56
560.895	634.56
561.107	654.56
561.32	659.56
561.532	633.56
561.744	635.56
561.956	650.56
562.168	658.56
562.381	625.56
562.593	647.56
562.805	647.56
563.017	652.56
563.229	650.56
563.441	647.56
563.653	636.56
563.865	647.56
564.077	665.56
564.289	655.56
564.501	675.56
564.713	692.56
564.925	688.56
565.137	710.56
565.349	690.56
565.561	750.56
565.773	745.56
565.985	779.56
566.197	808.56
566.408	871.56
566.62	920.56
566.832	943.56
567.044	939.56
567.255	951.56
567.467	963.56
567.679	1028.56
567.891	1041.56
568.102	1047.56
568.314	1004.56
568.526	919.56
568.737	883.56
568.949	844.56
569.161	805.56
569.372	777.56
569.584	736.56
569.795	690.56
570.007	683.56
570.218	665.56
570.43	649.56
570.641	636.56
570.853	616.56
571.064	652.56
571.276	640.56
571.487	620.56
571.698	584.56
571.91	597.56
572.121	569.56
572.333	578.56
572.544	556.56
572.755	562.56
572.966	539.56
573.178	549.56
573.389	534.56
573.6	523.56
573.811	516.56
574.023	548.56
574.234	515.56
574.445	531.56
574.656	529.56
574.867	519.56
575.078	527.56
575.289	507.56
575.501	514.56
575.712	505.56
575.923	509.56
576.134	502.56
576.345	488.56
576.556	494.56
576.767	469.56
576.978	474.56
577.188	490.56
577.399	491.56
577.61	477.56
577.821	462.56
578.032	478.56
578.243	481.56
578.454	483.56
578.665	455.56
578.875	466.56
579.086	440.56
579.297	456.56
579.508	463.56
579.718	468.56
579.929	450.56
580.14	447.56
580.35	448.56
580.561	457.56
580.772	436.56
580.982	461.56
581.193	465.56
581.403	436.56
581.614	448.56
581.825	445.56
582.035	434.56
582.246	434.56
582.456	428.56
582.667	436.56
582.877	422.56
583.087	428.56
583.298	438.56
583.508	439.56
583.719	422.56
583.929	429.56
584.139	428.56
584.35	415.56
584.56	413.56
584.77	430.56
584.981	429.56
585.191	424.56
585.401	422.56
585.611	440.56
585.821	438.56
586.032	440.56
586.242	434.56
586.452	414.56
586.662	398.56
586.872	435.56
587.082	416.56
587.292	417.56
587.502	417.56
587.713	424.56
587.923	408.56
588.133	397.56
588.343	407.56
588.553	401.56
588.762	430.56
588.972	427.56
589.182	465.56
589.392	449.56
589.602	433.56
589.812	459.56
590.022	456.56
590.232	424.56
590.441	417.56
590.651	424.56
590.861	434.56
591.071	426.56
591.281	444.56
591.49	436.56
591.7	429.56
591.91	449.56
592.119	452.56
592.329	468.56
592.539	471.56
592.748	469.56
592.958	473.56
593.167	469.56
593.377	483.56
593.587	489.56
593.796	487.56
594.006	509.56
594.215	489.56
594.424	480.56
594.634	486.56
594.843	466.56
595.053	470.56
595.262	451.56
595.472	441.56
595.681	433.56
595.89	422.56
596.1	399.56
596.309	394.56
596.518	412.56
596.727	404.56
596.937	402.56
597.146	387.56
597.355	366.56
597.564	376.56
597.774	392.56
597.983	356.56
598.192	366.56
598.401	382.56
598.61	377.56
598.819	369.56
599.028	365.56
599.237	355.56
599.446	341.56
599.655	358.56
599.864	344.56
600.073	337.56
600.282	345.56
600.491	352.56
600.7	331.56
600.909	326.56
601.118	340.56
601.327	331.56
601.536	335.56
601.745	353.56
601.953	339.56
602.162	345.56
602.371	340.56
602.58	326.56
602.789	346.56
602.997	339.56
603.206	340.56
603.415	334.56
603.623	332.56
603.832	309.56
604.041	336.56
604.249	316.56
604.458	319.56
604.666	320.56
604.875	313.56
605.084	326.56
605.292	308.56
605.501	318.56
605.709	312.56
605.918	320.56
606.126	316.56
606.334	321.56
606.543	326.56
606.751	304.56
606.96	316.56
607.168	306.56
607.376	324.56
607.585	309.56
607.793	291.56
608.001	306.56
608.21	306.56
608.418	301.56
608.626	322.56
608.834	328.56
609.043	308.56
609.251	300.56
609.459	302.56
609.667	289.56
609.875	300.56
610.083	291.56
610.291	280.56
610.499	310.56
610.707	319.56
610.916	304.56
611.124	322.56
611.332	304.56
611.54	290.56
611.748	309.56
611.955	293.56
612.163	289.56
612.371	307.56
612.579	309.56
612.787	305.56
612.995	308.56
613.203	314.56
613.411	300.56
613.618	267.56
613.826	298.56
614.034	277.56
614.242	290.56
614.449	284.56
614.657	307.56
614.865	292.56
615.072	299.56
615.28	281.56
615.488	288.56
615.695	301.56
615.903	300.56
616.111	316.56
616.318	299.56
616.526	284.56
616.733	291.56
616.941	286.56
617.148	267.56
617.356	284.56
617.563	295.56
617.771	304.56
617.978	278.56
618.185	290.56
618.393	278.56
618.6	281.56
618.807	296.56
619.015	272.56
619.222	274.56
619.429	279.56
619.637	294.56
619.844	282.56
620.051	281.56
620.258	284.56
620.466	267.56
620.673	285.56
620.88	245.56
621.087	276.56
621.294	279.56
621.501	265.56
621.708	280.56
621.915	260.56
622.122	243.56
622.329	269.56
622.536	266.56
622.743	277.56
622.95	270.56
623.157	264.56
623.364	272.56
623.571	248.56
623.778	253.56
623.985	276.56
624.192	257.56
624.399	245.56
624.606	265.56
624.812	241.56
625.019	258.56
625.226	268.56
625.433	266.56
625.639	265.56
625.846	248.56
626.053	254.56
626.259	269.56
626.466	255.56
626.673	253.56
626.879	243.56
627.086	245.56
627.293	240.56
627.499	237.56
627.706	249.56
627.912	237.56
628.119	248.56
628.325	244.56
628.532	221.56
628.738	244.56
628.945	246.56
629.151	257.56
629.357	240.56
629.564	235.56
629.77	225.56
629.976	228.56
630.183	231.56
630.389	225.56
630.595	235.56
630.802	225.56
631.008	227.56
631.214	236.56
631.42	249.56
631.627	250.56
631.833	234.56
632.039	218.56
632.245	226.56
632.451	228.56
632.657	229.56
632.863	204.56
633.069	212.56
633.275	225.56
633.481	210.56
633.688	232.56
633.893	212.56
634.099	227.56
634.305	213.56
634.511	222.56
634.717	227.56
634.923	219.56
635.129	200.56
635.335	220.56
635.541	209.56
635.747	220.56
635.952	210.56
636.158	215.56
636.364	209.56
636.57	200.56
636.775	206.56
636.981	203.56
637.187	201.56
637.392	200.56
637.598	204.56
637.804	211.56
638.009	203.56
638.215	192.56
638.421	200.56
638.626	204.56
638.832	221.56
639.037	204.56
639.243	202.56
639.448	220.56
639.654	196.56
639.859	196.56
640.065	204.56
640.27	215.56
640.475	206.56
640.681	204.56
640.886	200.56
641.091	198.56
641.297	201.56
641.502	199.56
641.707	196.56
641.913	200.56
642.118	189.56
642.323	191.56
642.528	208.56
642.733	189.56
642.939	184.56
643.144	190.56
643.349	197.56
643.554	197.56
643.759	187.56
643.964	194.56
644.169	180.56
644.374	194.56
644.579	173.56
644.784	191.56
644.989	188.56
645.194	187.56
645.399	195.56
645.604	179.56
645.809	200.56
646.014	193.56
646.219	204.56
646.423	202.56
646.628	188.56
646.833	192.56
647.038	189.56
647.243	194.56
647.447	174.56
647.652	178.56
647.857	188.56
648.062	209.56
648.266	206.56
648.471	200.56
648.676	202.56
648.88	202.56
649.085	207.56
649.289	197.56
649.494	184.56
649.698	201.56
649.903	189.56
650.107	202.56
650.312	179.56
650.516	196.56
650.721	194.56
650.925	159.56
651.13	178.56
651.334	181.56
651.539	164.56
651.743	182.56
651.947	188.56
652.152	182.56
652.356	170.56
652.56	167.56
652.764	169.56
652.969	148.56
653.173	169.56
653.377	140.56
653.581	150.56
653.785	160.56
653.99	158.56
654.194	167.56
654.398	152.56
654.602	136.56
654.806	156.56
655.01	153.56
655.214	165.56
655.418	154.56
655.622	150.56
655.826	158.56
656.03	141.56
656.234	146.56
656.438	150.56
656.642	147.56
656.846	127.56
657.049	145.56
657.253	138.56
657.457	132.56
657.661	124.56
657.865	119.56
658.068	102.56
658.272	123.56
658.476	128.56
658.68	128.56
658.883	114.56
659.087	117.56
659.291	118.56
659.494	114.56
659.698	108.56
659.901	95.56
660.105	117.56
660.309	99.56
660.512	107.56
660.716	98.56
660.919	90.56
661.123	106.56
661.326	102.56
661.53	96.56
661.733	81.56
661.936	96.56
662.14	98.56
662.343	104.56
662.546	86.56
662.75	86.56
662.953	93.56
663.156	90.56
663.36	81.56
663.563	92.56
663.766	85.56
663.969	73.56
664.173	82.56
664.376	89.56
664.579	81.56
664.782	94.56
664.985	69.56
665.188	93.56
665.391	90.56
665.594	74.56
665.797	77.56
666	87.56
666.203	86.56
666.406	76.56
666.609	76.56
666.812	87.56
667.015	81.56
667.218	91.56
667.421	92.56
667.624	83.56
667.827	72.56
668.03	90.56
668.232	92.56
668.435	84.56
668.638	94.56
668.841	81.56
669.043	83.56
669.246	81.56
669.449	85.56
669.651	78.56
669.854	90.56
670.057	72.56
670.259	88.56
670.462	77.56
670.665	84.56
670.867	89.56
671.07	88.56
671.272	81.56
671.475	81.56
671.677	83.56
671.88	99.56
672.082	78.56
672.284	74.56
672.487	81.56
672.689	88.56
672.892	83.56
