Data from NiCl2@0.25M.TitratingCurve.Agarose3%dH2O.NegLispCup.LampEnergy10.LIBS07252019_HRD10591_18-25-57-573.txt Node
Date: Thu Jul 25 18:25:57 EDT 2019
User: cochatt
Spectrometer: HR+D1059
Trigger mode: 1
Integration Time (sec): 1.000000E-1
Scans to average: 1
Electric dark correction enabled: true
Nonlinearity correction enabled: false
Boxcar width: 0
XAxis mode: Wavelengths
Number of Pixels in Spectrum: 2048
>>>>>Begin Spectral Data<<<<<
223.165	-6.31
223.4	-6.31
223.635	-6.31
223.869	-24.31
224.104	-24.31
224.338	-12.31
224.573	-16.31
224.808	-11.31
225.042	-15.31
225.277	-11.31
225.511	-4.31
225.746	7.69
225.98	10.69
226.215	11.69
226.449	24.69
226.683	16.69
226.918	28.69
227.152	25.69
227.387	32.69
227.621	33.69
227.856	48.69
228.09	50.69
228.324	43.69
228.559	52.69
228.793	66.69
229.027	105.69
229.262	107.69
229.496	116.69
229.73	125.69
229.964	126.69
230.199	147.69
230.433	141.69
230.667	131.69
230.901	136.69
231.136	138.69
231.37	153.69
231.604	156.69
231.838	144.69
232.072	152.69
232.306	132.69
232.541	143.69
232.775	157.69
233.009	139.69
233.243	144.69
233.477	178.69
233.711	156.69
233.945	150.69
234.179	152.69
234.413	153.69
234.647	165.69
234.881	153.69
235.115	144.69
235.349	154.69
235.583	168.69
235.817	165.69
236.051	162.69
236.285	165.69
236.519	168.69
236.753	168.69
236.987	163.69
237.221	168.69
237.455	182.69
237.689	172.69
237.922	168.69
238.156	173.69
238.39	178.69
238.624	175.69
238.858	182.69
239.091	176.69
239.325	172.69
239.559	173.69
239.793	192.69
240.027	198.69
240.26	185.69
240.494	185.69
240.728	192.69
240.961	204.69
241.195	192.69
241.429	199.69
241.662	198.69
241.896	210.69
242.13	196.69
242.363	199.69
242.597	200.69
242.83	198.69
243.064	193.69
243.298	215.69
243.531	217.69
243.765	218.69
243.998	219.69
244.232	214.69
244.465	222.69
244.699	227.69
244.932	231.69
245.166	219.69
245.399	225.69
245.633	228.69
245.866	226.69
246.099	234.69
246.333	231.69
246.566	226.69
246.8	240.69
247.033	234.69
247.266	215.69
247.5	225.69
247.733	239.69
247.966	246.69
248.2	246.69
248.433	231.69
248.666	245.69
248.899	265.69
249.133	258.69
249.366	254.69
249.599	268.69
249.832	260.69
250.066	259.69
250.299	266.69
250.532	264.69
250.765	270.69
250.998	262.69
251.231	265.69
251.465	264.69
251.698	268.69
251.931	277.69
252.164	270.69
252.397	289.69
252.63	268.69
252.863	289.69
253.096	304.69
253.329	288.69
253.562	278.69
253.795	301.69
254.028	286.69
254.261	292.69
254.494	301.69
254.727	313.69
254.96	291.69
255.193	294.69
255.426	310.69
255.659	276.69
255.892	305.69
256.124	295.69
256.357	293.69
256.59	302.69
256.823	320.69
257.056	310.69
257.289	301.69
257.521	323.69
257.754	318.69
257.987	316.69
258.22	328.69
258.452	299.69
258.685	314.69
258.918	322.69
259.151	310.69
259.383	328.69
259.616	333.69
259.849	331.69
260.081	321.69
260.314	339.69
260.547	339.69
260.779	336.69
261.012	328.69
261.244	322.69
261.477	340.69
261.71	336.69
261.942	342.69
262.175	330.69
262.407	360.69
262.64	352.69
262.872	347.69
263.105	357.69
263.337	363.69
263.57	353.69
263.802	335.69
264.035	334.69
264.267	368.69
264.499	374.69
264.732	357.69
264.964	368.69
265.197	373.69
265.429	370.69
265.661	370.69
265.894	393.69
266.126	374.69
266.358	365.69
266.591	376.69
266.823	386.69
267.055	385.69
267.287	388.69
267.52	370.69
267.752	364.69
267.984	382.69
268.216	378.69
268.448	397.69
268.681	379.69
268.913	385.69
269.145	390.69
269.377	390.69
269.609	391.69
269.841	390.69
270.073	388.69
270.306	404.69
270.538	388.69
270.77	378.69
271.002	414.69
271.234	392.69
271.466	402.69
271.698	394.69
271.93	381.69
272.162	424.69
272.394	412.69
272.626	414.69
272.858	395.69
273.09	406.69
273.322	420.69
273.553	417.69
273.785	411.69
274.017	409.69
274.249	416.69
274.481	415.69
274.713	420.69
274.945	448.69
275.176	445.69
275.408	432.69
275.64	450.69
275.872	428.69
276.104	426.69
276.335	457.69
276.567	462.69
276.799	448.69
277.031	456.69
277.262	450.69
277.494	459.69
277.726	449.69
277.957	449.69
278.189	454.69
278.421	466.69
278.652	466.69
278.884	460.69
279.115	460.69
279.347	468.69
279.579	465.69
279.81	475.69
280.042	457.69
280.273	485.69
280.505	468.69
280.736	466.69
280.968	489.69
281.199	485.69
281.431	484.69
281.662	488.69
281.894	509.69
282.125	466.69
282.356	500.69
282.588	476.69
282.819	504.69
283.051	511.69
283.282	487.69
283.513	498.69
283.745	482.69
283.976	486.69
284.207	519.69
284.439	508.69
284.67	498.69
284.901	520.69
285.132	527.69
285.364	503.69
285.595	511.69
285.826	521.69
286.057	526.69
286.288	545.69
286.52	522.69
286.751	527.69
286.982	537.69
287.213	521.69
287.444	508.69
287.675	548.69
287.906	540.69
288.138	527.69
288.369	514.69
288.6	528.69
288.831	552.69
289.062	556.69
289.293	546.69
289.524	538.69
289.755	541.69
289.986	549.69
290.217	556.69
290.448	565.69
290.679	561.69
290.91	546.69
291.141	553.69
291.371	551.69
291.602	577.69
291.833	542.69
292.064	569.69
292.295	577.69
292.526	527.69
292.757	536.69
292.987	547.69
293.218	550.69
293.449	563.69
293.68	545.69
293.91	567.69
294.141	554.69
294.372	546.69
294.603	577.69
294.833	589.69
295.064	561.69
295.295	595.69
295.525	571.69
295.756	552.69
295.987	581.69
296.217	574.69
296.448	573.69
296.679	577.69
296.909	581.69
297.14	596.69
297.37	586.69
297.601	599.69
297.831	598.69
298.062	591.69
298.292	597.69
298.523	628.69
298.753	626.69
298.984	610.69
299.214	617.69
299.445	612.69
299.675	608.69
299.905	642.69
300.136	610.69
300.366	600.69
300.597	590.69
300.827	605.69
301.057	632.69
301.288	617.69
301.518	618.69
301.748	638.69
301.979	649.69
302.209	643.69
302.439	631.69
302.669	609.69
302.9	636.69
303.13	607.69
303.36	630.69
303.59	614.69
303.82	638.69
304.051	644.69
304.281	633.69
304.511	628.69
304.741	636.69
304.971	634.69
305.201	632.69
305.431	638.69
305.661	618.69
305.891	632.69
306.121	619.69
306.352	636.69
306.582	613.69
306.812	608.69
307.042	600.69
307.272	605.69
307.502	622.69
307.731	606.69
307.961	602.69
308.191	600.69
308.421	632.69
308.651	628.69
308.881	609.69
309.111	597.69
309.341	612.69
309.571	629.69
309.8	614.69
310.03	633.69
310.26	613.69
310.49	620.69
310.72	627.69
310.949	609.69
311.179	630.69
311.409	623.69
311.639	603.69
311.868	634.69
312.098	634.69
312.328	642.69
312.557	613.69
312.787	672.69
313.017	659.69
313.246	652.69
313.476	653.69
313.706	659.69
313.935	672.69
314.165	672.69
314.394	644.69
314.624	661.69
314.853	670.69
315.083	670.69
315.312	690.69
315.542	648.69
315.771	660.69
316.001	660.69
316.23	647.69
316.46	650.69
316.689	652.69
316.919	633.69
317.148	636.69
317.377	643.69
317.607	642.69
317.836	654.69
318.065	648.69
318.295	630.69
318.524	645.69
318.753	662.69
318.983	638.69
319.212	616.69
319.441	655.69
319.67	667.69
319.9	639.69
320.129	673.69
320.358	640.69
320.587	646.69
320.816	658.69
321.046	632.69
321.275	630.69
321.504	635.69
321.733	653.69
321.962	644.69
322.191	664.69
322.42	668.69
322.649	644.69
322.878	654.69
323.108	645.69
323.337	682.69
323.566	662.69
323.795	669.69
324.024	635.69
324.253	666.69
324.482	650.69
324.71	664.69
324.939	683.69
325.168	662.69
325.397	685.69
325.626	717.69
325.855	710.69
326.084	692.69
326.313	703.69
326.542	713.69
326.77	718.69
326.999	718.69
327.228	690.69
327.457	706.69
327.686	693.69
327.914	706.69
328.143	710.69
328.372	716.69
328.6	703.69
328.829	700.69
329.058	730.69
329.287	708.69
329.515	726.69
329.744	711.69
329.972	706.69
330.201	726.69
330.43	760.69
330.658	716.69
330.887	715.69
331.115	734.69
331.344	745.69
331.572	735.69
331.801	780.69
332.03	788.69
332.258	788.69
332.486	810.69
332.715	832.69
332.943	868.69
333.172	890.69
333.4	926.69
333.629	940.69
333.857	954.69
334.085	940.69
334.314	945.69
334.542	932.69
334.771	902.69
334.999	926.69
335.227	893.69
335.455	898.69
335.684	863.69
335.912	905.69
336.14	887.69
336.369	882.69
336.597	872.69
336.825	873.69
337.053	858.69
337.281	836.69
337.51	850.69
337.738	827.69
337.966	826.69
338.194	812.69
338.422	788.69
338.65	790.69
338.878	785.69
339.106	749.69
339.334	774.69
339.562	756.69
339.79	730.69
340.018	756.69
340.246	728.69
340.474	732.69
340.702	735.69
340.93	783.69
341.158	771.69
341.386	737.69
341.614	759.69
341.842	736.69
342.07	732.69
342.298	708.69
342.526	721.69
342.754	749.69
342.981	740.69
343.209	765.69
343.437	796.69
343.665	832.69
343.893	875.69
344.12	927.69
344.348	896.69
344.576	845.69
344.804	829.69
345.031	776.69
345.259	768.69
345.487	759.69
345.714	748.69
345.942	718.69
346.17	750.69
346.397	746.69
346.625	720.69
346.853	729.69
347.08	714.69
347.308	720.69
347.535	728.69
347.763	716.69
347.99	719.69
348.218	737.69
348.445	722.69
348.673	724.69
348.9	716.69
349.128	733.69
349.355	702.69
349.583	708.69
349.81	715.69
350.037	686.69
350.265	692.69
350.492	693.69
350.72	707.69
350.947	694.69
351.174	706.69
351.402	697.69
351.629	678.69
351.856	688.69
352.083	688.69
352.311	679.69
352.538	696.69
352.765	677.69
352.992	686.69
353.22	678.69
353.447	688.69
353.674	685.69
353.901	684.69
354.128	674.69
354.355	659.69
354.583	664.69
354.81	693.69
355.037	716.69
355.264	711.69
355.491	677.69
355.718	674.69
355.945	676.69
356.172	672.69
356.399	705.69
356.626	698.69
356.853	712.69
357.08	711.69
357.307	712.69
357.534	682.69
357.761	690.69
357.988	696.69
358.215	701.69
358.441	685.69
358.668	685.69
358.895	716.69
359.122	672.69
359.349	653.69
359.576	699.69
359.802	686.69
360.029	706.69
360.256	684.69
360.483	717.69
360.709	707.69
360.936	707.69
361.163	691.69
361.39	680.69
361.616	685.69
361.843	677.69
362.07	685.69
362.296	714.69
362.523	677.69
362.749	695.69
362.976	690.69
363.203	695.69
363.429	673.69
363.656	690.69
363.882	678.69
364.109	695.69
364.335	678.69
364.562	664.69
364.788	675.69
365.015	688.69
365.241	706.69
365.468	699.69
365.694	680.69
365.92	685.69
366.147	690.69
366.373	690.69
366.599	707.69
366.826	695.69
367.052	683.69
367.278	696.69
367.505	667.69
367.731	694.69
367.957	716.69
368.184	692.69
368.41	697.69
368.636	702.69
368.862	685.69
369.089	698.69
369.315	710.69
369.541	698.69
369.767	708.69
369.993	715.69
370.219	731.69
370.445	708.69
370.672	714.69
370.898	710.69
371.124	732.69
371.35	736.69
371.576	735.69
371.802	786.69
372.028	746.69
372.254	741.69
372.48	763.69
372.706	763.69
372.932	793.69
373.158	784.69
373.384	774.69
373.61	752.69
373.835	752.69
374.061	752.69
374.287	765.69
374.513	782.69
374.739	783.69
374.965	832.69
375.191	856.69
375.416	837.69
375.642	796.69
375.868	813.69
376.094	792.69
376.319	775.69
376.545	767.69
376.771	738.69
376.997	750.69
377.222	745.69
377.448	756.69
377.674	762.69
377.899	749.69
378.125	734.69
378.35	769.69
378.576	746.69
378.802	729.69
379.027	719.69
379.253	732.69
379.478	719.69
379.704	722.69
379.929	725.69
380.155	744.69
380.38	757.69
380.606	748.69
380.831	759.69
381.057	764.69
381.282	757.69
381.507	737.69
381.733	760.69
381.958	778.69
382.184	756.69
382.409	781.69
382.634	774.69
382.86	754.69
383.085	780.69
383.31	812.69
383.535	812.69
383.761	830.69
383.986	812.69
384.211	861.69
384.436	878.69
384.662	892.69
384.887	874.69
385.112	900.69
385.337	906.69
385.562	913.69
385.787	924.69
386.013	912.69
386.238	906.69
386.463	898.69
386.688	915.69
386.913	913.69
387.138	900.69
387.363	902.69
387.588	898.69
387.813	897.69
388.038	906.69
388.263	891.69
388.488	913.69
388.713	910.69
388.938	906.69
389.163	887.69
389.387	918.69
389.612	874.69
389.837	876.69
390.062	875.69
390.287	886.69
390.512	869.69
390.736	898.69
390.961	914.69
391.186	911.69
391.411	976.69
391.636	976.69
391.86	1000.69
392.085	1021.69
392.31	1024.69
392.534	987.69
392.759	1019.69
392.984	986.69
393.208	973.69
393.433	955.69
393.658	958.69
393.882	956.69
394.107	984.69
394.331	952.69
394.556	965.69
394.78	980.69
395.005	982.69
395.229	988.69
395.454	999.69
395.678	1038.69
395.903	1018.69
396.127	1008.69
396.352	974.69
396.576	968.69
396.801	985.69
397.025	978.69
397.249	1013.69
397.474	1030.69
397.698	1025.69
397.922	1037.69
398.147	1051.69
398.371	1080.69
398.595	1105.69
398.82	1145.69
399.044	1233.69
399.268	1361.69
399.492	1501.69
399.717	1680.69
399.941	1698.69
400.165	1557.69
400.389	1416.69
400.613	1326.69
400.837	1252.69
401.062	1220.69
401.286	1180.69
401.51	1172.69
401.734	1162.69
401.958	1159.69
402.182	1208.69
402.406	1195.69
402.63	1211.69
402.854	1253.69
403.078	1244.69
403.302	1215.69
403.526	1288.69
403.75	1286.69
403.974	1325.69
404.198	1298.69
404.422	1319.69
404.645	1309.69
404.869	1267.69
405.093	1294.69
405.317	1256.69
405.541	1284.69
405.765	1281.69
405.988	1242.69
406.212	1268.69
406.436	1294.69
406.66	1297.69
406.883	1325.69
407.107	1373.69
407.331	1427.69
407.555	1516.69
407.778	1509.69
408.002	1452.69
408.226	1422.69
408.449	1365.69
408.673	1359.69
408.896	1318.69
409.12	1301.69
409.344	1344.69
409.567	1309.69
409.791	1333.69
410.014	1300.69
410.238	1241.69
410.461	1267.69
410.685	1261.69
410.908	1231.69
411.132	1232.69
411.355	1185.69
411.578	1196.69
411.802	1202.69
412.025	1173.69
412.249	1217.69
412.472	1195.69
412.695	1204.69
412.919	1146.69
413.142	1144.69
413.365	1154.69
413.589	1141.69
413.812	1168.69
414.035	1130.69
414.258	1124.69
414.482	1176.69
414.705	1179.69
414.928	1148.69
415.151	1150.69
415.374	1124.69
415.597	1103.69
415.821	1120.69
416.044	1090.69
416.267	1094.69
416.49	1085.69
416.713	1118.69
416.936	1119.69
417.159	1092.69
417.382	1108.69
417.605	1146.69
417.828	1124.69
418.051	1108.69
418.274	1118.69
418.497	1125.69
418.72	1140.69
418.943	1131.69
419.166	1249.69
419.389	1300.69
419.611	1316.69
419.834	1220.69
420.057	1185.69
420.28	1169.69
420.503	1131.69
420.726	1103.69
420.948	1108.69
421.171	1128.69
421.394	1134.69
421.617	1127.69
421.839	1152.69
422.062	1131.69
422.285	1100.69
422.507	1155.69
422.73	1167.69
422.953	1145.69
423.175	1166.69
423.398	1192.69
423.621	1159.69
423.843	1207.69
424.066	1186.69
424.288	1192.69
424.511	1190.69
424.733	1150.69
424.956	1150.69
425.178	1141.69
425.401	1151.69
425.623	1117.69
425.846	1122.69
426.068	1110.69
426.291	1097.69
426.513	1081.69
426.735	1065.69
426.958	1048.69
427.18	1022.69
427.402	1048.69
427.625	1036.69
427.847	1028.69
428.069	993.69
428.292	1030.69
428.514	1034.69
428.736	991.69
428.958	1020.69
429.181	982.69
429.403	973.69
429.625	988.69
429.847	952.69
430.069	996.69
430.292	984.69
430.514	982.69
430.736	964.69
430.958	976.69
431.18	1004.69
431.402	958.69
431.624	969.69
431.846	1009.69
432.068	1004.69
432.29	1044.69
432.512	972.69
432.734	1016.69
432.956	993.69
433.178	1034.69
433.4	993.69
433.622	996.69
433.844	1043.69
434.066	1026.69
434.287	1047.69
434.509	1100.69
434.731	1101.69
434.953	1126.69
435.175	1117.69
435.397	1112.69
435.618	1045.69
435.84	1054.69
436.062	1024.69
436.284	998.69
436.505	996.69
436.727	1036.69
436.949	1027.69
437.17	1021.69
437.392	1012.69
437.614	966.69
437.835	931.69
438.057	979.69
438.278	932.69
438.5	949.69
438.721	978.69
438.943	965.69
439.165	974.69
439.386	952.69
439.608	1008.69
439.829	979.69
440.05	996.69
440.272	1007.69
440.493	996.69
440.715	1033.69
440.936	1005.69
441.158	1042.69
441.379	1075.69
441.6	1152.69
441.822	1150.69
442.043	1114.69
442.264	1096.69
442.486	1088.69
442.707	1096.69
442.928	1093.69
443.149	1123.69
443.371	1075.69
443.592	1144.69
443.813	1130.69
444.034	1130.69
444.255	1146.69
444.476	1243.69
444.698	1290.69
444.919	1312.69
445.14	1344.69
445.361	1243.69
445.582	1161.69
445.803	1110.69
446.024	1059.69
446.245	1052.69
446.466	1027.69
446.687	1016.69
446.908	1029.69
447.129	995.69
447.35	958.69
447.571	979.69
447.792	940.69
448.013	937.69
448.234	930.69
448.455	928.69
448.675	919.69
448.896	901.69
449.117	901.69
449.338	895.69
449.559	885.69
449.779	894.69
450	937.69
450.221	886.69
450.442	898.69
450.662	927.69
450.883	900.69
451.104	950.69
451.324	941.69
451.545	931.69
451.766	933.69
451.986	948.69
452.207	910.69
452.428	892.69
452.648	904.69
452.869	870.69
453.089	880.69
453.31	917.69
453.53	884.69
453.751	922.69
453.971	914.69
454.192	884.69
454.412	852.69
454.633	885.69
454.853	889.69
455.073	846.69
455.294	900.69
455.514	851.69
455.734	830.69
455.955	835.69
456.175	864.69
456.395	853.69
456.616	873.69
456.836	852.69
457.056	845.69
457.276	849.69
457.497	881.69
457.717	876.69
457.937	853.69
458.157	876.69
458.377	906.69
458.598	916.69
458.818	930.69
459.038	974.69
459.258	1002.69
459.478	1008.69
459.698	1048.69
459.918	1059.69
460.138	1105.69
460.358	1156.69
460.578	1176.69
460.798	1210.69
461.018	1198.69
461.238	1221.69
461.458	1178.69
461.678	1204.69
461.898	1203.69
462.118	1238.69
462.338	1289.69
462.558	1295.69
462.777	1362.69
462.997	1457.69
463.217	1541.69
463.437	1617.69
463.657	1478.69
463.876	1422.69
464.096	1434.69
464.316	1431.69
464.536	1392.69
464.755	1346.69
464.975	1307.69
465.195	1233.69
465.414	1160.69
465.634	1098.69
465.854	1075.69
466.073	1024.69
466.293	1010.69
466.512	978.69
466.732	980.69
466.951	960.69
467.171	965.69
467.391	979.69
467.61	954.69
467.829	953.69
468.049	933.69
468.268	930.69
468.488	927.69
468.707	944.69
468.927	930.69
469.146	918.69
469.365	938.69
469.585	944.69
469.804	932.69
470.023	988.69
470.243	960.69
470.462	986.69
470.681	1001.69
470.901	991.69
471.12	956.69
471.339	952.69
471.558	949.69
471.777	915.69
471.997	955.69
472.216	943.69
472.435	903.69
472.654	891.69
472.873	893.69
473.092	885.69
473.311	890.69
473.53	887.69
473.749	904.69
473.968	900.69
474.187	917.69
474.406	891.69
474.625	929.69
474.844	892.69
475.063	908.69
475.282	876.69
475.501	900.69
475.72	924.69
475.939	937.69
476.158	932.69
476.377	955.69
476.596	944.69
476.814	956.69
477.033	936.69
477.252	985.69
477.471	999.69
477.69	1024.69
477.908	1016.69
478.127	1068.69
478.346	1066.69
478.564	1081.69
478.783	1108.69
479.002	1127.69
479.22	1140.69
479.439	1136.69
479.658	1141.69
479.876	1133.69
480.095	1152.69
480.313	1186.69
480.532	1196.69
480.751	1220.69
480.969	1138.69
481.188	1148.69
481.406	1097.69
481.624	1070.69
481.843	1059.69
482.061	1048.69
482.28	1048.69
482.498	1029.69
482.717	1034.69
482.935	1011.69
483.153	1008.69
483.372	1013.69
483.59	1054.69
483.808	1051.69
484.027	1012.69
484.245	1033.69
484.463	1058.69
484.681	1054.69
484.9	1053.69
485.118	1059.69
485.336	1053.69
485.554	1071.69
485.772	1096.69
485.99	1092.69
486.209	1112.69
486.427	1123.69
486.645	1117.69
486.863	1082.69
487.081	1098.69
487.299	1062.69
487.517	1064.69
487.735	1070.69
487.953	1072.69
488.171	1080.69
488.389	1070.69
488.607	1090.69
488.825	1062.69
489.043	1045.69
489.261	1080.69
489.479	1082.69
489.696	1066.69
489.914	1094.69
490.132	1100.69
490.35	1107.69
490.568	1140.69
490.786	1102.69
491.003	1090.69
491.221	1089.69
491.439	1091.69
491.657	1101.69
491.874	1114.69
492.092	1097.69
492.31	1118.69
492.527	1106.69
492.745	1112.69
492.963	1155.69
493.18	1140.69
493.398	1150.69
493.615	1152.69
493.833	1150.69
494.05	1137.69
494.268	1176.69
494.485	1177.69
494.703	1173.69
494.92	1141.69
495.138	1173.69
495.355	1172.69
495.573	1181.69
495.79	1187.69
496.008	1202.69
496.225	1204.69
496.442	1189.69
496.66	1222.69
496.877	1214.69
497.094	1257.69
497.312	1275.69
497.529	1301.69
497.746	1339.69
497.963	1371.69
498.181	1430.69
498.398	1554.69
498.615	1560.69
498.832	1747.69
499.049	1841.69
499.267	2010.69
499.484	2184.69
499.701	2445.69
499.918	2640.69
500.135	2924.69
500.352	3358.69
500.569	3440.69
500.786	3382.69
501.003	3204.69
501.22	2950.69
501.437	2678.69
501.654	2333.69
501.871	2134.69
502.088	1962.69
502.305	1824.69
502.522	1694.69
502.739	1644.69
502.956	1569.69
503.172	1493.69
503.389	1445.69
503.606	1388.69
503.823	1365.69
504.04	1352.69
504.256	1366.69
504.473	1393.69
504.69	1358.69
504.907	1389.69
505.123	1283.69
505.34	1246.69
505.557	1224.69
505.773	1162.69
505.99	1101.69
506.207	1092.69
506.423	1066.69
506.64	1076.69
506.856	1072.69
507.073	1080.69
507.289	1034.69
507.506	1020.69
507.722	1020.69
507.939	1018.69
508.155	1020.69
508.372	994.69
508.588	997.69
508.805	994.69
509.021	1014.69
509.238	998.69
509.454	956.69
509.67	932.69
509.887	939.69
510.103	967.69
510.319	934.69
510.536	920.69
510.752	941.69
510.968	937.69
511.184	950.69
511.401	931.69
511.617	933.69
511.833	946.69
512.049	915.69
512.265	944.69
512.481	914.69
512.698	928.69
512.914	956.69
513.13	936.69
513.346	964.69
513.562	911.69
513.778	953.69
513.994	944.69
514.21	947.69
514.426	952.69
514.642	956.69
514.858	971.69
515.074	950.69
515.29	980.69
515.506	966.69
515.721	977.69
515.937	972.69
516.153	1025.69
516.369	1048.69
516.585	1090.69
516.801	1138.69
517.016	1166.69
517.232	1216.69
517.448	1261.69
517.664	1274.69
517.879	1324.69
518.095	1311.69
518.311	1264.69
518.527	1258.69
518.742	1192.69
518.958	1159.69
519.173	1084.69
519.389	1074.69
519.605	1026.69
519.82	1019.69
520.036	990.69
520.251	966.69
520.467	975.69
520.682	964.69
520.898	936.69
521.113	935.69
521.329	901.69
521.544	922.69
521.76	915.69
521.975	906.69
522.19	874.69
522.406	885.69
522.621	902.69
522.836	882.69
523.052	889.69
523.267	879.69
523.482	883.69
523.698	898.69
523.913	882.69
524.128	871.69
524.343	875.69
524.559	849.69
524.774	842.69
524.989	869.69
525.204	858.69
525.419	888.69
525.634	844.69
525.849	861.69
526.064	834.69
526.28	872.69
526.495	853.69
526.71	818.69
526.925	856.69
527.14	853.69
527.355	876.69
527.57	845.69
527.785	830.69
527.999	825.69
528.214	852.69
528.429	838.69
528.644	846.69
528.859	832.69
529.074	845.69
529.289	844.69
529.503	846.69
529.718	860.69
529.933	848.69
530.148	832.69
530.363	834.69
530.577	807.69
530.792	828.69
531.007	843.69
531.221	844.69
531.436	862.69
531.651	875.69
531.865	839.69
532.08	837.69
532.295	850.69
532.509	825.69
532.724	825.69
532.938	836.69
533.153	831.69
533.367	812.69
533.582	856.69
533.796	820.69
534.011	833.69
534.225	851.69
534.44	803.69
534.654	831.69
534.868	825.69
535.083	821.69
535.297	800.69
535.511	809.69
535.726	826.69
535.94	803.69
536.154	798.69
536.369	786.69
536.583	791.69
536.797	789.69
537.011	764.69
537.225	769.69
537.44	777.69
537.654	793.69
537.868	778.69
538.082	755.69
538.296	760.69
538.51	770.69
538.724	762.69
538.938	786.69
539.153	793.69
539.367	800.69
539.581	725.69
539.795	743.69
540.009	772.69
540.222	772.69
540.436	756.69
540.65	744.69
540.864	742.69
541.078	770.69
541.292	758.69
541.506	764.69
541.72	741.69
541.934	745.69
542.147	777.69
542.361	786.69
542.575	743.69
542.789	752.69
543.002	721.69
543.216	756.69
543.43	731.69
543.644	722.69
543.857	750.69
544.071	740.69
544.285	753.69
544.498	736.69
544.712	738.69
544.925	762.69
545.139	759.69
545.352	782.69
545.566	753.69
545.779	752.69
545.993	787.69
546.206	776.69
546.42	766.69
546.633	786.69
546.847	789.69
547.06	766.69
547.274	778.69
547.487	776.69
547.7	767.69
547.914	773.69
548.127	786.69
548.34	802.69
548.554	791.69
548.767	772.69
548.98	812.69
549.193	775.69
549.407	764.69
549.62	794.69
549.833	779.69
550.046	788.69
550.259	768.69
550.473	738.69
550.686	757.69
550.899	775.69
551.112	748.69
551.325	750.69
551.538	747.69
551.751	738.69
551.964	755.69
552.177	772.69
552.39	770.69
552.603	784.69
552.816	805.69
553.029	840.69
553.242	839.69
553.455	857.69
553.667	850.69
553.88	825.69
554.093	828.69
554.306	804.69
554.519	764.69
554.732	772.69
554.944	773.69
555.157	744.69
555.37	732.69
555.583	707.69
555.795	718.69
556.008	664.69
556.221	684.69
556.433	674.69
556.646	684.69
556.859	702.69
557.071	680.69
557.284	667.69
557.496	658.69
557.709	672.69
557.921	676.69
558.134	676.69
558.346	668.69
558.559	661.69
558.771	642.69
558.984	619.69
559.196	652.69
559.409	640.69
559.621	625.69
559.833	645.69
560.046	630.69
560.258	613.69
560.47	648.69
560.683	620.69
560.895	638.69
561.107	620.69
561.32	619.69
561.532	641.69
561.744	630.69
561.956	630.69
562.168	632.69
562.381	636.69
562.593	632.69
562.805	632.69
563.017	636.69
563.229	652.69
563.441	664.69
563.653	658.69
563.865	648.69
564.077	665.69
564.289	660.69
564.501	685.69
564.713	681.69
564.925	677.69
565.137	681.69
565.349	707.69
565.561	757.69
565.773	765.69
565.985	825.69
566.197	858.69
566.408	900.69
566.62	958.69
566.832	1022.69
567.044	1086.69
567.255	1080.69
567.467	1095.69
567.679	1115.69
567.891	1186.69
568.102	1200.69
568.314	1142.69
568.526	1045.69
568.737	972.69
568.949	874.69
569.161	842.69
569.372	776.69
569.584	760.69
569.795	725.69
570.007	696.69
570.218	671.69
570.43	679.69
570.641	673.69
570.853	669.69
571.064	642.69
571.276	678.69
571.487	634.69
571.698	616.69
571.91	611.69
572.121	593.69
572.333	553.69
572.544	581.69
572.755	539.69
572.966	534.69
573.178	544.69
573.389	549.69
573.6	530.69
573.811	533.69
574.023	540.69
574.234	525.69
574.445	552.69
574.656	536.69
574.867	545.69
575.078	518.69
575.289	534.69
575.501	528.69
575.712	517.69
575.923	502.69
576.134	488.69
576.345	516.69
576.556	498.69
576.767	488.69
576.978	498.69
577.188	504.69
577.399	518.69
577.61	479.69
577.821	477.69
578.032	472.69
578.243	473.69
578.454	470.69
578.665	479.69
578.875	496.69
579.086	449.69
579.297	451.69
579.508	444.69
579.718	453.69
579.929	452.69
580.14	446.69
580.35	449.69
580.561	464.69
580.772	481.69
580.982	446.69
581.193	439.69
581.403	436.69
581.614	448.69
581.825	433.69
582.035	457.69
582.246	410.69
582.456	438.69
582.667	442.69
582.877	448.69
583.087	447.69
583.298	441.69
583.508	422.69
583.719	438.69
583.929	449.69
584.139	429.69
584.35	438.69
584.56	442.69
584.77	436.69
584.981	426.69
585.191	425.69
585.401	424.69
585.611	445.69
585.821	423.69
586.032	429.69
586.242	429.69
586.452	433.69
586.662	419.69
586.872	426.69
587.082	427.69
587.292	421.69
587.502	438.69
587.713	442.69
587.923	432.69
588.133	412.69
588.343	450.69
588.553	419.69
588.762	424.69
588.972	416.69
589.182	413.69
589.392	421.69
589.602	421.69
589.812	409.69
590.022	450.69
590.232	412.69
590.441	418.69
590.651	418.69
590.861	401.69
591.071	432.69
591.281	427.69
591.49	434.69
591.7	434.69
591.91	468.69
592.119	457.69
592.329	472.69
592.539	485.69
592.748	508.69
592.958	513.69
593.167	530.69
593.377	530.69
593.587	526.69
593.796	561.69
594.006	548.69
594.215	526.69
594.424	534.69
594.634	533.69
594.843	492.69
595.053	499.69
595.262	468.69
595.472	452.69
595.681	441.69
595.89	442.69
596.1	430.69
596.309	428.69
596.518	412.69
596.727	412.69
596.937	396.69
597.146	392.69
597.355	383.69
597.564	398.69
597.774	397.69
597.983	375.69
598.192	387.69
598.401	385.69
598.61	377.69
598.819	388.69
599.028	378.69
599.237	365.69
599.446	380.69
599.655	363.69
599.864	340.69
600.073	350.69
600.282	360.69
600.491	350.69
600.7	371.69
600.909	362.69
601.118	352.69
601.327	352.69
601.536	348.69
601.745	341.69
601.953	354.69
602.162	337.69
602.371	338.69
602.58	343.69
602.789	325.69
602.997	336.69
603.206	338.69
603.415	328.69
603.623	336.69
603.832	327.69
604.041	337.69
604.249	330.69
604.458	341.69
604.666	341.69
604.875	335.69
605.084	328.69
605.292	333.69
605.501	344.69
605.709	322.69
605.918	317.69
606.126	299.69
606.334	337.69
606.543	323.69
606.751	343.69
606.96	325.69
607.168	323.69
607.376	326.69
607.585	304.69
607.793	316.69
608.001	325.69
608.21	328.69
608.418	316.69
608.626	314.69
608.834	311.69
609.043	312.69
609.251	314.69
609.459	311.69
609.667	320.69
609.875	317.69
610.083	317.69
610.291	314.69
610.499	312.69
610.707	306.69
610.916	299.69
611.124	302.69
611.332	294.69
611.54	302.69
611.748	317.69
611.955	324.69
612.163	319.69
612.371	305.69
612.579	296.69
612.787	303.69
612.995	305.69
613.203	311.69
613.411	315.69
613.618	308.69
613.826	298.69
614.034	304.69
614.242	309.69
614.449	302.69
614.657	309.69
614.865	309.69
615.072	312.69
615.28	304.69
615.488	283.69
615.695	296.69
615.903	302.69
616.111	293.69
616.318	308.69
616.526	290.69
616.733	289.69
616.941	297.69
617.148	308.69
617.356	315.69
617.563	306.69
617.771	300.69
617.978	294.69
618.185	290.69
618.393	312.69
618.6	293.69
618.807	308.69
619.015	288.69
619.222	287.69
619.429	296.69
619.637	308.69
619.844	312.69
620.051	306.69
620.258	295.69
620.466	283.69
620.673	282.69
620.88	284.69
621.087	294.69
621.294	287.69
621.501	276.69
621.708	278.69
621.915	266.69
622.122	271.69
622.329	268.69
622.536	293.69
622.743	277.69
622.95	276.69
623.157	264.69
623.364	282.69
623.571	277.69
623.778	268.69
623.985	269.69
624.192	284.69
624.399	279.69
624.606	276.69
624.812	277.69
625.019	258.69
625.226	264.69
625.433	249.69
625.639	260.69
625.846	265.69
626.053	274.69
626.259	281.69
626.466	257.69
626.673	268.69
626.879	252.69
627.086	266.69
627.293	275.69
627.499	288.69
627.706	245.69
627.912	268.69
628.119	251.69
628.325	262.69
628.532	260.69
628.738	229.69
628.945	252.69
629.151	254.69
629.357	237.69
629.564	256.69
629.77	253.69
629.976	236.69
630.183	224.69
630.389	233.69
630.595	257.69
630.802	249.69
631.008	245.69
631.214	252.69
631.42	237.69
631.627	233.69
631.833	236.69
632.039	239.69
632.245	234.69
632.451	230.69
632.657	236.69
632.863	253.69
633.069	238.69
633.275	222.69
633.481	237.69
633.688	221.69
633.893	230.69
634.099	220.69
634.305	228.69
634.511	233.69
634.717	221.69
634.923	214.69
635.129	218.69
635.335	211.69
635.541	222.69
635.747	223.69
635.952	204.69
636.158	213.69
636.364	220.69
636.57	222.69
636.775	223.69
636.981	225.69
637.187	218.69
637.392	209.69
637.598	225.69
637.804	220.69
638.009	209.69
638.215	216.69
638.421	227.69
638.626	204.69
638.832	219.69
639.037	201.69
639.243	203.69
639.448	211.69
639.654	200.69
639.859	206.69
640.065	207.69
640.27	214.69
640.475	212.69
640.681	218.69
640.886	211.69
641.091	202.69
641.297	210.69
641.502	209.69
641.707	201.69
641.913	220.69
642.118	201.69
642.323	178.69
642.528	195.69
642.733	201.69
642.939	173.69
643.144	202.69
643.349	190.69
643.554	184.69
643.759	226.69
643.964	171.69
644.169	205.69
644.374	207.69
644.579	190.69
644.784	184.69
644.989	213.69
645.194	201.69
645.399	181.69
645.604	209.69
645.809	189.69
646.014	192.69
646.219	201.69
646.423	184.69
646.628	198.69
646.833	195.69
647.038	196.69
647.243	191.69
647.447	211.69
647.652	199.69
647.857	200.69
648.062	201.69
648.266	215.69
648.471	195.69
648.676	208.69
648.88	196.69
649.085	203.69
649.289	199.69
649.494	198.69
649.698	198.69
649.903	180.69
650.107	188.69
650.312	188.69
650.516	183.69
650.721	188.69
650.925	179.69
651.13	164.69
651.334	174.69
651.539	177.69
651.743	180.69
651.947	164.69
652.152	160.69
652.356	176.69
652.56	145.69
652.764	166.69
652.969	159.69
653.173	149.69
653.377	145.69
653.581	161.69
653.785	171.69
653.99	137.69
654.194	163.69
654.398	161.69
654.602	146.69
654.806	165.69
655.01	150.69
655.214	137.69
655.418	139.69
655.622	164.69
655.826	134.69
656.03	139.69
656.234	148.69
656.438	132.69
656.642	132.69
656.846	128.69
657.049	125.69
657.253	126.69
657.457	130.69
657.661	112.69
657.865	133.69
658.068	122.69
658.272	115.69
658.476	110.69
658.68	110.69
658.883	115.69
659.087	96.69
659.291	112.69
659.494	107.69
659.698	103.69
659.901	108.69
660.105	89.69
660.309	105.69
660.512	102.69
660.716	109.69
660.919	98.69
661.123	108.69
661.326	87.69
661.53	108.69
661.733	85.69
661.936	83.69
662.14	92.69
662.343	89.69
662.546	96.69
662.75	89.69
662.953	91.69
663.156	83.69
663.36	82.69
663.563	87.69
663.766	98.69
663.969	90.69
664.173	91.69
664.376	88.69
664.579	93.69
664.782	88.69
664.985	88.69
665.188	98.69
665.391	84.69
665.594	75.69
665.797	80.69
666	77.69
666.203	78.69
666.406	94.69
666.609	106.69
666.812	84.69
667.015	86.69
667.218	95.69
667.421	85.69
667.624	70.69
667.827	77.69
668.03	83.69
668.232	80.69
668.435	87.69
668.638	90.69
668.841	82.69
669.043	84.69
669.246	94.69
669.449	77.69
669.651	88.69
669.854	77.69
670.057	102.69
670.259	86.69
670.462	88.69
670.665	74.69
670.867	78.69
671.07	102.69
671.272	78.69
671.475	77.69
671.677	79.69
671.88	92.69
672.082	88.69
672.284	95.69
672.487	72.69
672.689	71.69
672.892	77.69
