Data from NiCl2@0.25M.TitratingCurve.Agarose3%dH2O.NegLispCup.LampEnergy10.LIBS07252019_HRD10591_18-23-34-572.txt Node
Date: Thu Jul 25 18:23:34 EDT 2019
User: cochatt
Spectrometer: HR+D1059
Trigger mode: 1
Integration Time (sec): 1.000000E-1
Scans to average: 1
Electric dark correction enabled: true
Nonlinearity correction enabled: false
Boxcar width: 0
XAxis mode: Wavelengths
Number of Pixels in Spectrum: 2048
>>>>>Begin Spectral Data<<<<<
223.165	-12.94
223.4	-12.94
223.635	-12.94
223.869	-24.94
224.104	-4.94
224.338	-9.94
224.573	-37.94
224.808	-29.94
225.042	-14.94
225.277	4.06
225.511	0.06
225.746	6.06
225.98	5.06
226.215	6.06
226.449	11.06
226.683	33.06
226.918	29.06
227.152	41.06
227.387	16.06
227.621	32.06
227.856	36.06
228.09	56.06
228.324	46.06
228.559	49.06
228.793	69.06
229.027	137.06
229.262	130.06
229.496	128.06
229.73	120.06
229.964	133.06
230.199	143.06
230.433	158.06
230.667	164.06
230.901	145.06
231.136	155.06
231.37	154.06
231.604	168.06
231.838	149.06
232.072	169.06
232.306	184.06
232.541	172.06
232.775	178.06
233.009	164.06
233.243	181.06
233.477	169.06
233.711	185.06
233.945	179.06
234.179	181.06
234.413	180.06
234.647	154.06
234.881	173.06
235.115	174.06
235.349	191.06
235.583	188.06
235.817	167.06
236.051	182.06
236.285	178.06
236.519	178.06
236.753	185.06
236.987	188.06
237.221	193.06
237.455	195.06
237.689	192.06
237.922	181.06
238.156	180.06
238.39	201.06
238.624	204.06
238.858	189.06
239.091	193.06
239.325	202.06
239.559	192.06
239.793	200.06
240.027	220.06
240.26	210.06
240.494	216.06
240.728	226.06
240.961	208.06
241.195	221.06
241.429	224.06
241.662	240.06
241.896	229.06
242.13	243.06
242.363	202.06
242.597	242.06
242.83	246.06
243.064	256.06
243.298	264.06
243.531	249.06
243.765	266.06
243.998	257.06
244.232	242.06
244.465	241.06
244.699	259.06
244.932	251.06
245.166	270.06
245.399	258.06
245.633	266.06
245.866	276.06
246.099	267.06
246.333	286.06
246.566	276.06
246.8	281.06
247.033	277.06
247.266	279.06
247.5	274.06
247.733	269.06
247.966	282.06
248.2	305.06
248.433	294.06
248.666	308.06
248.899	288.06
249.133	294.06
249.366	289.06
249.599	314.06
249.832	317.06
250.066	310.06
250.299	322.06
250.532	322.06
250.765	309.06
250.998	320.06
251.231	304.06
251.465	327.06
251.698	338.06
251.931	336.06
252.164	330.06
252.397	343.06
252.63	324.06
252.863	332.06
253.096	335.06
253.329	318.06
253.562	340.06
253.795	350.06
254.028	341.06
254.261	342.06
254.494	353.06
254.727	373.06
254.96	349.06
255.193	342.06
255.426	358.06
255.659	350.06
255.892	338.06
256.124	342.06
256.357	368.06
256.59	369.06
256.823	359.06
257.056	354.06
257.289	360.06
257.521	375.06
257.754	374.06
257.987	398.06
258.22	394.06
258.452	371.06
258.685	379.06
258.918	384.06
259.151	379.06
259.383	376.06
259.616	362.06
259.849	370.06
260.081	398.06
260.314	391.06
260.547	402.06
260.779	397.06
261.012	394.06
261.244	386.06
261.477	412.06
261.71	400.06
261.942	387.06
262.175	403.06
262.407	429.06
262.64	384.06
262.872	408.06
263.105	441.06
263.337	418.06
263.57	418.06
263.802	424.06
264.035	430.06
264.267	442.06
264.499	421.06
264.732	435.06
264.964	440.06
265.197	429.06
265.429	422.06
265.661	440.06
265.894	442.06
266.126	460.06
266.358	454.06
266.591	426.06
266.823	450.06
267.055	429.06
267.287	459.06
267.52	448.06
267.752	464.06
267.984	453.06
268.216	462.06
268.448	458.06
268.681	450.06
268.913	475.06
269.145	477.06
269.377	482.06
269.609	467.06
269.841	480.06
270.073	466.06
270.306	481.06
270.538	476.06
270.77	464.06
271.002	457.06
271.234	474.06
271.466	476.06
271.698	491.06
271.93	487.06
272.162	491.06
272.394	503.06
272.626	498.06
272.858	489.06
273.09	499.06
273.322	505.06
273.553	495.06
273.785	486.06
274.017	493.06
274.249	520.06
274.481	536.06
274.713	509.06
274.945	526.06
275.176	514.06
275.408	539.06
275.64	536.06
275.872	537.06
276.104	518.06
276.335	522.06
276.567	520.06
276.799	520.06
277.031	551.06
277.262	529.06
277.494	554.06
277.726	548.06
277.957	546.06
278.189	550.06
278.421	548.06
278.652	551.06
278.884	545.06
279.115	560.06
279.347	558.06
279.579	545.06
279.81	557.06
280.042	562.06
280.273	553.06
280.505	573.06
280.736	563.06
280.968	581.06
281.199	589.06
281.431	614.06
281.662	590.06
281.894	578.06
282.125	596.06
282.356	589.06
282.588	596.06
282.819	610.06
283.051	594.06
283.282	590.06
283.513	614.06
283.745	613.06
283.976	614.06
284.207	600.06
284.439	626.06
284.67	606.06
284.901	618.06
285.132	617.06
285.364	625.06
285.595	610.06
285.826	629.06
286.057	621.06
286.288	620.06
286.52	635.06
286.751	624.06
286.982	641.06
287.213	615.06
287.444	636.06
287.675	658.06
287.906	649.06
288.138	648.06
288.369	664.06
288.6	655.06
288.831	657.06
289.062	628.06
289.293	654.06
289.524	671.06
289.755	648.06
289.986	645.06
290.217	660.06
290.448	667.06
290.679	677.06
290.91	656.06
291.141	675.06
291.371	674.06
291.602	673.06
291.833	686.06
292.064	679.06
292.295	666.06
292.526	683.06
292.757	672.06
292.987	684.06
293.218	670.06
293.449	688.06
293.68	660.06
293.91	664.06
294.141	656.06
294.372	685.06
294.603	690.06
294.833	677.06
295.064	655.06
295.295	685.06
295.525	680.06
295.756	674.06
295.987	712.06
296.217	702.06
296.448	714.06
296.679	694.06
296.909	696.06
297.14	689.06
297.37	722.06
297.601	699.06
297.831	726.06
298.062	708.06
298.292	725.06
298.523	756.06
298.753	753.06
298.984	729.06
299.214	733.06
299.445	732.06
299.675	755.06
299.905	758.06
300.136	745.06
300.366	732.06
300.597	737.06
300.827	765.06
301.057	753.06
301.288	782.06
301.518	762.06
301.748	759.06
301.979	775.06
302.209	782.06
302.439	774.06
302.669	770.06
302.9	746.06
303.13	735.06
303.36	760.06
303.59	722.06
303.82	768.06
304.051	747.06
304.281	761.06
304.511	730.06
304.741	754.06
304.971	758.06
305.201	762.06
305.431	768.06
305.661	750.06
305.891	792.06
306.121	738.06
306.352	770.06
306.582	758.06
306.812	744.06
307.042	753.06
307.272	759.06
307.502	770.06
307.731	773.06
307.961	733.06
308.191	717.06
308.421	771.06
308.651	736.06
308.881	732.06
309.111	754.06
309.341	725.06
309.571	743.06
309.8	742.06
310.03	733.06
310.26	752.06
310.49	756.06
310.72	766.06
310.949	743.06
311.179	741.06
311.409	741.06
311.639	776.06
311.868	784.06
312.098	776.06
312.328	773.06
312.557	777.06
312.787	786.06
313.017	796.06
313.246	830.06
313.476	802.06
313.706	816.06
313.935	816.06
314.165	800.06
314.394	812.06
314.624	806.06
314.853	794.06
315.083	830.06
315.312	804.06
315.542	804.06
315.771	803.06
316.001	814.06
316.23	795.06
316.46	805.06
316.689	808.06
316.919	790.06
317.148	817.06
317.377	782.06
317.607	778.06
317.836	786.06
318.065	796.06
318.295	782.06
318.524	803.06
318.753	792.06
318.983	778.06
319.212	792.06
319.441	777.06
319.67	802.06
319.9	786.06
320.129	796.06
320.358	793.06
320.587	808.06
320.816	805.06
321.046	792.06
321.275	797.06
321.504	793.06
321.733	794.06
321.962	812.06
322.191	803.06
322.42	792.06
322.649	835.06
322.878	812.06
323.108	809.06
323.337	826.06
323.566	836.06
323.795	830.06
324.024	828.06
324.253	844.06
324.482	841.06
324.71	845.06
324.939	841.06
325.168	814.06
325.397	830.06
325.626	861.06
325.855	821.06
326.084	864.06
326.313	902.06
326.542	918.06
326.77	902.06
326.999	890.06
327.228	836.06
327.457	841.06
327.686	862.06
327.914	849.06
328.143	891.06
328.372	879.06
328.6	898.06
328.829	882.06
329.058	867.06
329.287	865.06
329.515	874.06
329.744	896.06
329.972	902.06
330.201	881.06
330.43	922.06
330.658	873.06
330.887	935.06
331.115	917.06
331.344	919.06
331.572	908.06
331.801	929.06
332.03	987.06
332.258	968.06
332.486	1027.06
332.715	1022.06
332.943	1090.06
333.172	1117.06
333.4	1153.06
333.629	1182.06
333.857	1179.06
334.085	1208.06
334.314	1157.06
334.542	1191.06
334.771	1142.06
334.999	1125.06
335.227	1109.06
335.455	1111.06
335.684	1070.06
335.912	1085.06
336.14	1062.06
336.369	1056.06
336.597	1059.06
336.825	1043.06
337.053	1046.06
337.281	1056.06
337.51	1030.06
337.738	1000.06
337.966	994.06
338.194	1006.06
338.422	958.06
338.65	920.06
338.878	949.06
339.106	976.06
339.334	958.06
339.562	957.06
339.79	946.06
340.018	914.06
340.246	889.06
340.474	890.06
340.702	932.06
340.93	932.06
341.158	947.06
341.386	949.06
341.614	941.06
341.842	938.06
342.07	915.06
342.298	896.06
342.526	902.06
342.754	907.06
342.981	920.06
343.209	936.06
343.437	976.06
343.665	1043.06
343.893	1089.06
344.12	1152.06
344.348	1091.06
344.576	1056.06
344.804	997.06
345.031	964.06
345.259	942.06
345.487	958.06
345.714	914.06
345.942	935.06
346.17	936.06
346.397	898.06
346.625	884.06
346.853	888.06
347.08	871.06
347.308	880.06
347.535	873.06
347.763	865.06
347.99	881.06
348.218	888.06
348.445	877.06
348.673	886.06
348.9	866.06
349.128	873.06
349.355	853.06
349.583	872.06
349.81	885.06
350.037	856.06
350.265	845.06
350.492	858.06
350.72	841.06
350.947	867.06
351.174	872.06
351.402	838.06
351.629	848.06
351.856	840.06
352.083	846.06
352.311	857.06
352.538	879.06
352.765	854.06
352.992	828.06
353.22	837.06
353.447	843.06
353.674	837.06
353.901	841.06
354.128	828.06
354.355	825.06
354.583	842.06
354.81	824.06
355.037	825.06
355.264	828.06
355.491	840.06
355.718	818.06
355.945	857.06
356.172	824.06
356.399	849.06
356.626	852.06
356.853	872.06
357.08	837.06
357.307	865.06
357.534	835.06
357.761	868.06
357.988	830.06
358.215	828.06
358.441	819.06
358.668	834.06
358.895	830.06
359.122	842.06
359.349	849.06
359.576	856.06
359.802	843.06
360.029	838.06
360.256	859.06
360.483	861.06
360.709	836.06
360.936	857.06
361.163	851.06
361.39	829.06
361.616	831.06
361.843	860.06
362.07	861.06
362.296	869.06
362.523	861.06
362.749	852.06
362.976	830.06
363.203	811.06
363.429	795.06
363.656	838.06
363.882	852.06
364.109	820.06
364.335	820.06
364.562	828.06
364.788	810.06
365.015	832.06
365.241	836.06
365.468	841.06
365.694	848.06
365.92	843.06
366.147	826.06
366.373	840.06
366.599	863.06
366.826	832.06
367.052	855.06
367.278	850.06
367.505	844.06
367.731	866.06
367.957	846.06
368.184	859.06
368.41	850.06
368.636	836.06
368.862	884.06
369.089	873.06
369.315	858.06
369.541	849.06
369.767	858.06
369.993	886.06
370.219	884.06
370.445	895.06
370.672	882.06
370.898	905.06
371.124	889.06
371.35	915.06
371.576	900.06
371.802	916.06
372.028	893.06
372.254	924.06
372.48	910.06
372.706	952.06
372.932	950.06
373.158	968.06
373.384	930.06
373.61	934.06
373.835	905.06
374.061	886.06
374.287	914.06
374.513	949.06
374.739	955.06
374.965	980.06
375.191	1030.06
375.416	1006.06
375.642	982.06
375.868	961.06
376.094	952.06
376.319	948.06
376.545	951.06
376.771	938.06
376.997	909.06
377.222	930.06
377.448	925.06
377.674	928.06
377.899	893.06
378.125	918.06
378.35	921.06
378.576	922.06
378.802	920.06
379.027	883.06
379.253	896.06
379.478	896.06
379.704	875.06
379.929	884.06
380.155	906.06
380.38	875.06
380.606	906.06
380.831	914.06
381.057	942.06
381.282	897.06
381.507	933.06
381.733	906.06
381.958	925.06
382.184	958.06
382.409	919.06
382.634	920.06
382.86	955.06
383.085	954.06
383.31	974.06
383.535	972.06
383.761	989.06
383.986	1002.06
384.211	1042.06
384.436	1052.06
384.662	1081.06
384.887	1090.06
385.112	1080.06
385.337	1107.06
385.562	1109.06
385.787	1077.06
386.013	1111.06
386.238	1127.06
386.463	1146.06
386.688	1141.06
386.913	1100.06
387.138	1089.06
387.363	1124.06
387.588	1082.06
387.813	1101.06
388.038	1104.06
388.263	1088.06
388.488	1104.06
388.713	1099.06
388.938	1097.06
389.163	1069.06
389.387	1051.06
389.612	1090.06
389.837	1032.06
390.062	1067.06
390.287	1083.06
390.512	1045.06
390.736	1099.06
390.961	1104.06
391.186	1163.06
391.411	1160.06
391.636	1196.06
391.86	1240.06
392.085	1266.06
392.31	1275.06
392.534	1207.06
392.759	1217.06
392.984	1208.06
393.208	1152.06
393.433	1175.06
393.658	1177.06
393.882	1162.06
394.107	1173.06
394.331	1177.06
394.556	1178.06
394.78	1186.06
395.005	1192.06
395.229	1166.06
395.454	1203.06
395.678	1232.06
395.903	1266.06
396.127	1243.06
396.352	1206.06
396.576	1146.06
396.801	1143.06
397.025	1219.06
397.249	1225.06
397.474	1203.06
397.698	1228.06
397.922	1239.06
398.147	1274.06
398.371	1290.06
398.595	1300.06
398.82	1369.06
399.044	1478.06
399.268	1618.06
399.492	1845.06
399.717	2036.06
399.941	2055.06
400.165	1900.06
400.389	1669.06
400.613	1556.06
400.837	1488.06
401.062	1434.06
401.286	1414.06
401.51	1392.06
401.734	1426.06
401.958	1418.06
402.182	1428.06
402.406	1433.06
402.63	1430.06
402.854	1450.06
403.078	1467.06
403.302	1509.06
403.526	1564.06
403.75	1576.06
403.974	1618.06
404.198	1590.06
404.422	1627.06
404.645	1622.06
404.869	1556.06
405.093	1596.06
405.317	1560.06
405.541	1562.06
405.765	1521.06
405.988	1557.06
406.212	1532.06
406.436	1522.06
406.66	1559.06
406.883	1570.06
407.107	1688.06
407.331	1768.06
407.555	1836.06
407.778	1798.06
408.002	1795.06
408.226	1723.06
408.449	1694.06
408.673	1613.06
408.896	1534.06
409.12	1570.06
409.344	1589.06
409.567	1584.06
409.791	1577.06
410.014	1582.06
410.238	1515.06
410.461	1527.06
410.685	1518.06
410.908	1484.06
411.132	1489.06
411.355	1422.06
411.578	1402.06
411.802	1437.06
412.025	1481.06
412.249	1492.06
412.472	1461.06
412.695	1412.06
412.919	1404.06
413.142	1381.06
413.365	1371.06
413.589	1420.06
413.812	1356.06
414.035	1350.06
414.258	1376.06
414.482	1368.06
414.705	1438.06
414.928	1400.06
415.151	1411.06
415.374	1386.06
415.597	1357.06
415.821	1328.06
416.044	1335.06
416.267	1332.06
416.49	1354.06
416.713	1335.06
416.936	1348.06
417.159	1319.06
417.382	1321.06
417.605	1351.06
417.828	1329.06
418.051	1355.06
418.274	1384.06
418.497	1390.06
418.72	1407.06
418.943	1408.06
419.166	1498.06
419.389	1582.06
419.611	1565.06
419.834	1497.06
420.057	1451.06
420.28	1395.06
420.503	1370.06
420.726	1364.06
420.948	1367.06
421.171	1365.06
421.394	1365.06
421.617	1333.06
421.839	1368.06
422.062	1377.06
422.285	1316.06
422.507	1410.06
422.73	1411.06
422.953	1456.06
423.175	1426.06
423.398	1431.06
423.621	1442.06
423.843	1460.06
424.066	1473.06
424.288	1417.06
424.511	1420.06
424.733	1417.06
424.956	1362.06
425.178	1366.06
425.401	1369.06
425.623	1375.06
425.846	1289.06
426.068	1298.06
426.291	1325.06
426.513	1286.06
426.735	1293.06
426.958	1282.06
427.18	1244.06
427.402	1242.06
427.625	1245.06
427.847	1234.06
428.069	1228.06
428.292	1233.06
428.514	1182.06
428.736	1193.06
428.958	1211.06
429.181	1213.06
429.403	1179.06
429.625	1160.06
429.847	1191.06
430.069	1165.06
430.292	1162.06
430.514	1170.06
430.736	1178.06
430.958	1181.06
431.18	1197.06
431.402	1183.06
431.624	1175.06
431.846	1230.06
432.068	1194.06
432.29	1245.06
432.512	1216.06
432.734	1214.06
432.956	1216.06
433.178	1200.06
433.4	1202.06
433.622	1234.06
433.844	1241.06
434.066	1244.06
434.287	1259.06
434.509	1301.06
434.731	1307.06
434.953	1346.06
435.175	1335.06
435.397	1332.06
435.618	1259.06
435.84	1246.06
436.062	1221.06
436.284	1213.06
436.505	1184.06
436.727	1187.06
436.949	1206.06
437.17	1235.06
437.392	1169.06
437.614	1177.06
437.835	1157.06
438.057	1146.06
438.278	1143.06
438.5	1170.06
438.721	1143.06
438.943	1154.06
439.165	1154.06
439.386	1169.06
439.608	1186.06
439.829	1194.06
440.05	1184.06
440.272	1207.06
440.493	1225.06
440.715	1266.06
440.936	1274.06
441.158	1246.06
441.379	1284.06
441.6	1315.06
441.822	1364.06
442.043	1364.06
442.264	1340.06
442.486	1306.06
442.707	1315.06
442.928	1288.06
443.149	1305.06
443.371	1328.06
443.592	1356.06
443.813	1350.06
444.034	1356.06
444.255	1438.06
444.476	1464.06
444.698	1555.06
444.919	1593.06
445.14	1685.06
445.361	1538.06
445.582	1372.06
445.803	1289.06
446.024	1247.06
446.245	1243.06
446.466	1233.06
446.687	1190.06
446.908	1218.06
447.129	1186.06
447.35	1172.06
447.571	1127.06
447.792	1117.06
448.013	1119.06
448.234	1099.06
448.455	1102.06
448.675	1078.06
448.896	1094.06
449.117	1048.06
449.338	1095.06
449.559	1075.06
449.779	1080.06
450	1078.06
450.221	1077.06
450.442	1086.06
450.662	1080.06
450.883	1120.06
451.104	1139.06
451.324	1142.06
451.545	1090.06
451.766	1110.06
451.986	1084.06
452.207	1064.06
452.428	1081.06
452.648	1110.06
452.869	1050.06
453.089	1054.06
453.31	1079.06
453.53	1079.06
453.751	1048.06
453.971	1068.06
454.192	1054.06
454.412	1048.06
454.633	1044.06
454.853	1032.06
455.073	1048.06
455.294	1025.06
455.514	1016.06
455.734	1017.06
455.955	1013.06
456.175	1030.06
456.395	997.06
456.616	1029.06
456.836	1036.06
457.056	1022.06
457.276	997.06
457.497	1021.06
457.717	1038.06
457.937	1038.06
458.157	1024.06
458.377	1044.06
458.598	1058.06
458.818	1131.06
459.038	1134.06
459.258	1147.06
459.478	1207.06
459.698	1249.06
459.918	1248.06
460.138	1345.06
460.358	1414.06
460.578	1439.06
460.798	1432.06
461.018	1406.06
461.238	1399.06
461.458	1432.06
461.678	1401.06
461.898	1413.06
462.118	1444.06
462.338	1489.06
462.558	1568.06
462.777	1652.06
462.997	1782.06
463.217	1897.06
463.437	1920.06
463.657	1753.06
463.876	1668.06
464.096	1670.06
464.316	1669.06
464.536	1643.06
464.755	1614.06
464.975	1532.06
465.195	1480.06
465.414	1397.06
465.634	1300.06
465.854	1246.06
466.073	1215.06
466.293	1196.06
466.512	1160.06
466.732	1164.06
466.951	1126.06
467.171	1145.06
467.391	1148.06
467.61	1143.06
467.829	1166.06
468.049	1146.06
468.268	1115.06
468.488	1078.06
468.707	1084.06
468.927	1093.06
469.146	1075.06
469.365	1118.06
469.585	1121.06
469.804	1163.06
470.023	1180.06
470.243	1177.06
470.462	1185.06
470.681	1174.06
470.901	1156.06
471.12	1171.06
471.339	1145.06
471.558	1144.06
471.777	1146.06
471.997	1115.06
472.216	1102.06
472.435	1100.06
472.654	1090.06
472.873	1081.06
473.092	1095.06
473.311	1085.06
473.53	1081.06
473.749	1051.06
473.968	1062.06
474.187	1042.06
474.406	1051.06
474.625	1046.06
474.844	1073.06
475.063	1055.06
475.282	1056.06
475.501	1063.06
475.72	1118.06
475.939	1090.06
476.158	1108.06
476.377	1118.06
476.596	1119.06
476.814	1147.06
477.033	1162.06
477.252	1152.06
477.471	1186.06
477.69	1205.06
477.908	1232.06
478.127	1269.06
478.346	1292.06
478.564	1347.06
478.783	1312.06
479.002	1383.06
479.22	1357.06
479.439	1371.06
479.658	1398.06
479.876	1336.06
480.095	1365.06
480.313	1429.06
480.532	1423.06
480.751	1429.06
480.969	1414.06
481.188	1371.06
481.406	1280.06
481.624	1288.06
481.843	1251.06
482.061	1225.06
482.28	1213.06
482.498	1220.06
482.717	1209.06
482.935	1206.06
483.153	1225.06
483.372	1255.06
483.59	1251.06
483.808	1213.06
484.027	1237.06
484.245	1244.06
484.463	1241.06
484.681	1279.06
484.9	1257.06
485.118	1270.06
485.336	1269.06
485.554	1251.06
485.772	1284.06
485.99	1283.06
486.209	1277.06
486.427	1272.06
486.645	1308.06
486.863	1298.06
487.081	1282.06
487.299	1248.06
487.517	1268.06
487.735	1298.06
487.953	1325.06
488.171	1292.06
488.389	1278.06
488.607	1271.06
488.825	1262.06
489.043	1272.06
489.261	1278.06
489.479	1270.06
489.696	1280.06
489.914	1265.06
490.132	1260.06
490.35	1270.06
490.568	1294.06
490.786	1320.06
491.003	1320.06
491.221	1339.06
491.439	1300.06
491.657	1314.06
491.874	1308.06
492.092	1309.06
492.31	1329.06
492.527	1355.06
492.745	1313.06
492.963	1350.06
493.18	1342.06
493.398	1317.06
493.615	1339.06
493.833	1362.06
494.05	1330.06
494.268	1353.06
494.485	1378.06
494.703	1385.06
494.92	1389.06
495.138	1366.06
495.355	1384.06
495.573	1383.06
495.79	1364.06
496.008	1451.06
496.225	1433.06
496.442	1406.06
496.66	1477.06
496.877	1480.06
497.094	1486.06
497.312	1515.06
497.529	1546.06
497.746	1596.06
497.963	1652.06
498.181	1696.06
498.398	1762.06
498.615	1896.06
498.832	1992.06
499.049	2123.06
499.267	2334.06
499.484	2535.06
499.701	2824.06
499.918	3144.06
500.135	3528.06
500.352	4033.06
500.569	4198.06
500.786	4052.06
501.003	3780.06
501.22	3513.06
501.437	3060.06
501.654	2743.06
501.871	2476.06
502.088	2315.06
502.305	2202.06
502.522	2091.06
502.739	1933.06
502.956	1882.06
503.172	1773.06
503.389	1664.06
503.606	1645.06
503.823	1624.06
504.04	1578.06
504.256	1568.06
504.473	1645.06
504.69	1672.06
504.907	1620.06
505.123	1519.06
505.34	1443.06
505.557	1404.06
505.773	1341.06
505.99	1312.06
506.207	1270.06
506.423	1279.06
506.64	1262.06
506.856	1247.06
507.073	1236.06
507.289	1238.06
507.506	1215.06
507.722	1218.06
507.939	1188.06
508.155	1160.06
508.372	1176.06
508.588	1170.06
508.805	1140.06
509.021	1152.06
509.238	1143.06
509.454	1115.06
509.67	1140.06
509.887	1109.06
510.103	1102.06
510.319	1110.06
510.536	1130.06
510.752	1103.06
510.968	1103.06
511.184	1078.06
511.401	1093.06
511.617	1107.06
511.833	1062.06
512.049	1068.06
512.265	1075.06
512.481	1087.06
512.698	1080.06
512.914	1078.06
513.13	1113.06
513.346	1097.06
513.562	1095.06
513.778	1117.06
513.994	1087.06
514.21	1139.06
514.426	1141.06
514.642	1135.06
514.858	1120.06
515.074	1145.06
515.29	1133.06
515.506	1172.06
515.721	1188.06
515.937	1186.06
516.153	1212.06
516.369	1246.06
516.585	1298.06
516.801	1304.06
517.016	1364.06
517.232	1432.06
517.448	1496.06
517.664	1563.06
517.879	1562.06
518.095	1564.06
518.311	1508.06
518.527	1475.06
518.742	1429.06
518.958	1358.06
519.173	1276.06
519.389	1262.06
519.605	1193.06
519.82	1185.06
520.036	1161.06
520.251	1131.06
520.467	1116.06
520.682	1110.06
520.898	1107.06
521.113	1085.06
521.329	1084.06
521.544	1052.06
521.76	1065.06
521.975	1039.06
522.19	1065.06
522.406	1059.06
522.621	1049.06
522.836	1020.06
523.052	1002.06
523.267	1026.06
523.482	992.06
523.698	1014.06
523.913	1018.06
524.128	1008.06
524.343	1006.06
524.559	1007.06
524.774	999.06
524.989	1008.06
525.204	1017.06
525.419	989.06
525.634	1002.06
525.849	963.06
526.064	985.06
526.28	1000.06
526.495	970.06
526.71	974.06
526.925	983.06
527.14	977.06
527.355	953.06
527.57	983.06
527.785	971.06
527.999	938.06
528.214	959.06
528.429	982.06
528.644	934.06
528.859	976.06
529.074	957.06
529.289	966.06
529.503	956.06
529.718	985.06
529.933	958.06
530.148	1000.06
530.363	977.06
530.577	964.06
530.792	938.06
531.007	955.06
531.221	954.06
531.436	999.06
531.651	967.06
531.865	966.06
532.08	989.06
532.295	972.06
532.509	979.06
532.724	981.06
532.938	983.06
533.153	960.06
533.367	953.06
533.582	970.06
533.796	964.06
534.011	969.06
534.225	971.06
534.44	929.06
534.654	964.06
534.868	935.06
535.083	966.06
535.297	972.06
535.511	1000.06
535.726	975.06
535.94	933.06
536.154	944.06
536.369	911.06
536.583	919.06
536.797	906.06
537.011	886.06
537.225	914.06
537.44	913.06
537.654	920.06
537.868	874.06
538.082	889.06
538.296	886.06
538.51	897.06
538.724	893.06
538.938	871.06
539.153	880.06
539.367	907.06
539.581	892.06
539.795	865.06
540.009	868.06
540.222	861.06
540.436	892.06
540.65	877.06
540.864	846.06
541.078	849.06
541.292	870.06
541.506	863.06
541.72	861.06
541.934	870.06
542.147	854.06
542.361	869.06
542.575	884.06
542.789	860.06
543.002	861.06
543.216	858.06
543.43	839.06
543.644	859.06
543.857	851.06
544.071	872.06
544.285	858.06
544.498	882.06
544.712	876.06
544.925	869.06
545.139	873.06
545.352	876.06
545.566	895.06
545.779	886.06
545.993	895.06
546.206	885.06
546.42	911.06
546.633	889.06
546.847	901.06
547.06	893.06
547.274	906.06
547.487	865.06
547.7	856.06
547.914	904.06
548.127	900.06
548.34	887.06
548.554	880.06
548.767	894.06
548.98	914.06
549.193	901.06
549.407	908.06
549.62	922.06
549.833	924.06
550.046	925.06
550.259	897.06
550.473	896.06
550.686	865.06
550.899	906.06
551.112	886.06
551.325	858.06
551.538	884.06
551.751	859.06
551.964	872.06
552.177	885.06
552.39	898.06
552.603	936.06
552.816	935.06
553.029	971.06
553.242	952.06
553.455	989.06
553.667	994.06
553.88	973.06
554.093	923.06
554.306	926.06
554.519	898.06
554.732	868.06
554.944	842.06
555.157	842.06
555.37	841.06
555.583	831.06
555.795	813.06
556.008	800.06
556.221	775.06
556.433	768.06
556.646	774.06
556.859	760.06
557.071	762.06
557.284	759.06
557.496	778.06
557.709	756.06
557.921	759.06
558.134	756.06
558.346	745.06
558.559	750.06
558.771	753.06
558.984	719.06
559.196	721.06
559.409	728.06
559.621	747.06
559.833	743.06
560.046	734.06
560.258	728.06
560.47	737.06
560.683	713.06
560.895	725.06
561.107	724.06
561.32	717.06
561.532	722.06
561.744	711.06
561.956	721.06
562.168	727.06
562.381	749.06
562.593	718.06
562.805	728.06
563.017	712.06
563.229	744.06
563.441	738.06
563.653	742.06
563.865	737.06
564.077	749.06
564.289	752.06
564.501	786.06
564.713	793.06
564.925	796.06
565.137	828.06
565.349	855.06
565.561	862.06
565.773	873.06
565.985	895.06
566.197	970.06
566.408	998.06
566.62	1106.06
566.832	1172.06
567.044	1210.06
567.255	1216.06
567.467	1251.06
567.679	1357.06
567.891	1421.06
568.102	1440.06
568.314	1382.06
568.526	1214.06
568.737	1121.06
568.949	1044.06
569.161	934.06
569.372	870.06
569.584	844.06
569.795	804.06
570.007	785.06
570.218	790.06
570.43	770.06
570.641	763.06
570.853	747.06
571.064	772.06
571.276	760.06
571.487	754.06
571.698	694.06
571.91	680.06
572.121	688.06
572.333	644.06
572.544	626.06
572.755	647.06
572.966	644.06
573.178	635.06
573.389	601.06
573.6	613.06
573.811	609.06
574.023	596.06
574.234	584.06
574.445	602.06
574.656	610.06
574.867	628.06
575.078	621.06
575.289	613.06
575.501	577.06
575.712	554.06
575.923	558.06
576.134	549.06
576.345	543.06
576.556	568.06
576.767	550.06
576.978	560.06
577.188	546.06
577.399	557.06
577.61	548.06
577.821	546.06
578.032	537.06
578.243	538.06
578.454	534.06
578.665	520.06
578.875	514.06
579.086	547.06
579.297	539.06
579.508	530.06
579.718	511.06
579.929	511.06
580.14	512.06
580.35	507.06
580.561	500.06
580.772	503.06
580.982	500.06
581.193	507.06
581.403	487.06
581.614	530.06
581.825	502.06
582.035	498.06
582.246	525.06
582.456	512.06
582.667	486.06
582.877	491.06
583.087	474.06
583.298	473.06
583.508	476.06
583.719	484.06
583.929	470.06
584.139	477.06
584.35	483.06
584.56	471.06
584.77	469.06
584.981	466.06
585.191	461.06
585.401	467.06
585.611	483.06
585.821	485.06
586.032	481.06
586.242	478.06
586.452	498.06
586.662	468.06
586.872	476.06
587.082	462.06
587.292	489.06
587.502	490.06
587.713	460.06
587.923	477.06
588.133	475.06
588.343	455.06
588.553	470.06
588.762	486.06
588.972	462.06
589.182	534.06
589.392	500.06
589.602	468.06
589.812	498.06
590.022	495.06
590.232	496.06
590.441	493.06
590.651	487.06
590.861	472.06
591.071	487.06
591.281	510.06
591.49	508.06
591.7	511.06
591.91	530.06
592.119	520.06
592.329	536.06
592.539	540.06
592.748	566.06
592.958	590.06
593.167	580.06
593.377	603.06
593.587	618.06
593.796	617.06
594.006	617.06
594.215	617.06
594.424	619.06
594.634	580.06
594.843	588.06
595.053	556.06
595.262	522.06
595.472	528.06
595.681	507.06
595.89	497.06
596.1	491.06
596.309	471.06
596.518	469.06
596.727	460.06
596.937	459.06
597.146	460.06
597.355	450.06
597.564	440.06
597.774	446.06
597.983	427.06
598.192	412.06
598.401	419.06
598.61	400.06
598.819	412.06
599.028	394.06
599.237	380.06
599.446	415.06
599.655	414.06
599.864	389.06
600.073	390.06
600.282	410.06
600.491	392.06
600.7	404.06
600.909	382.06
601.118	379.06
601.327	396.06
601.536	382.06
601.745	373.06
601.953	360.06
602.162	384.06
602.371	379.06
602.58	389.06
602.789	379.06
602.997	372.06
603.206	368.06
603.415	371.06
603.623	366.06
603.832	376.06
604.041	376.06
604.249	348.06
604.458	358.06
604.666	357.06
604.875	375.06
605.084	356.06
605.292	358.06
605.501	349.06
605.709	361.06
605.918	345.06
606.126	355.06
606.334	370.06
606.543	380.06
606.751	360.06
606.96	332.06
607.168	349.06
607.376	351.06
607.585	354.06
607.793	343.06
608.001	349.06
608.21	354.06
608.418	346.06
608.626	358.06
608.834	356.06
609.043	329.06
609.251	366.06
609.459	349.06
609.667	340.06
609.875	328.06
610.083	319.06
610.291	349.06
610.499	360.06
610.707	334.06
610.916	331.06
611.124	362.06
611.332	344.06
611.54	338.06
611.748	346.06
611.955	337.06
612.163	345.06
612.371	334.06
612.579	335.06
612.787	330.06
612.995	331.06
613.203	327.06
613.411	334.06
613.618	346.06
613.826	322.06
614.034	338.06
614.242	315.06
614.449	341.06
614.657	339.06
614.865	352.06
615.072	332.06
615.28	333.06
615.488	349.06
615.695	331.06
615.903	328.06
616.111	337.06
616.318	322.06
616.526	326.06
616.733	327.06
616.941	333.06
617.148	341.06
617.356	328.06
617.563	325.06
617.771	341.06
617.978	324.06
618.185	325.06
618.393	318.06
618.6	319.06
618.807	337.06
619.015	336.06
619.222	327.06
619.429	335.06
619.637	323.06
619.844	327.06
620.051	297.06
620.258	313.06
620.466	309.06
620.673	268.06
620.88	307.06
621.087	315.06
621.294	321.06
621.501	306.06
621.708	310.06
621.915	295.06
622.122	296.06
622.329	288.06
622.536	302.06
622.743	310.06
622.95	285.06
623.157	315.06
623.364	299.06
623.571	297.06
623.778	308.06
623.985	295.06
624.192	298.06
624.399	304.06
624.606	294.06
624.812	304.06
625.019	290.06
625.226	293.06
625.433	276.06
625.639	283.06
625.846	287.06
626.053	284.06
626.259	276.06
626.466	291.06
626.673	262.06
626.879	252.06
627.086	272.06
627.293	265.06
627.499	256.06
627.706	276.06
627.912	268.06
628.119	276.06
628.325	271.06
628.532	266.06
628.738	285.06
628.945	274.06
629.151	263.06
629.357	271.06
629.564	268.06
629.77	274.06
629.976	267.06
630.183	275.06
630.389	258.06
630.595	271.06
630.802	258.06
631.008	251.06
631.214	255.06
631.42	251.06
631.627	252.06
631.833	237.06
632.039	251.06
632.245	242.06
632.451	252.06
632.657	256.06
632.863	259.06
633.069	260.06
633.275	245.06
633.481	227.06
633.688	230.06
633.893	267.06
634.099	244.06
634.305	251.06
634.511	241.06
634.717	267.06
634.923	250.06
635.129	246.06
635.335	229.06
635.541	233.06
635.747	240.06
635.952	229.06
636.158	227.06
636.364	226.06
636.57	233.06
636.775	240.06
636.981	230.06
637.187	240.06
637.392	240.06
637.598	241.06
637.804	233.06
638.009	249.06
638.215	244.06
638.421	245.06
638.626	224.06
638.832	235.06
639.037	226.06
639.243	241.06
639.448	252.06
639.654	233.06
639.859	225.06
640.065	233.06
640.27	237.06
640.475	227.06
640.681	217.06
640.886	227.06
641.091	227.06
641.297	231.06
641.502	227.06
641.707	218.06
641.913	223.06
642.118	209.06
642.323	233.06
642.528	228.06
642.733	210.06
642.939	208.06
643.144	202.06
643.349	227.06
643.554	208.06
643.759	218.06
643.964	218.06
644.169	203.06
644.374	214.06
644.579	212.06
644.784	235.06
644.989	207.06
645.194	214.06
645.399	227.06
645.604	219.06
645.809	212.06
646.014	196.06
646.219	215.06
646.423	215.06
646.628	210.06
646.833	207.06
647.038	227.06
647.243	223.06
647.447	217.06
647.652	226.06
647.857	208.06
648.062	230.06
648.266	237.06
648.471	226.06
648.676	234.06
648.88	222.06
649.085	224.06
649.289	204.06
649.494	202.06
649.698	213.06
649.903	187.06
650.107	192.06
650.312	198.06
650.516	191.06
650.721	179.06
650.925	201.06
651.13	189.06
651.334	176.06
651.539	173.06
651.743	178.06
651.947	181.06
652.152	173.06
652.356	165.06
652.56	174.06
652.764	171.06
652.969	174.06
653.173	170.06
653.377	160.06
653.581	161.06
653.785	164.06
653.99	169.06
654.194	158.06
654.398	172.06
654.602	153.06
654.806	154.06
655.01	156.06
655.214	156.06
655.418	151.06
655.622	164.06
655.826	131.06
656.03	140.06
656.234	140.06
656.438	140.06
656.642	152.06
656.846	160.06
657.049	152.06
657.253	132.06
657.457	145.06
657.661	135.06
657.865	141.06
658.068	137.06
658.272	138.06
658.476	131.06
658.68	140.06
658.883	107.06
659.087	93.06
659.291	94.06
659.494	108.06
659.698	103.06
659.901	124.06
660.105	106.06
660.309	91.06
660.512	102.06
660.716	93.06
660.919	93.06
661.123	98.06
661.326	100.06
661.53	101.06
661.733	92.06
661.936	90.06
662.14	86.06
662.343	100.06
662.546	77.06
662.75	90.06
662.953	94.06
663.156	78.06
663.36	94.06
663.563	79.06
663.766	86.06
663.969	88.06
664.173	96.06
664.376	91.06
664.579	68.06
664.782	82.06
664.985	79.06
665.188	86.06
665.391	90.06
665.594	93.06
665.797	96.06
666	84.06
666.203	83.06
666.406	82.06
666.609	77.06
666.812	83.06
667.015	87.06
667.218	85.06
667.421	74.06
667.624	82.06
667.827	81.06
668.03	63.06
668.232	88.06
668.435	90.06
668.638	82.06
668.841	80.06
669.043	76.06
669.246	86.06
669.449	80.06
669.651	86.06
669.854	67.06
670.057	76.06
670.259	98.06
670.462	66.06
670.665	81.06
670.867	89.06
671.07	86.06
671.272	83.06
671.475	81.06
671.677	91.06
671.88	83.06
672.082	89.06
672.284	84.06
672.487	87.06
672.689	80.06
672.892	82.06
