Data from NiCl2@0.125M.TitratingCurve.Agarose3%dH2O.NegLispCup.LampEnergy10.LIBS07252019_HRD10591_18-28-09-574.txt Node
Date: Thu Jul 25 18:28:09 EDT 2019
User: cochatt
Spectrometer: HR+D1059
Trigger mode: 1
Integration Time (sec): 1.000000E-1
Scans to average: 1
Electric dark correction enabled: true
Nonlinearity correction enabled: false
Boxcar width: 0
XAxis mode: Wavelengths
Number of Pixels in Spectrum: 2048
>>>>>Begin Spectral Data<<<<<
223.165	-5.75
223.4	-5.75
223.635	-5.75
223.869	-10.75
224.104	-26.75
224.338	-6.75
224.573	-21.75
224.808	-7.75
225.042	9.25
225.277	-11.75
225.511	-12.75
225.746	-7.75
225.98	4.25
226.215	14.25
226.449	5.25
226.683	21.25
226.918	27.25
227.152	30.25
227.387	28.25
227.621	36.25
227.856	51.25
228.09	46.25
228.324	65.25
228.559	72.25
228.793	58.25
229.027	118.25
229.262	122.25
229.496	135.25
229.73	136.25
229.964	151.25
230.199	155.25
230.433	147.25
230.667	149.25
230.901	143.25
231.136	154.25
231.37	157.25
231.604	161.25
231.838	172.25
232.072	172.25
232.306	165.25
232.541	166.25
232.775	174.25
233.009	167.25
233.243	168.25
233.477	170.25
233.711	173.25
233.945	174.25
234.179	180.25
234.413	173.25
234.647	179.25
234.881	153.25
235.115	190.25
235.349	165.25
235.583	191.25
235.817	172.25
236.051	188.25
236.285	179.25
236.519	185.25
236.753	186.25
236.987	184.25
237.221	194.25
237.455	185.25
237.689	189.25
237.922	179.25
238.156	189.25
238.39	193.25
238.624	197.25
238.858	205.25
239.091	214.25
239.325	209.25
239.559	185.25
239.793	206.25
240.027	205.25
240.26	205.25
240.494	210.25
240.728	214.25
240.961	216.25
241.195	236.25
241.429	230.25
241.662	232.25
241.896	228.25
242.13	234.25
242.363	221.25
242.597	242.25
242.83	253.25
243.064	230.25
243.298	249.25
243.531	249.25
243.765	259.25
243.998	246.25
244.232	256.25
244.465	242.25
244.699	255.25
244.932	273.25
245.166	267.25
245.399	259.25
245.633	274.25
245.866	272.25
246.099	267.25
246.333	273.25
246.566	281.25
246.8	277.25
247.033	305.25
247.266	288.25
247.5	277.25
247.733	305.25
247.966	296.25
248.2	297.25
248.433	289.25
248.666	295.25
248.899	294.25
249.133	283.25
249.366	330.25
249.599	320.25
249.832	326.25
250.066	312.25
250.299	293.25
250.532	299.25
250.765	317.25
250.998	322.25
251.231	323.25
251.465	308.25
251.698	334.25
251.931	345.25
252.164	336.25
252.397	348.25
252.63	333.25
252.863	335.25
253.096	336.25
253.329	337.25
253.562	360.25
253.795	348.25
254.028	346.25
254.261	359.25
254.494	345.25
254.727	354.25
254.96	346.25
255.193	371.25
255.426	366.25
255.659	371.25
255.892	362.25
256.124	362.25
256.357	353.25
256.59	357.25
256.823	381.25
257.056	376.25
257.289	354.25
257.521	386.25
257.754	379.25
257.987	396.25
258.22	385.25
258.452	381.25
258.685	366.25
258.918	375.25
259.151	400.25
259.383	400.25
259.616	397.25
259.849	410.25
260.081	400.25
260.314	387.25
260.547	412.25
260.779	395.25
261.012	402.25
261.244	411.25
261.477	409.25
261.71	421.25
261.942	399.25
262.175	409.25
262.407	432.25
262.64	414.25
262.872	416.25
263.105	423.25
263.337	421.25
263.57	430.25
263.802	404.25
264.035	396.25
264.267	430.25
264.499	444.25
264.732	443.25
264.964	447.25
265.197	459.25
265.429	454.25
265.661	448.25
265.894	449.25
266.126	446.25
266.358	431.25
266.591	453.25
266.823	479.25
267.055	455.25
267.287	455.25
267.52	457.25
267.752	451.25
267.984	449.25
268.216	474.25
268.448	458.25
268.681	459.25
268.913	476.25
269.145	459.25
269.377	485.25
269.609	451.25
269.841	494.25
270.073	465.25
270.306	480.25
270.538	470.25
270.77	471.25
271.002	475.25
271.234	486.25
271.466	465.25
271.698	482.25
271.93	498.25
272.162	508.25
272.394	483.25
272.626	509.25
272.858	502.25
273.09	522.25
273.322	518.25
273.553	499.25
273.785	485.25
274.017	527.25
274.249	526.25
274.481	539.25
274.713	529.25
274.945	505.25
275.176	533.25
275.408	511.25
275.64	530.25
275.872	531.25
276.104	543.25
276.335	521.25
276.567	537.25
276.799	524.25
277.031	532.25
277.262	534.25
277.494	559.25
277.726	573.25
277.957	546.25
278.189	536.25
278.421	534.25
278.652	558.25
278.884	582.25
279.115	541.25
279.347	549.25
279.579	551.25
279.81	554.25
280.042	567.25
280.273	559.25
280.505	581.25
280.736	578.25
280.968	583.25
281.199	579.25
281.431	581.25
281.662	608.25
281.894	596.25
282.125	614.25
282.356	602.25
282.588	592.25
282.819	594.25
283.051	618.25
283.282	597.25
283.513	595.25
283.745	605.25
283.976	593.25
284.207	619.25
284.439	605.25
284.67	633.25
284.901	625.25
285.132	617.25
285.364	602.25
285.595	646.25
285.826	609.25
286.057	635.25
286.288	633.25
286.52	674.25
286.751	669.25
286.982	646.25
287.213	652.25
287.444	660.25
287.675	659.25
287.906	669.25
288.138	654.25
288.369	693.25
288.6	674.25
288.831	679.25
289.062	648.25
289.293	647.25
289.524	676.25
289.755	653.25
289.986	656.25
290.217	673.25
290.448	681.25
290.679	648.25
290.91	658.25
291.141	655.25
291.371	687.25
291.602	678.25
291.833	678.25
292.064	652.25
292.295	685.25
292.526	675.25
292.757	666.25
292.987	675.25
293.218	681.25
293.449	673.25
293.68	692.25
293.91	689.25
294.141	702.25
294.372	689.25
294.603	685.25
294.833	683.25
295.064	683.25
295.295	673.25
295.525	685.25
295.756	693.25
295.987	678.25
296.217	717.25
296.448	678.25
296.679	709.25
296.909	707.25
297.14	710.25
297.37	700.25
297.601	723.25
297.831	748.25
298.062	739.25
298.292	731.25
298.523	757.25
298.753	750.25
298.984	764.25
299.214	728.25
299.445	728.25
299.675	738.25
299.905	729.25
300.136	732.25
300.366	736.25
300.597	739.25
300.827	770.25
301.057	780.25
301.288	768.25
301.518	786.25
301.748	804.25
301.979	786.25
302.209	783.25
302.439	775.25
302.669	747.25
302.9	771.25
303.13	767.25
303.36	765.25
303.59	758.25
303.82	804.25
304.051	797.25
304.281	755.25
304.511	756.25
304.741	750.25
304.971	760.25
305.201	769.25
305.431	747.25
305.661	723.25
305.891	742.25
306.121	747.25
306.352	759.25
306.582	724.25
306.812	729.25
307.042	729.25
307.272	748.25
307.502	759.25
307.731	755.25
307.961	740.25
308.191	743.25
308.421	743.25
308.651	763.25
308.881	748.25
309.111	745.25
309.341	751.25
309.571	758.25
309.8	756.25
310.03	756.25
310.26	723.25
310.49	746.25
310.72	765.25
310.949	738.25
311.179	777.25
311.409	756.25
311.639	783.25
311.868	742.25
312.098	785.25
312.328	765.25
312.557	791.25
312.787	791.25
313.017	805.25
313.246	795.25
313.476	775.25
313.706	807.25
313.935	805.25
314.165	797.25
314.394	788.25
314.624	809.25
314.853	811.25
315.083	803.25
315.312	817.25
315.542	793.25
315.771	771.25
316.001	807.25
316.23	805.25
316.46	814.25
316.689	784.25
316.919	783.25
317.148	788.25
317.377	788.25
317.607	785.25
317.836	774.25
318.065	786.25
318.295	804.25
318.524	787.25
318.753	786.25
318.983	794.25
319.212	783.25
319.441	798.25
319.67	804.25
319.9	789.25
320.129	806.25
320.358	811.25
320.587	775.25
320.816	764.25
321.046	793.25
321.275	797.25
321.504	793.25
321.733	796.25
321.962	787.25
322.191	810.25
322.42	791.25
322.649	779.25
322.878	774.25
323.108	805.25
323.337	810.25
323.566	810.25
323.795	773.25
324.024	814.25
324.253	821.25
324.482	825.25
324.71	829.25
324.939	811.25
325.168	811.25
325.397	827.25
325.626	805.25
325.855	843.25
326.084	866.25
326.313	876.25
326.542	875.25
326.77	877.25
326.999	842.25
327.228	833.25
327.457	846.25
327.686	837.25
327.914	876.25
328.143	879.25
328.372	862.25
328.6	862.25
328.829	862.25
329.058	861.25
329.287	873.25
329.515	878.25
329.744	877.25
329.972	891.25
330.201	878.25
330.43	851.25
330.658	875.25
330.887	902.25
331.115	907.25
331.344	914.25
331.572	915.25
331.801	931.25
332.03	962.25
332.258	977.25
332.486	1004.25
332.715	1036.25
332.943	1115.25
333.172	1091.25
333.4	1149.25
333.629	1175.25
333.857	1196.25
334.085	1186.25
334.314	1187.25
334.542	1131.25
334.771	1119.25
334.999	1107.25
335.227	1097.25
335.455	1098.25
335.684	1050.25
335.912	1065.25
336.14	1044.25
336.369	1040.25
336.597	1017.25
336.825	1049.25
337.053	1049.25
337.281	1038.25
337.51	1013.25
337.738	976.25
337.966	990.25
338.194	969.25
338.422	952.25
338.65	926.25
338.878	974.25
339.106	966.25
339.334	951.25
339.562	942.25
339.79	887.25
340.018	893.25
340.246	886.25
340.474	901.25
340.702	886.25
340.93	911.25
341.158	908.25
341.386	908.25
341.614	899.25
341.842	901.25
342.07	898.25
342.298	891.25
342.526	891.25
342.754	897.25
342.981	897.25
343.209	907.25
343.437	933.25
343.665	1005.25
343.893	1122.25
344.12	1140.25
344.348	1089.25
344.576	1038.25
344.804	991.25
345.031	972.25
345.259	945.25
345.487	903.25
345.714	915.25
345.942	901.25
346.17	900.25
346.397	892.25
346.625	871.25
346.853	887.25
347.08	866.25
347.308	869.25
347.535	871.25
347.763	888.25
347.99	851.25
348.218	887.25
348.445	866.25
348.673	860.25
348.9	903.25
349.128	856.25
349.355	846.25
349.583	863.25
349.81	846.25
350.037	844.25
350.265	860.25
350.492	842.25
350.72	847.25
350.947	845.25
351.174	851.25
351.402	826.25
351.629	838.25
351.856	839.25
352.083	798.25
352.311	829.25
352.538	837.25
352.765	825.25
352.992	836.25
353.22	838.25
353.447	849.25
353.674	840.25
353.901	856.25
354.128	820.25
354.355	822.25
354.583	871.25
354.81	836.25
355.037	843.25
355.264	841.25
355.491	867.25
355.718	854.25
355.945	865.25
356.172	876.25
356.399	855.25
356.626	855.25
356.853	840.25
357.08	838.25
357.307	822.25
357.534	818.25
357.761	861.25
357.988	844.25
358.215	849.25
358.441	838.25
358.668	836.25
358.895	836.25
359.122	846.25
359.349	836.25
359.576	850.25
359.802	823.25
360.029	833.25
360.256	824.25
360.483	844.25
360.709	831.25
360.936	843.25
361.163	850.25
361.39	844.25
361.616	824.25
361.843	833.25
362.07	825.25
362.296	834.25
362.523	836.25
362.749	835.25
362.976	848.25
363.203	837.25
363.429	813.25
363.656	820.25
363.882	817.25
364.109	832.25
364.335	802.25
364.562	832.25
364.788	805.25
365.015	858.25
365.241	835.25
365.468	833.25
365.694	838.25
365.92	831.25
366.147	804.25
366.373	826.25
366.599	845.25
366.826	805.25
367.052	813.25
367.278	831.25
367.505	837.25
367.731	837.25
367.957	839.25
368.184	863.25
368.41	837.25
368.636	864.25
368.862	873.25
369.089	856.25
369.315	870.25
369.541	889.25
369.767	857.25
369.993	881.25
370.219	881.25
370.445	898.25
370.672	896.25
370.898	884.25
371.124	934.25
371.35	925.25
371.576	887.25
371.802	913.25
372.028	914.25
372.254	923.25
372.48	930.25
372.706	902.25
372.932	995.25
373.158	958.25
373.384	935.25
373.61	929.25
373.835	909.25
374.061	895.25
374.287	903.25
374.513	929.25
374.739	950.25
374.965	1015.25
375.191	1011.25
375.416	1015.25
375.642	984.25
375.868	963.25
376.094	957.25
376.319	935.25
376.545	936.25
376.771	955.25
376.997	939.25
377.222	913.25
377.448	933.25
377.674	938.25
377.899	899.25
378.125	904.25
378.35	908.25
378.576	878.25
378.802	883.25
379.027	902.25
379.253	894.25
379.478	904.25
379.704	883.25
379.929	935.25
380.155	905.25
380.38	897.25
380.606	897.25
380.831	918.25
381.057	912.25
381.282	925.25
381.507	913.25
381.733	928.25
381.958	937.25
382.184	929.25
382.409	934.25
382.634	931.25
382.86	932.25
383.085	966.25
383.31	997.25
383.535	1002.25
383.761	1014.25
383.986	1011.25
384.211	1078.25
384.436	1071.25
384.662	1105.25
384.887	1106.25
385.112	1122.25
385.337	1100.25
385.562	1117.25
385.787	1118.25
386.013	1131.25
386.238	1103.25
386.463	1134.25
386.688	1119.25
386.913	1123.25
387.138	1095.25
387.363	1076.25
387.588	1037.25
387.813	1057.25
388.038	1085.25
388.263	1110.25
388.488	1122.25
388.713	1085.25
388.938	1065.25
389.163	1037.25
389.387	1086.25
389.612	1043.25
389.837	1084.25
390.062	1079.25
390.287	1099.25
390.512	1082.25
390.736	1077.25
390.961	1114.25
391.186	1127.25
391.411	1149.25
391.636	1195.25
391.86	1245.25
392.085	1254.25
392.31	1266.25
392.534	1217.25
392.759	1169.25
392.984	1160.25
393.208	1164.25
393.433	1162.25
393.658	1159.25
393.882	1188.25
394.107	1179.25
394.331	1174.25
394.556	1157.25
394.78	1189.25
395.005	1183.25
395.229	1186.25
395.454	1194.25
395.678	1231.25
395.903	1280.25
396.127	1181.25
396.352	1167.25
396.576	1159.25
396.801	1154.25
397.025	1155.25
397.249	1172.25
397.474	1220.25
397.698	1217.25
397.922	1245.25
398.147	1211.25
398.371	1250.25
398.595	1270.25
398.82	1361.25
399.044	1455.25
399.268	1625.25
399.492	1803.25
399.717	2174.25
399.941	2181.25
400.165	1886.25
400.389	1660.25
400.613	1542.25
400.837	1438.25
401.062	1404.25
401.286	1408.25
401.51	1393.25
401.734	1377.25
401.958	1386.25
402.182	1363.25
402.406	1428.25
402.63	1434.25
402.854	1460.25
403.078	1517.25
403.302	1521.25
403.526	1574.25
403.75	1594.25
403.974	1605.25
404.198	1609.25
404.422	1619.25
404.645	1630.25
404.869	1599.25
405.093	1618.25
405.317	1521.25
405.541	1546.25
405.765	1512.25
405.988	1539.25
406.212	1565.25
406.436	1478.25
406.66	1539.25
406.883	1567.25
407.107	1713.25
407.331	1766.25
407.555	1824.25
407.778	1791.25
408.002	1743.25
408.226	1704.25
408.449	1693.25
408.673	1627.25
408.896	1609.25
409.12	1572.25
409.344	1592.25
409.567	1531.25
409.791	1578.25
410.014	1545.25
410.238	1569.25
410.461	1524.25
410.685	1543.25
410.908	1501.25
411.132	1494.25
411.355	1425.25
411.578	1452.25
411.802	1416.25
412.025	1410.25
412.249	1446.25
412.472	1467.25
412.695	1441.25
412.919	1399.25
413.142	1359.25
413.365	1398.25
413.589	1409.25
413.812	1367.25
414.035	1373.25
414.258	1365.25
414.482	1391.25
414.705	1406.25
414.928	1408.25
415.151	1408.25
415.374	1396.25
415.597	1397.25
415.821	1341.25
416.044	1343.25
416.267	1341.25
416.49	1318.25
416.713	1330.25
416.936	1380.25
417.159	1335.25
417.382	1359.25
417.605	1354.25
417.828	1376.25
418.051	1396.25
418.274	1377.25
418.497	1363.25
418.72	1379.25
418.943	1410.25
419.166	1501.25
419.389	1597.25
419.611	1535.25
419.834	1513.25
420.057	1404.25
420.28	1388.25
420.503	1340.25
420.726	1369.25
420.948	1358.25
421.171	1335.25
421.394	1340.25
421.617	1384.25
421.839	1333.25
422.062	1348.25
422.285	1376.25
422.507	1418.25
422.73	1425.25
422.953	1404.25
423.175	1426.25
423.398	1460.25
423.621	1415.25
423.843	1475.25
424.066	1533.25
424.288	1461.25
424.511	1468.25
424.733	1444.25
424.956	1391.25
425.178	1364.25
425.401	1369.25
425.623	1405.25
425.846	1335.25
426.068	1293.25
426.291	1315.25
426.513	1258.25
426.735	1262.25
426.958	1285.25
427.18	1265.25
427.402	1268.25
427.625	1230.25
427.847	1226.25
428.069	1234.25
428.292	1223.25
428.514	1186.25
428.736	1193.25
428.958	1213.25
429.181	1202.25
429.403	1182.25
429.625	1159.25
429.847	1187.25
430.069	1187.25
430.292	1213.25
430.514	1167.25
430.736	1186.25
430.958	1196.25
431.18	1175.25
431.402	1195.25
431.624	1206.25
431.846	1198.25
432.068	1222.25
432.29	1253.25
432.512	1211.25
432.734	1255.25
432.956	1191.25
433.178	1243.25
433.4	1261.25
433.622	1231.25
433.844	1244.25
434.066	1271.25
434.287	1207.25
434.509	1271.25
434.731	1357.25
434.953	1371.25
435.175	1397.25
435.397	1380.25
435.618	1263.25
435.84	1265.25
436.062	1244.25
436.284	1237.25
436.505	1187.25
436.727	1228.25
436.949	1236.25
437.17	1213.25
437.392	1193.25
437.614	1198.25
437.835	1161.25
438.057	1212.25
438.278	1181.25
438.5	1169.25
438.721	1160.25
438.943	1141.25
439.165	1165.25
439.386	1184.25
439.608	1203.25
439.829	1195.25
440.05	1223.25
440.272	1231.25
440.493	1235.25
440.715	1246.25
440.936	1221.25
441.158	1258.25
441.379	1299.25
441.6	1355.25
441.822	1366.25
442.043	1390.25
442.264	1362.25
442.486	1326.25
442.707	1326.25
442.928	1330.25
443.149	1365.25
443.371	1333.25
443.592	1374.25
443.813	1359.25
444.034	1379.25
444.255	1452.25
444.476	1507.25
444.698	1589.25
444.919	1693.25
445.14	1746.25
445.361	1555.25
445.582	1413.25
445.803	1341.25
446.024	1277.25
446.245	1273.25
446.466	1276.25
446.687	1206.25
446.908	1191.25
447.129	1199.25
447.35	1209.25
447.571	1183.25
447.792	1146.25
448.013	1163.25
448.234	1132.25
448.455	1139.25
448.675	1119.25
448.896	1132.25
449.117	1129.25
449.338	1117.25
449.559	1075.25
449.779	1079.25
450	1095.25
450.221	1092.25
450.442	1105.25
450.662	1128.25
450.883	1142.25
451.104	1151.25
451.324	1163.25
451.545	1126.25
451.766	1107.25
451.986	1120.25
452.207	1109.25
452.428	1123.25
452.648	1118.25
452.869	1068.25
453.089	1077.25
453.31	1118.25
453.53	1086.25
453.751	1081.25
453.971	1120.25
454.192	1074.25
454.412	1048.25
454.633	1069.25
454.853	1067.25
455.073	1035.25
455.294	1048.25
455.514	1011.25
455.734	1053.25
455.955	993.25
456.175	1037.25
456.395	1016.25
456.616	1013.25
456.836	1035.25
457.056	1025.25
457.276	1005.25
457.497	1033.25
457.717	1045.25
457.937	1002.25
458.157	1056.25
458.377	1056.25
458.598	1061.25
458.818	1122.25
459.038	1143.25
459.258	1175.25
459.478	1215.25
459.698	1255.25
459.918	1289.25
460.138	1320.25
460.358	1409.25
460.578	1417.25
460.798	1438.25
461.018	1445.25
461.238	1400.25
461.458	1422.25
461.678	1432.25
461.898	1422.25
462.118	1450.25
462.338	1533.25
462.558	1579.25
462.777	1634.25
462.997	1758.25
463.217	1943.25
463.437	2002.25
463.657	1770.25
463.876	1667.25
464.096	1656.25
464.316	1653.25
464.536	1738.25
464.755	1671.25
464.975	1573.25
465.195	1497.25
465.414	1396.25
465.634	1286.25
465.854	1302.25
466.073	1243.25
466.293	1246.25
466.512	1195.25
466.732	1189.25
466.951	1177.25
467.171	1180.25
467.391	1180.25
467.61	1187.25
467.829	1148.25
468.049	1175.25
468.268	1137.25
468.488	1131.25
468.707	1105.25
468.927	1108.25
469.146	1068.25
469.365	1142.25
469.585	1120.25
469.804	1149.25
470.023	1207.25
470.243	1184.25
470.462	1218.25
470.681	1226.25
470.901	1210.25
471.12	1193.25
471.339	1159.25
471.558	1146.25
471.777	1147.25
471.997	1140.25
472.216	1106.25
472.435	1105.25
472.654	1086.25
472.873	1043.25
473.092	1077.25
473.311	1078.25
473.53	1074.25
473.749	1091.25
473.968	1071.25
474.187	1071.25
474.406	1053.25
474.625	1084.25
474.844	1039.25
475.063	1089.25
475.282	1066.25
475.501	1093.25
475.72	1114.25
475.939	1078.25
476.158	1119.25
476.377	1137.25
476.596	1112.25
476.814	1143.25
477.033	1135.25
477.252	1140.25
477.471	1157.25
477.69	1207.25
477.908	1278.25
478.127	1314.25
478.346	1256.25
478.564	1318.25
478.783	1337.25
479.002	1373.25
479.22	1387.25
479.439	1366.25
479.658	1323.25
479.876	1361.25
480.095	1352.25
480.313	1417.25
480.532	1461.25
480.751	1441.25
480.969	1436.25
481.188	1347.25
481.406	1285.25
481.624	1274.25
481.843	1225.25
482.061	1243.25
482.28	1214.25
482.498	1208.25
482.717	1238.25
482.935	1229.25
483.153	1253.25
483.372	1231.25
483.59	1244.25
483.808	1217.25
484.027	1231.25
484.245	1216.25
484.463	1277.25
484.681	1286.25
484.9	1304.25
485.118	1277.25
485.336	1271.25
485.554	1264.25
485.772	1280.25
485.99	1331.25
486.209	1337.25
486.427	1323.25
486.645	1310.25
486.863	1311.25
487.081	1289.25
487.299	1295.25
487.517	1285.25
487.735	1291.25
487.953	1320.25
488.171	1274.25
488.389	1265.25
488.607	1261.25
488.825	1278.25
489.043	1262.25
489.261	1291.25
489.479	1292.25
489.696	1291.25
489.914	1319.25
490.132	1276.25
490.35	1299.25
490.568	1293.25
490.786	1291.25
491.003	1277.25
491.221	1334.25
491.439	1313.25
491.657	1303.25
491.874	1318.25
492.092	1318.25
492.31	1340.25
492.527	1293.25
492.745	1306.25
492.963	1355.25
493.18	1356.25
493.398	1357.25
493.615	1383.25
493.833	1366.25
494.05	1353.25
494.268	1359.25
494.485	1366.25
494.703	1367.25
494.92	1377.25
495.138	1369.25
495.355	1375.25
495.573	1367.25
495.79	1349.25
496.008	1363.25
496.225	1403.25
496.442	1389.25
496.66	1421.25
496.877	1431.25
497.094	1470.25
497.312	1477.25
497.529	1515.25
497.746	1501.25
497.963	1581.25
498.181	1692.25
498.398	1723.25
498.615	1827.25
498.832	1919.25
499.049	2097.25
499.267	2261.25
499.484	2547.25
499.701	2849.25
499.918	3060.25
500.135	3593.25
500.352	4141.25
500.569	4379.25
500.786	4334.25
501.003	3956.25
501.22	3521.25
501.437	3103.25
501.654	2705.25
501.871	2426.25
502.088	2222.25
502.305	2069.25
502.522	1927.25
502.739	1910.25
502.956	1819.25
503.172	1722.25
503.389	1665.25
503.606	1599.25
503.823	1561.25
504.04	1560.25
504.256	1578.25
504.473	1639.25
504.69	1678.25
504.907	1619.25
505.123	1494.25
505.34	1444.25
505.557	1376.25
505.773	1335.25
505.99	1306.25
506.207	1284.25
506.423	1247.25
506.64	1240.25
506.856	1223.25
507.073	1177.25
507.289	1212.25
507.506	1188.25
507.722	1212.25
507.939	1195.25
508.155	1164.25
508.372	1181.25
508.588	1168.25
508.805	1152.25
509.021	1146.25
509.238	1105.25
509.454	1126.25
509.67	1119.25
509.887	1158.25
510.103	1133.25
510.319	1098.25
510.536	1134.25
510.752	1103.25
510.968	1120.25
511.184	1097.25
511.401	1099.25
511.617	1101.25
511.833	1102.25
512.049	1103.25
512.265	1118.25
512.481	1107.25
512.698	1081.25
512.914	1069.25
513.13	1087.25
513.346	1079.25
513.562	1079.25
513.778	1097.25
513.994	1103.25
514.21	1071.25
514.426	1090.25
514.642	1081.25
514.858	1098.25
515.074	1122.25
515.29	1126.25
515.506	1164.25
515.721	1158.25
515.937	1194.25
516.153	1210.25
516.369	1229.25
516.585	1240.25
516.801	1290.25
517.016	1307.25
517.232	1433.25
517.448	1471.25
517.664	1590.25
517.879	1563.25
518.095	1569.25
518.311	1551.25
518.527	1450.25
518.742	1405.25
518.958	1342.25
519.173	1305.25
519.389	1239.25
519.605	1222.25
519.82	1189.25
520.036	1175.25
520.251	1124.25
520.467	1135.25
520.682	1130.25
520.898	1091.25
521.113	1113.25
521.329	1089.25
521.544	1081.25
521.76	1077.25
521.975	1055.25
522.19	1084.25
522.406	1047.25
522.621	1047.25
522.836	1020.25
523.052	1021.25
523.267	1023.25
523.482	1034.25
523.698	1015.25
523.913	1014.25
524.128	1027.25
524.343	1028.25
524.559	1009.25
524.774	1006.25
524.989	1005.25
525.204	981.25
525.419	982.25
525.634	970.25
525.849	966.25
526.064	966.25
526.28	969.25
526.495	1006.25
526.71	1006.25
526.925	993.25
527.14	981.25
527.355	961.25
527.57	997.25
527.785	985.25
527.999	1001.25
528.214	1002.25
528.429	1005.25
528.644	1010.25
528.859	1011.25
529.074	994.25
529.289	1031.25
529.503	972.25
529.718	949.25
529.933	980.25
530.148	993.25
530.363	984.25
530.577	998.25
530.792	1000.25
531.007	998.25
531.221	979.25
531.436	1016.25
531.651	1000.25
531.865	1002.25
532.08	970.25
532.295	1000.25
532.509	979.25
532.724	979.25
532.938	989.25
533.153	990.25
533.367	995.25
533.582	985.25
533.796	1014.25
534.011	999.25
534.225	976.25
534.44	968.25
534.654	986.25
534.868	964.25
535.083	976.25
535.297	947.25
535.511	972.25
535.726	929.25
535.94	942.25
536.154	968.25
536.369	954.25
536.583	921.25
536.797	929.25
537.011	939.25
537.225	925.25
537.44	935.25
537.654	940.25
537.868	887.25
538.082	901.25
538.296	910.25
538.51	913.25
538.724	902.25
538.938	923.25
539.153	896.25
539.367	895.25
539.581	887.25
539.795	893.25
540.009	889.25
540.222	881.25
540.436	878.25
540.65	877.25
540.864	856.25
541.078	905.25
541.292	893.25
541.506	862.25
541.72	915.25
541.934	862.25
542.147	908.25
542.361	896.25
542.575	869.25
542.789	869.25
543.002	842.25
543.216	856.25
543.43	869.25
543.644	883.25
543.857	846.25
544.071	882.25
544.285	903.25
544.498	863.25
544.712	886.25
544.925	889.25
545.139	896.25
545.352	914.25
545.566	922.25
545.779	915.25
545.993	919.25
546.206	928.25
546.42	933.25
546.633	897.25
546.847	899.25
547.06	915.25
547.274	886.25
547.487	890.25
547.7	881.25
547.914	902.25
548.127	916.25
548.34	892.25
548.554	925.25
548.767	925.25
548.98	896.25
549.193	917.25
549.407	929.25
549.62	941.25
549.833	937.25
550.046	928.25
550.259	923.25
550.473	864.25
550.686	913.25
550.899	897.25
551.112	885.25
551.325	892.25
551.538	893.25
551.751	918.25
551.964	912.25
552.177	912.25
552.39	935.25
552.603	936.25
552.816	931.25
553.029	972.25
553.242	996.25
553.455	1004.25
553.667	1021.25
553.88	991.25
554.093	949.25
554.306	959.25
554.519	930.25
554.732	908.25
554.944	869.25
555.157	888.25
555.37	897.25
555.583	831.25
555.795	843.25
556.008	782.25
556.221	794.25
556.433	780.25
556.646	790.25
556.859	803.25
557.071	796.25
557.284	797.25
557.496	777.25
557.709	790.25
557.921	774.25
558.134	794.25
558.346	773.25
558.559	774.25
558.771	783.25
558.984	771.25
559.196	734.25
559.409	767.25
559.621	750.25
559.833	747.25
560.046	747.25
560.258	734.25
560.47	734.25
560.683	734.25
560.895	736.25
561.107	744.25
561.32	727.25
561.532	760.25
561.744	762.25
561.956	743.25
562.168	737.25
562.381	751.25
562.593	756.25
562.805	744.25
563.017	763.25
563.229	763.25
563.441	773.25
563.653	750.25
563.865	738.25
564.077	770.25
564.289	775.25
564.501	761.25
564.713	811.25
564.925	789.25
565.137	827.25
565.349	833.25
565.561	846.25
565.773	892.25
565.985	930.25
566.197	973.25
566.408	1050.25
566.62	1141.25
566.832	1253.25
567.044	1292.25
567.255	1247.25
567.467	1283.25
567.679	1370.25
567.891	1469.25
568.102	1527.25
568.314	1470.25
568.526	1311.25
568.737	1178.25
568.949	1064.25
569.161	957.25
569.372	893.25
569.584	847.25
569.795	839.25
570.007	791.25
570.218	779.25
570.43	769.25
570.641	749.25
570.853	791.25
571.064	771.25
571.276	780.25
571.487	774.25
571.698	718.25
571.91	690.25
572.121	681.25
572.333	666.25
572.544	658.25
572.755	652.25
572.966	649.25
573.178	657.25
573.389	632.25
573.6	625.25
573.811	619.25
574.023	617.25
574.234	615.25
574.445	639.25
574.656	616.25
574.867	620.25
575.078	621.25
575.289	619.25
575.501	592.25
575.712	591.25
575.923	575.25
576.134	590.25
576.345	587.25
576.556	596.25
576.767	586.25
576.978	578.25
577.188	595.25
577.399	573.25
577.61	546.25
577.821	572.25
578.032	551.25
578.243	555.25
578.454	545.25
578.665	535.25
578.875	572.25
579.086	537.25
579.297	535.25
579.508	554.25
579.718	533.25
579.929	550.25
580.14	533.25
580.35	522.25
580.561	535.25
580.772	537.25
580.982	531.25
581.193	533.25
581.403	514.25
581.614	527.25
581.825	509.25
582.035	512.25
582.246	529.25
582.456	514.25
582.667	501.25
582.877	505.25
583.087	490.25
583.298	523.25
583.508	535.25
583.719	523.25
583.929	521.25
584.139	527.25
584.35	499.25
584.56	499.25
584.77	503.25
584.981	514.25
585.191	502.25
585.401	492.25
585.611	491.25
585.821	511.25
586.032	488.25
586.242	487.25
586.452	491.25
586.662	483.25
586.872	495.25
587.082	499.25
587.292	491.25
587.502	502.25
587.713	490.25
587.923	493.25
588.133	485.25
588.343	489.25
588.553	519.25
588.762	473.25
588.972	486.25
589.182	497.25
589.392	483.25
589.602	493.25
589.812	472.25
590.022	485.25
590.232	489.25
590.441	529.25
590.651	474.25
590.861	502.25
591.071	509.25
591.281	522.25
591.49	517.25
591.7	511.25
591.91	542.25
592.119	542.25
592.329	549.25
592.539	555.25
592.748	546.25
592.958	617.25
593.167	617.25
593.377	647.25
593.587	636.25
593.796	638.25
594.006	645.25
594.215	652.25
594.424	636.25
594.634	647.25
594.843	610.25
595.053	582.25
595.262	565.25
595.472	574.25
595.681	525.25
595.89	517.25
596.1	507.25
596.309	510.25
596.518	471.25
596.727	452.25
596.937	470.25
597.146	447.25
597.355	461.25
597.564	443.25
597.774	434.25
597.983	441.25
598.192	420.25
598.401	442.25
598.61	440.25
598.819	436.25
599.028	427.25
599.237	423.25
599.446	411.25
599.655	407.25
599.864	404.25
600.073	404.25
600.282	426.25
600.491	406.25
600.7	431.25
600.909	413.25
601.118	403.25
601.327	391.25
601.536	389.25
601.745	402.25
601.953	401.25
602.162	437.25
602.371	408.25
602.58	398.25
602.789	389.25
602.997	417.25
603.206	392.25
603.415	381.25
603.623	414.25
603.832	385.25
604.041	382.25
604.249	375.25
604.458	383.25
604.666	377.25
604.875	371.25
605.084	383.25
605.292	390.25
605.501	367.25
605.709	387.25
605.918	379.25
606.126	394.25
606.334	387.25
606.543	369.25
606.751	393.25
606.96	371.25
607.168	367.25
607.376	377.25
607.585	366.25
607.793	374.25
608.001	385.25
608.21	370.25
608.418	378.25
608.626	370.25
608.834	378.25
609.043	366.25
609.251	355.25
609.459	387.25
609.667	374.25
609.875	369.25
610.083	362.25
610.291	371.25
610.499	358.25
610.707	359.25
610.916	352.25
611.124	386.25
611.332	371.25
611.54	371.25
611.748	364.25
611.955	372.25
612.163	325.25
612.371	360.25
612.579	353.25
612.787	367.25
612.995	347.25
613.203	370.25
613.411	358.25
613.618	348.25
613.826	351.25
614.034	344.25
614.242	356.25
614.449	322.25
614.657	344.25
614.865	363.25
615.072	349.25
615.28	341.25
615.488	332.25
615.695	349.25
615.903	324.25
616.111	349.25
616.318	352.25
616.526	370.25
616.733	365.25
616.941	359.25
617.148	356.25
617.356	354.25
617.563	359.25
617.771	356.25
617.978	344.25
618.185	350.25
618.393	367.25
618.6	337.25
618.807	341.25
619.015	376.25
619.222	366.25
619.429	347.25
619.637	328.25
619.844	339.25
620.051	349.25
620.258	345.25
620.466	317.25
620.673	322.25
620.88	309.25
621.087	315.25
621.294	340.25
621.501	333.25
621.708	330.25
621.915	322.25
622.122	322.25
622.329	328.25
622.536	337.25
622.743	325.25
622.95	319.25
623.157	322.25
623.364	321.25
623.571	317.25
623.778	332.25
623.985	338.25
624.192	300.25
624.399	315.25
624.606	309.25
624.812	307.25
625.019	308.25
625.226	303.25
625.433	309.25
625.639	294.25
625.846	306.25
626.053	295.25
626.259	304.25
626.466	296.25
626.673	289.25
626.879	282.25
627.086	295.25
627.293	297.25
627.499	273.25
627.706	306.25
627.912	304.25
628.119	291.25
628.325	276.25
628.532	293.25
628.738	318.25
628.945	280.25
629.151	270.25
629.357	297.25
629.564	285.25
629.77	284.25
629.976	297.25
630.183	272.25
630.389	269.25
630.595	265.25
630.802	275.25
631.008	275.25
631.214	262.25
631.42	281.25
631.627	282.25
631.833	259.25
632.039	261.25
632.245	271.25
632.451	278.25
632.657	242.25
632.863	271.25
633.069	248.25
633.275	267.25
633.481	260.25
633.688	247.25
633.893	259.25
634.099	261.25
634.305	255.25
634.511	251.25
634.717	250.25
634.923	263.25
635.129	257.25
635.335	276.25
635.541	249.25
635.747	270.25
635.952	261.25
636.158	262.25
636.364	243.25
636.57	259.25
636.775	265.25
636.981	259.25
637.187	258.25
637.392	248.25
637.598	252.25
637.804	241.25
638.009	266.25
638.215	246.25
638.421	243.25
638.626	259.25
638.832	228.25
639.037	217.25
639.243	227.25
639.448	239.25
639.654	244.25
639.859	234.25
640.065	224.25
640.27	257.25
640.475	244.25
640.681	244.25
640.886	244.25
641.091	221.25
641.297	226.25
641.502	213.25
641.707	231.25
641.913	249.25
642.118	224.25
642.323	235.25
642.528	203.25
642.733	234.25
642.939	226.25
643.144	229.25
643.349	218.25
643.554	216.25
643.759	236.25
643.964	225.25
644.169	229.25
644.374	212.25
644.579	210.25
644.784	218.25
644.989	214.25
645.194	231.25
645.399	206.25
645.604	223.25
645.809	227.25
646.014	226.25
646.219	217.25
646.423	225.25
646.628	232.25
646.833	228.25
647.038	234.25
647.243	240.25
647.447	219.25
647.652	231.25
647.857	228.25
648.062	239.25
648.266	247.25
648.471	253.25
648.676	253.25
648.88	236.25
649.085	243.25
649.289	233.25
649.494	218.25
649.698	219.25
649.903	244.25
650.107	204.25
650.312	215.25
650.516	203.25
650.721	206.25
650.925	206.25
651.13	211.25
651.334	200.25
651.539	197.25
651.743	198.25
651.947	191.25
652.152	182.25
652.356	174.25
652.56	189.25
652.764	181.25
652.969	176.25
653.173	179.25
653.377	169.25
653.581	176.25
653.785	187.25
653.99	169.25
654.194	167.25
654.398	171.25
654.602	170.25
654.806	158.25
655.01	163.25
655.214	149.25
655.418	161.25
655.622	160.25
655.826	145.25
656.03	168.25
656.234	166.25
656.438	149.25
656.642	154.25
656.846	157.25
657.049	155.25
657.253	144.25
657.457	130.25
657.661	129.25
657.865	131.25
658.068	144.25
658.272	125.25
658.476	129.25
658.68	114.25
658.883	107.25
659.087	121.25
659.291	103.25
659.494	83.25
659.698	114.25
659.901	87.25
660.105	109.25
660.309	108.25
660.512	105.25
660.716	82.25
660.919	105.25
661.123	96.25
661.326	93.25
661.53	96.25
661.733	92.25
661.936	104.25
662.14	81.25
662.343	95.25
662.546	81.25
662.75	83.25
662.953	81.25
663.156	77.25
663.36	84.25
663.563	85.25
663.766	87.25
663.969	83.25
664.173	82.25
664.376	73.25
664.579	84.25
664.782	96.25
664.985	82.25
665.188	95.25
665.391	81.25
665.594	80.25
665.797	97.25
666	78.25
666.203	76.25
666.406	79.25
666.609	77.25
666.812	69.25
667.015	70.25
667.218	78.25
667.421	83.25
667.624	87.25
667.827	78.25
668.03	84.25
668.232	93.25
668.435	86.25
668.638	79.25
668.841	82.25
669.043	84.25
669.246	91.25
669.449	73.25
669.651	93.25
669.854	85.25
670.057	78.25
670.259	83.25
670.462	82.25
670.665	88.25
670.867	82.25
671.07	70.25
671.272	91.25
671.475	79.25
671.677	81.25
671.88	84.25
672.082	75.25
672.284	83.25
672.487	78.25
672.689	84.25
672.892	92.25
