Data from NiCl2@0.125M.TitratingCurve.Agarose3%dH2O.NegLispCup.LampEnergy10.LIBS07252019_HRD10591_18-30-46-574.txt Node
Date: Thu Jul 25 18:30:46 EDT 2019
User: cochatt
Spectrometer: HR+D1059
Trigger mode: 1
Integration Time (sec): 1.000000E-1
Scans to average: 1
Electric dark correction enabled: true
Nonlinearity correction enabled: false
Boxcar width: 0
XAxis mode: Wavelengths
Number of Pixels in Spectrum: 2048
>>>>>Begin Spectral Data<<<<<
223.165	-20.25
223.4	-20.25
223.635	-20.25
223.869	-27.25
224.104	-11.25
224.338	-7.25
224.573	-16.25
224.808	-13.25
225.042	-11.25
225.277	-15.25
225.511	-12.25
225.746	-5.25
225.98	17.75
226.215	17.75
226.449	10.75
226.683	11.75
226.918	37.75
227.152	43.75
227.387	32.75
227.621	36.75
227.856	73.75
228.09	43.75
228.324	47.75
228.559	63.75
228.793	62.75
229.027	60.75
229.262	68.75
229.496	72.75
229.73	73.75
229.964	79.75
230.199	73.75
230.433	73.75
230.667	87.75
230.901	78.75
231.136	77.75
231.37	82.75
231.604	84.75
231.838	74.75
232.072	79.75
232.306	70.75
232.541	83.75
232.775	76.75
233.009	83.75
233.243	68.75
233.477	80.75
233.711	90.75
233.945	84.75
234.179	79.75
234.413	83.75
234.647	77.75
234.881	58.75
235.115	69.75
235.349	89.75
235.583	79.75
235.817	82.75
236.051	71.75
236.285	89.75
236.519	71.75
236.753	87.75
236.987	77.75
237.221	66.75
237.455	83.75
237.689	84.75
237.922	76.75
238.156	69.75
238.39	81.75
238.624	87.75
238.858	77.75
239.091	76.75
239.325	70.75
239.559	65.75
239.793	70.75
240.027	67.75
240.26	63.75
240.494	69.75
240.728	76.75
240.961	83.75
241.195	49.75
241.429	88.75
241.662	78.75
241.896	76.75
242.13	71.75
242.363	71.75
242.597	61.75
242.83	77.75
243.064	71.75
243.298	82.75
243.531	71.75
243.765	83.75
243.998	79.75
244.232	72.75
244.465	80.75
244.699	82.75
244.932	75.75
245.166	69.75
245.399	78.75
245.633	88.75
245.866	84.75
246.099	83.75
246.333	84.75
246.566	77.75
246.8	70.75
247.033	82.75
247.266	68.75
247.5	70.75
247.733	76.75
247.966	81.75
248.2	84.75
248.433	85.75
248.666	59.75
248.899	73.75
249.133	85.75
249.366	91.75
249.599	77.75
249.832	69.75
250.066	82.75
250.299	67.75
250.532	88.75
250.765	77.75
250.998	78.75
251.231	79.75
251.465	88.75
251.698	85.75
251.931	84.75
252.164	73.75
252.397	83.75
252.63	84.75
252.863	82.75
253.096	74.75
253.329	66.75
253.562	85.75
253.795	78.75
254.028	90.75
254.261	90.75
254.494	83.75
254.727	88.75
254.96	87.75
255.193	102.75
255.426	76.75
255.659	78.75
255.892	83.75
256.124	72.75
256.357	81.75
256.59	79.75
256.823	76.75
257.056	65.75
257.289	75.75
257.521	76.75
257.754	67.75
257.987	73.75
258.22	93.75
258.452	89.75
258.685	75.75
258.918	86.75
259.151	79.75
259.383	75.75
259.616	68.75
259.849	77.75
260.081	87.75
260.314	72.75
260.547	75.75
260.779	77.75
261.012	72.75
261.244	72.75
261.477	82.75
261.71	80.75
261.942	71.75
262.175	90.75
262.407	76.75
262.64	88.75
262.872	82.75
263.105	73.75
263.337	77.75
263.57	76.75
263.802	75.75
264.035	72.75
264.267	81.75
264.499	76.75
264.732	90.75
264.964	95.75
265.197	80.75
265.429	82.75
265.661	75.75
265.894	89.75
266.126	67.75
266.358	84.75
266.591	81.75
266.823	89.75
267.055	95.75
267.287	89.75
267.52	84.75
267.752	92.75
267.984	102.75
268.216	89.75
268.448	82.75
268.681	80.75
268.913	76.75
269.145	74.75
269.377	76.75
269.609	86.75
269.841	73.75
270.073	83.75
270.306	87.75
270.538	88.75
270.77	75.75
271.002	83.75
271.234	83.75
271.466	89.75
271.698	77.75
271.93	79.75
272.162	57.75
272.394	82.75
272.626	81.75
272.858	93.75
273.09	71.75
273.322	81.75
273.553	80.75
273.785	67.75
274.017	79.75
274.249	80.75
274.481	81.75
274.713	80.75
274.945	70.75
275.176	76.75
275.408	70.75
275.64	81.75
275.872	83.75
276.104	77.75
276.335	92.75
276.567	80.75
276.799	91.75
277.031	78.75
277.262	85.75
277.494	74.75
277.726	77.75
277.957	69.75
278.189	89.75
278.421	70.75
278.652	71.75
278.884	94.75
279.115	78.75
279.347	94.75
279.579	76.75
279.81	79.75
280.042	87.75
280.273	85.75
280.505	85.75
280.736	90.75
280.968	89.75
281.199	93.75
281.431	80.75
281.662	78.75
281.894	75.75
282.125	77.75
282.356	86.75
282.588	75.75
282.819	86.75
283.051	68.75
283.282	80.75
283.513	91.75
283.745	87.75
283.976	92.75
284.207	84.75
284.439	80.75
284.67	87.75
284.901	84.75
285.132	71.75
285.364	70.75
285.595	87.75
285.826	74.75
286.057	94.75
286.288	80.75
286.52	76.75
286.751	85.75
286.982	78.75
287.213	72.75
287.444	72.75
287.675	84.75
287.906	72.75
288.138	101.75
288.369	76.75
288.6	79.75
288.831	80.75
289.062	84.75
289.293	89.75
289.524	85.75
289.755	85.75
289.986	68.75
290.217	77.75
290.448	88.75
290.679	83.75
290.91	92.75
291.141	74.75
291.371	77.75
291.602	88.75
291.833	84.75
292.064	79.75
292.295	85.75
292.526	77.75
292.757	61.75
292.987	80.75
293.218	89.75
293.449	72.75
293.68	104.75
293.91	72.75
294.141	75.75
294.372	94.75
294.603	77.75
294.833	82.75
295.064	83.75
295.295	87.75
295.525	76.75
295.756	98.75
295.987	89.75
296.217	86.75
296.448	80.75
296.679	92.75
296.909	88.75
297.14	99.75
297.37	89.75
297.601	86.75
297.831	89.75
298.062	81.75
298.292	88.75
298.523	81.75
298.753	93.75
298.984	88.75
299.214	91.75
299.445	81.75
299.675	85.75
299.905	90.75
300.136	85.75
300.366	79.75
300.597	76.75
300.827	87.75
301.057	86.75
301.288	93.75
301.518	83.75
301.748	72.75
301.979	87.75
302.209	76.75
302.439	85.75
302.669	90.75
302.9	82.75
303.13	84.75
303.36	84.75
303.59	73.75
303.82	73.75
304.051	80.75
304.281	99.75
304.511	96.75
304.741	83.75
304.971	92.75
305.201	87.75
305.431	58.75
305.661	62.75
305.891	72.75
306.121	79.75
306.352	91.75
306.582	81.75
306.812	83.75
307.042	88.75
307.272	100.75
307.502	77.75
307.731	99.75
307.961	84.75
308.191	78.75
308.421	74.75
308.651	87.75
308.881	86.75
309.111	93.75
309.341	75.75
309.571	82.75
309.8	78.75
310.03	89.75
310.26	85.75
310.49	79.75
310.72	75.75
310.949	76.75
311.179	91.75
311.409	93.75
311.639	89.75
311.868	87.75
312.098	75.75
312.328	78.75
312.557	81.75
312.787	76.75
313.017	82.75
313.246	80.75
313.476	76.75
313.706	75.75
313.935	73.75
314.165	98.75
314.394	79.75
314.624	74.75
314.853	73.75
315.083	86.75
315.312	73.75
315.542	92.75
315.771	79.75
316.001	80.75
316.23	93.75
316.46	81.75
316.689	90.75
316.919	76.75
317.148	77.75
317.377	87.75
317.607	68.75
317.836	88.75
318.065	85.75
318.295	83.75
318.524	86.75
318.753	73.75
318.983	79.75
319.212	60.75
319.441	64.75
319.67	91.75
319.9	91.75
320.129	74.75
320.358	82.75
320.587	76.75
320.816	91.75
321.046	81.75
321.275	86.75
321.504	75.75
321.733	87.75
321.962	93.75
322.191	82.75
322.42	79.75
322.649	83.75
322.878	77.75
323.108	98.75
323.337	85.75
323.566	92.75
323.795	90.75
324.024	86.75
324.253	80.75
324.482	76.75
324.71	81.75
324.939	92.75
325.168	77.75
325.397	82.75
325.626	103.75
325.855	91.75
326.084	78.75
326.313	92.75
326.542	82.75
326.77	68.75
326.999	70.75
327.228	87.75
327.457	76.75
327.686	95.75
327.914	88.75
328.143	98.75
328.372	87.75
328.6	79.75
328.829	84.75
329.058	82.75
329.287	87.75
329.515	84.75
329.744	94.75
329.972	90.75
330.201	75.75
330.43	90.75
330.658	92.75
330.887	92.75
331.115	72.75
331.344	76.75
331.572	77.75
331.801	97.75
332.03	91.75
332.258	78.75
332.486	79.75
332.715	90.75
332.943	67.75
333.172	79.75
333.4	83.75
333.629	83.75
333.857	88.75
334.085	87.75
334.314	80.75
334.542	89.75
334.771	88.75
334.999	94.75
335.227	74.75
335.455	83.75
335.684	80.75
335.912	88.75
336.14	81.75
336.369	75.75
336.597	79.75
336.825	98.75
337.053	72.75
337.281	84.75
337.51	76.75
337.738	79.75
337.966	89.75
338.194	90.75
338.422	96.75
338.65	75.75
338.878	83.75
339.106	84.75
339.334	75.75
339.562	92.75
339.79	79.75
340.018	78.75
340.246	77.75
340.474	86.75
340.702	69.75
340.93	85.75
341.158	87.75
341.386	107.75
341.614	87.75
341.842	88.75
342.07	83.75
342.298	79.75
342.526	84.75
342.754	83.75
342.981	80.75
343.209	77.75
343.437	64.75
343.665	73.75
343.893	76.75
344.12	78.75
344.348	97.75
344.576	89.75
344.804	92.75
345.031	84.75
345.259	82.75
345.487	82.75
345.714	92.75
345.942	84.75
346.17	93.75
346.397	86.75
346.625	88.75
346.853	84.75
347.08	84.75
347.308	82.75
347.535	92.75
347.763	86.75
347.99	93.75
348.218	77.75
348.445	88.75
348.673	79.75
348.9	79.75
349.128	102.75
349.355	90.75
349.583	87.75
349.81	83.75
350.037	78.75
350.265	80.75
350.492	93.75
350.72	81.75
350.947	82.75
351.174	91.75
351.402	79.75
351.629	88.75
351.856	90.75
352.083	83.75
352.311	71.75
352.538	82.75
352.765	76.75
352.992	88.75
353.22	92.75
353.447	95.75
353.674	89.75
353.901	85.75
354.128	82.75
354.355	88.75
354.583	86.75
354.81	87.75
355.037	91.75
355.264	84.75
355.491	97.75
355.718	100.75
355.945	94.75
356.172	84.75
356.399	86.75
356.626	85.75
356.853	87.75
357.08	96.75
357.307	83.75
357.534	81.75
357.761	93.75
357.988	80.75
358.215	97.75
358.441	84.75
358.668	85.75
358.895	81.75
359.122	90.75
359.349	78.75
359.576	77.75
359.802	78.75
360.029	91.75
360.256	89.75
360.483	82.75
360.709	81.75
360.936	93.75
361.163	85.75
361.39	83.75
361.616	77.75
361.843	77.75
362.07	87.75
362.296	84.75
362.523	77.75
362.749	92.75
362.976	93.75
363.203	86.75
363.429	87.75
363.656	80.75
363.882	79.75
364.109	83.75
364.335	72.75
364.562	76.75
364.788	74.75
365.015	75.75
365.241	65.75
365.468	85.75
365.694	76.75
365.92	73.75
366.147	85.75
366.373	101.75
366.599	92.75
366.826	94.75
367.052	78.75
367.278	77.75
367.505	89.75
367.731	72.75
367.957	93.75
368.184	80.75
368.41	70.75
368.636	75.75
368.862	87.75
369.089	79.75
369.315	77.75
369.541	77.75
369.767	76.75
369.993	72.75
370.219	72.75
370.445	85.75
370.672	80.75
370.898	77.75
371.124	81.75
371.35	83.75
371.576	81.75
371.802	85.75
372.028	68.75
372.254	101.75
372.48	80.75
372.706	72.75
372.932	84.75
373.158	76.75
373.384	75.75
373.61	80.75
373.835	92.75
374.061	91.75
374.287	77.75
374.513	84.75
374.739	79.75
374.965	76.75
375.191	77.75
375.416	67.75
375.642	92.75
375.868	77.75
376.094	86.75
376.319	79.75
376.545	72.75
376.771	87.75
376.997	79.75
377.222	74.75
377.448	80.75
377.674	85.75
377.899	90.75
378.125	77.75
378.35	86.75
378.576	79.75
378.802	71.75
379.027	85.75
379.253	91.75
379.478	92.75
379.704	79.75
379.929	92.75
380.155	89.75
380.38	87.75
380.606	85.75
380.831	75.75
381.057	87.75
381.282	83.75
381.507	79.75
381.733	64.75
381.958	83.75
382.184	77.75
382.409	75.75
382.634	86.75
382.86	80.75
383.085	93.75
383.31	90.75
383.535	89.75
383.761	68.75
383.986	92.75
384.211	81.75
384.436	84.75
384.662	91.75
384.887	90.75
385.112	101.75
385.337	86.75
385.562	72.75
385.787	95.75
386.013	99.75
386.238	83.75
386.463	80.75
386.688	84.75
386.913	78.75
387.138	70.75
387.363	81.75
387.588	78.75
387.813	90.75
388.038	94.75
388.263	83.75
388.488	83.75
388.713	77.75
388.938	85.75
389.163	69.75
389.387	76.75
389.612	78.75
389.837	79.75
390.062	80.75
390.287	71.75
390.512	78.75
390.736	76.75
390.961	80.75
391.186	79.75
391.411	79.75
391.636	87.75
391.86	80.75
392.085	89.75
392.31	83.75
392.534	87.75
392.759	81.75
392.984	87.75
393.208	75.75
393.433	81.75
393.658	74.75
393.882	83.75
394.107	75.75
394.331	75.75
394.556	81.75
394.78	86.75
395.005	89.75
395.229	90.75
395.454	95.75
395.678	91.75
395.903	83.75
396.127	93.75
396.352	75.75
396.576	81.75
396.801	69.75
397.025	75.75
397.249	73.75
397.474	87.75
397.698	90.75
397.922	88.75
398.147	86.75
398.371	83.75
398.595	100.75
398.82	84.75
399.044	69.75
399.268	91.75
399.492	81.75
399.717	91.75
399.941	89.75
400.165	84.75
400.389	93.75
400.613	95.75
400.837	81.75
401.062	67.75
401.286	77.75
401.51	95.75
401.734	87.75
401.958	81.75
402.182	91.75
402.406	102.75
402.63	82.75
402.854	83.75
403.078	94.75
403.302	85.75
403.526	83.75
403.75	76.75
403.974	83.75
404.198	82.75
404.422	87.75
404.645	76.75
404.869	88.75
405.093	77.75
405.317	92.75
405.541	83.75
405.765	80.75
405.988	87.75
406.212	76.75
406.436	85.75
406.66	84.75
406.883	96.75
407.107	95.75
407.331	74.75
407.555	87.75
407.778	97.75
408.002	91.75
408.226	79.75
408.449	96.75
408.673	94.75
408.896	87.75
409.12	95.75
409.344	79.75
409.567	82.75
409.791	85.75
410.014	82.75
410.238	83.75
410.461	90.75
410.685	88.75
410.908	84.75
411.132	89.75
411.355	75.75
411.578	84.75
411.802	76.75
412.025	94.75
412.249	77.75
412.472	93.75
412.695	86.75
412.919	85.75
413.142	88.75
413.365	82.75
413.589	74.75
413.812	79.75
414.035	97.75
414.258	94.75
414.482	88.75
414.705	78.75
414.928	83.75
415.151	86.75
415.374	111.75
415.597	105.75
415.821	98.75
416.044	93.75
416.267	72.75
416.49	78.75
416.713	80.75
416.936	87.75
417.159	101.75
417.382	87.75
417.605	90.75
417.828	87.75
418.051	95.75
418.274	90.75
418.497	82.75
418.72	98.75
418.943	93.75
419.166	90.75
419.389	97.75
419.611	95.75
419.834	90.75
420.057	95.75
420.28	81.75
420.503	104.75
420.726	93.75
420.948	97.75
421.171	95.75
421.394	95.75
421.617	87.75
421.839	92.75
422.062	100.75
422.285	83.75
422.507	106.75
422.73	85.75
422.953	101.75
423.175	80.75
423.398	89.75
423.621	92.75
423.843	96.75
424.066	89.75
424.288	101.75
424.511	88.75
424.733	100.75
424.956	76.75
425.178	91.75
425.401	82.75
425.623	95.75
425.846	104.75
426.068	85.75
426.291	88.75
426.513	85.75
426.735	98.75
426.958	68.75
427.18	88.75
427.402	101.75
427.625	92.75
427.847	98.75
428.069	92.75
428.292	88.75
428.514	94.75
428.736	89.75
428.958	87.75
429.181	93.75
429.403	81.75
429.625	91.75
429.847	88.75
430.069	89.75
430.292	74.75
430.514	97.75
430.736	81.75
430.958	86.75
431.18	87.75
431.402	87.75
431.624	97.75
431.846	88.75
432.068	93.75
432.29	100.75
432.512	92.75
432.734	91.75
432.956	91.75
433.178	89.75
433.4	96.75
433.622	91.75
433.844	90.75
434.066	94.75
434.287	88.75
434.509	86.75
434.731	88.75
434.953	85.75
435.175	96.75
435.397	86.75
435.618	84.75
435.84	91.75
436.062	88.75
436.284	85.75
436.505	102.75
436.727	75.75
436.949	86.75
437.17	81.75
437.392	94.75
437.614	87.75
437.835	95.75
438.057	89.75
438.278	82.75
438.5	79.75
438.721	95.75
438.943	90.75
439.165	91.75
439.386	95.75
439.608	83.75
439.829	100.75
440.05	95.75
440.272	87.75
440.493	92.75
440.715	83.75
440.936	74.75
441.158	89.75
441.379	86.75
441.6	81.75
441.822	100.75
442.043	107.75
442.264	90.75
442.486	86.75
442.707	84.75
442.928	88.75
443.149	100.75
443.371	105.75
443.592	101.75
443.813	83.75
444.034	97.75
444.255	114.75
444.476	86.75
444.698	89.75
444.919	88.75
445.14	211.75
445.361	155.75
445.582	101.75
445.803	95.75
446.024	93.75
446.245	97.75
446.466	98.75
446.687	102.75
446.908	93.75
447.129	90.75
447.35	89.75
447.571	104.75
447.792	86.75
448.013	92.75
448.234	86.75
448.455	92.75
448.675	95.75
448.896	82.75
449.117	83.75
449.338	86.75
449.559	87.75
449.779	87.75
450	95.75
450.221	98.75
450.442	75.75
450.662	99.75
450.883	107.75
451.104	87.75
451.324	88.75
451.545	85.75
451.766	95.75
451.986	90.75
452.207	89.75
452.428	105.75
452.648	106.75
452.869	81.75
453.089	91.75
453.31	94.75
453.53	91.75
453.751	92.75
453.971	92.75
454.192	87.75
454.412	73.75
454.633	81.75
454.853	95.75
455.073	78.75
455.294	82.75
455.514	77.75
455.734	99.75
455.955	93.75
456.175	82.75
456.395	87.75
456.616	85.75
456.836	87.75
457.056	90.75
457.276	97.75
457.497	84.75
457.717	85.75
457.937	88.75
458.157	79.75
458.377	83.75
458.598	80.75
458.818	81.75
459.038	96.75
459.258	101.75
459.478	100.75
459.698	94.75
459.918	91.75
460.138	89.75
460.358	73.75
460.578	93.75
460.798	85.75
461.018	88.75
461.238	87.75
461.458	92.75
461.678	70.75
461.898	79.75
462.118	86.75
462.338	78.75
462.558	103.75
462.777	95.75
462.997	88.75
463.217	81.75
463.437	77.75
463.657	92.75
463.876	80.75
464.096	92.75
464.316	76.75
464.536	86.75
464.755	83.75
464.975	90.75
465.195	88.75
465.414	87.75
465.634	74.75
465.854	93.75
466.073	94.75
466.293	75.75
466.512	87.75
466.732	87.75
466.951	93.75
467.171	92.75
467.391	86.75
467.61	71.75
467.829	87.75
468.049	87.75
468.268	74.75
468.488	97.75
468.707	95.75
468.927	90.75
469.146	102.75
469.365	84.75
469.585	98.75
469.804	99.75
470.023	96.75
470.243	86.75
470.462	96.75
470.681	100.75
470.901	93.75
471.12	102.75
471.339	97.75
471.558	93.75
471.777	91.75
471.997	96.75
472.216	98.75
472.435	87.75
472.654	74.75
472.873	88.75
473.092	84.75
473.311	87.75
473.53	84.75
473.749	82.75
473.968	85.75
474.187	88.75
474.406	87.75
474.625	82.75
474.844	85.75
475.063	103.75
475.282	86.75
475.501	92.75
475.72	88.75
475.939	95.75
476.158	85.75
476.377	74.75
476.596	87.75
476.814	97.75
477.033	82.75
477.252	87.75
477.471	100.75
477.69	97.75
477.908	86.75
478.127	88.75
478.346	88.75
478.564	93.75
478.783	92.75
479.002	94.75
479.22	104.75
479.439	95.75
479.658	95.75
479.876	84.75
480.095	77.75
480.313	98.75
480.532	86.75
480.751	100.75
480.969	82.75
481.188	85.75
481.406	83.75
481.624	69.75
481.843	73.75
482.061	82.75
482.28	88.75
482.498	85.75
482.717	88.75
482.935	73.75
483.153	98.75
483.372	93.75
483.59	85.75
483.808	97.75
484.027	85.75
484.245	90.75
484.463	98.75
484.681	88.75
484.9	88.75
485.118	105.75
485.336	97.75
485.554	94.75
485.772	80.75
485.99	75.75
486.209	80.75
486.427	85.75
486.645	87.75
486.863	89.75
487.081	96.75
487.299	87.75
487.517	79.75
487.735	97.75
487.953	101.75
488.171	104.75
488.389	108.75
488.607	90.75
488.825	76.75
489.043	87.75
489.261	88.75
489.479	75.75
489.696	96.75
489.914	75.75
490.132	85.75
490.35	96.75
490.568	90.75
490.786	99.75
491.003	119.75
491.221	111.75
491.439	88.75
491.657	95.75
491.874	94.75
492.092	104.75
492.31	124.75
492.527	100.75
492.745	94.75
492.963	106.75
493.18	115.75
493.398	97.75
493.615	116.75
493.833	93.75
494.05	99.75
494.268	124.75
494.485	106.75
494.703	102.75
494.92	104.75
495.138	108.75
495.355	100.75
495.573	111.75
495.79	97.75
496.008	94.75
496.225	98.75
496.442	104.75
496.66	106.75
496.877	107.75
497.094	91.75
497.312	98.75
497.529	87.75
497.746	87.75
497.963	85.75
498.181	110.75
498.398	90.75
498.615	89.75
498.832	80.75
499.049	91.75
499.267	81.75
499.484	107.75
499.701	93.75
499.918	107.75
500.135	96.75
500.352	99.75
500.569	94.75
500.786	92.75
501.003	94.75
501.22	79.75
501.437	99.75
501.654	87.75
501.871	90.75
502.088	95.75
502.305	91.75
502.522	79.75
502.739	77.75
502.956	79.75
503.172	87.75
503.389	88.75
503.606	96.75
503.823	89.75
504.04	77.75
504.256	82.75
504.473	75.75
504.69	94.75
504.907	102.75
505.123	95.75
505.34	74.75
505.557	77.75
505.773	87.75
505.99	98.75
506.207	92.75
506.423	99.75
506.64	88.75
506.856	92.75
507.073	80.75
507.289	82.75
507.506	93.75
507.722	73.75
507.939	76.75
508.155	92.75
508.372	89.75
508.588	86.75
508.805	89.75
509.021	82.75
509.238	87.75
509.454	81.75
509.67	68.75
509.887	87.75
510.103	85.75
510.319	83.75
510.536	87.75
510.752	83.75
510.968	69.75
511.184	77.75
511.401	85.75
511.617	91.75
511.833	76.75
512.049	83.75
512.265	79.75
512.481	91.75
512.698	81.75
512.914	72.75
513.13	84.75
513.346	74.75
513.562	83.75
513.778	83.75
513.994	84.75
514.21	68.75
514.426	93.75
514.642	86.75
514.858	78.75
515.074	96.75
515.29	95.75
515.506	86.75
515.721	75.75
515.937	88.75
516.153	100.75
516.369	74.75
516.585	92.75
516.801	92.75
517.016	91.75
517.232	93.75
517.448	91.75
517.664	65.75
517.879	70.75
518.095	90.75
518.311	83.75
518.527	93.75
518.742	94.75
518.958	85.75
519.173	83.75
519.389	81.75
519.605	85.75
519.82	90.75
520.036	83.75
520.251	85.75
520.467	71.75
520.682	82.75
520.898	84.75
521.113	84.75
521.329	86.75
521.544	85.75
521.76	78.75
521.975	80.75
522.19	75.75
522.406	87.75
522.621	89.75
522.836	84.75
523.052	80.75
523.267	90.75
523.482	74.75
523.698	80.75
523.913	77.75
524.128	82.75
524.343	80.75
524.559	94.75
524.774	84.75
524.989	90.75
525.204	78.75
525.419	94.75
525.634	83.75
525.849	73.75
526.064	71.75
526.28	103.75
526.495	82.75
526.71	82.75
526.925	82.75
527.14	84.75
527.355	97.75
527.57	92.75
527.785	85.75
527.999	87.75
528.214	86.75
528.429	99.75
528.644	77.75
528.859	83.75
529.074	91.75
529.289	99.75
529.503	92.75
529.718	82.75
529.933	85.75
530.148	81.75
530.363	80.75
530.577	88.75
530.792	83.75
531.007	97.75
531.221	81.75
531.436	80.75
531.651	72.75
531.865	83.75
532.08	78.75
532.295	86.75
532.509	97.75
532.724	77.75
532.938	73.75
533.153	80.75
533.367	75.75
533.582	74.75
533.796	88.75
534.011	75.75
534.225	92.75
534.44	94.75
534.654	89.75
534.868	87.75
535.083	75.75
535.297	90.75
535.511	80.75
535.726	80.75
535.94	73.75
536.154	68.75
536.369	80.75
536.583	82.75
536.797	96.75
537.011	90.75
537.225	78.75
537.44	73.75
537.654	87.75
537.868	77.75
538.082	93.75
538.296	85.75
538.51	91.75
538.724	103.75
538.938	94.75
539.153	98.75
539.367	94.75
539.581	84.75
539.795	70.75
540.009	76.75
540.222	88.75
540.436	84.75
540.65	92.75
540.864	91.75
541.078	83.75
541.292	92.75
541.506	80.75
541.72	97.75
541.934	97.75
542.147	105.75
542.361	116.75
542.575	100.75
542.789	94.75
543.002	93.75
543.216	95.75
543.43	100.75
543.644	98.75
543.857	92.75
544.071	95.75
544.285	96.75
544.498	92.75
544.712	107.75
544.925	97.75
545.139	101.75
545.352	100.75
545.566	93.75
545.779	96.75
545.993	95.75
546.206	105.75
546.42	110.75
546.633	92.75
546.847	102.75
547.06	94.75
547.274	104.75
547.487	87.75
547.7	98.75
547.914	88.75
548.127	101.75
548.34	92.75
548.554	100.75
548.767	112.75
548.98	100.75
549.193	108.75
549.407	94.75
549.62	91.75
549.833	99.75
550.046	98.75
550.259	108.75
550.473	91.75
550.686	98.75
550.899	87.75
551.112	113.75
551.325	94.75
551.538	99.75
551.751	83.75
551.964	100.75
552.177	85.75
552.39	92.75
552.603	88.75
552.816	86.75
553.029	94.75
553.242	98.75
553.455	107.75
553.667	116.75
553.88	105.75
554.093	101.75
554.306	101.75
554.519	106.75
554.732	88.75
554.944	96.75
555.157	99.75
555.37	97.75
555.583	92.75
555.795	87.75
556.008	92.75
556.221	85.75
556.433	104.75
556.646	101.75
556.859	101.75
557.071	101.75
557.284	115.75
557.496	112.75
557.709	93.75
557.921	99.75
558.134	84.75
558.346	77.75
558.559	103.75
558.771	99.75
558.984	98.75
559.196	90.75
559.409	96.75
559.621	86.75
559.833	86.75
560.046	86.75
560.258	90.75
560.47	100.75
560.683	96.75
560.895	111.75
561.107	103.75
561.32	83.75
561.532	87.75
561.744	106.75
561.956	81.75
562.168	83.75
562.381	83.75
562.593	81.75
562.805	104.75
563.017	102.75
563.229	93.75
563.441	89.75
563.653	89.75
563.865	95.75
564.077	85.75
564.289	91.75
564.501	85.75
564.713	84.75
564.925	81.75
565.137	99.75
565.349	97.75
565.561	94.75
565.773	85.75
565.985	81.75
566.197	83.75
566.408	88.75
566.62	82.75
566.832	91.75
567.044	89.75
567.255	93.75
567.467	89.75
567.679	92.75
567.891	78.75
568.102	81.75
568.314	87.75
568.526	76.75
568.737	87.75
568.949	87.75
569.161	76.75
569.372	74.75
569.584	76.75
569.795	80.75
570.007	81.75
570.218	75.75
570.43	89.75
570.641	87.75
570.853	84.75
571.064	83.75
571.276	81.75
571.487	86.75
571.698	90.75
571.91	90.75
572.121	97.75
572.333	85.75
572.544	87.75
572.755	78.75
572.966	93.75
573.178	86.75
573.389	88.75
573.6	80.75
573.811	89.75
574.023	93.75
574.234	75.75
574.445	93.75
574.656	84.75
574.867	79.75
575.078	89.75
575.289	86.75
575.501	104.75
575.712	92.75
575.923	92.75
576.134	80.75
576.345	92.75
576.556	91.75
576.767	95.75
576.978	78.75
577.188	88.75
577.399	81.75
577.61	84.75
577.821	93.75
578.032	84.75
578.243	71.75
578.454	77.75
578.665	84.75
578.875	94.75
579.086	91.75
579.297	82.75
579.508	85.75
579.718	92.75
579.929	112.75
580.14	89.75
580.35	79.75
580.561	95.75
580.772	77.75
580.982	90.75
581.193	94.75
581.403	82.75
581.614	90.75
581.825	92.75
582.035	90.75
582.246	74.75
582.456	97.75
582.667	84.75
582.877	87.75
583.087	91.75
583.298	93.75
583.508	87.75
583.719	89.75
583.929	81.75
584.139	76.75
584.35	90.75
584.56	83.75
584.77	98.75
584.981	101.75
585.191	75.75
585.401	97.75
585.611	81.75
585.821	84.75
586.032	94.75
586.242	80.75
586.452	84.75
586.662	84.75
586.872	93.75
587.082	87.75
587.292	83.75
587.502	83.75
587.713	69.75
587.923	73.75
588.133	76.75
588.343	92.75
588.553	90.75
588.762	88.75
588.972	87.75
589.182	80.75
589.392	84.75
589.602	79.75
589.812	104.75
590.022	84.75
590.232	83.75
590.441	73.75
590.651	73.75
590.861	75.75
591.071	74.75
591.281	83.75
591.49	85.75
591.7	75.75
591.91	84.75
592.119	84.75
592.329	100.75
592.539	98.75
592.748	99.75
592.958	77.75
593.167	80.75
593.377	88.75
593.587	84.75
593.796	77.75
594.006	88.75
594.215	97.75
594.424	99.75
594.634	91.75
594.843	92.75
595.053	98.75
595.262	68.75
595.472	84.75
595.681	87.75
595.89	96.75
596.1	81.75
596.309	96.75
596.518	88.75
596.727	88.75
596.937	81.75
597.146	87.75
597.355	74.75
597.564	88.75
597.774	85.75
597.983	96.75
598.192	99.75
598.401	90.75
598.61	76.75
598.819	93.75
599.028	84.75
599.237	96.75
599.446	77.75
599.655	96.75
599.864	107.75
600.073	91.75
600.282	77.75
600.491	68.75
600.7	81.75
600.909	81.75
601.118	83.75
601.327	85.75
601.536	89.75
601.745	97.75
601.953	84.75
602.162	86.75
602.371	91.75
602.58	96.75
602.789	96.75
602.997	89.75
603.206	86.75
603.415	87.75
603.623	96.75
603.832	73.75
604.041	82.75
604.249	99.75
604.458	79.75
604.666	84.75
604.875	83.75
605.084	80.75
605.292	97.75
605.501	79.75
605.709	76.75
605.918	87.75
606.126	87.75
606.334	92.75
606.543	86.75
606.751	70.75
606.96	83.75
607.168	88.75
607.376	89.75
607.585	85.75
607.793	81.75
608.001	87.75
608.21	89.75
608.418	100.75
608.626	87.75
608.834	82.75
609.043	101.75
609.251	90.75
609.459	98.75
609.667	78.75
609.875	92.75
610.083	108.75
610.291	91.75
610.499	90.75
610.707	97.75
610.916	76.75
611.124	98.75
611.332	85.75
611.54	76.75
611.748	84.75
611.955	95.75
612.163	84.75
612.371	91.75
612.579	89.75
612.787	85.75
612.995	100.75
613.203	83.75
613.411	101.75
613.618	91.75
613.826	86.75
614.034	87.75
614.242	90.75
614.449	91.75
614.657	83.75
614.865	91.75
615.072	87.75
615.28	87.75
615.488	93.75
615.695	88.75
615.903	96.75
616.111	86.75
616.318	96.75
616.526	77.75
616.733	99.75
616.941	92.75
617.148	100.75
617.356	81.75
617.563	87.75
617.771	72.75
617.978	74.75
618.185	71.75
618.393	72.75
618.6	95.75
618.807	75.75
619.015	85.75
619.222	92.75
619.429	89.75
619.637	70.75
619.844	87.75
620.051	86.75
620.258	98.75
620.466	91.75
620.673	90.75
620.88	88.75
621.087	77.75
621.294	85.75
621.501	83.75
621.708	73.75
621.915	83.75
622.122	77.75
622.329	88.75
622.536	73.75
622.743	84.75
622.95	77.75
623.157	82.75
623.364	89.75
623.571	91.75
623.778	102.75
623.985	99.75
624.192	90.75
624.399	83.75
624.606	88.75
624.812	90.75
625.019	86.75
625.226	91.75
625.433	101.75
625.639	83.75
625.846	87.75
626.053	96.75
626.259	89.75
626.466	91.75
626.673	78.75
626.879	96.75
627.086	71.75
627.293	90.75
627.499	81.75
627.706	90.75
627.912	80.75
628.119	80.75
628.325	96.75
628.532	76.75
628.738	82.75
628.945	99.75
629.151	77.75
629.357	80.75
629.564	87.75
629.77	108.75
629.976	95.75
630.183	91.75
630.389	92.75
630.595	77.75
630.802	89.75
631.008	92.75
631.214	77.75
631.42	93.75
631.627	94.75
631.833	96.75
632.039	81.75
632.245	76.75
632.451	100.75
632.657	98.75
632.863	80.75
633.069	99.75
633.275	84.75
633.481	78.75
633.688	89.75
633.893	82.75
634.099	69.75
634.305	77.75
634.511	85.75
634.717	89.75
634.923	92.75
635.129	84.75
635.335	80.75
635.541	88.75
635.747	75.75
635.952	90.75
636.158	81.75
636.364	85.75
636.57	84.75
636.775	85.75
636.981	73.75
637.187	88.75
637.392	101.75
637.598	96.75
637.804	89.75
638.009	69.75
638.215	86.75
638.421	95.75
638.626	90.75
638.832	100.75
639.037	86.75
639.243	75.75
639.448	89.75
639.654	88.75
639.859	65.75
640.065	85.75
640.27	81.75
640.475	73.75
640.681	97.75
640.886	84.75
641.091	81.75
641.297	89.75
641.502	82.75
641.707	79.75
641.913	88.75
642.118	87.75
642.323	86.75
642.528	92.75
642.733	93.75
642.939	86.75
643.144	86.75
643.349	92.75
643.554	91.75
643.759	92.75
643.964	74.75
644.169	75.75
644.374	79.75
644.579	80.75
644.784	89.75
644.989	73.75
645.194	82.75
645.399	83.75
645.604	81.75
645.809	96.75
646.014	96.75
646.219	94.75
646.423	105.75
646.628	89.75
646.833	85.75
647.038	87.75
647.243	82.75
647.447	83.75
647.652	82.75
647.857	89.75
648.062	95.75
648.266	92.75
648.471	97.75
648.676	91.75
648.88	78.75
649.085	69.75
649.289	95.75
649.494	87.75
649.698	78.75
649.903	80.75
650.107	88.75
650.312	80.75
650.516	83.75
650.721	79.75
650.925	82.75
651.13	86.75
651.334	82.75
651.539	77.75
651.743	76.75
651.947	82.75
652.152	86.75
652.356	84.75
652.56	87.75
652.764	75.75
652.969	75.75
653.173	92.75
653.377	85.75
653.581	81.75
653.785	87.75
653.99	92.75
654.194	90.75
654.398	75.75
654.602	81.75
654.806	72.75
655.01	69.75
655.214	89.75
655.418	80.75
655.622	94.75
655.826	90.75
656.03	86.75
656.234	81.75
656.438	84.75
656.642	85.75
656.846	76.75
657.049	71.75
657.253	91.75
657.457	89.75
657.661	86.75
657.865	87.75
658.068	78.75
658.272	86.75
658.476	87.75
658.68	83.75
658.883	88.75
659.087	93.75
659.291	86.75
659.494	84.75
659.698	80.75
659.901	81.75
660.105	78.75
660.309	85.75
660.512	81.75
660.716	87.75
660.919	82.75
661.123	81.75
661.326	78.75
661.53	90.75
661.733	78.75
661.936	86.75
662.14	91.75
662.343	81.75
662.546	86.75
662.75	86.75
662.953	93.75
663.156	80.75
663.36	93.75
663.563	84.75
663.766	83.75
663.969	86.75
664.173	78.75
664.376	88.75
664.579	81.75
664.782	96.75
664.985	80.75
665.188	85.75
665.391	83.75
665.594	98.75
665.797	85.75
666	77.75
666.203	80.75
666.406	76.75
666.609	81.75
666.812	76.75
667.015	63.75
667.218	95.75
667.421	81.75
667.624	87.75
667.827	89.75
668.03	85.75
668.232	76.75
668.435	82.75
668.638	86.75
668.841	81.75
669.043	73.75
669.246	75.75
669.449	82.75
669.651	80.75
669.854	97.75
670.057	78.75
670.259	80.75
670.462	81.75
670.665	84.75
670.867	77.75
671.07	86.75
671.272	91.75
671.475	94.75
671.677	91.75
671.88	91.75
672.082	72.75
672.284	78.75
672.487	83.75
672.689	68.75
672.892	80.75
