Data from NiCl2@0.25M.TitratingCurve.Agarose3%dH2O.NegLispCup.LampEnergy10.LIBS07252019_HRD10591_18-23-01-572.txt Node
Date: Thu Jul 25 18:23:01 EDT 2019
User: cochatt
Spectrometer: HR+D1059
Trigger mode: 1
Integration Time (sec): 1.000000E-1
Scans to average: 1
Electric dark correction enabled: true
Nonlinearity correction enabled: false
Boxcar width: 0
XAxis mode: Wavelengths
Number of Pixels in Spectrum: 2048
>>>>>Begin Spectral Data<<<<<
223.165	-24.06
223.4	-24.06
223.635	-24.06
223.869	-0.06
224.104	-11.06
224.338	-13.06
224.573	-17.06
224.808	-17.06
225.042	-13.06
225.277	-4.06
225.511	-11.06
225.746	2.94
225.98	14.94
226.215	15.94
226.449	16.94
226.683	13.94
226.918	25.94
227.152	19.94
227.387	33.94
227.621	35.94
227.856	47.94
228.09	42.94
228.324	39.94
228.559	53.94
228.793	60.94
229.027	79.94
229.262	84.94
229.496	93.94
229.73	101.94
229.964	91.94
230.199	90.94
230.433	121.94
230.667	99.94
230.901	118.94
231.136	112.94
231.37	123.94
231.604	106.94
231.838	118.94
232.072	125.94
232.306	122.94
232.541	122.94
232.775	126.94
233.009	121.94
233.243	122.94
233.477	117.94
233.711	114.94
233.945	125.94
234.179	134.94
234.413	122.94
234.647	134.94
234.881	123.94
235.115	128.94
235.349	119.94
235.583	120.94
235.817	121.94
236.051	126.94
236.285	117.94
236.519	123.94
236.753	129.94
236.987	119.94
237.221	126.94
237.455	130.94
237.689	131.94
237.922	133.94
238.156	126.94
238.39	131.94
238.624	123.94
238.858	131.94
239.091	140.94
239.325	135.94
239.559	131.94
239.793	129.94
240.027	134.94
240.26	138.94
240.494	136.94
240.728	134.94
240.961	145.94
241.195	131.94
241.429	148.94
241.662	140.94
241.896	151.94
242.13	149.94
242.363	134.94
242.597	145.94
242.83	153.94
243.064	141.94
243.298	141.94
243.531	151.94
243.765	150.94
243.998	160.94
244.232	147.94
244.465	147.94
244.699	155.94
244.932	156.94
245.166	162.94
245.399	152.94
245.633	170.94
245.866	162.94
246.099	153.94
246.333	171.94
246.566	158.94
246.8	174.94
247.033	158.94
247.266	154.94
247.5	164.94
247.733	172.94
247.966	182.94
248.2	165.94
248.433	166.94
248.666	168.94
248.899	174.94
249.133	163.94
249.366	169.94
249.599	188.94
249.832	171.94
250.066	190.94
250.299	164.94
250.532	187.94
250.765	200.94
250.998	186.94
251.231	182.94
251.465	182.94
251.698	186.94
251.931	176.94
252.164	188.94
252.397	209.94
252.63	163.94
252.863	189.94
253.096	182.94
253.329	201.94
253.562	207.94
253.795	194.94
254.028	188.94
254.261	189.94
254.494	192.94
254.727	207.94
254.96	191.94
255.193	208.94
255.426	188.94
255.659	186.94
255.892	206.94
256.124	206.94
256.357	222.94
256.59	217.94
256.823	197.94
257.056	196.94
257.289	205.94
257.521	206.94
257.754	202.94
257.987	209.94
258.22	210.94
258.452	201.94
258.685	218.94
258.918	212.94
259.151	208.94
259.383	199.94
259.616	222.94
259.849	215.94
260.081	220.94
260.314	220.94
260.547	205.94
260.779	218.94
261.012	211.94
261.244	228.94
261.477	242.94
261.71	226.94
261.942	232.94
262.175	215.94
262.407	229.94
262.64	219.94
262.872	213.94
263.105	229.94
263.337	263.94
263.57	233.94
263.802	257.94
264.035	241.94
264.267	235.94
264.499	239.94
264.732	238.94
264.964	244.94
265.197	243.94
265.429	240.94
265.661	240.94
265.894	239.94
266.126	238.94
266.358	257.94
266.591	244.94
266.823	247.94
267.055	260.94
267.287	259.94
267.52	242.94
267.752	249.94
267.984	248.94
268.216	242.94
268.448	259.94
268.681	253.94
268.913	268.94
269.145	241.94
269.377	270.94
269.609	248.94
269.841	246.94
270.073	270.94
270.306	265.94
270.538	261.94
270.77	256.94
271.002	264.94
271.234	265.94
271.466	268.94
271.698	267.94
271.93	264.94
272.162	259.94
272.394	261.94
272.626	259.94
272.858	267.94
273.09	287.94
273.322	266.94
273.553	266.94
273.785	281.94
274.017	282.94
274.249	275.94
274.481	276.94
274.713	283.94
274.945	291.94
275.176	281.94
275.408	280.94
275.64	303.94
275.872	271.94
276.104	287.94
276.335	293.94
276.567	283.94
276.799	297.94
277.031	300.94
277.262	289.94
277.494	290.94
277.726	285.94
277.957	303.94
278.189	278.94
278.421	291.94
278.652	289.94
278.884	293.94
279.115	274.94
279.347	306.94
279.579	313.94
279.81	298.94
280.042	313.94
280.273	307.94
280.505	307.94
280.736	326.94
280.968	304.94
281.199	322.94
281.431	317.94
281.662	311.94
281.894	318.94
282.125	318.94
282.356	307.94
282.588	319.94
282.819	309.94
283.051	292.94
283.282	326.94
283.513	315.94
283.745	327.94
283.976	327.94
284.207	318.94
284.439	335.94
284.67	344.94
284.901	336.94
285.132	315.94
285.364	334.94
285.595	324.94
285.826	344.94
286.057	323.94
286.288	335.94
286.52	329.94
286.751	334.94
286.982	325.94
287.213	332.94
287.444	322.94
287.675	326.94
287.906	356.94
288.138	362.94
288.369	363.94
288.6	340.94
288.831	375.94
289.062	358.94
289.293	347.94
289.524	347.94
289.755	323.94
289.986	348.94
290.217	340.94
290.448	353.94
290.679	359.94
290.91	331.94
291.141	335.94
291.371	366.94
291.602	356.94
291.833	336.94
292.064	349.94
292.295	369.94
292.526	350.94
292.757	360.94
292.987	347.94
293.218	369.94
293.449	359.94
293.68	364.94
293.91	367.94
294.141	344.94
294.372	340.94
294.603	359.94
294.833	347.94
295.064	374.94
295.295	345.94
295.525	345.94
295.756	354.94
295.987	362.94
296.217	357.94
296.448	361.94
296.679	377.94
296.909	350.94
297.14	368.94
297.37	393.94
297.601	384.94
297.831	366.94
298.062	400.94
298.292	383.94
298.523	374.94
298.753	394.94
298.984	370.94
299.214	384.94
299.445	376.94
299.675	352.94
299.905	384.94
300.136	392.94
300.366	385.94
300.597	404.94
300.827	414.94
301.057	393.94
301.288	404.94
301.518	406.94
301.748	413.94
301.979	408.94
302.209	420.94
302.439	387.94
302.669	399.94
302.9	399.94
303.13	402.94
303.36	406.94
303.59	384.94
303.82	388.94
304.051	395.94
304.281	389.94
304.511	389.94
304.741	412.94
304.971	388.94
305.201	392.94
305.431	390.94
305.661	409.94
305.891	406.94
306.121	392.94
306.352	407.94
306.582	416.94
306.812	411.94
307.042	392.94
307.272	400.94
307.502	390.94
307.731	410.94
307.961	393.94
308.191	388.94
308.421	408.94
308.651	409.94
308.881	391.94
309.111	405.94
309.341	392.94
309.571	407.94
309.8	399.94
310.03	415.94
310.26	416.94
310.49	403.94
310.72	412.94
310.949	431.94
311.179	396.94
311.409	417.94
311.639	402.94
311.868	424.94
312.098	421.94
312.328	423.94
312.557	402.94
312.787	416.94
313.017	430.94
313.246	417.94
313.476	440.94
313.706	427.94
313.935	418.94
314.165	420.94
314.394	418.94
314.624	428.94
314.853	428.94
315.083	434.94
315.312	419.94
315.542	402.94
315.771	444.94
316.001	440.94
316.23	414.94
316.46	405.94
316.689	414.94
316.919	423.94
317.148	441.94
317.377	426.94
317.607	442.94
317.836	428.94
318.065	425.94
318.295	405.94
318.524	437.94
318.753	427.94
318.983	408.94
319.212	408.94
319.441	422.94
319.67	412.94
319.9	458.94
320.129	435.94
320.358	421.94
320.587	412.94
320.816	438.94
321.046	410.94
321.275	416.94
321.504	430.94
321.733	415.94
321.962	422.94
322.191	405.94
322.42	429.94
322.649	428.94
322.878	427.94
323.108	429.94
323.337	434.94
323.566	420.94
323.795	448.94
324.024	445.94
324.253	427.94
324.482	459.94
324.71	442.94
324.939	443.94
325.168	464.94
325.397	448.94
325.626	466.94
325.855	483.94
326.084	466.94
326.313	468.94
326.542	468.94
326.77	463.94
326.999	454.94
327.228	440.94
327.457	434.94
327.686	435.94
327.914	475.94
328.143	462.94
328.372	461.94
328.6	452.94
328.829	473.94
329.058	450.94
329.287	455.94
329.515	439.94
329.744	460.94
329.972	468.94
330.201	451.94
330.43	476.94
330.658	485.94
330.887	489.94
331.115	487.94
331.344	504.94
331.572	486.94
331.801	506.94
332.03	497.94
332.258	513.94
332.486	528.94
332.715	531.94
332.943	536.94
333.172	587.94
333.4	592.94
333.629	578.94
333.857	616.94
334.085	591.94
334.314	596.94
334.542	584.94
334.771	572.94
334.999	568.94
335.227	563.94
335.455	578.94
335.684	577.94
335.912	560.94
336.14	570.94
336.369	578.94
336.597	554.94
336.825	561.94
337.053	554.94
337.281	546.94
337.51	526.94
337.738	528.94
337.966	534.94
338.194	509.94
338.422	514.94
338.65	502.94
338.878	518.94
339.106	495.94
339.334	502.94
339.562	510.94
339.79	496.94
340.018	475.94
340.246	491.94
340.474	472.94
340.702	498.94
340.93	492.94
341.158	516.94
341.386	494.94
341.614	519.94
341.842	491.94
342.07	489.94
342.298	495.94
342.526	467.94
342.754	508.94
342.981	489.94
343.209	496.94
343.437	528.94
343.665	525.94
343.893	587.94
344.12	611.94
344.348	554.94
344.576	555.94
344.804	542.94
345.031	536.94
345.259	512.94
345.487	510.94
345.714	504.94
345.942	506.94
346.17	494.94
346.397	487.94
346.625	489.94
346.853	472.94
347.08	481.94
347.308	481.94
347.535	476.94
347.763	489.94
347.99	482.94
348.218	476.94
348.445	476.94
348.673	463.94
348.9	472.94
349.128	481.94
349.355	466.94
349.583	485.94
349.81	459.94
350.037	442.94
350.265	447.94
350.492	461.94
350.72	458.94
350.947	441.94
351.174	466.94
351.402	452.94
351.629	463.94
351.856	466.94
352.083	464.94
352.311	466.94
352.538	472.94
352.765	466.94
352.992	454.94
353.22	445.94
353.447	454.94
353.674	459.94
353.901	454.94
354.128	453.94
354.355	423.94
354.583	455.94
354.81	455.94
355.037	466.94
355.264	465.94
355.491	468.94
355.718	453.94
355.945	454.94
356.172	440.94
356.399	465.94
356.626	465.94
356.853	466.94
357.08	487.94
357.307	468.94
357.534	450.94
357.761	465.94
357.988	499.94
358.215	464.94
358.441	462.94
358.668	457.94
358.895	467.94
359.122	478.94
359.349	463.94
359.576	468.94
359.802	442.94
360.029	469.94
360.256	488.94
360.483	467.94
360.709	459.94
360.936	484.94
361.163	467.94
361.39	463.94
361.616	453.94
361.843	476.94
362.07	474.94
362.296	475.94
362.523	466.94
362.749	464.94
362.976	467.94
363.203	470.94
363.429	447.94
363.656	446.94
363.882	442.94
364.109	465.94
364.335	455.94
364.562	472.94
364.788	472.94
365.015	457.94
365.241	459.94
365.468	448.94
365.694	473.94
365.92	442.94
366.147	457.94
366.373	452.94
366.599	474.94
366.826	460.94
367.052	462.94
367.278	451.94
367.505	463.94
367.731	447.94
367.957	466.94
368.184	483.94
368.41	472.94
368.636	474.94
368.862	475.94
369.089	483.94
369.315	472.94
369.541	449.94
369.767	500.94
369.993	493.94
370.219	471.94
370.445	480.94
370.672	507.94
370.898	481.94
371.124	482.94
371.35	506.94
371.576	503.94
371.802	489.94
372.028	501.94
372.254	478.94
372.48	487.94
372.706	496.94
372.932	533.94
373.158	510.94
373.384	503.94
373.61	486.94
373.835	499.94
374.061	496.94
374.287	499.94
374.513	519.94
374.739	541.94
374.965	551.94
375.191	548.94
375.416	537.94
375.642	506.94
375.868	536.94
376.094	523.94
376.319	524.94
376.545	512.94
376.771	506.94
376.997	524.94
377.222	510.94
377.448	499.94
377.674	498.94
377.899	489.94
378.125	502.94
378.35	488.94
378.576	491.94
378.802	472.94
379.027	494.94
379.253	515.94
379.478	489.94
379.704	516.94
379.929	496.94
380.155	490.94
380.38	480.94
380.606	510.94
380.831	483.94
381.057	496.94
381.282	503.94
381.507	518.94
381.733	497.94
381.958	497.94
382.184	523.94
382.409	510.94
382.634	488.94
382.86	530.94
383.085	524.94
383.31	511.94
383.535	540.94
383.761	546.94
383.986	552.94
384.211	555.94
384.436	552.94
384.662	559.94
384.887	588.94
385.112	558.94
385.337	563.94
385.562	588.94
385.787	615.94
386.013	616.94
386.238	571.94
386.463	571.94
386.688	598.94
386.913	591.94
387.138	593.94
387.363	597.94
387.588	601.94
387.813	582.94
388.038	599.94
388.263	602.94
388.488	566.94
388.713	593.94
388.938	580.94
389.163	575.94
389.387	586.94
389.612	579.94
389.837	587.94
390.062	573.94
390.287	602.94
390.512	581.94
390.736	577.94
390.961	587.94
391.186	610.94
391.411	622.94
391.636	641.94
391.86	630.94
392.085	639.94
392.31	659.94
392.534	635.94
392.759	615.94
392.984	630.94
393.208	612.94
393.433	630.94
393.658	632.94
393.882	623.94
394.107	634.94
394.331	630.94
394.556	639.94
394.78	630.94
395.005	617.94
395.229	639.94
395.454	664.94
395.678	668.94
395.903	631.94
396.127	665.94
396.352	642.94
396.576	638.94
396.801	619.94
397.025	642.94
397.249	650.94
397.474	661.94
397.698	682.94
397.922	675.94
398.147	652.94
398.371	679.94
398.595	700.94
398.82	738.94
399.044	796.94
399.268	835.94
399.492	927.94
399.717	992.94
399.941	1032.94
400.165	928.94
400.389	884.94
400.613	810.94
400.837	775.94
401.062	753.94
401.286	756.94
401.51	738.94
401.734	740.94
401.958	743.94
402.182	746.94
402.406	732.94
402.63	759.94
402.854	748.94
403.078	786.94
403.302	766.94
403.526	790.94
403.75	808.94
403.974	845.94
404.198	819.94
404.422	819.94
404.645	798.94
404.869	778.94
405.093	806.94
405.317	792.94
405.541	804.94
405.765	807.94
405.988	804.94
406.212	809.94
406.436	794.94
406.66	814.94
406.883	832.94
407.107	864.94
407.331	916.94
407.555	917.94
407.778	914.94
408.002	911.94
408.226	887.94
408.449	892.94
408.673	846.94
408.896	826.94
409.12	807.94
409.344	836.94
409.567	818.94
409.791	809.94
410.014	814.94
410.238	772.94
410.461	808.94
410.685	787.94
410.908	783.94
411.132	802.94
411.355	772.94
411.578	773.94
411.802	757.94
412.025	761.94
412.249	781.94
412.472	773.94
412.695	743.94
412.919	723.94
413.142	745.94
413.365	743.94
413.589	744.94
413.812	745.94
414.035	746.94
414.258	741.94
414.482	750.94
414.705	750.94
414.928	757.94
415.151	743.94
415.374	721.94
415.597	717.94
415.821	736.94
416.044	700.94
416.267	696.94
416.49	691.94
416.713	717.94
416.936	714.94
417.159	722.94
417.382	695.94
417.605	701.94
417.828	724.94
418.051	720.94
418.274	742.94
418.497	730.94
418.72	744.94
418.943	698.94
419.166	761.94
419.389	822.94
419.611	811.94
419.834	782.94
420.057	751.94
420.28	758.94
420.503	724.94
420.726	744.94
420.948	712.94
421.171	722.94
421.394	692.94
421.617	715.94
421.839	735.94
422.062	737.94
422.285	714.94
422.507	733.94
422.73	717.94
422.953	731.94
423.175	742.94
423.398	743.94
423.621	724.94
423.843	728.94
424.066	747.94
424.288	726.94
424.511	747.94
424.733	745.94
424.956	741.94
425.178	723.94
425.401	740.94
425.623	714.94
425.846	699.94
426.068	695.94
426.291	708.94
426.513	694.94
426.735	696.94
426.958	705.94
427.18	684.94
427.402	692.94
427.625	668.94
427.847	650.94
428.069	659.94
428.292	673.94
428.514	643.94
428.736	632.94
428.958	667.94
429.181	631.94
429.403	629.94
429.625	629.94
429.847	633.94
430.069	640.94
430.292	640.94
430.514	641.94
430.736	642.94
430.958	645.94
431.18	629.94
431.402	623.94
431.624	651.94
431.846	660.94
432.068	630.94
432.29	653.94
432.512	653.94
432.734	653.94
432.956	641.94
433.178	652.94
433.4	655.94
433.622	671.94
433.844	676.94
434.066	690.94
434.287	668.94
434.509	680.94
434.731	707.94
434.953	715.94
435.175	726.94
435.397	714.94
435.618	672.94
435.84	658.94
436.062	653.94
436.284	666.94
436.505	658.94
436.727	664.94
436.949	665.94
437.17	641.94
437.392	630.94
437.614	628.94
437.835	635.94
438.057	630.94
438.278	618.94
438.5	606.94
438.721	627.94
438.943	630.94
439.165	633.94
439.386	642.94
439.608	663.94
439.829	638.94
440.05	639.94
440.272	638.94
440.493	662.94
440.715	670.94
440.936	678.94
441.158	691.94
441.379	696.94
441.6	730.94
441.822	730.94
442.043	739.94
442.264	704.94
442.486	689.94
442.707	711.94
442.928	697.94
443.149	696.94
443.371	714.94
443.592	728.94
443.813	715.94
444.034	723.94
444.255	752.94
444.476	770.94
444.698	816.94
444.919	836.94
445.14	921.94
445.361	851.94
445.582	726.94
445.803	702.94
446.024	690.94
446.245	675.94
446.466	691.94
446.687	645.94
446.908	646.94
447.129	634.94
447.35	638.94
447.571	628.94
447.792	613.94
448.013	602.94
448.234	599.94
448.455	608.94
448.675	615.94
448.896	596.94
449.117	624.94
449.338	616.94
449.559	614.94
449.779	599.94
450	606.94
450.221	593.94
450.442	610.94
450.662	597.94
450.883	618.94
451.104	625.94
451.324	607.94
451.545	604.94
451.766	601.94
451.986	601.94
452.207	608.94
452.428	619.94
452.648	596.94
452.869	607.94
453.089	584.94
453.31	575.94
453.53	542.94
453.751	583.94
453.971	581.94
454.192	594.94
454.412	572.94
454.633	575.94
454.853	578.94
455.073	572.94
455.294	575.94
455.514	564.94
455.734	553.94
455.955	577.94
456.175	559.94
456.395	573.94
456.616	588.94
456.836	556.94
457.056	565.94
457.276	562.94
457.497	556.94
457.717	556.94
457.937	580.94
458.157	591.94
458.377	568.94
458.598	604.94
458.818	618.94
459.038	635.94
459.258	635.94
459.478	631.94
459.698	659.94
459.918	712.94
460.138	704.94
460.358	736.94
460.578	750.94
460.798	746.94
461.018	769.94
461.238	725.94
461.458	764.94
461.678	731.94
461.898	783.94
462.118	784.94
462.338	802.94
462.558	822.94
462.777	847.94
462.997	898.94
463.217	956.94
463.437	953.94
463.657	908.94
463.876	899.94
464.096	891.94
464.316	878.94
464.536	868.94
464.755	847.94
464.975	825.94
465.195	794.94
465.414	736.94
465.634	710.94
465.854	681.94
466.073	670.94
466.293	656.94
466.512	650.94
466.732	648.94
466.951	632.94
467.171	638.94
467.391	648.94
467.61	633.94
467.829	638.94
468.049	606.94
468.268	609.94
468.488	598.94
468.707	632.94
468.927	619.94
469.146	613.94
469.365	632.94
469.585	621.94
469.804	636.94
470.023	650.94
470.243	642.94
470.462	661.94
470.681	659.94
470.901	661.94
471.12	648.94
471.339	640.94
471.558	608.94
471.777	616.94
471.997	634.94
472.216	619.94
472.435	611.94
472.654	614.94
472.873	585.94
473.092	577.94
473.311	614.94
473.53	596.94
473.749	592.94
473.968	604.94
474.187	580.94
474.406	587.94
474.625	609.94
474.844	579.94
475.063	600.94
475.282	597.94
475.501	603.94
475.72	601.94
475.939	619.94
476.158	643.94
476.377	624.94
476.596	633.94
476.814	635.94
477.033	662.94
477.252	646.94
477.471	672.94
477.69	656.94
477.908	690.94
478.127	700.94
478.346	728.94
478.564	707.94
478.783	712.94
479.002	755.94
479.22	744.94
479.439	726.94
479.658	721.94
479.876	739.94
480.095	730.94
480.313	751.94
480.532	788.94
480.751	774.94
480.969	750.94
481.188	727.94
481.406	704.94
481.624	711.94
481.843	676.94
482.061	712.94
482.28	683.94
482.498	663.94
482.717	663.94
482.935	673.94
483.153	692.94
483.372	709.94
483.59	681.94
483.808	678.94
484.027	677.94
484.245	683.94
484.463	701.94
484.681	712.94
484.9	725.94
485.118	736.94
485.336	699.94
485.554	724.94
485.772	694.94
485.99	720.94
486.209	718.94
486.427	712.94
486.645	726.94
486.863	712.94
487.081	715.94
487.299	724.94
487.517	706.94
487.735	720.94
487.953	736.94
488.171	707.94
488.389	720.94
488.607	719.94
488.825	723.94
489.043	724.94
489.261	713.94
489.479	731.94
489.696	711.94
489.914	718.94
490.132	724.94
490.35	726.94
490.568	702.94
490.786	729.94
491.003	742.94
491.221	753.94
491.439	743.94
491.657	734.94
491.874	741.94
492.092	730.94
492.31	736.94
492.527	753.94
492.745	776.94
492.963	729.94
493.18	762.94
493.398	780.94
493.615	745.94
493.833	770.94
494.05	744.94
494.268	782.94
494.485	753.94
494.703	796.94
494.92	796.94
495.138	783.94
495.355	804.94
495.573	800.94
495.79	775.94
496.008	786.94
496.225	806.94
496.442	791.94
496.66	822.94
496.877	794.94
497.094	821.94
497.312	826.94
497.529	859.94
497.746	879.94
497.963	890.94
498.181	918.94
498.398	946.94
498.615	1037.94
498.832	1100.94
499.049	1169.94
499.267	1240.94
499.484	1343.94
499.701	1472.94
499.918	1596.94
500.135	1716.94
500.352	1946.94
500.569	1945.94
500.786	1941.94
501.003	1892.94
501.22	1727.94
501.437	1570.94
501.654	1396.94
501.871	1293.94
502.088	1178.94
502.305	1136.94
502.522	1082.94
502.739	1008.94
502.956	995.94
503.172	936.94
503.389	901.94
503.606	881.94
503.823	870.94
504.04	873.94
504.256	871.94
504.473	887.94
504.69	900.94
504.907	869.94
505.123	838.94
505.34	801.94
505.557	798.94
505.773	766.94
505.99	752.94
506.207	711.94
506.423	729.94
506.64	719.94
506.856	713.94
507.073	696.94
507.289	697.94
507.506	677.94
507.722	688.94
507.939	659.94
508.155	675.94
508.372	653.94
508.588	671.94
508.805	662.94
509.021	643.94
509.238	640.94
509.454	627.94
509.67	634.94
509.887	639.94
510.103	641.94
510.319	620.94
510.536	617.94
510.752	627.94
510.968	624.94
511.184	641.94
511.401	635.94
511.617	609.94
511.833	619.94
512.049	614.94
512.265	611.94
512.481	610.94
512.698	624.94
512.914	613.94
513.13	648.94
513.346	615.94
513.562	610.94
513.778	636.94
513.994	640.94
514.21	611.94
514.426	651.94
514.642	651.94
514.858	656.94
515.074	627.94
515.29	630.94
515.506	646.94
515.721	641.94
515.937	665.94
516.153	694.94
516.369	691.94
516.585	683.94
516.801	732.94
517.016	746.94
517.232	764.94
517.448	800.94
517.664	815.94
517.879	823.94
518.095	812.94
518.311	822.94
518.527	746.94
518.742	757.94
518.958	711.94
519.173	720.94
519.389	686.94
519.605	670.94
519.82	675.94
520.036	647.94
520.251	636.94
520.467	644.94
520.682	634.94
520.898	612.94
521.113	624.94
521.329	622.94
521.544	618.94
521.76	594.94
521.975	583.94
522.19	617.94
522.406	594.94
522.621	577.94
522.836	592.94
523.052	585.94
523.267	590.94
523.482	596.94
523.698	607.94
523.913	587.94
524.128	585.94
524.343	590.94
524.559	592.94
524.774	610.94
524.989	595.94
525.204	601.94
525.419	583.94
525.634	548.94
525.849	579.94
526.064	562.94
526.28	575.94
526.495	580.94
526.71	550.94
526.925	562.94
527.14	551.94
527.355	576.94
527.57	561.94
527.785	574.94
527.999	536.94
528.214	569.94
528.429	575.94
528.644	568.94
528.859	567.94
529.074	578.94
529.289	570.94
529.503	553.94
529.718	566.94
529.933	560.94
530.148	555.94
530.363	601.94
530.577	560.94
530.792	564.94
531.007	540.94
531.221	550.94
531.436	548.94
531.651	564.94
531.865	562.94
532.08	567.94
532.295	551.94
532.509	554.94
532.724	567.94
532.938	542.94
533.153	558.94
533.367	563.94
533.582	559.94
533.796	542.94
534.011	570.94
534.225	560.94
534.44	554.94
534.654	530.94
534.868	550.94
535.083	548.94
535.297	549.94
535.511	561.94
535.726	527.94
535.94	554.94
536.154	540.94
536.369	550.94
536.583	531.94
536.797	512.94
537.011	524.94
537.225	518.94
537.44	529.94
537.654	528.94
537.868	516.94
538.082	534.94
538.296	532.94
538.51	515.94
538.724	523.94
538.938	516.94
539.153	511.94
539.367	508.94
539.581	505.94
539.795	507.94
540.009	527.94
540.222	504.94
540.436	492.94
540.65	512.94
540.864	490.94
541.078	499.94
541.292	506.94
541.506	503.94
541.72	519.94
541.934	520.94
542.147	529.94
542.361	498.94
542.575	520.94
542.789	522.94
543.002	503.94
543.216	502.94
543.43	514.94
543.644	471.94
543.857	498.94
544.071	500.94
544.285	523.94
544.498	509.94
544.712	499.94
544.925	519.94
545.139	537.94
545.352	521.94
545.566	532.94
545.779	519.94
545.993	513.94
546.206	523.94
546.42	497.94
546.633	532.94
546.847	511.94
547.06	531.94
547.274	531.94
547.487	514.94
547.7	525.94
547.914	543.94
548.127	533.94
548.34	516.94
548.554	523.94
548.767	503.94
548.98	532.94
549.193	532.94
549.407	519.94
549.62	544.94
549.833	531.94
550.046	535.94
550.259	524.94
550.473	499.94
550.686	526.94
550.899	519.94
551.112	518.94
551.325	507.94
551.538	504.94
551.751	523.94
551.964	511.94
552.177	502.94
552.39	523.94
552.603	542.94
552.816	540.94
553.029	540.94
553.242	544.94
553.455	552.94
553.667	559.94
553.88	552.94
554.093	547.94
554.306	515.94
554.519	512.94
554.732	508.94
554.944	513.94
555.157	509.94
555.37	484.94
555.583	491.94
555.795	467.94
556.008	466.94
556.221	457.94
556.433	455.94
556.646	453.94
556.859	439.94
557.071	449.94
557.284	448.94
557.496	451.94
557.709	450.94
557.921	457.94
558.134	440.94
558.346	451.94
558.559	467.94
558.771	427.94
558.984	452.94
559.196	425.94
559.409	442.94
559.621	431.94
559.833	424.94
560.046	422.94
560.258	437.94
560.47	456.94
560.683	427.94
560.895	422.94
561.107	423.94
561.32	431.94
561.532	406.94
561.744	419.94
561.956	452.94
562.168	437.94
562.381	440.94
562.593	426.94
562.805	432.94
563.017	428.94
563.229	422.94
563.441	424.94
563.653	451.94
563.865	438.94
564.077	448.94
564.289	450.94
564.501	443.94
564.713	457.94
564.925	474.94
565.137	469.94
565.349	484.94
565.561	480.94
565.773	519.94
565.985	528.94
566.197	523.94
566.408	581.94
566.62	608.94
566.832	650.94
567.044	654.94
567.255	657.94
567.467	655.94
567.679	686.94
567.891	722.94
568.102	711.94
568.314	678.94
568.526	638.94
568.737	591.94
568.949	549.94
569.161	526.94
569.372	483.94
569.584	502.94
569.795	461.94
570.007	449.94
570.218	448.94
570.43	438.94
570.641	438.94
570.853	418.94
571.064	422.94
571.276	439.94
571.487	430.94
571.698	428.94
571.91	415.94
572.121	396.94
572.333	394.94
572.544	371.94
572.755	387.94
572.966	362.94
573.178	368.94
573.389	374.94
573.6	368.94
573.811	379.94
574.023	371.94
574.234	353.94
574.445	348.94
574.656	342.94
574.867	357.94
575.078	353.94
575.289	347.94
575.501	361.94
575.712	324.94
575.923	338.94
576.134	341.94
576.345	352.94
576.556	332.94
576.767	337.94
576.978	348.94
577.188	345.94
577.399	326.94
577.61	331.94
577.821	334.94
578.032	331.94
578.243	339.94
578.454	308.94
578.665	329.94
578.875	315.94
579.086	337.94
579.297	322.94
579.508	320.94
579.718	326.94
579.929	322.94
580.14	327.94
580.35	323.94
580.561	335.94
580.772	314.94
580.982	312.94
581.193	303.94
581.403	323.94
581.614	304.94
581.825	317.94
582.035	310.94
582.246	302.94
582.456	304.94
582.667	310.94
582.877	315.94
583.087	313.94
583.298	308.94
583.508	324.94
583.719	307.94
583.929	312.94
584.139	326.94
584.35	298.94
584.56	295.94
584.77	295.94
584.981	307.94
585.191	281.94
585.401	283.94
585.611	289.94
585.821	303.94
586.032	282.94
586.242	302.94
586.452	296.94
586.662	295.94
586.872	291.94
587.082	309.94
587.292	283.94
587.502	292.94
587.713	272.94
587.923	272.94
588.133	283.94
588.343	291.94
588.553	297.94
588.762	308.94
588.972	286.94
589.182	305.94
589.392	314.94
589.602	291.94
589.812	290.94
590.022	284.94
590.232	310.94
590.441	307.94
590.651	297.94
590.861	288.94
591.071	289.94
591.281	307.94
591.49	319.94
591.7	306.94
591.91	307.94
592.119	316.94
592.329	318.94
592.539	316.94
592.748	340.94
592.958	342.94
593.167	332.94
593.377	341.94
593.587	372.94
593.796	362.94
594.006	361.94
594.215	355.94
594.424	355.94
594.634	356.94
594.843	340.94
595.053	320.94
595.262	304.94
595.472	304.94
595.681	302.94
595.89	318.94
596.1	296.94
596.309	284.94
596.518	269.94
596.727	288.94
596.937	296.94
597.146	272.94
597.355	272.94
597.564	259.94
597.774	265.94
597.983	264.94
598.192	276.94
598.401	262.94
598.61	268.94
598.819	259.94
599.028	270.94
599.237	254.94
599.446	244.94
599.655	272.94
599.864	279.94
600.073	253.94
600.282	247.94
600.491	247.94
600.7	242.94
600.909	254.94
601.118	261.94
601.327	257.94
601.536	258.94
601.745	267.94
601.953	231.94
602.162	258.94
602.371	233.94
602.58	251.94
602.789	246.94
602.997	256.94
603.206	246.94
603.415	255.94
603.623	248.94
603.832	226.94
604.041	230.94
604.249	234.94
604.458	245.94
604.666	228.94
604.875	225.94
605.084	232.94
605.292	240.94
605.501	240.94
605.709	224.94
605.918	239.94
606.126	225.94
606.334	233.94
606.543	253.94
606.751	229.94
606.96	237.94
607.168	220.94
607.376	233.94
607.585	239.94
607.793	230.94
608.001	242.94
608.21	227.94
608.418	222.94
608.626	228.94
608.834	217.94
609.043	230.94
609.251	248.94
609.459	222.94
609.667	240.94
609.875	233.94
610.083	235.94
610.291	219.94
610.499	239.94
610.707	216.94
610.916	223.94
611.124	219.94
611.332	218.94
611.54	232.94
611.748	228.94
611.955	231.94
612.163	210.94
612.371	223.94
612.579	218.94
612.787	210.94
612.995	234.94
613.203	225.94
613.411	222.94
613.618	220.94
613.826	209.94
614.034	236.94
614.242	217.94
614.449	211.94
614.657	227.94
614.865	229.94
615.072	216.94
615.28	205.94
615.488	220.94
615.695	217.94
615.903	218.94
616.111	225.94
616.318	219.94
616.526	217.94
616.733	217.94
616.941	216.94
617.148	210.94
617.356	203.94
617.563	215.94
617.771	237.94
617.978	227.94
618.185	214.94
618.393	214.94
618.6	222.94
618.807	213.94
619.015	218.94
619.222	219.94
619.429	211.94
619.637	217.94
619.844	232.94
620.051	204.94
620.258	188.94
620.466	203.94
620.673	204.94
620.88	220.94
621.087	195.94
621.294	198.94
621.501	208.94
621.708	190.94
621.915	203.94
622.122	205.94
622.329	226.94
622.536	208.94
622.743	202.94
622.95	206.94
623.157	201.94
623.364	208.94
623.571	201.94
623.778	199.94
623.985	200.94
624.192	187.94
624.399	195.94
624.606	208.94
624.812	191.94
625.019	202.94
625.226	197.94
625.433	214.94
625.639	186.94
625.846	209.94
626.053	186.94
626.259	203.94
626.466	195.94
626.673	188.94
626.879	200.94
627.086	184.94
627.293	195.94
627.499	200.94
627.706	183.94
627.912	215.94
628.119	184.94
628.325	196.94
628.532	190.94
628.738	168.94
628.945	191.94
629.151	192.94
629.357	181.94
629.564	186.94
629.77	204.94
629.976	184.94
630.183	178.94
630.389	194.94
630.595	181.94
630.802	183.94
631.008	176.94
631.214	187.94
631.42	186.94
631.627	181.94
631.833	179.94
632.039	183.94
632.245	174.94
632.451	186.94
632.657	175.94
632.863	181.94
633.069	155.94
633.275	180.94
633.481	157.94
633.688	176.94
633.893	183.94
634.099	167.94
634.305	180.94
634.511	171.94
634.717	180.94
634.923	169.94
635.129	170.94
635.335	158.94
635.541	166.94
635.747	154.94
635.952	176.94
636.158	182.94
636.364	179.94
636.57	182.94
636.775	168.94
636.981	174.94
637.187	159.94
637.392	164.94
637.598	169.94
637.804	163.94
638.009	161.94
638.215	169.94
638.421	157.94
638.626	154.94
638.832	164.94
639.037	163.94
639.243	161.94
639.448	170.94
639.654	162.94
639.859	166.94
640.065	159.94
640.27	167.94
640.475	170.94
640.681	158.94
640.886	162.94
641.091	145.94
641.297	165.94
641.502	164.94
641.707	157.94
641.913	161.94
642.118	140.94
642.323	162.94
642.528	146.94
642.733	163.94
642.939	170.94
643.144	155.94
643.349	169.94
643.554	170.94
643.759	149.94
643.964	161.94
644.169	159.94
644.374	153.94
644.579	156.94
644.784	158.94
644.989	154.94
645.194	161.94
645.399	151.94
645.604	145.94
645.809	139.94
646.014	150.94
646.219	150.94
646.423	139.94
646.628	153.94
646.833	147.94
647.038	149.94
647.243	137.94
647.447	162.94
647.652	151.94
647.857	167.94
648.062	153.94
648.266	155.94
648.471	175.94
648.676	172.94
648.88	184.94
649.085	178.94
649.289	152.94
649.494	145.94
649.698	141.94
649.903	163.94
650.107	148.94
650.312	151.94
650.516	149.94
650.721	130.94
650.925	156.94
651.13	134.94
651.334	147.94
651.539	130.94
651.743	138.94
651.947	137.94
652.152	133.94
652.356	143.94
652.56	138.94
652.764	145.94
652.969	123.94
653.173	139.94
653.377	136.94
653.581	141.94
653.785	142.94
653.99	128.94
654.194	126.94
654.398	139.94
654.602	124.94
654.806	142.94
655.01	125.94
655.214	130.94
655.418	138.94
655.622	136.94
655.826	126.94
656.03	131.94
656.234	136.94
656.438	122.94
656.642	128.94
656.846	116.94
657.049	118.94
657.253	127.94
657.457	122.94
657.661	112.94
657.865	116.94
658.068	110.94
658.272	94.94
658.476	102.94
658.68	104.94
658.883	106.94
659.087	102.94
659.291	92.94
659.494	91.94
659.698	86.94
659.901	98.94
660.105	107.94
660.309	92.94
660.512	100.94
660.716	83.94
660.919	100.94
661.123	99.94
661.326	90.94
661.53	87.94
661.733	80.94
661.936	83.94
662.14	80.94
662.343	74.94
662.546	82.94
662.75	71.94
662.953	87.94
663.156	75.94
663.36	83.94
663.563	96.94
663.766	93.94
663.969	85.94
664.173	91.94
664.376	75.94
664.579	68.94
664.782	79.94
664.985	81.94
665.188	75.94
665.391	78.94
665.594	66.94
665.797	58.94
666	79.94
666.203	72.94
666.406	88.94
666.609	83.94
666.812	90.94
667.015	71.94
667.218	77.94
667.421	68.94
667.624	85.94
667.827	81.94
668.03	84.94
668.232	75.94
668.435	69.94
668.638	83.94
668.841	74.94
669.043	92.94
669.246	84.94
669.449	76.94
669.651	84.94
669.854	70.94
670.057	79.94
670.259	66.94
670.462	77.94
670.665	70.94
670.867	82.94
671.07	78.94
671.272	80.94
671.475	89.94
671.677	78.94
671.88	82.94
672.082	71.94
672.284	86.94
672.487	94.94
672.689	71.94
672.892	90.94
