Data from NiCl2@0.0625M.TitratingCurve.Agarose3%dH2O.NegLispCup.LampEnergy10.LIBS07252019_HRD10591_18-32-51-576.txt Node
Date: Thu Jul 25 18:32:51 EDT 2019
User: cochatt
Spectrometer: HR+D1059
Trigger mode: 1
Integration Time (sec): 1.000000E-1
Scans to average: 1
Electric dark correction enabled: true
Nonlinearity correction enabled: false
Boxcar width: 0
XAxis mode: Wavelengths
Number of Pixels in Spectrum: 2048
>>>>>Begin Spectral Data<<<<<
223.165	-17.25
223.4	-17.25
223.635	-17.25
223.869	-5.25
224.104	-21.25
224.338	-1.25
224.573	-24.25
224.808	-11.25
225.042	-3.25
225.277	-0.25
225.511	-11.25
225.746	8.75
225.98	2.75
226.215	7.75
226.449	7.75
226.683	19.75
226.918	20.75
227.152	27.75
227.387	31.75
227.621	21.75
227.856	46.75
228.09	35.75
228.324	48.75
228.559	47.75
228.793	73.75
229.027	110.75
229.262	135.75
229.496	137.75
229.73	170.75
229.964	159.75
230.199	193.75
230.433	183.75
230.667	184.75
230.901	178.75
231.136	168.75
231.37	183.75
231.604	208.75
231.838	187.75
232.072	196.75
232.306	193.75
232.541	204.75
232.775	208.75
233.009	224.75
233.243	205.75
233.477	189.75
233.711	209.75
233.945	224.75
234.179	220.75
234.413	197.75
234.647	204.75
234.881	215.75
235.115	228.75
235.349	223.75
235.583	232.75
235.817	216.75
236.051	222.75
236.285	233.75
236.519	230.75
236.753	220.75
236.987	241.75
237.221	233.75
237.455	235.75
237.689	256.75
237.922	245.75
238.156	257.75
238.39	254.75
238.624	249.75
238.858	244.75
239.091	254.75
239.325	266.75
239.559	253.75
239.793	269.75
240.027	278.75
240.26	282.75
240.494	278.75
240.728	286.75
240.961	272.75
241.195	284.75
241.429	264.75
241.662	287.75
241.896	284.75
242.13	314.75
242.363	301.75
242.597	313.75
242.83	290.75
243.064	311.75
243.298	305.75
243.531	311.75
243.765	314.75
243.998	337.75
244.232	337.75
244.465	328.75
244.699	329.75
244.932	330.75
245.166	336.75
245.399	359.75
245.633	329.75
245.866	345.75
246.099	349.75
246.333	349.75
246.566	368.75
246.8	367.75
247.033	362.75
247.266	372.75
247.5	352.75
247.733	357.75
247.966	370.75
248.2	414.75
248.433	390.75
248.666	381.75
248.899	406.75
249.133	392.75
249.366	375.75
249.599	402.75
249.832	382.75
250.066	384.75
250.299	398.75
250.532	398.75
250.765	415.75
250.998	446.75
251.231	436.75
251.465	414.75
251.698	418.75
251.931	433.75
252.164	416.75
252.397	416.75
252.63	454.75
252.863	450.75
253.096	437.75
253.329	442.75
253.562	464.75
253.795	454.75
254.028	450.75
254.261	436.75
254.494	466.75
254.727	464.75
254.96	435.75
255.193	474.75
255.426	471.75
255.659	458.75
255.892	502.75
256.124	473.75
256.357	482.75
256.59	468.75
256.823	488.75
257.056	496.75
257.289	478.75
257.521	502.75
257.754	505.75
257.987	490.75
258.22	473.75
258.452	512.75
258.685	507.75
258.918	517.75
259.151	522.75
259.383	517.75
259.616	488.75
259.849	503.75
260.081	506.75
260.314	530.75
260.547	544.75
260.779	542.75
261.012	545.75
261.244	559.75
261.477	540.75
261.71	542.75
261.942	541.75
262.175	551.75
262.407	566.75
262.64	554.75
262.872	535.75
263.105	537.75
263.337	563.75
263.57	568.75
263.802	573.75
264.035	574.75
264.267	580.75
264.499	554.75
264.732	576.75
264.964	580.75
265.197	586.75
265.429	584.75
265.661	598.75
265.894	610.75
266.126	580.75
266.358	595.75
266.591	584.75
266.823	597.75
267.055	611.75
267.287	615.75
267.52	616.75
267.752	616.75
267.984	644.75
268.216	644.75
268.448	625.75
268.681	620.75
268.913	642.75
269.145	638.75
269.377	644.75
269.609	648.75
269.841	638.75
270.073	654.75
270.306	639.75
270.538	649.75
270.77	642.75
271.002	648.75
271.234	648.75
271.466	660.75
271.698	664.75
271.93	656.75
272.162	657.75
272.394	657.75
272.626	676.75
272.858	668.75
273.09	680.75
273.322	688.75
273.553	684.75
273.785	684.75
274.017	699.75
274.249	693.75
274.481	682.75
274.713	714.75
274.945	704.75
275.176	733.75
275.408	717.75
275.64	730.75
275.872	722.75
276.104	733.75
276.335	728.75
276.567	726.75
276.799	745.75
277.031	723.75
277.262	726.75
277.494	761.75
277.726	744.75
277.957	746.75
278.189	734.75
278.421	732.75
278.652	763.75
278.884	735.75
279.115	757.75
279.347	771.75
279.579	781.75
279.81	755.75
280.042	761.75
280.273	802.75
280.505	773.75
280.736	765.75
280.968	782.75
281.199	794.75
281.431	805.75
281.662	797.75
281.894	800.75
282.125	799.75
282.356	820.75
282.588	834.75
282.819	814.75
283.051	803.75
283.282	819.75
283.513	812.75
283.745	844.75
283.976	817.75
284.207	826.75
284.439	841.75
284.67	842.75
284.901	840.75
285.132	812.75
285.364	837.75
285.595	851.75
285.826	850.75
286.057	873.75
286.288	846.75
286.52	849.75
286.751	860.75
286.982	876.75
287.213	877.75
287.444	880.75
287.675	906.75
287.906	870.75
288.138	862.75
288.369	878.75
288.6	895.75
288.831	892.75
289.062	878.75
289.293	873.75
289.524	892.75
289.755	917.75
289.986	871.75
290.217	887.75
290.448	895.75
290.679	897.75
290.91	904.75
291.141	896.75
291.371	892.75
291.602	920.75
291.833	916.75
292.064	917.75
292.295	907.75
292.526	903.75
292.757	902.75
292.987	896.75
293.218	926.75
293.449	914.75
293.68	897.75
293.91	906.75
294.141	886.75
294.372	918.75
294.603	917.75
294.833	913.75
295.064	905.75
295.295	968.75
295.525	938.75
295.756	938.75
295.987	914.75
296.217	941.75
296.448	908.75
296.679	944.75
296.909	942.75
297.14	968.75
297.37	972.75
297.601	968.75
297.831	976.75
298.062	966.75
298.292	1010.75
298.523	1000.75
298.753	992.75
298.984	988.75
299.214	997.75
299.445	998.75
299.675	980.75
299.905	999.75
300.136	990.75
300.366	1000.75
300.597	995.75
300.827	1029.75
301.057	1047.75
301.288	1031.75
301.518	1048.75
301.748	1035.75
301.979	1039.75
302.209	1087.75
302.439	1039.75
302.669	1032.75
302.9	1032.75
303.13	1043.75
303.36	1019.75
303.59	1071.75
303.82	1060.75
304.051	1026.75
304.281	1056.75
304.511	1016.75
304.741	1056.75
304.971	1030.75
305.201	1052.75
305.431	1046.75
305.661	1054.75
305.891	1036.75
306.121	1018.75
306.352	1044.75
306.582	1027.75
306.812	1037.75
307.042	1048.75
307.272	1004.75
307.502	993.75
307.731	1026.75
307.961	1020.75
308.191	1017.75
308.421	1055.75
308.651	1029.75
308.881	1000.75
309.111	1015.75
309.341	1025.75
309.571	1065.75
309.8	1052.75
310.03	1028.75
310.26	1027.75
310.49	1045.75
310.72	1054.75
310.949	1049.75
311.179	1045.75
311.409	1054.75
311.639	1047.75
311.868	1034.75
312.098	1068.75
312.328	1064.75
312.557	1059.75
312.787	1081.75
313.017	1068.75
313.246	1076.75
313.476	1081.75
313.706	1081.75
313.935	1103.75
314.165	1100.75
314.394	1104.75
314.624	1094.75
314.853	1089.75
315.083	1103.75
315.312	1108.75
315.542	1129.75
315.771	1126.75
316.001	1097.75
316.23	1103.75
316.46	1121.75
316.689	1116.75
316.919	1085.75
317.148	1106.75
317.377	1130.75
317.607	1081.75
317.836	1084.75
318.065	1093.75
318.295	1096.75
318.524	1093.75
318.753	1115.75
318.983	1090.75
319.212	1048.75
319.441	1104.75
319.67	1085.75
319.9	1091.75
320.129	1116.75
320.358	1106.75
320.587	1121.75
320.816	1098.75
321.046	1106.75
321.275	1104.75
321.504	1081.75
321.733	1105.75
321.962	1106.75
322.191	1107.75
322.42	1107.75
322.649	1153.75
322.878	1086.75
323.108	1123.75
323.337	1116.75
323.566	1132.75
323.795	1143.75
324.024	1152.75
324.253	1127.75
324.482	1163.75
324.71	1138.75
324.939	1153.75
325.168	1168.75
325.397	1182.75
325.626	1147.75
325.855	1193.75
326.084	1191.75
326.313	1188.75
326.542	1202.75
326.77	1204.75
326.999	1192.75
327.228	1155.75
327.457	1164.75
327.686	1181.75
327.914	1191.75
328.143	1220.75
328.372	1216.75
328.6	1203.75
328.829	1208.75
329.058	1185.75
329.287	1217.75
329.515	1244.75
329.744	1235.75
329.972	1207.75
330.201	1197.75
330.43	1242.75
330.658	1226.75
330.887	1239.75
331.115	1271.75
331.344	1266.75
331.572	1280.75
331.801	1304.75
332.03	1280.75
332.258	1326.75
332.486	1375.75
332.715	1334.75
332.943	1433.75
333.172	1438.75
333.4	1504.75
333.629	1510.75
333.857	1567.75
334.085	1523.75
334.314	1525.75
334.542	1482.75
334.771	1515.75
334.999	1455.75
335.227	1468.75
335.455	1512.75
335.684	1461.75
335.912	1486.75
336.14	1475.75
336.369	1476.75
336.597	1477.75
336.825	1433.75
337.053	1414.75
337.281	1402.75
337.51	1385.75
337.738	1346.75
337.966	1354.75
338.194	1389.75
338.422	1300.75
338.65	1312.75
338.878	1294.75
339.106	1312.75
339.334	1297.75
339.562	1321.75
339.79	1305.75
340.018	1278.75
340.246	1270.75
340.474	1264.75
340.702	1252.75
340.93	1280.75
341.158	1313.75
341.386	1265.75
341.614	1270.75
341.842	1281.75
342.07	1276.75
342.298	1265.75
342.526	1259.75
342.754	1241.75
342.981	1267.75
343.209	1279.75
343.437	1350.75
343.665	1389.75
343.893	1457.75
344.12	1496.75
344.348	1464.75
344.576	1408.75
344.804	1381.75
345.031	1338.75
345.259	1302.75
345.487	1298.75
345.714	1283.75
345.942	1266.75
346.17	1263.75
346.397	1235.75
346.625	1215.75
346.853	1199.75
347.08	1209.75
347.308	1181.75
347.535	1206.75
347.763	1214.75
347.99	1225.75
348.218	1214.75
348.445	1236.75
348.673	1217.75
348.9	1206.75
349.128	1202.75
349.355	1188.75
349.583	1200.75
349.81	1204.75
350.037	1230.75
350.265	1200.75
350.492	1210.75
350.72	1173.75
350.947	1172.75
351.174	1181.75
351.402	1162.75
351.629	1166.75
351.856	1154.75
352.083	1141.75
352.311	1175.75
352.538	1189.75
352.765	1165.75
352.992	1147.75
353.22	1172.75
353.447	1172.75
353.674	1145.75
353.901	1168.75
354.128	1145.75
354.355	1168.75
354.583	1160.75
354.81	1147.75
355.037	1158.75
355.264	1171.75
355.491	1200.75
355.718	1155.75
355.945	1171.75
356.172	1187.75
356.399	1161.75
356.626	1153.75
356.853	1181.75
357.08	1186.75
357.307	1176.75
357.534	1161.75
357.761	1173.75
357.988	1189.75
358.215	1196.75
358.441	1161.75
358.668	1162.75
358.895	1154.75
359.122	1169.75
359.349	1206.75
359.576	1171.75
359.802	1152.75
360.029	1163.75
360.256	1167.75
360.483	1188.75
360.709	1148.75
360.936	1181.75
361.163	1168.75
361.39	1182.75
361.616	1172.75
361.843	1174.75
362.07	1175.75
362.296	1170.75
362.523	1158.75
362.749	1193.75
362.976	1186.75
363.203	1173.75
363.429	1150.75
363.656	1190.75
363.882	1166.75
364.109	1185.75
364.335	1168.75
364.562	1160.75
364.788	1160.75
365.015	1200.75
365.241	1169.75
365.468	1147.75
365.694	1178.75
365.92	1184.75
366.147	1154.75
366.373	1180.75
366.599	1190.75
366.826	1163.75
367.052	1203.75
367.278	1174.75
367.505	1170.75
367.731	1175.75
367.957	1155.75
368.184	1200.75
368.41	1185.75
368.636	1202.75
368.862	1183.75
369.089	1221.75
369.315	1174.75
369.541	1221.75
369.767	1224.75
369.993	1210.75
370.219	1220.75
370.445	1201.75
370.672	1255.75
370.898	1256.75
371.124	1286.75
371.35	1276.75
371.576	1272.75
371.802	1269.75
372.028	1223.75
372.254	1260.75
372.48	1266.75
372.706	1316.75
372.932	1326.75
373.158	1354.75
373.384	1302.75
373.61	1273.75
373.835	1272.75
374.061	1301.75
374.287	1313.75
374.513	1305.75
374.739	1352.75
374.965	1344.75
375.191	1381.75
375.416	1380.75
375.642	1336.75
375.868	1336.75
376.094	1317.75
376.319	1300.75
376.545	1315.75
376.771	1285.75
376.997	1296.75
377.222	1279.75
377.448	1286.75
377.674	1295.75
377.899	1257.75
378.125	1271.75
378.35	1248.75
378.576	1236.75
378.802	1264.75
379.027	1305.75
379.253	1274.75
379.478	1247.75
379.704	1257.75
379.929	1253.75
380.155	1228.75
380.38	1285.75
380.606	1264.75
380.831	1284.75
381.057	1255.75
381.282	1258.75
381.507	1251.75
381.733	1306.75
381.958	1265.75
382.184	1278.75
382.409	1329.75
382.634	1317.75
382.86	1315.75
383.085	1343.75
383.31	1365.75
383.535	1328.75
383.761	1371.75
383.986	1366.75
384.211	1412.75
384.436	1398.75
384.662	1442.75
384.887	1520.75
385.112	1480.75
385.337	1487.75
385.562	1503.75
385.787	1493.75
386.013	1557.75
386.238	1511.75
386.463	1509.75
386.688	1538.75
386.913	1513.75
387.138	1492.75
387.363	1517.75
387.588	1516.75
387.813	1500.75
388.038	1484.75
388.263	1537.75
388.488	1512.75
388.713	1526.75
388.938	1499.75
389.163	1498.75
389.387	1512.75
389.612	1491.75
389.837	1497.75
390.062	1479.75
390.287	1501.75
390.512	1495.75
390.736	1543.75
390.961	1564.75
391.186	1520.75
391.411	1588.75
391.636	1623.75
391.86	1639.75
392.085	1669.75
392.31	1686.75
392.534	1656.75
392.759	1605.75
392.984	1616.75
393.208	1625.75
393.433	1659.75
393.658	1710.75
393.882	1627.75
394.107	1604.75
394.331	1591.75
394.556	1640.75
394.78	1659.75
395.005	1609.75
395.229	1629.75
395.454	1683.75
395.678	1706.75
395.903	1675.75
396.127	1697.75
396.352	1660.75
396.576	1602.75
396.801	1613.75
397.025	1676.75
397.249	1705.75
397.474	1703.75
397.698	1693.75
397.922	1709.75
398.147	1710.75
398.371	1758.75
398.595	1772.75
398.82	1864.75
399.044	1992.75
399.268	2157.75
399.492	2357.75
399.717	2575.75
399.941	2595.75
400.165	2407.75
400.389	2228.75
400.613	2088.75
400.837	1948.75
401.062	1937.75
401.286	1941.75
401.51	1891.75
401.734	1888.75
401.958	1891.75
402.182	1860.75
402.406	1901.75
402.63	1893.75
402.854	1957.75
403.078	1931.75
403.302	1972.75
403.526	2018.75
403.75	2023.75
403.974	2096.75
404.198	2091.75
404.422	2041.75
404.645	2038.75
404.869	2050.75
405.093	2065.75
405.317	1989.75
405.541	2021.75
405.765	2019.75
405.988	2013.75
406.212	2056.75
406.436	2064.75
406.66	2075.75
406.883	2125.75
407.107	2214.75
407.331	2255.75
407.555	2354.75
407.778	2378.75
408.002	2319.75
408.226	2270.75
408.449	2232.75
408.673	2148.75
408.896	2091.75
409.12	2080.75
409.344	2109.75
409.567	2074.75
409.791	2079.75
410.014	2080.75
410.238	2035.75
410.461	2048.75
410.685	2025.75
410.908	2006.75
411.132	2001.75
411.355	1941.75
411.578	1948.75
411.802	1943.75
412.025	1929.75
412.249	1987.75
412.472	1959.75
412.695	1907.75
412.919	1903.75
413.142	1912.75
413.365	1861.75
413.589	1889.75
413.812	1887.75
414.035	1885.75
414.258	1878.75
414.482	1846.75
414.705	1899.75
414.928	1848.75
415.151	1863.75
415.374	1901.75
415.597	1888.75
415.821	1832.75
416.044	1844.75
416.267	1813.75
416.49	1832.75
416.713	1801.75
416.936	1823.75
417.159	1812.75
417.382	1779.75
417.605	1760.75
417.828	1778.75
418.051	1812.75
418.274	1792.75
418.497	1808.75
418.72	1850.75
418.943	1799.75
419.166	1948.75
419.389	2119.75
419.611	2021.75
419.834	1950.75
420.057	1901.75
420.28	1802.75
420.503	1799.75
420.726	1801.75
420.948	1778.75
421.171	1816.75
421.394	1801.75
421.617	1764.75
421.839	1802.75
422.062	1820.75
422.285	1797.75
422.507	1856.75
422.73	1857.75
422.953	1823.75
423.175	1818.75
423.398	1849.75
423.621	1841.75
423.843	1886.75
424.066	1820.75
424.288	1869.75
424.511	1853.75
424.733	1839.75
424.956	1846.75
425.178	1800.75
425.401	1809.75
425.623	1797.75
425.846	1738.75
426.068	1769.75
426.291	1739.75
426.513	1724.75
426.735	1706.75
426.958	1750.75
427.18	1694.75
427.402	1699.75
427.625	1698.75
427.847	1616.75
428.069	1658.75
428.292	1694.75
428.514	1674.75
428.736	1655.75
428.958	1670.75
429.181	1606.75
429.403	1586.75
429.625	1622.75
429.847	1636.75
430.069	1621.75
430.292	1603.75
430.514	1576.75
430.736	1631.75
430.958	1614.75
431.18	1649.75
431.402	1679.75
431.624	1652.75
431.846	1673.75
432.068	1685.75
432.29	1668.75
432.512	1648.75
432.734	1657.75
432.956	1609.75
433.178	1676.75
433.4	1704.75
433.622	1674.75
433.844	1709.75
434.066	1688.75
434.287	1752.75
434.509	1773.75
434.731	1817.75
434.953	1815.75
435.175	1792.75
435.397	1835.75
435.618	1753.75
435.84	1699.75
436.062	1678.75
436.284	1636.75
436.505	1666.75
436.727	1644.75
436.949	1670.75
437.17	1624.75
437.392	1600.75
437.614	1583.75
437.835	1587.75
438.057	1593.75
438.278	1558.75
438.5	1539.75
438.721	1571.75
438.943	1634.75
439.165	1595.75
439.386	1609.75
439.608	1591.75
439.829	1614.75
440.05	1637.75
440.272	1600.75
440.493	1649.75
440.715	1653.75
440.936	1685.75
441.158	1711.75
441.379	1711.75
441.6	1760.75
441.822	1806.75
442.043	1809.75
442.264	1737.75
442.486	1688.75
442.707	1740.75
442.928	1710.75
443.149	1776.75
443.371	1758.75
443.592	1769.75
443.813	1796.75
444.034	1798.75
444.255	1826.75
444.476	1916.75
444.698	2020.75
444.919	2041.75
445.14	2088.75
445.361	1920.75
445.582	1857.75
445.803	1773.75
446.024	1710.75
446.245	1690.75
446.466	1635.75
446.687	1620.75
446.908	1603.75
447.129	1616.75
447.35	1592.75
447.571	1573.75
447.792	1523.75
448.013	1535.75
448.234	1521.75
448.455	1491.75
448.675	1513.75
448.896	1482.75
449.117	1438.75
449.338	1461.75
449.559	1443.75
449.779	1461.75
450	1476.75
450.221	1494.75
450.442	1505.75
450.662	1482.75
450.883	1490.75
451.104	1443.75
451.324	1448.75
451.545	1466.75
451.766	1432.75
451.986	1482.75
452.207	1450.75
452.428	1442.75
452.648	1441.75
452.869	1416.75
453.089	1435.75
453.31	1413.75
453.53	1433.75
453.751	1416.75
453.971	1407.75
454.192	1443.75
454.412	1401.75
454.633	1392.75
454.853	1414.75
455.073	1368.75
455.294	1382.75
455.514	1361.75
455.734	1369.75
455.955	1321.75
456.175	1349.75
456.395	1398.75
456.616	1377.75
456.836	1364.75
457.056	1361.75
457.276	1353.75
457.497	1418.75
457.717	1364.75
457.937	1383.75
458.157	1443.75
458.377	1454.75
458.598	1488.75
458.818	1493.75
459.038	1511.75
459.258	1584.75
459.478	1633.75
459.698	1666.75
459.918	1706.75
460.138	1717.75
460.358	1773.75
460.578	1824.75
460.798	1824.75
461.018	1863.75
461.238	1850.75
461.458	1841.75
461.678	1805.75
461.898	1875.75
462.118	1908.75
462.338	2000.75
462.558	2000.75
462.777	2043.75
462.997	2207.75
463.217	2320.75
463.437	2328.75
463.657	2216.75
463.876	2147.75
464.096	2065.75
464.316	2109.75
464.536	2094.75
464.755	2010.75
464.975	1978.75
465.195	1915.75
465.414	1813.75
465.634	1714.75
465.854	1688.75
466.073	1674.75
466.293	1590.75
466.512	1582.75
466.732	1603.75
466.951	1599.75
467.171	1553.75
467.391	1552.75
467.61	1541.75
467.829	1506.75
468.049	1503.75
468.268	1471.75
468.488	1522.75
468.707	1513.75
468.927	1505.75
469.146	1508.75
469.365	1533.75
469.585	1518.75
469.804	1550.75
470.023	1552.75
470.243	1571.75
470.462	1547.75
470.681	1604.75
470.901	1594.75
471.12	1576.75
471.339	1556.75
471.558	1582.75
471.777	1553.75
471.997	1508.75
472.216	1499.75
472.435	1495.75
472.654	1480.75
472.873	1488.75
473.092	1486.75
473.311	1478.75
473.53	1506.75
473.749	1493.75
473.968	1498.75
474.187	1470.75
474.406	1495.75
474.625	1468.75
474.844	1490.75
475.063	1470.75
475.282	1488.75
475.501	1491.75
475.72	1509.75
475.939	1499.75
476.158	1532.75
476.377	1573.75
476.596	1554.75
476.814	1583.75
477.033	1584.75
477.252	1615.75
477.471	1610.75
477.69	1680.75
477.908	1746.75
478.127	1749.75
478.346	1720.75
478.564	1792.75
478.783	1842.75
479.002	1823.75
479.22	1854.75
479.439	1873.75
479.658	1832.75
479.876	1844.75
480.095	1880.75
480.313	1910.75
480.532	1974.75
480.751	1960.75
480.969	1930.75
481.188	1887.75
481.406	1856.75
481.624	1798.75
481.843	1781.75
482.061	1746.75
482.28	1815.75
482.498	1760.75
482.717	1746.75
482.935	1781.75
483.153	1793.75
483.372	1833.75
483.59	1806.75
483.808	1802.75
484.027	1816.75
484.245	1828.75
484.463	1832.75
484.681	1876.75
484.9	1870.75
485.118	1905.75
485.336	1862.75
485.554	1932.75
485.772	1918.75
485.99	1907.75
486.209	1898.75
486.427	1874.75
486.645	1913.75
486.863	1913.75
487.081	1887.75
487.299	1882.75
487.517	1875.75
487.735	1854.75
487.953	1865.75
488.171	1874.75
488.389	1902.75
488.607	1874.75
488.825	1840.75
489.043	1829.75
489.261	1880.75
489.479	1843.75
489.696	1862.75
489.914	1863.75
490.132	1869.75
490.35	1825.75
490.568	1870.75
490.786	1834.75
491.003	1849.75
491.221	1888.75
491.439	1833.75
491.657	1853.75
491.874	1866.75
492.092	1863.75
492.31	1870.75
492.527	1821.75
492.745	1875.75
492.963	1880.75
493.18	1885.75
493.398	1868.75
493.615	1868.75
493.833	1894.75
494.05	1877.75
494.268	1890.75
494.485	1873.75
494.703	1865.75
494.92	1909.75
495.138	1897.75
495.355	1893.75
495.573	1949.75
495.79	1914.75
496.008	1941.75
496.225	1932.75
496.442	1971.75
496.66	1993.75
496.877	2006.75
497.094	2037.75
497.312	2045.75
497.529	2076.75
497.746	2153.75
497.963	2214.75
498.181	2278.75
498.398	2366.75
498.615	2489.75
498.832	2634.75
499.049	2834.75
499.267	3015.75
499.484	3196.75
499.701	3471.75
499.918	3773.75
500.135	4194.75
500.352	4592.75
500.569	4785.75
500.786	4672.75
501.003	4471.75
501.22	4072.75
501.437	3799.75
501.654	3428.75
501.871	3190.75
502.088	2893.75
502.305	2745.75
502.522	2590.75
502.739	2558.75
502.956	2415.75
503.172	2329.75
503.389	2226.75
503.606	2201.75
503.823	2151.75
504.04	2168.75
504.256	2149.75
504.473	2129.75
504.69	2145.75
504.907	2054.75
505.123	2052.75
505.34	1956.75
505.557	1863.75
505.773	1824.75
505.99	1778.75
506.207	1748.75
506.423	1699.75
506.64	1699.75
506.856	1663.75
507.073	1668.75
507.289	1636.75
507.506	1615.75
507.722	1607.75
507.939	1583.75
508.155	1607.75
508.372	1586.75
508.588	1538.75
508.805	1582.75
509.021	1567.75
509.238	1549.75
509.454	1527.75
509.67	1538.75
509.887	1505.75
510.103	1537.75
510.319	1509.75
510.536	1459.75
510.752	1489.75
510.968	1502.75
511.184	1483.75
511.401	1482.75
511.617	1490.75
511.833	1486.75
512.049	1464.75
512.265	1472.75
512.481	1504.75
512.698	1507.75
512.914	1486.75
513.13	1454.75
513.346	1434.75
513.562	1487.75
513.778	1469.75
513.994	1485.75
514.21	1506.75
514.426	1500.75
514.642	1488.75
514.858	1535.75
515.074	1461.75
515.29	1492.75
515.506	1540.75
515.721	1527.75
515.937	1560.75
516.153	1584.75
516.369	1656.75
516.585	1686.75
516.801	1692.75
517.016	1740.75
517.232	1807.75
517.448	1885.75
517.664	1874.75
517.879	1945.75
518.095	1913.75
518.311	1853.75
518.527	1858.75
518.742	1774.75
518.958	1733.75
519.173	1685.75
519.389	1615.75
519.605	1604.75
519.82	1591.75
520.036	1583.75
520.251	1519.75
520.467	1478.75
520.682	1478.75
520.898	1463.75
521.113	1442.75
521.329	1450.75
521.544	1448.75
521.76	1418.75
521.975	1398.75
522.19	1410.75
522.406	1383.75
522.621	1372.75
522.836	1410.75
523.052	1373.75
523.267	1367.75
523.482	1336.75
523.698	1353.75
523.913	1300.75
524.128	1346.75
524.343	1328.75
524.559	1343.75
524.774	1294.75
524.989	1336.75
525.204	1352.75
525.419	1336.75
525.634	1286.75
525.849	1312.75
526.064	1310.75
526.28	1318.75
526.495	1268.75
526.71	1305.75
526.925	1302.75
527.14	1313.75
527.355	1282.75
527.57	1285.75
527.785	1280.75
527.999	1310.75
528.214	1310.75
528.429	1284.75
528.644	1323.75
528.859	1286.75
529.074	1294.75
529.289	1294.75
529.503	1276.75
529.718	1296.75
529.933	1278.75
530.148	1244.75
530.363	1318.75
530.577	1288.75
530.792	1238.75
531.007	1251.75
531.221	1303.75
531.436	1249.75
531.651	1294.75
531.865	1290.75
532.08	1297.75
532.295	1258.75
532.509	1276.75
532.724	1270.75
532.938	1278.75
533.153	1276.75
533.367	1264.75
533.582	1287.75
533.796	1269.75
534.011	1256.75
534.225	1253.75
534.44	1282.75
534.654	1244.75
534.868	1245.75
535.083	1285.75
535.297	1274.75
535.511	1230.75
535.726	1232.75
535.94	1221.75
536.154	1209.75
536.369	1214.75
536.583	1200.75
536.797	1193.75
537.011	1211.75
537.225	1193.75
537.44	1176.75
537.654	1201.75
537.868	1161.75
538.082	1162.75
538.296	1175.75
538.51	1189.75
538.724	1148.75
538.938	1160.75
539.153	1122.75
539.367	1165.75
539.581	1160.75
539.795	1153.75
540.009	1157.75
540.222	1166.75
540.436	1141.75
540.65	1125.75
540.864	1116.75
541.078	1148.75
541.292	1153.75
541.506	1141.75
541.72	1110.75
541.934	1138.75
542.147	1128.75
542.361	1128.75
542.575	1109.75
542.789	1140.75
543.002	1108.75
543.216	1134.75
543.43	1128.75
543.644	1116.75
543.857	1119.75
544.071	1114.75
544.285	1126.75
544.498	1152.75
544.712	1117.75
544.925	1137.75
545.139	1124.75
545.352	1140.75
545.566	1137.75
545.779	1142.75
545.993	1142.75
546.206	1184.75
546.42	1164.75
546.633	1147.75
546.847	1160.75
547.06	1123.75
547.274	1120.75
547.487	1162.75
547.7	1150.75
547.914	1169.75
548.127	1157.75
548.34	1177.75
548.554	1137.75
548.767	1157.75
548.98	1173.75
549.193	1173.75
549.407	1138.75
549.62	1171.75
549.833	1160.75
550.046	1148.75
550.259	1158.75
550.473	1137.75
550.686	1139.75
550.899	1140.75
551.112	1123.75
551.325	1121.75
551.538	1143.75
551.751	1157.75
551.964	1119.75
552.177	1142.75
552.39	1127.75
552.603	1193.75
552.816	1180.75
553.029	1180.75
553.242	1200.75
553.455	1222.75
553.667	1214.75
553.88	1183.75
554.093	1193.75
554.306	1176.75
554.519	1139.75
554.732	1106.75
554.944	1102.75
555.157	1082.75
555.37	1081.75
555.583	1088.75
555.795	1076.75
556.008	1052.75
556.221	1038.75
556.433	1053.75
556.646	1021.75
556.859	1035.75
557.071	1013.75
557.284	994.75
557.496	990.75
557.709	984.75
557.921	992.75
558.134	946.75
558.346	975.75
558.559	962.75
558.771	972.75
558.984	958.75
559.196	969.75
559.409	982.75
559.621	976.75
559.833	943.75
560.046	952.75
560.258	957.75
560.47	913.75
560.683	940.75
560.895	960.75
561.107	924.75
561.32	930.75
561.532	944.75
561.744	960.75
561.956	953.75
562.168	946.75
562.381	933.75
562.593	964.75
562.805	969.75
563.017	951.75
563.229	969.75
563.441	963.75
563.653	979.75
563.865	993.75
564.077	960.75
564.289	1028.75
564.501	1010.75
564.713	1000.75
564.925	1017.75
565.137	1041.75
565.349	1062.75
565.561	1113.75
565.773	1156.75
565.985	1142.75
566.197	1223.75
566.408	1286.75
566.62	1372.75
566.832	1444.75
567.044	1434.75
567.255	1469.75
567.467	1488.75
567.679	1560.75
567.891	1655.75
568.102	1640.75
568.314	1585.75
568.526	1443.75
568.737	1353.75
568.949	1240.75
569.161	1168.75
569.372	1113.75
569.584	1076.75
569.795	1023.75
570.007	1007.75
570.218	1017.75
570.43	960.75
570.641	976.75
570.853	963.75
571.064	944.75
571.276	949.75
571.487	914.75
571.698	896.75
571.91	844.75
572.121	872.75
572.333	882.75
572.544	814.75
572.755	822.75
572.966	808.75
573.178	820.75
573.389	804.75
573.6	778.75
573.811	779.75
574.023	776.75
574.234	764.75
574.445	781.75
574.656	773.75
574.867	780.75
575.078	772.75
575.289	774.75
575.501	762.75
575.712	752.75
575.923	698.75
576.134	728.75
576.345	700.75
576.556	721.75
576.767	742.75
576.978	729.75
577.188	730.75
577.399	703.75
577.61	705.75
577.821	682.75
578.032	691.75
578.243	696.75
578.454	712.75
578.665	672.75
578.875	676.75
579.086	653.75
579.297	674.75
579.508	670.75
579.718	670.75
579.929	686.75
580.14	660.75
580.35	678.75
580.561	664.75
580.772	659.75
580.982	640.75
581.193	644.75
581.403	648.75
581.614	644.75
581.825	665.75
582.035	672.75
582.246	649.75
582.456	651.75
582.667	624.75
582.877	660.75
583.087	638.75
583.298	632.75
583.508	633.75
583.719	632.75
583.929	631.75
584.139	657.75
584.35	626.75
584.56	626.75
584.77	600.75
584.981	643.75
585.191	623.75
585.401	622.75
585.611	612.75
585.821	604.75
586.032	607.75
586.242	616.75
586.452	613.75
586.662	591.75
586.872	596.75
587.082	619.75
587.292	625.75
587.502	615.75
587.713	612.75
587.923	611.75
588.133	596.75
588.343	612.75
588.553	599.75
588.762	608.75
588.972	605.75
589.182	650.75
589.392	647.75
589.602	628.75
589.812	624.75
590.022	622.75
590.232	627.75
590.441	621.75
590.651	609.75
590.861	630.75
591.071	633.75
591.281	623.75
591.49	640.75
591.7	646.75
591.91	641.75
592.119	658.75
592.329	677.75
592.539	679.75
592.748	659.75
592.958	700.75
593.167	709.75
593.377	744.75
593.587	739.75
593.796	714.75
594.006	730.75
594.215	730.75
594.424	730.75
594.634	737.75
594.843	721.75
595.053	682.75
595.262	694.75
595.472	670.75
595.681	635.75
595.89	635.75
596.1	589.75
596.309	584.75
596.518	596.75
596.727	579.75
596.937	566.75
597.146	557.75
597.355	565.75
597.564	549.75
597.774	549.75
597.983	527.75
598.192	535.75
598.401	544.75
598.61	515.75
598.819	514.75
599.028	534.75
599.237	512.75
599.446	510.75
599.655	522.75
599.864	523.75
600.073	515.75
600.282	503.75
600.491	503.75
600.7	493.75
600.909	485.75
601.118	505.75
601.327	490.75
601.536	495.75
601.745	499.75
601.953	463.75
602.162	496.75
602.371	500.75
602.58	501.75
602.789	468.75
602.997	478.75
603.206	482.75
603.415	484.75
603.623	469.75
603.832	470.75
604.041	457.75
604.249	462.75
604.458	480.75
604.666	473.75
604.875	469.75
605.084	465.75
605.292	469.75
605.501	479.75
605.709	468.75
605.918	445.75
606.126	472.75
606.334	457.75
606.543	438.75
606.751	449.75
606.96	464.75
607.168	446.75
607.376	462.75
607.585	454.75
607.793	453.75
608.001	454.75
608.21	446.75
608.418	451.75
608.626	452.75
608.834	445.75
609.043	420.75
609.251	414.75
609.459	421.75
609.667	443.75
609.875	432.75
610.083	424.75
610.291	438.75
610.499	432.75
610.707	423.75
610.916	412.75
611.124	429.75
611.332	434.75
611.54	437.75
611.748	430.75
611.955	441.75
612.163	403.75
612.371	444.75
612.579	455.75
612.787	430.75
612.995	418.75
613.203	440.75
613.411	426.75
613.618	422.75
613.826	436.75
614.034	435.75
614.242	429.75
614.449	417.75
614.657	413.75
614.865	429.75
615.072	412.75
615.28	422.75
615.488	427.75
615.695	423.75
615.903	412.75
616.111	413.75
616.318	414.75
616.526	429.75
616.733	430.75
616.941	441.75
617.148	433.75
617.356	424.75
617.563	428.75
617.771	417.75
617.978	401.75
618.185	432.75
618.393	416.75
618.6	402.75
618.807	406.75
619.015	425.75
619.222	440.75
619.429	400.75
619.637	404.75
619.844	398.75
620.051	401.75
620.258	386.75
620.466	381.75
620.673	394.75
620.88	371.75
621.087	391.75
621.294	396.75
621.501	394.75
621.708	393.75
621.915	390.75
622.122	400.75
622.329	401.75
622.536	384.75
622.743	399.75
622.95	372.75
623.157	376.75
623.364	383.75
623.571	375.75
623.778	368.75
623.985	371.75
624.192	384.75
624.399	367.75
624.606	364.75
624.812	363.75
625.019	366.75
625.226	355.75
625.433	345.75
625.639	338.75
625.846	349.75
626.053	348.75
626.259	367.75
626.466	342.75
626.673	348.75
626.879	343.75
627.086	352.75
627.293	362.75
627.499	356.75
627.706	335.75
627.912	346.75
628.119	346.75
628.325	366.75
628.532	350.75
628.738	345.75
628.945	360.75
629.151	352.75
629.357	336.75
629.564	313.75
629.77	350.75
629.976	337.75
630.183	332.75
630.389	336.75
630.595	343.75
630.802	350.75
631.008	328.75
631.214	310.75
631.42	337.75
631.627	327.75
631.833	300.75
632.039	300.75
632.245	316.75
632.451	330.75
632.657	314.75
632.863	312.75
633.069	312.75
633.275	321.75
633.481	310.75
633.688	311.75
633.893	290.75
634.099	308.75
634.305	337.75
634.511	302.75
634.717	296.75
634.923	319.75
635.129	312.75
635.335	302.75
635.541	304.75
635.747	312.75
635.952	301.75
636.158	316.75
636.364	312.75
636.57	314.75
636.775	292.75
636.981	301.75
637.187	304.75
637.392	301.75
637.598	308.75
637.804	311.75
638.009	296.75
638.215	296.75
638.421	289.75
638.626	292.75
638.832	299.75
639.037	295.75
639.243	296.75
639.448	290.75
639.654	301.75
639.859	272.75
640.065	261.75
640.27	304.75
640.475	283.75
640.681	291.75
640.886	293.75
641.091	274.75
641.297	280.75
641.502	282.75
641.707	279.75
641.913	276.75
642.118	261.75
642.323	291.75
642.528	281.75
642.733	282.75
642.939	291.75
643.144	288.75
643.349	278.75
643.554	260.75
643.759	289.75
643.964	271.75
644.169	269.75
644.374	277.75
644.579	274.75
644.784	271.75
644.989	294.75
645.194	274.75
645.399	266.75
645.604	270.75
645.809	292.75
646.014	280.75
646.219	276.75
646.423	293.75
646.628	304.75
646.833	282.75
647.038	288.75
647.243	302.75
647.447	290.75
647.652	292.75
647.857	279.75
648.062	303.75
648.266	303.75
648.471	290.75
648.676	289.75
648.88	300.75
649.085	291.75
649.289	307.75
649.494	277.75
649.698	288.75
649.903	293.75
650.107	291.75
650.312	283.75
650.516	269.75
650.721	284.75
650.925	268.75
651.13	272.75
651.334	283.75
651.539	274.75
651.743	266.75
651.947	274.75
652.152	294.75
652.356	285.75
652.56	270.75
652.764	256.75
652.969	289.75
653.173	284.75
653.377	275.75
653.581	264.75
653.785	261.75
653.99	255.75
654.194	274.75
654.398	273.75
654.602	272.75
654.806	260.75
655.01	265.75
655.214	273.75
655.418	292.75
655.622	279.75
655.826	287.75
656.03	316.75
656.234	334.75
656.438	342.75
656.642	339.75
656.846	319.75
657.049	294.75
657.253	260.75
657.457	276.75
657.661	243.75
657.865	214.75
658.068	202.75
658.272	176.75
658.476	178.75
658.68	169.75
658.883	156.75
659.087	158.75
659.291	150.75
659.494	142.75
659.698	113.75
659.901	137.75
660.105	123.75
660.309	128.75
660.512	119.75
660.716	126.75
660.919	108.75
661.123	116.75
661.326	110.75
661.53	89.75
661.733	90.75
661.936	98.75
662.14	93.75
662.343	94.75
662.546	100.75
662.75	91.75
662.953	89.75
663.156	71.75
663.36	80.75
663.563	84.75
663.766	83.75
663.969	86.75
664.173	77.75
664.376	70.75
664.579	74.75
664.782	84.75
664.985	75.75
665.188	79.75
665.391	86.75
665.594	76.75
665.797	78.75
666	70.75
666.203	66.75
666.406	68.75
666.609	86.75
666.812	93.75
667.015	83.75
667.218	96.75
667.421	90.75
667.624	77.75
667.827	77.75
668.03	72.75
668.232	83.75
668.435	70.75
668.638	70.75
668.841	73.75
669.043	83.75
669.246	81.75
669.449	72.75
669.651	62.75
669.854	73.75
670.057	84.75
670.259	87.75
670.462	71.75
670.665	76.75
670.867	68.75
671.07	77.75
671.272	64.75
671.475	71.75
671.677	64.75
671.88	74.75
672.082	92.75
672.284	78.75
672.487	70.75
672.689	66.75
672.892	75.75
