Data from NiCl2@0.0625M.TitratingCurve.Agarose3%dH2O.NegLispCup.LampEnergy10.LIBS07252019_HRD10591_18-33-21-577.txt Node
Date: Thu Jul 25 18:33:21 EDT 2019
User: cochatt
Spectrometer: HR+D1059
Trigger mode: 1
Integration Time (sec): 1.000000E-1
Scans to average: 1
Electric dark correction enabled: true
Nonlinearity correction enabled: false
Boxcar width: 0
XAxis mode: Wavelengths
Number of Pixels in Spectrum: 2048
>>>>>Begin Spectral Data<<<<<
223.165	-24.31
223.4	-24.31
223.635	-24.31
223.869	-16.31
224.104	-17.31
224.338	7.69
224.573	-1.31
224.808	-26.31
225.042	-10.31
225.277	-3.31
225.511	-7.31
225.746	6.69
225.98	6.69
226.215	2.69
226.449	14.69
226.683	11.69
226.918	25.69
227.152	30.69
227.387	29.69
227.621	40.69
227.856	37.69
228.09	45.69
228.324	46.69
228.559	60.69
228.793	77.69
229.027	133.69
229.262	143.69
229.496	152.69
229.73	165.69
229.964	175.69
230.199	196.69
230.433	182.69
230.667	176.69
230.901	197.69
231.136	183.69
231.37	202.69
231.604	191.69
231.838	207.69
232.072	192.69
232.306	200.69
232.541	212.69
232.775	203.69
233.009	205.69
233.243	206.69
233.477	206.69
233.711	213.69
233.945	205.69
234.179	224.69
234.413	220.69
234.647	223.69
234.881	215.69
235.115	217.69
235.349	221.69
235.583	224.69
235.817	231.69
236.051	228.69
236.285	240.69
236.519	208.69
236.753	231.69
236.987	213.69
237.221	232.69
237.455	253.69
237.689	234.69
237.922	228.69
238.156	246.69
238.39	249.69
238.624	253.69
238.858	262.69
239.091	271.69
239.325	259.69
239.559	261.69
239.793	266.69
240.027	274.69
240.26	276.69
240.494	270.69
240.728	282.69
240.961	300.69
241.195	276.69
241.429	287.69
241.662	291.69
241.896	301.69
242.13	321.69
242.363	297.69
242.597	312.69
242.83	296.69
243.064	307.69
243.298	312.69
243.531	319.69
243.765	328.69
243.998	341.69
244.232	330.69
244.465	330.69
244.699	322.69
244.932	358.69
245.166	341.69
245.399	350.69
245.633	335.69
245.866	341.69
246.099	347.69
246.333	375.69
246.566	336.69
246.8	354.69
247.033	370.69
247.266	353.69
247.5	358.69
247.733	372.69
247.966	384.69
248.2	369.69
248.433	412.69
248.666	378.69
248.899	376.69
249.133	395.69
249.366	387.69
249.599	376.69
249.832	398.69
250.066	400.69
250.299	397.69
250.532	416.69
250.765	410.69
250.998	421.69
251.231	425.69
251.465	435.69
251.698	427.69
251.931	420.69
252.164	422.69
252.397	434.69
252.63	450.69
252.863	440.69
253.096	443.69
253.329	437.69
253.562	432.69
253.795	423.69
254.028	452.69
254.261	451.69
254.494	441.69
254.727	484.69
254.96	455.69
255.193	461.69
255.426	486.69
255.659	458.69
255.892	480.69
256.124	476.69
256.357	473.69
256.59	456.69
256.823	479.69
257.056	476.69
257.289	480.69
257.521	472.69
257.754	506.69
257.987	496.69
258.22	506.69
258.452	518.69
258.685	516.69
258.918	493.69
259.151	508.69
259.383	510.69
259.616	521.69
259.849	544.69
260.081	526.69
260.314	535.69
260.547	516.69
260.779	516.69
261.012	522.69
261.244	538.69
261.477	519.69
261.71	556.69
261.942	542.69
262.175	529.69
262.407	562.69
262.64	555.69
262.872	545.69
263.105	553.69
263.337	580.69
263.57	567.69
263.802	579.69
264.035	575.69
264.267	571.69
264.499	568.69
264.732	588.69
264.964	558.69
265.197	583.69
265.429	582.69
265.661	576.69
265.894	580.69
266.126	606.69
266.358	602.69
266.591	616.69
266.823	629.69
267.055	600.69
267.287	617.69
267.52	633.69
267.752	612.69
267.984	626.69
268.216	629.69
268.448	644.69
268.681	634.69
268.913	624.69
269.145	634.69
269.377	624.69
269.609	614.69
269.841	648.69
270.073	619.69
270.306	634.69
270.538	658.69
270.77	630.69
271.002	664.69
271.234	644.69
271.466	668.69
271.698	658.69
271.93	653.69
272.162	656.69
272.394	681.69
272.626	665.69
272.858	679.69
273.09	693.69
273.322	663.69
273.553	684.69
273.785	698.69
274.017	713.69
274.249	699.69
274.481	709.69
274.713	691.69
274.945	701.69
275.176	726.69
275.408	740.69
275.64	704.69
275.872	707.69
276.104	725.69
276.335	725.69
276.567	728.69
276.799	745.69
277.031	720.69
277.262	723.69
277.494	709.69
277.726	740.69
277.957	751.69
278.189	725.69
278.421	724.69
278.652	756.69
278.884	755.69
279.115	732.69
279.347	781.69
279.579	768.69
279.81	764.69
280.042	769.69
280.273	787.69
280.505	788.69
280.736	782.69
280.968	782.69
281.199	788.69
281.431	785.69
281.662	809.69
281.894	798.69
282.125	808.69
282.356	821.69
282.588	802.69
282.819	845.69
283.051	826.69
283.282	808.69
283.513	824.69
283.745	800.69
283.976	823.69
284.207	835.69
284.439	820.69
284.67	813.69
284.901	827.69
285.132	813.69
285.364	832.69
285.595	857.69
285.826	848.69
286.057	862.69
286.288	876.69
286.52	874.69
286.751	870.69
286.982	874.69
287.213	860.69
287.444	853.69
287.675	834.69
287.906	864.69
288.138	916.69
288.369	920.69
288.6	905.69
288.831	878.69
289.062	852.69
289.293	890.69
289.524	884.69
289.755	877.69
289.986	884.69
290.217	914.69
290.448	923.69
290.679	932.69
290.91	875.69
291.141	918.69
291.371	906.69
291.602	952.69
291.833	904.69
292.064	899.69
292.295	910.69
292.526	904.69
292.757	896.69
292.987	907.69
293.218	914.69
293.449	931.69
293.68	911.69
293.91	944.69
294.141	920.69
294.372	919.69
294.603	942.69
294.833	924.69
295.064	916.69
295.295	941.69
295.525	949.69
295.756	956.69
295.987	921.69
296.217	944.69
296.448	936.69
296.679	947.69
296.909	977.69
297.14	936.69
297.37	962.69
297.601	952.69
297.831	986.69
298.062	965.69
298.292	982.69
298.523	1001.69
298.753	984.69
298.984	971.69
299.214	1012.69
299.445	995.69
299.675	990.69
299.905	986.69
300.136	1014.69
300.366	1040.69
300.597	1013.69
300.827	1012.69
301.057	1061.69
301.288	1035.69
301.518	1040.69
301.748	1034.69
301.979	1092.69
302.209	1039.69
302.439	1052.69
302.669	1040.69
302.9	1083.69
303.13	1038.69
303.36	1029.69
303.59	1076.69
303.82	1049.69
304.051	1034.69
304.281	1044.69
304.511	1038.69
304.741	1038.69
304.971	1041.69
305.201	1032.69
305.431	1059.69
305.661	1051.69
305.891	1017.69
306.121	1036.69
306.352	1037.69
306.582	1018.69
306.812	1036.69
307.042	1051.69
307.272	1031.69
307.502	1034.69
307.731	1039.69
307.961	1032.69
308.191	1042.69
308.421	1019.69
308.651	1021.69
308.881	1008.69
309.111	1026.69
309.341	1024.69
309.571	1022.69
309.8	1063.69
310.03	1037.69
310.26	1032.69
310.49	1077.69
310.72	1041.69
310.949	1029.69
311.179	1049.69
311.409	1049.69
311.639	1067.69
311.868	1046.69
312.098	1030.69
312.328	1065.69
312.557	1074.69
312.787	1066.69
313.017	1066.69
313.246	1085.69
313.476	1094.69
313.706	1117.69
313.935	1114.69
314.165	1086.69
314.394	1114.69
314.624	1117.69
314.853	1119.69
315.083	1102.69
315.312	1152.69
315.542	1131.69
315.771	1102.69
316.001	1120.69
316.23	1110.69
316.46	1141.69
316.689	1101.69
316.919	1079.69
317.148	1106.69
317.377	1106.69
317.607	1094.69
317.836	1118.69
318.065	1092.69
318.295	1133.69
318.524	1114.69
318.753	1106.69
318.983	1092.69
319.212	1085.69
319.441	1056.69
319.67	1092.69
319.9	1122.69
320.129	1089.69
320.358	1098.69
320.587	1108.69
320.816	1120.69
321.046	1122.69
321.275	1102.69
321.504	1118.69
321.733	1121.69
321.962	1101.69
322.191	1114.69
322.42	1082.69
322.649	1128.69
322.878	1134.69
323.108	1106.69
323.337	1146.69
323.566	1103.69
323.795	1158.69
324.024	1140.69
324.253	1139.69
324.482	1143.69
324.71	1141.69
324.939	1160.69
325.168	1156.69
325.397	1157.69
325.626	1172.69
325.855	1197.69
326.084	1187.69
326.313	1218.69
326.542	1208.69
326.77	1234.69
326.999	1190.69
327.228	1204.69
327.457	1200.69
327.686	1214.69
327.914	1186.69
328.143	1211.69
328.372	1193.69
328.6	1191.69
328.829	1189.69
329.058	1195.69
329.287	1196.69
329.515	1245.69
329.744	1226.69
329.972	1212.69
330.201	1229.69
330.43	1202.69
330.658	1224.69
330.887	1256.69
331.115	1268.69
331.344	1280.69
331.572	1289.69
331.801	1286.69
332.03	1330.69
332.258	1338.69
332.486	1374.69
332.715	1400.69
332.943	1433.69
333.172	1477.69
333.4	1539.69
333.629	1546.69
333.857	1573.69
334.085	1566.69
334.314	1529.69
334.542	1533.69
334.771	1564.69
334.999	1522.69
335.227	1496.69
335.455	1503.69
335.684	1475.69
335.912	1497.69
336.14	1493.69
336.369	1490.69
336.597	1458.69
336.825	1472.69
337.053	1459.69
337.281	1415.69
337.51	1369.69
337.738	1395.69
337.966	1367.69
338.194	1348.69
338.422	1308.69
338.65	1321.69
338.878	1352.69
339.106	1313.69
339.334	1342.69
339.562	1316.69
339.79	1280.69
340.018	1265.69
340.246	1249.69
340.474	1300.69
340.702	1238.69
340.93	1282.69
341.158	1273.69
341.386	1296.69
341.614	1291.69
341.842	1278.69
342.07	1269.69
342.298	1288.69
342.526	1250.69
342.754	1245.69
342.981	1265.69
343.209	1283.69
343.437	1308.69
343.665	1372.69
343.893	1482.69
344.12	1482.69
344.348	1442.69
344.576	1423.69
344.804	1412.69
345.031	1336.69
345.259	1309.69
345.487	1264.69
345.714	1255.69
345.942	1245.69
346.17	1226.69
346.397	1246.69
346.625	1221.69
346.853	1234.69
347.08	1232.69
347.308	1207.69
347.535	1227.69
347.763	1187.69
347.99	1185.69
348.218	1209.69
348.445	1220.69
348.673	1188.69
348.9	1217.69
349.128	1187.69
349.355	1200.69
349.583	1193.69
349.81	1176.69
350.037	1175.69
350.265	1206.69
350.492	1180.69
350.72	1188.69
350.947	1153.69
351.174	1188.69
351.402	1170.69
351.629	1157.69
351.856	1179.69
352.083	1172.69
352.311	1147.69
352.538	1187.69
352.765	1204.69
352.992	1176.69
353.22	1178.69
353.447	1171.69
353.674	1154.69
353.901	1191.69
354.128	1175.69
354.355	1159.69
354.583	1159.69
354.81	1167.69
355.037	1190.69
355.264	1150.69
355.491	1185.69
355.718	1192.69
355.945	1193.69
356.172	1146.69
356.399	1190.69
356.626	1185.69
356.853	1186.69
357.08	1158.69
357.307	1184.69
357.534	1169.69
357.761	1140.69
357.988	1184.69
358.215	1182.69
358.441	1160.69
358.668	1170.69
358.895	1157.69
359.122	1177.69
359.349	1177.69
359.576	1173.69
359.802	1161.69
360.029	1183.69
360.256	1196.69
360.483	1180.69
360.709	1168.69
360.936	1172.69
361.163	1208.69
361.39	1151.69
361.616	1156.69
361.843	1141.69
362.07	1163.69
362.296	1170.69
362.523	1162.69
362.749	1181.69
362.976	1159.69
363.203	1204.69
363.429	1166.69
363.656	1174.69
363.882	1202.69
364.109	1172.69
364.335	1169.69
364.562	1193.69
364.788	1160.69
365.015	1213.69
365.241	1179.69
365.468	1162.69
365.694	1156.69
365.92	1168.69
366.147	1200.69
366.373	1160.69
366.599	1166.69
366.826	1195.69
367.052	1168.69
367.278	1165.69
367.505	1176.69
367.731	1175.69
367.957	1186.69
368.184	1176.69
368.41	1181.69
368.636	1192.69
368.862	1204.69
369.089	1208.69
369.315	1214.69
369.541	1198.69
369.767	1222.69
369.993	1249.69
370.219	1227.69
370.445	1251.69
370.672	1231.69
370.898	1243.69
371.124	1242.69
371.35	1259.69
371.576	1287.69
371.802	1251.69
372.028	1257.69
372.254	1294.69
372.48	1281.69
372.706	1315.69
372.932	1332.69
373.158	1284.69
373.384	1330.69
373.61	1300.69
373.835	1295.69
374.061	1306.69
374.287	1330.69
374.513	1265.69
374.739	1340.69
374.965	1394.69
375.191	1422.69
375.416	1401.69
375.642	1358.69
375.868	1322.69
376.094	1321.69
376.319	1291.69
376.545	1299.69
376.771	1274.69
376.997	1277.69
377.222	1290.69
377.448	1261.69
377.674	1268.69
377.899	1299.69
378.125	1275.69
378.35	1258.69
378.576	1203.69
378.802	1259.69
379.027	1251.69
379.253	1279.69
379.478	1234.69
379.704	1285.69
379.929	1269.69
380.155	1300.69
380.38	1254.69
380.606	1273.69
380.831	1257.69
381.057	1301.69
381.282	1259.69
381.507	1260.69
381.733	1256.69
381.958	1288.69
382.184	1304.69
382.409	1290.69
382.634	1322.69
382.86	1374.69
383.085	1350.69
383.31	1372.69
383.535	1400.69
383.761	1389.69
383.986	1402.69
384.211	1408.69
384.436	1430.69
384.662	1493.69
384.887	1514.69
385.112	1480.69
385.337	1530.69
385.562	1546.69
385.787	1575.69
386.013	1517.69
386.238	1551.69
386.463	1509.69
386.688	1553.69
386.913	1520.69
387.138	1506.69
387.363	1480.69
387.588	1524.69
387.813	1515.69
388.038	1485.69
388.263	1525.69
388.488	1527.69
388.713	1512.69
388.938	1494.69
389.163	1468.69
389.387	1536.69
389.612	1498.69
389.837	1518.69
390.062	1483.69
390.287	1505.69
390.512	1530.69
390.736	1563.69
390.961	1540.69
391.186	1592.69
391.411	1617.69
391.636	1643.69
391.86	1697.69
392.085	1712.69
392.31	1668.69
392.534	1668.69
392.759	1648.69
392.984	1609.69
393.208	1583.69
393.433	1629.69
393.658	1609.69
393.882	1602.69
394.107	1590.69
394.331	1600.69
394.556	1636.69
394.78	1620.69
395.005	1637.69
395.229	1676.69
395.454	1707.69
395.678	1700.69
395.903	1725.69
396.127	1697.69
396.352	1665.69
396.576	1630.69
396.801	1649.69
397.025	1654.69
397.249	1688.69
397.474	1783.69
397.698	1732.69
397.922	1714.69
398.147	1729.69
398.371	1782.69
398.595	1763.69
398.82	1887.69
399.044	1988.69
399.268	2186.69
399.492	2402.69
399.717	2597.69
399.941	2672.69
400.165	2462.69
400.389	2271.69
400.613	2091.69
400.837	2081.69
401.062	1973.69
401.286	1940.69
401.51	1930.69
401.734	1906.69
401.958	1949.69
402.182	1971.69
402.406	1936.69
402.63	1943.69
402.854	1983.69
403.078	1980.69
403.302	2056.69
403.526	2026.69
403.75	2066.69
403.974	2138.69
404.198	2094.69
404.422	2076.69
404.645	2096.69
404.869	2050.69
405.093	2047.69
405.317	2039.69
405.541	2002.69
405.765	2066.69
405.988	2036.69
406.212	2042.69
406.436	2070.69
406.66	2124.69
406.883	2105.69
407.107	2264.69
407.331	2324.69
407.555	2424.69
407.778	2399.69
408.002	2322.69
408.226	2294.69
408.449	2235.69
408.673	2156.69
408.896	2198.69
409.12	2120.69
409.344	2144.69
409.567	2110.69
409.791	2109.69
410.014	2114.69
410.238	2104.69
410.461	2061.69
410.685	2059.69
410.908	2043.69
411.132	1985.69
411.355	1990.69
411.578	1981.69
411.802	1953.69
412.025	1928.69
412.249	2058.69
412.472	1985.69
412.695	1952.69
412.919	1920.69
413.142	1911.69
413.365	1874.69
413.589	1943.69
413.812	1870.69
414.035	1877.69
414.258	1866.69
414.482	1898.69
414.705	1942.69
414.928	1924.69
415.151	1894.69
415.374	1881.69
415.597	1851.69
415.821	1800.69
416.044	1837.69
416.267	1809.69
416.49	1826.69
416.713	1832.69
416.936	1861.69
417.159	1774.69
417.382	1784.69
417.605	1794.69
417.828	1778.69
418.051	1860.69
418.274	1848.69
418.497	1832.69
418.72	1842.69
418.943	1836.69
419.166	1980.69
419.389	2106.69
419.611	2016.69
419.834	1962.69
420.057	1928.69
420.28	1875.69
420.503	1792.69
420.726	1804.69
420.948	1816.69
421.171	1810.69
421.394	1818.69
421.617	1786.69
421.839	1801.69
422.062	1849.69
422.285	1803.69
422.507	1900.69
422.73	1884.69
422.953	1856.69
423.175	1881.69
423.398	1861.69
423.621	1851.69
423.843	1908.69
424.066	1890.69
424.288	1858.69
424.511	1857.69
424.733	1830.69
424.956	1845.69
425.178	1809.69
425.401	1839.69
425.623	1825.69
425.846	1739.69
426.068	1762.69
426.291	1771.69
426.513	1742.69
426.735	1770.69
426.958	1732.69
427.18	1708.69
427.402	1700.69
427.625	1709.69
427.847	1678.69
428.069	1682.69
428.292	1676.69
428.514	1653.69
428.736	1676.69
428.958	1718.69
429.181	1632.69
429.403	1640.69
429.625	1652.69
429.847	1615.69
430.069	1608.69
430.292	1649.69
430.514	1603.69
430.736	1655.69
430.958	1675.69
431.18	1614.69
431.402	1679.69
431.624	1671.69
431.846	1683.69
432.068	1701.69
432.29	1712.69
432.512	1655.69
432.734	1690.69
432.956	1680.69
433.178	1679.69
433.4	1662.69
433.622	1686.69
433.844	1731.69
434.066	1709.69
434.287	1703.69
434.509	1779.69
434.731	1820.69
434.953	1866.69
435.175	1857.69
435.397	1818.69
435.618	1762.69
435.84	1737.69
436.062	1691.69
436.284	1670.69
436.505	1635.69
436.727	1664.69
436.949	1698.69
437.17	1686.69
437.392	1637.69
437.614	1634.69
437.835	1574.69
438.057	1595.69
438.278	1600.69
438.5	1591.69
438.721	1574.69
438.943	1626.69
439.165	1607.69
439.386	1605.69
439.608	1640.69
439.829	1618.69
440.05	1615.69
440.272	1649.69
440.493	1613.69
440.715	1653.69
440.936	1658.69
441.158	1677.69
441.379	1726.69
441.6	1788.69
441.822	1783.69
442.043	1807.69
442.264	1785.69
442.486	1756.69
442.707	1750.69
442.928	1763.69
443.149	1794.69
443.371	1798.69
443.592	1789.69
443.813	1838.69
444.034	1807.69
444.255	1856.69
444.476	1958.69
444.698	2001.69
444.919	2045.69
445.14	2129.69
445.361	1969.69
445.582	1849.69
445.803	1784.69
446.024	1719.69
446.245	1722.69
446.466	1672.69
446.687	1617.69
446.908	1628.69
447.129	1629.69
447.35	1589.69
447.571	1595.69
447.792	1571.69
448.013	1553.69
448.234	1512.69
448.455	1526.69
448.675	1520.69
448.896	1497.69
449.117	1452.69
449.338	1470.69
449.559	1488.69
449.779	1463.69
450	1482.69
450.221	1437.69
450.442	1471.69
450.662	1465.69
450.883	1467.69
451.104	1492.69
451.324	1505.69
451.545	1501.69
451.766	1468.69
451.986	1431.69
452.207	1480.69
452.428	1466.69
452.648	1467.69
452.869	1436.69
453.089	1457.69
453.31	1454.69
453.53	1457.69
453.751	1480.69
453.971	1454.69
454.192	1422.69
454.412	1378.69
454.633	1371.69
454.853	1432.69
455.073	1420.69
455.294	1381.69
455.514	1364.69
455.734	1414.69
455.955	1346.69
456.175	1373.69
456.395	1402.69
456.616	1388.69
456.836	1376.69
457.056	1361.69
457.276	1378.69
457.497	1414.69
457.717	1406.69
457.937	1399.69
458.157	1427.69
458.377	1428.69
458.598	1466.69
458.818	1532.69
459.038	1540.69
459.258	1588.69
459.478	1641.69
459.698	1664.69
459.918	1719.69
460.138	1722.69
460.358	1812.69
460.578	1867.69
460.798	1909.69
461.018	1876.69
461.238	1859.69
461.458	1867.69
461.678	1830.69
461.898	1906.69
462.118	1946.69
462.338	1996.69
462.558	2034.69
462.777	2132.69
462.997	2242.69
463.217	2361.69
463.437	2420.69
463.657	2242.69
463.876	2148.69
464.096	2168.69
464.316	2128.69
464.536	2152.69
464.755	2105.69
464.975	2068.69
465.195	1918.69
465.414	1865.69
465.634	1748.69
465.854	1709.69
466.073	1688.69
466.293	1613.69
466.512	1581.69
466.732	1563.69
466.951	1568.69
467.171	1576.69
467.391	1521.69
467.61	1548.69
467.829	1554.69
468.049	1565.69
468.268	1516.69
468.488	1466.69
468.707	1474.69
468.927	1504.69
469.146	1528.69
469.365	1552.69
469.585	1547.69
469.804	1569.69
470.023	1614.69
470.243	1579.69
470.462	1596.69
470.681	1580.69
470.901	1610.69
471.12	1580.69
471.339	1544.69
471.558	1562.69
471.777	1542.69
471.997	1509.69
472.216	1476.69
472.435	1493.69
472.654	1513.69
472.873	1456.69
473.092	1478.69
473.311	1475.69
473.53	1481.69
473.749	1473.69
473.968	1468.69
474.187	1469.69
474.406	1475.69
474.625	1495.69
474.844	1463.69
475.063	1470.69
475.282	1504.69
475.501	1494.69
475.72	1469.69
475.939	1492.69
476.158	1538.69
476.377	1576.69
476.596	1573.69
476.814	1594.69
477.033	1591.69
477.252	1620.69
477.471	1643.69
477.69	1638.69
477.908	1698.69
478.127	1751.69
478.346	1763.69
478.564	1794.69
478.783	1808.69
479.002	1819.69
479.22	1862.69
479.439	1853.69
479.658	1848.69
479.876	1856.69
480.095	1883.69
480.313	1925.69
480.532	1966.69
480.751	1965.69
480.969	1915.69
481.188	1869.69
481.406	1843.69
481.624	1825.69
481.843	1814.69
482.061	1792.69
482.28	1810.69
482.498	1804.69
482.717	1782.69
482.935	1807.69
483.153	1792.69
483.372	1825.69
483.59	1819.69
483.808	1829.69
484.027	1862.69
484.245	1879.69
484.463	1914.69
484.681	1894.69
484.9	1931.69
485.118	1884.69
485.336	1954.69
485.554	1944.69
485.772	1955.69
485.99	1997.69
486.209	1985.69
486.427	1946.69
486.645	1975.69
486.863	1966.69
487.081	1977.69
487.299	1938.69
487.517	1956.69
487.735	1938.69
487.953	1978.69
488.171	1906.69
488.389	1869.69
488.607	1886.69
488.825	1890.69
489.043	1873.69
489.261	1889.69
489.479	1869.69
489.696	1890.69
489.914	1848.69
490.132	1883.69
490.35	1865.69
490.568	1912.69
490.786	1840.69
491.003	1858.69
491.221	1846.69
491.439	1910.69
491.657	1879.69
491.874	1824.69
492.092	1844.69
492.31	1835.69
492.527	1862.69
492.745	1896.69
492.963	1883.69
493.18	1872.69
493.398	1870.69
493.615	1888.69
493.833	1877.69
494.05	1879.69
494.268	1928.69
494.485	1933.69
494.703	1922.69
494.92	1947.69
495.138	1922.69
495.355	1926.69
495.573	1894.69
495.79	1936.69
496.008	1947.69
496.225	1968.69
496.442	1961.69
496.66	1985.69
496.877	1999.69
497.094	2029.69
497.312	2106.69
497.529	2127.69
497.746	2200.69
497.963	2244.69
498.181	2302.69
498.398	2409.69
498.615	2530.69
498.832	2655.69
499.049	2834.69
499.267	3088.69
499.484	3287.69
499.701	3583.69
499.918	3869.69
500.135	4238.69
500.352	4717.69
500.569	4873.69
500.786	4805.69
501.003	4571.69
501.22	4254.69
501.437	3869.69
501.654	3462.69
501.871	3184.69
502.088	2988.69
502.305	2801.69
502.522	2652.69
502.739	2578.69
502.956	2490.69
503.172	2345.69
503.389	2295.69
503.606	2215.69
503.823	2176.69
504.04	2133.69
504.256	2139.69
504.473	2145.69
504.69	2138.69
504.907	2109.69
505.123	1993.69
505.34	1940.69
505.557	1860.69
505.773	1791.69
505.99	1785.69
506.207	1761.69
506.423	1748.69
506.64	1694.69
506.856	1691.69
507.073	1657.69
507.289	1678.69
507.506	1636.69
507.722	1630.69
507.939	1608.69
508.155	1596.69
508.372	1584.69
508.588	1588.69
508.805	1572.69
509.021	1585.69
509.238	1571.69
509.454	1536.69
509.67	1520.69
509.887	1513.69
510.103	1545.69
510.319	1537.69
510.536	1484.69
510.752	1464.69
510.968	1488.69
511.184	1451.69
511.401	1466.69
511.617	1471.69
511.833	1527.69
512.049	1471.69
512.265	1474.69
512.481	1486.69
512.698	1466.69
512.914	1487.69
513.13	1467.69
513.346	1463.69
513.562	1495.69
513.778	1491.69
513.994	1473.69
514.21	1494.69
514.426	1500.69
514.642	1481.69
514.858	1515.69
515.074	1529.69
515.29	1564.69
515.506	1552.69
515.721	1580.69
515.937	1597.69
516.153	1626.69
516.369	1654.69
516.585	1700.69
516.801	1715.69
517.016	1782.69
517.232	1854.69
517.448	1931.69
517.664	1931.69
517.879	1947.69
518.095	1996.69
518.311	1901.69
518.527	1844.69
518.742	1801.69
518.958	1765.69
519.173	1734.69
519.389	1677.69
519.605	1636.69
519.82	1588.69
520.036	1578.69
520.251	1517.69
520.467	1500.69
520.682	1497.69
520.898	1485.69
521.113	1486.69
521.329	1471.69
521.544	1428.69
521.76	1441.69
521.975	1417.69
522.19	1404.69
522.406	1427.69
522.621	1384.69
522.836	1359.69
523.052	1392.69
523.267	1380.69
523.482	1373.69
523.698	1344.69
523.913	1373.69
524.128	1372.69
524.343	1342.69
524.559	1339.69
524.774	1349.69
524.989	1328.69
525.204	1332.69
525.419	1335.69
525.634	1334.69
525.849	1343.69
526.064	1307.69
526.28	1339.69
526.495	1295.69
526.71	1330.69
526.925	1348.69
527.14	1316.69
527.355	1344.69
527.57	1302.69
527.785	1341.69
527.999	1312.69
528.214	1348.69
528.429	1354.69
528.644	1312.69
528.859	1313.69
529.074	1297.69
529.289	1294.69
529.503	1288.69
529.718	1266.69
529.933	1287.69
530.148	1312.69
530.363	1304.69
530.577	1320.69
530.792	1299.69
531.007	1268.69
531.221	1303.69
531.436	1292.69
531.651	1296.69
531.865	1300.69
532.08	1282.69
532.295	1315.69
532.509	1286.69
532.724	1292.69
532.938	1303.69
533.153	1306.69
533.367	1320.69
533.582	1300.69
533.796	1287.69
534.011	1303.69
534.225	1299.69
534.44	1271.69
534.654	1256.69
534.868	1260.69
535.083	1255.69
535.297	1245.69
535.511	1229.69
535.726	1238.69
535.94	1253.69
536.154	1228.69
536.369	1209.69
536.583	1218.69
536.797	1220.69
537.011	1200.69
537.225	1214.69
537.44	1197.69
537.654	1181.69
537.868	1208.69
538.082	1199.69
538.296	1213.69
538.51	1199.69
538.724	1175.69
538.938	1146.69
539.153	1177.69
539.367	1157.69
539.581	1172.69
539.795	1152.69
540.009	1158.69
540.222	1164.69
540.436	1149.69
540.65	1136.69
540.864	1154.69
541.078	1138.69
541.292	1139.69
541.506	1154.69
541.72	1112.69
541.934	1144.69
542.147	1142.69
542.361	1156.69
542.575	1144.69
542.789	1137.69
543.002	1141.69
543.216	1150.69
543.43	1151.69
543.644	1098.69
543.857	1125.69
544.071	1110.69
544.285	1144.69
544.498	1150.69
544.712	1147.69
544.925	1174.69
545.139	1164.69
545.352	1166.69
545.566	1171.69
545.779	1152.69
545.993	1167.69
546.206	1163.69
546.42	1146.69
546.633	1154.69
546.847	1117.69
547.06	1124.69
547.274	1145.69
547.487	1150.69
547.7	1153.69
547.914	1178.69
548.127	1176.69
548.34	1188.69
548.554	1143.69
548.767	1151.69
548.98	1167.69
549.193	1191.69
549.407	1183.69
549.62	1201.69
549.833	1175.69
550.046	1204.69
550.259	1157.69
550.473	1157.69
550.686	1159.69
550.899	1139.69
551.112	1137.69
551.325	1160.69
551.538	1094.69
551.751	1155.69
551.964	1164.69
552.177	1144.69
552.39	1191.69
552.603	1197.69
552.816	1207.69
553.029	1235.69
553.242	1248.69
553.455	1228.69
553.667	1237.69
553.88	1224.69
554.093	1188.69
554.306	1168.69
554.519	1173.69
554.732	1140.69
554.944	1136.69
555.157	1154.69
555.37	1074.69
555.583	1079.69
555.795	1078.69
556.008	1081.69
556.221	1049.69
556.433	1053.69
556.646	1042.69
556.859	1023.69
557.071	1011.69
557.284	996.69
557.496	1008.69
557.709	987.69
557.921	978.69
558.134	969.69
558.346	971.69
558.559	980.69
558.771	1008.69
558.984	957.69
559.196	970.69
559.409	932.69
559.621	956.69
559.833	952.69
560.046	945.69
560.258	935.69
560.47	935.69
560.683	987.69
560.895	963.69
561.107	968.69
561.32	982.69
561.532	953.69
561.744	975.69
561.956	937.69
562.168	969.69
562.381	966.69
562.593	965.69
562.805	977.69
563.017	957.69
563.229	973.69
563.441	983.69
563.653	969.69
563.865	980.69
564.077	986.69
564.289	1007.69
564.501	1035.69
564.713	1036.69
564.925	1031.69
565.137	1061.69
565.349	1051.69
565.561	1104.69
565.773	1178.69
565.985	1217.69
566.197	1280.69
566.408	1310.69
566.62	1374.69
566.832	1469.69
567.044	1516.69
567.255	1498.69
567.467	1555.69
567.679	1619.69
567.891	1698.69
568.102	1690.69
568.314	1605.69
568.526	1492.69
568.737	1400.69
568.949	1295.69
569.161	1208.69
569.372	1140.69
569.584	1115.69
569.795	1064.69
570.007	1019.69
570.218	982.69
570.43	1004.69
570.641	987.69
570.853	954.69
571.064	967.69
571.276	993.69
571.487	954.69
571.698	911.69
571.91	892.69
572.121	857.69
572.333	876.69
572.544	852.69
572.755	836.69
572.966	847.69
573.178	820.69
573.389	823.69
573.6	792.69
573.811	818.69
574.023	827.69
574.234	802.69
574.445	779.69
574.656	761.69
574.867	768.69
575.078	772.69
575.289	790.69
575.501	738.69
575.712	743.69
575.923	743.69
576.134	748.69
576.345	748.69
576.556	740.69
576.767	714.69
576.978	733.69
577.188	736.69
577.399	694.69
577.61	696.69
577.821	729.69
578.032	701.69
578.243	706.69
578.454	721.69
578.665	685.69
578.875	692.69
579.086	688.69
579.297	677.69
579.508	688.69
579.718	679.69
579.929	685.69
580.14	679.69
580.35	684.69
580.561	678.69
580.772	659.69
580.982	694.69
581.193	637.69
581.403	672.69
581.614	673.69
581.825	675.69
582.035	660.69
582.246	655.69
582.456	646.69
582.667	673.69
582.877	652.69
583.087	636.69
583.298	666.69
583.508	645.69
583.719	640.69
583.929	669.69
584.139	640.69
584.35	619.69
584.56	625.69
584.77	624.69
584.981	646.69
585.191	612.69
585.401	632.69
585.611	634.69
585.821	610.69
586.032	621.69
586.242	648.69
586.452	642.69
586.662	601.69
586.872	641.69
587.082	618.69
587.292	628.69
587.502	611.69
587.713	599.69
587.923	636.69
588.133	627.69
588.343	625.69
588.553	620.69
588.762	618.69
588.972	624.69
589.182	630.69
589.392	619.69
589.602	604.69
589.812	610.69
590.022	611.69
590.232	638.69
590.441	611.69
590.651	610.69
590.861	633.69
591.071	605.69
591.281	638.69
591.49	658.69
591.7	634.69
591.91	674.69
592.119	639.69
592.329	667.69
592.539	688.69
592.748	696.69
592.958	733.69
593.167	771.69
593.377	748.69
593.587	748.69
593.796	774.69
594.006	737.69
594.215	758.69
594.424	750.69
594.634	734.69
594.843	739.69
595.053	709.69
595.262	664.69
595.472	668.69
595.681	626.69
595.89	643.69
596.1	640.69
596.309	609.69
596.518	605.69
596.727	594.69
596.937	596.69
597.146	593.69
597.355	561.69
597.564	566.69
597.774	557.69
597.983	540.69
598.192	545.69
598.401	536.69
598.61	553.69
598.819	518.69
599.028	538.69
599.237	512.69
599.446	528.69
599.655	522.69
599.864	507.69
600.073	508.69
600.282	523.69
600.491	527.69
600.7	501.69
600.909	524.69
601.118	514.69
601.327	512.69
601.536	514.69
601.745	518.69
601.953	483.69
602.162	498.69
602.371	491.69
602.58	500.69
602.789	490.69
602.997	484.69
603.206	497.69
603.415	480.69
603.623	486.69
603.832	494.69
604.041	469.69
604.249	486.69
604.458	472.69
604.666	486.69
604.875	476.69
605.084	471.69
605.292	488.69
605.501	468.69
605.709	462.69
605.918	480.69
606.126	467.69
606.334	465.69
606.543	477.69
606.751	460.69
606.96	466.69
607.168	454.69
607.376	447.69
607.585	444.69
607.793	457.69
608.001	457.69
608.21	455.69
608.418	458.69
608.626	429.69
608.834	448.69
609.043	442.69
609.251	455.69
609.459	443.69
609.667	456.69
609.875	440.69
610.083	429.69
610.291	446.69
610.499	428.69
610.707	452.69
610.916	435.69
611.124	437.69
611.332	437.69
611.54	456.69
611.748	432.69
611.955	424.69
612.163	425.69
612.371	417.69
612.579	429.69
612.787	424.69
612.995	441.69
613.203	407.69
613.411	418.69
613.618	438.69
613.826	439.69
614.034	421.69
614.242	422.69
614.449	415.69
614.657	423.69
614.865	402.69
615.072	458.69
615.28	422.69
615.488	428.69
615.695	417.69
615.903	438.69
616.111	434.69
616.318	466.69
616.526	443.69
616.733	428.69
616.941	431.69
617.148	433.69
617.356	434.69
617.563	418.69
617.771	442.69
617.978	422.69
618.185	432.69
618.393	439.69
618.6	439.69
618.807	419.69
619.015	428.69
619.222	430.69
619.429	413.69
619.637	415.69
619.844	408.69
620.051	418.69
620.258	421.69
620.466	386.69
620.673	378.69
620.88	389.69
621.087	401.69
621.294	375.69
621.501	390.69
621.708	384.69
621.915	410.69
622.122	433.69
622.329	405.69
622.536	415.69
622.743	380.69
622.95	398.69
623.157	371.69
623.364	386.69
623.571	396.69
623.778	388.69
623.985	388.69
624.192	380.69
624.399	376.69
624.606	376.69
624.812	381.69
625.019	369.69
625.226	393.69
625.433	401.69
625.639	355.69
625.846	356.69
626.053	373.69
626.259	368.69
626.466	352.69
626.673	365.69
626.879	366.69
627.086	333.69
627.293	370.69
627.499	359.69
627.706	357.69
627.912	346.69
628.119	352.69
628.325	351.69
628.532	351.69
628.738	345.69
628.945	358.69
629.151	336.69
629.357	344.69
629.564	344.69
629.77	342.69
629.976	363.69
630.183	348.69
630.389	346.69
630.595	339.69
630.802	341.69
631.008	328.69
631.214	331.69
631.42	329.69
631.627	356.69
631.833	333.69
632.039	316.69
632.245	321.69
632.451	325.69
632.657	323.69
632.863	341.69
633.069	321.69
633.275	336.69
633.481	299.69
633.688	321.69
633.893	312.69
634.099	323.69
634.305	299.69
634.511	332.69
634.717	320.69
634.923	326.69
635.129	312.69
635.335	321.69
635.541	298.69
635.747	304.69
635.952	297.69
636.158	297.69
636.364	314.69
636.57	318.69
636.775	321.69
636.981	286.69
637.187	300.69
637.392	321.69
637.598	309.69
637.804	289.69
638.009	297.69
638.215	308.69
638.421	300.69
638.626	284.69
638.832	283.69
639.037	288.69
639.243	291.69
639.448	301.69
639.654	313.69
639.859	290.69
640.065	293.69
640.27	292.69
640.475	291.69
640.681	299.69
640.886	293.69
641.091	296.69
641.297	293.69
641.502	287.69
641.707	300.69
641.913	299.69
642.118	310.69
642.323	290.69
642.528	282.69
642.733	280.69
642.939	283.69
643.144	301.69
643.349	299.69
643.554	296.69
643.759	271.69
643.964	281.69
644.169	270.69
644.374	281.69
644.579	293.69
644.784	285.69
644.989	295.69
645.194	291.69
645.399	292.69
645.604	296.69
645.809	293.69
646.014	304.69
646.219	301.69
646.423	288.69
646.628	284.69
646.833	282.69
647.038	302.69
647.243	294.69
647.447	303.69
647.652	293.69
647.857	296.69
648.062	317.69
648.266	309.69
648.471	313.69
648.676	313.69
648.88	312.69
649.085	313.69
649.289	298.69
649.494	297.69
649.698	308.69
649.903	306.69
650.107	294.69
650.312	299.69
650.516	277.69
650.721	305.69
650.925	281.69
651.13	281.69
651.334	284.69
651.539	280.69
651.743	281.69
651.947	290.69
652.152	276.69
652.356	266.69
652.56	267.69
652.764	284.69
652.969	267.69
653.173	278.69
653.377	280.69
653.581	281.69
653.785	274.69
653.99	280.69
654.194	253.69
654.398	281.69
654.602	278.69
654.806	281.69
655.01	291.69
655.214	302.69
655.418	278.69
655.622	314.69
655.826	329.69
656.03	340.69
656.234	377.69
656.438	392.69
656.642	389.69
656.846	359.69
657.049	335.69
657.253	308.69
657.457	264.69
657.661	244.69
657.865	209.69
658.068	220.69
658.272	203.69
658.476	181.69
658.68	164.69
658.883	167.69
659.087	166.69
659.291	153.69
659.494	141.69
659.698	137.69
659.901	146.69
660.105	137.69
660.309	131.69
660.512	126.69
660.716	126.69
660.919	108.69
661.123	117.69
661.326	122.69
661.53	112.69
661.733	120.69
661.936	96.69
662.14	78.69
662.343	103.69
662.546	107.69
662.75	99.69
662.953	88.69
663.156	105.69
663.36	85.69
663.563	92.69
663.766	78.69
663.969	97.69
664.173	81.69
664.376	86.69
664.579	88.69
664.782	74.69
664.985	98.69
665.188	84.69
665.391	79.69
665.594	78.69
665.797	88.69
666	76.69
666.203	75.69
666.406	85.69
666.609	87.69
666.812	89.69
667.015	87.69
667.218	81.69
667.421	84.69
667.624	93.69
667.827	88.69
668.03	77.69
668.232	88.69
668.435	84.69
668.638	91.69
668.841	76.69
669.043	92.69
669.246	77.69
669.449	82.69
669.651	89.69
669.854	78.69
670.057	85.69
670.259	84.69
670.462	84.69
670.665	87.69
670.867	102.69
671.07	79.69
671.272	82.69
671.475	85.69
671.677	95.69
671.88	92.69
672.082	87.69
672.284	96.69
672.487	87.69
672.689	91.69
672.892	75.69
