Data from NiCl2@0.0625M.TitratingCurve.Agarose3%dH2O.NegLispCup.LampEnergy10.LIBS07252019_HRD10591_18-35-38-577.txt Node
Date: Thu Jul 25 18:35:38 EDT 2019
User: cochatt
Spectrometer: HR+D1059
Trigger mode: 1
Integration Time (sec): 1.000000E-1
Scans to average: 1
Electric dark correction enabled: true
Nonlinearity correction enabled: false
Boxcar width: 0
XAxis mode: Wavelengths
Number of Pixels in Spectrum: 2048
>>>>>Begin Spectral Data<<<<<
223.165	-6.5
223.4	-6.5
223.635	-6.5
223.869	-11.5
224.104	-27.5
224.338	-22.5
224.573	-24.5
224.808	-18.5
225.042	-6.5
225.277	1.5
225.511	-2.5
225.746	6.5
225.98	16.5
226.215	13.5
226.449	8.5
226.683	27.5
226.918	29.5
227.152	16.5
227.387	32.5
227.621	43.5
227.856	43.5
228.09	44.5
228.324	52.5
228.559	57.5
228.793	73.5
229.027	139.5
229.262	153.5
229.496	160.5
229.73	161.5
229.964	166.5
230.199	172.5
230.433	172.5
230.667	183.5
230.901	187.5
231.136	180.5
231.37	168.5
231.604	177.5
231.838	190.5
232.072	193.5
232.306	196.5
232.541	201.5
232.775	204.5
233.009	199.5
233.243	203.5
233.477	187.5
233.711	214.5
233.945	196.5
234.179	187.5
234.413	204.5
234.647	197.5
234.881	208.5
235.115	198.5
235.349	211.5
235.583	209.5
235.817	208.5
236.051	211.5
236.285	225.5
236.519	227.5
236.753	221.5
236.987	215.5
237.221	235.5
237.455	238.5
237.689	245.5
237.922	225.5
238.156	242.5
238.39	235.5
238.624	249.5
238.858	230.5
239.091	235.5
239.325	236.5
239.559	258.5
239.793	247.5
240.027	267.5
240.26	259.5
240.494	256.5
240.728	271.5
240.961	273.5
241.195	262.5
241.429	279.5
241.662	298.5
241.896	305.5
242.13	288.5
242.363	296.5
242.597	291.5
242.83	273.5
243.064	312.5
243.298	308.5
243.531	308.5
243.765	299.5
243.998	313.5
244.232	304.5
244.465	315.5
244.699	315.5
244.932	326.5
245.166	342.5
245.399	340.5
245.633	341.5
245.866	337.5
246.099	321.5
246.333	345.5
246.566	336.5
246.8	344.5
247.033	347.5
247.266	328.5
247.5	351.5
247.733	366.5
247.966	345.5
248.2	354.5
248.433	384.5
248.666	364.5
248.899	378.5
249.133	367.5
249.366	392.5
249.599	383.5
249.832	395.5
250.066	386.5
250.299	377.5
250.532	404.5
250.765	410.5
250.998	397.5
251.231	395.5
251.465	411.5
251.698	433.5
251.931	405.5
252.164	420.5
252.397	411.5
252.63	415.5
252.863	427.5
253.096	410.5
253.329	425.5
253.562	420.5
253.795	417.5
254.028	437.5
254.261	438.5
254.494	424.5
254.727	451.5
254.96	451.5
255.193	456.5
255.426	444.5
255.659	445.5
255.892	434.5
256.124	460.5
256.357	451.5
256.59	468.5
256.823	466.5
257.056	444.5
257.289	460.5
257.521	465.5
257.754	483.5
257.987	497.5
258.22	480.5
258.452	475.5
258.685	482.5
258.918	511.5
259.151	479.5
259.383	492.5
259.616	494.5
259.849	498.5
260.081	497.5
260.314	504.5
260.547	511.5
260.779	509.5
261.012	522.5
261.244	527.5
261.477	515.5
261.71	529.5
261.942	527.5
262.175	533.5
262.407	524.5
262.64	541.5
262.872	544.5
263.105	547.5
263.337	539.5
263.57	516.5
263.802	559.5
264.035	536.5
264.267	559.5
264.499	543.5
264.732	570.5
264.964	559.5
265.197	560.5
265.429	577.5
265.661	564.5
265.894	575.5
266.126	597.5
266.358	573.5
266.591	573.5
266.823	571.5
267.055	590.5
267.287	589.5
267.52	578.5
267.752	581.5
267.984	592.5
268.216	597.5
268.448	609.5
268.681	605.5
268.913	610.5
269.145	616.5
269.377	617.5
269.609	600.5
269.841	633.5
270.073	619.5
270.306	601.5
270.538	610.5
270.77	602.5
271.002	621.5
271.234	645.5
271.466	635.5
271.698	645.5
271.93	645.5
272.162	646.5
272.394	625.5
272.626	645.5
272.858	627.5
273.09	669.5
273.322	664.5
273.553	652.5
273.785	667.5
274.017	670.5
274.249	682.5
274.481	700.5
274.713	639.5
274.945	679.5
275.176	681.5
275.408	693.5
275.64	688.5
275.872	696.5
276.104	677.5
276.335	703.5
276.567	695.5
276.799	699.5
277.031	715.5
277.262	706.5
277.494	719.5
277.726	706.5
277.957	732.5
278.189	751.5
278.421	722.5
278.652	729.5
278.884	739.5
279.115	756.5
279.347	730.5
279.579	757.5
279.81	754.5
280.042	756.5
280.273	762.5
280.505	768.5
280.736	745.5
280.968	751.5
281.199	754.5
281.431	771.5
281.662	766.5
281.894	756.5
282.125	780.5
282.356	803.5
282.588	775.5
282.819	766.5
283.051	804.5
283.282	794.5
283.513	795.5
283.745	811.5
283.976	788.5
284.207	812.5
284.439	797.5
284.67	822.5
284.901	836.5
285.132	825.5
285.364	833.5
285.595	796.5
285.826	801.5
286.057	836.5
286.288	847.5
286.52	807.5
286.751	855.5
286.982	821.5
287.213	824.5
287.444	858.5
287.675	863.5
287.906	881.5
288.138	852.5
288.369	838.5
288.6	872.5
288.831	854.5
289.062	855.5
289.293	849.5
289.524	892.5
289.755	872.5
289.986	869.5
290.217	868.5
290.448	886.5
290.679	883.5
290.91	873.5
291.141	890.5
291.371	887.5
291.602	881.5
291.833	884.5
292.064	903.5
292.295	880.5
292.526	901.5
292.757	871.5
292.987	869.5
293.218	890.5
293.449	891.5
293.68	867.5
293.91	892.5
294.141	907.5
294.372	896.5
294.603	890.5
294.833	891.5
295.064	883.5
295.295	886.5
295.525	882.5
295.756	889.5
295.987	902.5
296.217	901.5
296.448	899.5
296.679	912.5
296.909	904.5
297.14	939.5
297.37	942.5
297.601	939.5
297.831	934.5
298.062	958.5
298.292	982.5
298.523	969.5
298.753	978.5
298.984	945.5
299.214	956.5
299.445	952.5
299.675	956.5
299.905	937.5
300.136	942.5
300.366	960.5
300.597	949.5
300.827	992.5
301.057	975.5
301.288	991.5
301.518	998.5
301.748	1017.5
301.979	999.5
302.209	1047.5
302.439	1034.5
302.669	1004.5
302.9	990.5
303.13	972.5
303.36	1009.5
303.59	1012.5
303.82	991.5
304.051	1011.5
304.281	1013.5
304.511	980.5
304.741	996.5
304.971	993.5
305.201	1007.5
305.431	1001.5
305.661	992.5
305.891	1011.5
306.121	978.5
306.352	1007.5
306.582	1007.5
306.812	974.5
307.042	992.5
307.272	998.5
307.502	973.5
307.731	961.5
307.961	1007.5
308.191	979.5
308.421	999.5
308.651	972.5
308.881	972.5
309.111	995.5
309.341	973.5
309.571	1017.5
309.8	1033.5
310.03	980.5
310.26	1007.5
310.49	992.5
310.72	1023.5
310.949	1003.5
311.179	983.5
311.409	999.5
311.639	1008.5
311.868	1015.5
312.098	1038.5
312.328	999.5
312.557	1055.5
312.787	1033.5
313.017	1054.5
313.246	1052.5
313.476	1067.5
313.706	1051.5
313.935	1066.5
314.165	1068.5
314.394	1042.5
314.624	1066.5
314.853	1071.5
315.083	1089.5
315.312	1064.5
315.542	1090.5
315.771	1074.5
316.001	1071.5
316.23	1053.5
316.46	1022.5
316.689	1031.5
316.919	1082.5
317.148	1050.5
317.377	1051.5
317.607	1067.5
317.836	1057.5
318.065	1047.5
318.295	1070.5
318.524	1083.5
318.753	1041.5
318.983	1056.5
319.212	1052.5
319.441	1037.5
319.67	1046.5
319.9	1045.5
320.129	1063.5
320.358	1052.5
320.587	1064.5
320.816	1081.5
321.046	1081.5
321.275	1094.5
321.504	1113.5
321.733	1087.5
321.962	1061.5
322.191	1054.5
322.42	1079.5
322.649	1079.5
322.878	1053.5
323.108	1076.5
323.337	1101.5
323.566	1119.5
323.795	1088.5
324.024	1130.5
324.253	1092.5
324.482	1091.5
324.71	1115.5
324.939	1092.5
325.168	1109.5
325.397	1103.5
325.626	1131.5
325.855	1097.5
326.084	1168.5
326.313	1146.5
326.542	1167.5
326.77	1158.5
326.999	1130.5
327.228	1130.5
327.457	1144.5
327.686	1132.5
327.914	1145.5
328.143	1160.5
328.372	1164.5
328.6	1122.5
328.829	1165.5
329.058	1149.5
329.287	1185.5
329.515	1159.5
329.744	1180.5
329.972	1224.5
330.201	1200.5
330.43	1207.5
330.658	1155.5
330.887	1199.5
331.115	1239.5
331.344	1198.5
331.572	1226.5
331.801	1265.5
332.03	1280.5
332.258	1316.5
332.486	1298.5
332.715	1309.5
332.943	1349.5
333.172	1391.5
333.4	1441.5
333.629	1495.5
333.857	1548.5
334.085	1502.5
334.314	1494.5
334.542	1470.5
334.771	1485.5
334.999	1488.5
335.227	1466.5
335.455	1456.5
335.684	1422.5
335.912	1417.5
336.14	1407.5
336.369	1410.5
336.597	1387.5
336.825	1389.5
337.053	1397.5
337.281	1393.5
337.51	1366.5
337.738	1303.5
337.966	1314.5
338.194	1286.5
338.422	1288.5
338.65	1294.5
338.878	1285.5
339.106	1261.5
339.334	1284.5
339.562	1270.5
339.79	1214.5
340.018	1250.5
340.246	1203.5
340.474	1242.5
340.702	1233.5
340.93	1215.5
341.158	1229.5
341.386	1207.5
341.614	1242.5
341.842	1229.5
342.07	1209.5
342.298	1176.5
342.526	1209.5
342.754	1205.5
342.981	1212.5
343.209	1235.5
343.437	1257.5
343.665	1376.5
343.893	1383.5
344.12	1413.5
344.348	1421.5
344.576	1387.5
344.804	1297.5
345.031	1299.5
345.259	1226.5
345.487	1228.5
345.714	1207.5
345.942	1191.5
346.17	1204.5
346.397	1188.5
346.625	1199.5
346.853	1155.5
347.08	1149.5
347.308	1151.5
347.535	1180.5
347.763	1188.5
347.99	1151.5
348.218	1183.5
348.445	1167.5
348.673	1178.5
348.9	1153.5
349.128	1192.5
349.355	1129.5
349.583	1177.5
349.81	1104.5
350.037	1113.5
350.265	1099.5
350.492	1127.5
350.72	1125.5
350.947	1156.5
351.174	1135.5
351.402	1141.5
351.629	1149.5
351.856	1105.5
352.083	1132.5
352.311	1111.5
352.538	1114.5
352.765	1119.5
352.992	1140.5
353.22	1098.5
353.447	1120.5
353.674	1096.5
353.901	1087.5
354.128	1135.5
354.355	1075.5
354.583	1101.5
354.81	1104.5
355.037	1118.5
355.264	1105.5
355.491	1092.5
355.718	1109.5
355.945	1149.5
356.172	1137.5
356.399	1144.5
356.626	1154.5
356.853	1117.5
357.08	1126.5
357.307	1105.5
357.534	1128.5
357.761	1120.5
357.988	1153.5
358.215	1114.5
358.441	1127.5
358.668	1133.5
358.895	1138.5
359.122	1117.5
359.349	1139.5
359.576	1124.5
359.802	1112.5
360.029	1150.5
360.256	1150.5
360.483	1127.5
360.709	1130.5
360.936	1136.5
361.163	1129.5
361.39	1155.5
361.616	1130.5
361.843	1142.5
362.07	1107.5
362.296	1130.5
362.523	1140.5
362.749	1107.5
362.976	1114.5
363.203	1144.5
363.429	1119.5
363.656	1111.5
363.882	1103.5
364.109	1128.5
364.335	1133.5
364.562	1116.5
364.788	1156.5
365.015	1113.5
365.241	1124.5
365.468	1116.5
365.694	1130.5
365.92	1097.5
366.147	1104.5
366.373	1127.5
366.599	1125.5
366.826	1134.5
367.052	1127.5
367.278	1129.5
367.505	1097.5
367.731	1114.5
367.957	1119.5
368.184	1144.5
368.41	1157.5
368.636	1142.5
368.862	1151.5
369.089	1146.5
369.315	1175.5
369.541	1170.5
369.767	1157.5
369.993	1151.5
370.219	1175.5
370.445	1167.5
370.672	1161.5
370.898	1189.5
371.124	1191.5
371.35	1215.5
371.576	1226.5
371.802	1241.5
372.028	1210.5
372.254	1247.5
372.48	1234.5
372.706	1258.5
372.932	1269.5
373.158	1251.5
373.384	1266.5
373.61	1233.5
373.835	1239.5
374.061	1243.5
374.287	1259.5
374.513	1237.5
374.739	1293.5
374.965	1341.5
375.191	1368.5
375.416	1325.5
375.642	1295.5
375.868	1289.5
376.094	1266.5
376.319	1271.5
376.545	1215.5
376.771	1258.5
376.997	1266.5
377.222	1225.5
377.448	1196.5
377.674	1233.5
377.899	1196.5
378.125	1196.5
378.35	1223.5
378.576	1215.5
378.802	1164.5
379.027	1211.5
379.253	1221.5
379.478	1172.5
379.704	1188.5
379.929	1216.5
380.155	1221.5
380.38	1212.5
380.606	1167.5
380.831	1207.5
381.057	1195.5
381.282	1221.5
381.507	1242.5
381.733	1224.5
381.958	1250.5
382.184	1262.5
382.409	1279.5
382.634	1272.5
382.86	1267.5
383.085	1268.5
383.31	1300.5
383.535	1284.5
383.761	1318.5
383.986	1348.5
384.211	1379.5
384.436	1376.5
384.662	1405.5
384.887	1425.5
385.112	1398.5
385.337	1411.5
385.562	1447.5
385.787	1455.5
386.013	1456.5
386.238	1467.5
386.463	1493.5
386.688	1456.5
386.913	1415.5
387.138	1430.5
387.363	1445.5
387.588	1433.5
387.813	1454.5
388.038	1451.5
388.263	1491.5
388.488	1473.5
388.713	1438.5
388.938	1483.5
389.163	1429.5
389.387	1461.5
389.612	1452.5
389.837	1457.5
390.062	1447.5
390.287	1474.5
390.512	1437.5
390.736	1488.5
390.961	1470.5
391.186	1470.5
391.411	1548.5
391.636	1605.5
391.86	1582.5
392.085	1631.5
392.31	1652.5
392.534	1572.5
392.759	1569.5
392.984	1543.5
393.208	1533.5
393.433	1591.5
393.658	1590.5
393.882	1554.5
394.107	1522.5
394.331	1545.5
394.556	1576.5
394.78	1552.5
395.005	1569.5
395.229	1567.5
395.454	1591.5
395.678	1640.5
395.903	1625.5
396.127	1610.5
396.352	1598.5
396.576	1544.5
396.801	1558.5
397.025	1613.5
397.249	1643.5
397.474	1662.5
397.698	1667.5
397.922	1653.5
398.147	1681.5
398.371	1715.5
398.595	1755.5
398.82	1812.5
399.044	1920.5
399.268	2051.5
399.492	2322.5
399.717	2541.5
399.941	2586.5
400.165	2428.5
400.389	2218.5
400.613	2048.5
400.837	1982.5
401.062	1889.5
401.286	1872.5
401.51	1828.5
401.734	1841.5
401.958	1829.5
402.182	1828.5
402.406	1845.5
402.63	1866.5
402.854	1892.5
403.078	1959.5
403.302	1959.5
403.526	1989.5
403.75	1996.5
403.974	1986.5
404.198	2034.5
404.422	2016.5
404.645	2027.5
404.869	2007.5
405.093	2031.5
405.317	1947.5
405.541	1999.5
405.765	1961.5
405.988	2004.5
406.212	1981.5
406.436	2000.5
406.66	2032.5
406.883	2099.5
407.107	2154.5
407.331	2265.5
407.555	2279.5
407.778	2324.5
408.002	2307.5
408.226	2195.5
408.449	2172.5
408.673	2125.5
408.896	2082.5
409.12	2028.5
409.344	2069.5
409.567	1996.5
409.791	2054.5
410.014	2022.5
410.238	2001.5
410.461	2017.5
410.685	1968.5
410.908	1958.5
411.132	1934.5
411.355	1898.5
411.578	1888.5
411.802	1913.5
412.025	1911.5
412.249	1969.5
412.472	1933.5
412.695	1883.5
412.919	1862.5
413.142	1822.5
413.365	1827.5
413.589	1876.5
413.812	1814.5
414.035	1810.5
414.258	1832.5
414.482	1809.5
414.705	1826.5
414.928	1832.5
415.151	1844.5
415.374	1817.5
415.597	1825.5
415.821	1802.5
416.044	1789.5
416.267	1779.5
416.49	1735.5
416.713	1727.5
416.936	1811.5
417.159	1750.5
417.382	1729.5
417.605	1705.5
417.828	1766.5
418.051	1742.5
418.274	1782.5
418.497	1736.5
418.72	1800.5
418.943	1795.5
419.166	1913.5
419.389	2013.5
419.611	1988.5
419.834	1913.5
420.057	1878.5
420.28	1816.5
420.503	1776.5
420.726	1740.5
420.948	1733.5
421.171	1757.5
421.394	1764.5
421.617	1740.5
421.839	1739.5
422.062	1776.5
422.285	1732.5
422.507	1801.5
422.73	1784.5
422.953	1803.5
423.175	1831.5
423.398	1794.5
423.621	1781.5
423.843	1832.5
424.066	1858.5
424.288	1825.5
424.511	1819.5
424.733	1828.5
424.956	1777.5
425.178	1750.5
425.401	1794.5
425.623	1750.5
425.846	1755.5
426.068	1721.5
426.291	1735.5
426.513	1681.5
426.735	1691.5
426.958	1668.5
427.18	1657.5
427.402	1634.5
427.625	1671.5
427.847	1567.5
428.069	1578.5
428.292	1643.5
428.514	1591.5
428.736	1604.5
428.958	1608.5
429.181	1566.5
429.403	1596.5
429.625	1540.5
429.847	1548.5
430.069	1590.5
430.292	1536.5
430.514	1550.5
430.736	1576.5
430.958	1565.5
431.18	1568.5
431.402	1589.5
431.624	1611.5
431.846	1591.5
432.068	1635.5
432.29	1663.5
432.512	1593.5
432.734	1639.5
432.956	1627.5
433.178	1602.5
433.4	1595.5
433.622	1638.5
433.844	1672.5
434.066	1636.5
434.287	1659.5
434.509	1669.5
434.731	1769.5
434.953	1799.5
435.175	1796.5
435.397	1781.5
435.618	1687.5
435.84	1698.5
436.062	1635.5
436.284	1587.5
436.505	1592.5
436.727	1628.5
436.949	1631.5
437.17	1596.5
437.392	1608.5
437.614	1558.5
437.835	1523.5
438.057	1548.5
438.278	1531.5
438.5	1513.5
438.721	1493.5
438.943	1540.5
439.165	1540.5
439.386	1526.5
439.608	1566.5
439.829	1563.5
440.05	1597.5
440.272	1574.5
440.493	1607.5
440.715	1611.5
440.936	1617.5
441.158	1650.5
441.379	1655.5
441.6	1730.5
441.822	1734.5
442.043	1763.5
442.264	1740.5
442.486	1655.5
442.707	1661.5
442.928	1713.5
443.149	1684.5
443.371	1670.5
443.592	1751.5
443.813	1777.5
444.034	1745.5
444.255	1804.5
444.476	1885.5
444.698	1955.5
444.919	1967.5
445.14	2083.5
445.361	1896.5
445.582	1851.5
445.803	1719.5
446.024	1689.5
446.245	1666.5
446.466	1626.5
446.687	1574.5
446.908	1587.5
447.129	1514.5
447.35	1533.5
447.571	1521.5
447.792	1471.5
448.013	1512.5
448.234	1481.5
448.455	1435.5
448.675	1445.5
448.896	1452.5
449.117	1408.5
449.338	1427.5
449.559	1428.5
449.779	1412.5
450	1397.5
450.221	1400.5
450.442	1419.5
450.662	1434.5
450.883	1427.5
451.104	1426.5
451.324	1460.5
451.545	1430.5
451.766	1397.5
451.986	1420.5
452.207	1371.5
452.428	1403.5
452.648	1403.5
452.869	1385.5
453.089	1398.5
453.31	1361.5
453.53	1375.5
453.751	1394.5
453.971	1363.5
454.192	1372.5
454.412	1355.5
454.633	1327.5
454.853	1364.5
455.073	1361.5
455.294	1372.5
455.514	1359.5
455.734	1347.5
455.955	1333.5
456.175	1340.5
456.395	1312.5
456.616	1300.5
456.836	1301.5
457.056	1318.5
457.276	1327.5
457.497	1361.5
457.717	1335.5
457.937	1393.5
458.157	1407.5
458.377	1401.5
458.598	1420.5
458.818	1476.5
459.038	1485.5
459.258	1540.5
459.478	1563.5
459.698	1628.5
459.918	1645.5
460.138	1708.5
460.358	1769.5
460.578	1817.5
460.798	1824.5
461.018	1879.5
461.238	1815.5
461.458	1778.5
461.678	1781.5
461.898	1869.5
462.118	1854.5
462.338	1932.5
462.558	1991.5
462.777	2048.5
462.997	2143.5
463.217	2331.5
463.437	2336.5
463.657	2198.5
463.876	2151.5
464.096	2133.5
464.316	2129.5
464.536	2086.5
464.755	2033.5
464.975	1960.5
465.195	1831.5
465.414	1778.5
465.634	1664.5
465.854	1644.5
466.073	1591.5
466.293	1586.5
466.512	1546.5
466.732	1548.5
466.951	1511.5
467.171	1530.5
467.391	1537.5
467.61	1483.5
467.829	1495.5
468.049	1496.5
468.268	1441.5
468.488	1414.5
468.707	1407.5
468.927	1426.5
469.146	1442.5
469.365	1471.5
469.585	1448.5
469.804	1485.5
470.023	1477.5
470.243	1493.5
470.462	1512.5
470.681	1530.5
470.901	1560.5
471.12	1541.5
471.339	1508.5
471.558	1475.5
471.777	1468.5
471.997	1486.5
472.216	1467.5
472.435	1419.5
472.654	1413.5
472.873	1415.5
473.092	1427.5
473.311	1425.5
473.53	1416.5
473.749	1412.5
473.968	1411.5
474.187	1405.5
474.406	1424.5
474.625	1457.5
474.844	1429.5
475.063	1439.5
475.282	1396.5
475.501	1436.5
475.72	1450.5
475.939	1484.5
476.158	1495.5
476.377	1487.5
476.596	1488.5
476.814	1496.5
477.033	1526.5
477.252	1529.5
477.471	1569.5
477.69	1605.5
477.908	1663.5
478.127	1698.5
478.346	1688.5
478.564	1720.5
478.783	1720.5
479.002	1763.5
479.22	1762.5
479.439	1800.5
479.658	1831.5
479.876	1778.5
480.095	1794.5
480.313	1895.5
480.532	1882.5
480.751	1893.5
480.969	1844.5
481.188	1804.5
481.406	1775.5
481.624	1751.5
481.843	1721.5
482.061	1700.5
482.28	1743.5
482.498	1699.5
482.717	1699.5
482.935	1771.5
483.153	1727.5
483.372	1697.5
483.59	1701.5
483.808	1763.5
484.027	1733.5
484.245	1759.5
484.463	1811.5
484.681	1819.5
484.9	1837.5
485.118	1824.5
485.336	1863.5
485.554	1845.5
485.772	1912.5
485.99	1899.5
486.209	1882.5
486.427	1849.5
486.645	1863.5
486.863	1855.5
487.081	1875.5
487.299	1882.5
487.517	1877.5
487.735	1821.5
487.953	1824.5
488.171	1833.5
488.389	1768.5
488.607	1762.5
488.825	1772.5
489.043	1783.5
489.261	1779.5
489.479	1796.5
489.696	1791.5
489.914	1733.5
490.132	1792.5
490.35	1747.5
490.568	1736.5
490.786	1804.5
491.003	1769.5
491.221	1810.5
491.439	1780.5
491.657	1752.5
491.874	1744.5
492.092	1779.5
492.31	1783.5
492.527	1781.5
492.745	1766.5
492.963	1755.5
493.18	1785.5
493.398	1797.5
493.615	1780.5
493.833	1800.5
494.05	1784.5
494.268	1793.5
494.485	1815.5
494.703	1808.5
494.92	1836.5
495.138	1833.5
495.355	1849.5
495.573	1854.5
495.79	1857.5
496.008	1869.5
496.225	1873.5
496.442	1889.5
496.66	1956.5
496.877	1933.5
497.094	1953.5
497.312	1994.5
497.529	2045.5
497.746	2049.5
497.963	2114.5
498.181	2271.5
498.398	2330.5
498.615	2464.5
498.832	2566.5
499.049	2746.5
499.267	2935.5
499.484	3226.5
499.701	3440.5
499.918	3749.5
500.135	4227.5
500.352	4527.5
500.569	4702.5
500.786	4728.5
501.003	4484.5
501.22	4202.5
501.437	3768.5
501.654	3387.5
501.871	3118.5
502.088	2913.5
502.305	2684.5
502.522	2554.5
502.739	2501.5
502.956	2369.5
503.172	2264.5
503.389	2137.5
503.606	2095.5
503.823	2054.5
504.04	2117.5
504.256	2056.5
504.473	2098.5
504.69	2091.5
504.907	2100.5
505.123	1992.5
505.34	1864.5
505.557	1804.5
505.773	1764.5
505.99	1723.5
506.207	1699.5
506.423	1644.5
506.64	1655.5
506.856	1584.5
507.073	1615.5
507.289	1585.5
507.506	1583.5
507.722	1580.5
507.939	1586.5
508.155	1555.5
508.372	1546.5
508.588	1524.5
508.805	1521.5
509.021	1483.5
509.238	1495.5
509.454	1453.5
509.67	1450.5
509.887	1465.5
510.103	1416.5
510.319	1446.5
510.536	1465.5
510.752	1445.5
510.968	1440.5
511.184	1382.5
511.401	1431.5
511.617	1431.5
511.833	1439.5
512.049	1445.5
512.265	1441.5
512.481	1443.5
512.698	1418.5
512.914	1389.5
513.13	1429.5
513.346	1421.5
513.562	1430.5
513.778	1412.5
513.994	1444.5
514.21	1444.5
514.426	1421.5
514.642	1419.5
514.858	1475.5
515.074	1452.5
515.29	1523.5
515.506	1482.5
515.721	1525.5
515.937	1591.5
516.153	1548.5
516.369	1572.5
516.585	1606.5
516.801	1655.5
517.016	1705.5
517.232	1780.5
517.448	1818.5
517.664	1898.5
517.879	1899.5
518.095	1912.5
518.311	1878.5
518.527	1787.5
518.742	1777.5
518.958	1688.5
519.173	1621.5
519.389	1611.5
519.605	1574.5
519.82	1505.5
520.036	1526.5
520.251	1456.5
520.467	1434.5
520.682	1415.5
520.898	1437.5
521.113	1420.5
521.329	1400.5
521.544	1320.5
521.76	1384.5
521.975	1348.5
522.19	1367.5
522.406	1349.5
522.621	1334.5
522.836	1322.5
523.052	1335.5
523.267	1351.5
523.482	1324.5
523.698	1294.5
523.913	1274.5
524.128	1283.5
524.343	1300.5
524.559	1295.5
524.774	1279.5
524.989	1300.5
525.204	1283.5
525.419	1268.5
525.634	1247.5
525.849	1295.5
526.064	1256.5
526.28	1269.5
526.495	1247.5
526.71	1270.5
526.925	1301.5
527.14	1252.5
527.355	1222.5
527.57	1235.5
527.785	1260.5
527.999	1243.5
528.214	1310.5
528.429	1287.5
528.644	1273.5
528.859	1270.5
529.074	1253.5
529.289	1267.5
529.503	1241.5
529.718	1285.5
529.933	1250.5
530.148	1228.5
530.363	1240.5
530.577	1235.5
530.792	1251.5
531.007	1231.5
531.221	1264.5
531.436	1248.5
531.651	1258.5
531.865	1240.5
532.08	1244.5
532.295	1253.5
532.509	1253.5
532.724	1272.5
532.938	1255.5
533.153	1253.5
533.367	1272.5
533.582	1248.5
533.796	1239.5
534.011	1221.5
534.225	1238.5
534.44	1222.5
534.654	1206.5
534.868	1239.5
535.083	1237.5
535.297	1186.5
535.511	1180.5
535.726	1194.5
535.94	1184.5
536.154	1217.5
536.369	1149.5
536.583	1171.5
536.797	1152.5
537.011	1174.5
537.225	1164.5
537.44	1174.5
537.654	1170.5
537.868	1162.5
538.082	1130.5
538.296	1133.5
538.51	1096.5
538.724	1123.5
538.938	1132.5
539.153	1130.5
539.367	1141.5
539.581	1115.5
539.795	1113.5
540.009	1116.5
540.222	1130.5
540.436	1101.5
540.65	1107.5
540.864	1081.5
541.078	1097.5
541.292	1089.5
541.506	1113.5
541.72	1090.5
541.934	1077.5
542.147	1137.5
542.361	1110.5
542.575	1067.5
542.789	1079.5
543.002	1081.5
543.216	1058.5
543.43	1081.5
543.644	1074.5
543.857	1105.5
544.071	1107.5
544.285	1084.5
544.498	1082.5
544.712	1116.5
544.925	1083.5
545.139	1107.5
545.352	1123.5
545.566	1101.5
545.779	1112.5
545.993	1095.5
546.206	1110.5
546.42	1115.5
546.633	1117.5
546.847	1104.5
547.06	1091.5
547.274	1127.5
547.487	1105.5
547.7	1113.5
547.914	1142.5
548.127	1112.5
548.34	1130.5
548.554	1115.5
548.767	1138.5
548.98	1115.5
549.193	1125.5
549.407	1112.5
549.62	1131.5
549.833	1135.5
550.046	1151.5
550.259	1116.5
550.473	1126.5
550.686	1126.5
550.899	1105.5
551.112	1087.5
551.325	1109.5
551.538	1099.5
551.751	1095.5
551.964	1132.5
552.177	1099.5
552.39	1125.5
552.603	1166.5
552.816	1173.5
553.029	1210.5
553.242	1199.5
553.455	1212.5
553.667	1233.5
553.88	1187.5
554.093	1135.5
554.306	1153.5
554.519	1114.5
554.732	1115.5
554.944	1102.5
555.157	1057.5
555.37	1087.5
555.583	1064.5
555.795	1023.5
556.008	1016.5
556.221	999.5
556.433	1000.5
556.646	977.5
556.859	991.5
557.071	980.5
557.284	958.5
557.496	946.5
557.709	972.5
557.921	953.5
558.134	963.5
558.346	956.5
558.559	921.5
558.771	933.5
558.984	933.5
559.196	920.5
559.409	910.5
559.621	929.5
559.833	887.5
560.046	919.5
560.258	924.5
560.47	916.5
560.683	921.5
560.895	929.5
561.107	891.5
561.32	897.5
561.532	911.5
561.744	953.5
561.956	929.5
562.168	907.5
562.381	918.5
562.593	955.5
562.805	940.5
563.017	915.5
563.229	929.5
563.441	945.5
563.653	954.5
563.865	954.5
564.077	984.5
564.289	953.5
564.501	985.5
564.713	1015.5
564.925	1007.5
565.137	1020.5
565.349	1042.5
565.561	1062.5
565.773	1113.5
565.985	1149.5
566.197	1225.5
566.408	1263.5
566.62	1343.5
566.832	1416.5
567.044	1437.5
567.255	1453.5
567.467	1481.5
567.679	1571.5
567.891	1639.5
568.102	1619.5
568.314	1595.5
568.526	1481.5
568.737	1307.5
568.949	1241.5
569.161	1171.5
569.372	1116.5
569.584	1055.5
569.795	1049.5
570.007	990.5
570.218	982.5
570.43	943.5
570.641	934.5
570.853	935.5
571.064	954.5
571.276	932.5
571.487	928.5
571.698	884.5
571.91	859.5
572.121	839.5
572.333	813.5
572.544	838.5
572.755	787.5
572.966	787.5
573.178	776.5
573.389	747.5
573.6	767.5
573.811	789.5
574.023	787.5
574.234	767.5
574.445	762.5
574.656	733.5
574.867	742.5
575.078	741.5
575.289	768.5
575.501	732.5
575.712	736.5
575.923	743.5
576.134	711.5
576.345	723.5
576.556	727.5
576.767	676.5
576.978	693.5
577.188	707.5
577.399	718.5
577.61	705.5
577.821	672.5
578.032	670.5
578.243	671.5
578.454	672.5
578.665	701.5
578.875	665.5
579.086	661.5
579.297	644.5
579.508	673.5
579.718	663.5
579.929	656.5
580.14	649.5
580.35	642.5
580.561	670.5
580.772	668.5
580.982	631.5
581.193	633.5
581.403	640.5
581.614	627.5
581.825	633.5
582.035	623.5
582.246	636.5
582.456	616.5
582.667	624.5
582.877	628.5
583.087	619.5
583.298	616.5
583.508	625.5
583.719	641.5
583.929	629.5
584.139	641.5
584.35	626.5
584.56	619.5
584.77	626.5
584.981	591.5
585.191	597.5
585.401	620.5
585.611	600.5
585.821	607.5
586.032	610.5
586.242	611.5
586.452	601.5
586.662	609.5
586.872	601.5
587.082	578.5
587.292	589.5
587.502	585.5
587.713	616.5
587.923	602.5
588.133	583.5
588.343	588.5
588.553	593.5
588.762	579.5
588.972	601.5
589.182	619.5
589.392	619.5
589.602	604.5
589.812	599.5
590.022	617.5
590.232	605.5
590.441	599.5
590.651	612.5
590.861	619.5
591.071	593.5
591.281	627.5
591.49	615.5
591.7	637.5
591.91	639.5
592.119	637.5
592.329	643.5
592.539	639.5
592.748	705.5
592.958	697.5
593.167	715.5
593.377	729.5
593.587	735.5
593.796	734.5
594.006	744.5
594.215	741.5
594.424	735.5
594.634	740.5
594.843	706.5
595.053	687.5
595.262	631.5
595.472	631.5
595.681	603.5
595.89	605.5
596.1	580.5
596.309	564.5
596.518	579.5
596.727	550.5
596.937	547.5
597.146	546.5
597.355	545.5
597.564	528.5
597.774	531.5
597.983	526.5
598.192	515.5
598.401	529.5
598.61	538.5
598.819	515.5
599.028	519.5
599.237	513.5
599.446	511.5
599.655	529.5
599.864	491.5
600.073	516.5
600.282	497.5
600.491	487.5
600.7	508.5
600.909	504.5
601.118	476.5
601.327	492.5
601.536	479.5
601.745	459.5
601.953	479.5
602.162	459.5
602.371	459.5
602.58	475.5
602.789	492.5
602.997	476.5
603.206	483.5
603.415	492.5
603.623	465.5
603.832	458.5
604.041	468.5
604.249	463.5
604.458	474.5
604.666	458.5
604.875	438.5
605.084	468.5
605.292	459.5
605.501	459.5
605.709	424.5
605.918	457.5
606.126	449.5
606.334	433.5
606.543	419.5
606.751	453.5
606.96	460.5
607.168	443.5
607.376	438.5
607.585	441.5
607.793	456.5
608.001	471.5
608.21	417.5
608.418	421.5
608.626	437.5
608.834	440.5
609.043	453.5
609.251	431.5
609.459	435.5
609.667	449.5
609.875	427.5
610.083	416.5
610.291	429.5
610.499	433.5
610.707	435.5
610.916	446.5
611.124	421.5
611.332	429.5
611.54	421.5
611.748	437.5
611.955	428.5
612.163	408.5
612.371	422.5
612.579	419.5
612.787	392.5
612.995	424.5
613.203	412.5
613.411	407.5
613.618	412.5
613.826	418.5
614.034	420.5
614.242	396.5
614.449	407.5
614.657	417.5
614.865	400.5
615.072	391.5
615.28	391.5
615.488	417.5
615.695	411.5
615.903	415.5
616.111	412.5
616.318	423.5
616.526	395.5
616.733	412.5
616.941	389.5
617.148	408.5
617.356	402.5
617.563	427.5
617.771	402.5
617.978	400.5
618.185	425.5
618.393	409.5
618.6	413.5
618.807	409.5
619.015	403.5
619.222	424.5
619.429	410.5
619.637	396.5
619.844	380.5
620.051	387.5
620.258	374.5
620.466	383.5
620.673	379.5
620.88	380.5
621.087	361.5
621.294	380.5
621.501	391.5
621.708	377.5
621.915	388.5
622.122	389.5
622.329	362.5
622.536	397.5
622.743	383.5
622.95	380.5
623.157	373.5
623.364	364.5
623.571	365.5
623.778	358.5
623.985	368.5
624.192	366.5
624.399	364.5
624.606	363.5
624.812	373.5
625.019	350.5
625.226	353.5
625.433	346.5
625.639	363.5
625.846	341.5
626.053	363.5
626.259	333.5
626.466	350.5
626.673	350.5
626.879	346.5
627.086	340.5
627.293	355.5
627.499	349.5
627.706	349.5
627.912	351.5
628.119	356.5
628.325	331.5
628.532	347.5
628.738	326.5
628.945	329.5
629.151	348.5
629.357	320.5
629.564	329.5
629.77	315.5
629.976	326.5
630.183	325.5
630.389	328.5
630.595	331.5
630.802	322.5
631.008	303.5
631.214	322.5
631.42	333.5
631.627	331.5
631.833	312.5
632.039	315.5
632.245	315.5
632.451	317.5
632.657	309.5
632.863	296.5
633.069	317.5
633.275	304.5
633.481	303.5
633.688	310.5
633.893	303.5
634.099	311.5
634.305	316.5
634.511	306.5
634.717	306.5
634.923	321.5
635.129	301.5
635.335	297.5
635.541	294.5
635.747	299.5
635.952	292.5
636.158	292.5
636.364	315.5
636.57	291.5
636.775	285.5
636.981	287.5
637.187	305.5
637.392	300.5
637.598	299.5
637.804	296.5
638.009	294.5
638.215	290.5
638.421	287.5
638.626	276.5
638.832	285.5
639.037	278.5
639.243	276.5
639.448	276.5
639.654	285.5
639.859	281.5
640.065	301.5
640.27	274.5
640.475	273.5
640.681	280.5
640.886	292.5
641.091	282.5
641.297	284.5
641.502	269.5
641.707	277.5
641.913	278.5
642.118	273.5
642.323	279.5
642.528	268.5
642.733	275.5
642.939	275.5
643.144	276.5
643.349	276.5
643.554	281.5
643.759	285.5
643.964	285.5
644.169	268.5
644.374	277.5
644.579	283.5
644.784	284.5
644.989	278.5
645.194	294.5
645.399	266.5
645.604	273.5
645.809	273.5
646.014	291.5
646.219	272.5
646.423	282.5
646.628	272.5
646.833	269.5
647.038	276.5
647.243	268.5
647.447	288.5
647.652	294.5
647.857	295.5
648.062	306.5
648.266	273.5
648.471	311.5
648.676	288.5
648.88	271.5
649.085	297.5
649.289	287.5
649.494	286.5
649.698	281.5
649.903	289.5
650.107	269.5
650.312	280.5
650.516	257.5
650.721	287.5
650.925	260.5
651.13	243.5
651.334	269.5
651.539	255.5
651.743	251.5
651.947	267.5
652.152	259.5
652.356	271.5
652.56	258.5
652.764	262.5
652.969	274.5
653.173	252.5
653.377	254.5
653.581	245.5
653.785	235.5
653.99	253.5
654.194	241.5
654.398	280.5
654.602	258.5
654.806	264.5
655.01	263.5
655.214	282.5
655.418	272.5
655.622	288.5
655.826	296.5
656.03	312.5
656.234	349.5
656.438	372.5
656.642	376.5
656.846	330.5
657.049	312.5
657.253	269.5
657.457	241.5
657.661	226.5
657.865	205.5
658.068	192.5
658.272	176.5
658.476	171.5
658.68	172.5
658.883	152.5
659.087	137.5
659.291	151.5
659.494	131.5
659.698	125.5
659.901	127.5
660.105	119.5
660.309	127.5
660.512	120.5
660.716	111.5
660.919	119.5
661.123	100.5
661.326	103.5
661.53	120.5
661.733	102.5
661.936	100.5
662.14	78.5
662.343	110.5
662.546	106.5
662.75	97.5
662.953	92.5
663.156	95.5
663.36	87.5
663.563	91.5
663.766	99.5
663.969	99.5
664.173	77.5
664.376	83.5
664.579	84.5
664.782	83.5
664.985	76.5
665.188	89.5
665.391	85.5
665.594	86.5
665.797	93.5
666	77.5
666.203	81.5
666.406	82.5
666.609	80.5
666.812	93.5
667.015	80.5
667.218	90.5
667.421	93.5
667.624	91.5
667.827	74.5
668.03	77.5
668.232	91.5
668.435	71.5
668.638	92.5
668.841	88.5
669.043	84.5
669.246	83.5
669.449	80.5
669.651	80.5
669.854	84.5
670.057	81.5
670.259	75.5
670.462	79.5
670.665	79.5
670.867	97.5
671.07	89.5
671.272	89.5
671.475	92.5
671.677	88.5
671.88	77.5
672.082	85.5
672.284	83.5
672.487	90.5
672.689	77.5
672.892	82.5
