Data from NiCl2@0.5M.TitratingCurve.Agarose3%dH2O.NegLispCup.LampEnergy10.LIBS07252019_HRD10591_18-21-47-572.txt Node
Date: Thu Jul 25 18:21:47 EDT 2019
User: cochatt
Spectrometer: HR+D1059
Trigger mode: 1
Integration Time (sec): 1.000000E-1
Scans to average: 1
Electric dark correction enabled: true
Nonlinearity correction enabled: false
Boxcar width: 0
XAxis mode: Wavelengths
Number of Pixels in Spectrum: 2048
>>>>>Begin Spectral Data<<<<<
223.165	-15.44
223.4	-15.44
223.635	-15.44
223.869	-22.44
224.104	-15.44
224.338	-13.44
224.573	-18.44
224.808	-11.44
225.042	-14.44
225.277	11.56
225.511	-12.44
225.746	2.56
225.98	5.56
226.215	6.56
226.449	14.56
226.683	22.56
226.918	28.56
227.152	31.56
227.387	39.56
227.621	41.56
227.856	41.56
228.09	42.56
228.324	43.56
228.559	67.56
228.793	56.56
229.027	94.56
229.262	99.56
229.496	91.56
229.73	127.56
229.964	111.56
230.199	106.56
230.433	118.56
230.667	129.56
230.901	133.56
231.136	142.56
231.37	124.56
231.604	126.56
231.838	126.56
232.072	138.56
232.306	121.56
232.541	127.56
232.775	119.56
233.009	123.56
233.243	143.56
233.477	133.56
233.711	146.56
233.945	131.56
234.179	149.56
234.413	129.56
234.647	138.56
234.881	157.56
235.115	139.56
235.349	141.56
235.583	151.56
235.817	132.56
236.051	149.56
236.285	149.56
236.519	136.56
236.753	144.56
236.987	141.56
237.221	147.56
237.455	143.56
237.689	150.56
237.922	150.56
238.156	143.56
238.39	149.56
238.624	142.56
238.858	148.56
239.091	149.56
239.325	142.56
239.559	165.56
239.793	155.56
240.027	163.56
240.26	160.56
240.494	165.56
240.728	155.56
240.961	165.56
241.195	175.56
241.429	173.56
241.662	158.56
241.896	171.56
242.13	172.56
242.363	165.56
242.597	173.56
242.83	169.56
243.064	182.56
243.298	180.56
243.531	165.56
243.765	169.56
243.998	172.56
244.232	183.56
244.465	179.56
244.699	193.56
244.932	188.56
245.166	189.56
245.399	198.56
245.633	181.56
245.866	189.56
246.099	191.56
246.333	187.56
246.566	205.56
246.8	193.56
247.033	193.56
247.266	183.56
247.5	191.56
247.733	194.56
247.966	206.56
248.2	214.56
248.433	197.56
248.666	204.56
248.899	218.56
249.133	202.56
249.366	209.56
249.599	206.56
249.832	206.56
250.066	228.56
250.299	229.56
250.532	210.56
250.765	216.56
250.998	237.56
251.231	228.56
251.465	218.56
251.698	238.56
251.931	234.56
252.164	233.56
252.397	247.56
252.63	238.56
252.863	235.56
253.096	239.56
253.329	229.56
253.562	241.56
253.795	220.56
254.028	246.56
254.261	259.56
254.494	232.56
254.727	249.56
254.96	209.56
255.193	247.56
255.426	257.56
255.659	243.56
255.892	252.56
256.124	236.56
256.357	249.56
256.59	268.56
256.823	250.56
257.056	257.56
257.289	255.56
257.521	274.56
257.754	249.56
257.987	267.56
258.22	267.56
258.452	266.56
258.685	259.56
258.918	274.56
259.151	254.56
259.383	250.56
259.616	262.56
259.849	257.56
260.081	284.56
260.314	268.56
260.547	276.56
260.779	276.56
261.012	282.56
261.244	257.56
261.477	273.56
261.71	278.56
261.942	282.56
262.175	283.56
262.407	283.56
262.64	304.56
262.872	283.56
263.105	288.56
263.337	290.56
263.57	286.56
263.802	291.56
264.035	269.56
264.267	291.56
264.499	289.56
264.732	298.56
264.964	310.56
265.197	307.56
265.429	298.56
265.661	312.56
265.894	297.56
266.126	297.56
266.358	316.56
266.591	290.56
266.823	307.56
267.055	301.56
267.287	309.56
267.52	306.56
267.752	315.56
267.984	324.56
268.216	317.56
268.448	320.56
268.681	302.56
268.913	317.56
269.145	312.56
269.377	320.56
269.609	334.56
269.841	321.56
270.073	323.56
270.306	317.56
270.538	317.56
270.77	322.56
271.002	321.56
271.234	346.56
271.466	320.56
271.698	305.56
271.93	327.56
272.162	333.56
272.394	354.56
272.626	345.56
272.858	334.56
273.09	314.56
273.322	356.56
273.553	348.56
273.785	349.56
274.017	339.56
274.249	338.56
274.481	353.56
274.713	338.56
274.945	364.56
275.176	355.56
275.408	364.56
275.64	354.56
275.872	355.56
276.104	349.56
276.335	341.56
276.567	345.56
276.799	372.56
277.031	357.56
277.262	352.56
277.494	347.56
277.726	377.56
277.957	363.56
278.189	383.56
278.421	343.56
278.652	365.56
278.884	378.56
279.115	364.56
279.347	359.56
279.579	365.56
279.81	394.56
280.042	385.56
280.273	378.56
280.505	386.56
280.736	383.56
280.968	388.56
281.199	394.56
281.431	399.56
281.662	396.56
281.894	387.56
282.125	393.56
282.356	409.56
282.588	421.56
282.819	412.56
283.051	400.56
283.282	404.56
283.513	393.56
283.745	417.56
283.976	387.56
284.207	401.56
284.439	411.56
284.67	406.56
284.901	397.56
285.132	417.56
285.364	425.56
285.595	399.56
285.826	407.56
286.057	413.56
286.288	424.56
286.52	423.56
286.751	440.56
286.982	430.56
287.213	412.56
287.444	418.56
287.675	421.56
287.906	443.56
288.138	439.56
288.369	459.56
288.6	454.56
288.831	449.56
289.062	440.56
289.293	440.56
289.524	461.56
289.755	439.56
289.986	441.56
290.217	451.56
290.448	442.56
290.679	455.56
290.91	446.56
291.141	460.56
291.371	415.56
291.602	445.56
291.833	435.56
292.064	438.56
292.295	457.56
292.526	439.56
292.757	457.56
292.987	460.56
293.218	456.56
293.449	462.56
293.68	454.56
293.91	461.56
294.141	471.56
294.372	443.56
294.603	452.56
294.833	462.56
295.064	447.56
295.295	481.56
295.525	453.56
295.756	459.56
295.987	469.56
296.217	481.56
296.448	503.56
296.679	462.56
296.909	477.56
297.14	475.56
297.37	463.56
297.601	484.56
297.831	476.56
298.062	474.56
298.292	482.56
298.523	481.56
298.753	498.56
298.984	473.56
299.214	479.56
299.445	485.56
299.675	497.56
299.905	486.56
300.136	487.56
300.366	514.56
300.597	502.56
300.827	483.56
301.057	527.56
301.288	545.56
301.518	508.56
301.748	556.56
301.979	517.56
302.209	524.56
302.439	519.56
302.669	535.56
302.9	530.56
303.13	514.56
303.36	524.56
303.59	507.56
303.82	502.56
304.051	511.56
304.281	514.56
304.511	489.56
304.741	531.56
304.971	513.56
305.201	501.56
305.431	520.56
305.661	505.56
305.891	514.56
306.121	509.56
306.352	535.56
306.582	513.56
306.812	483.56
307.042	522.56
307.272	500.56
307.502	498.56
307.731	519.56
307.961	502.56
308.191	488.56
308.421	493.56
308.651	497.56
308.881	506.56
309.111	503.56
309.341	479.56
309.571	501.56
309.8	501.56
310.03	507.56
310.26	526.56
310.49	529.56
310.72	527.56
310.949	515.56
311.179	514.56
311.409	506.56
311.639	535.56
311.868	512.56
312.098	522.56
312.328	530.56
312.557	527.56
312.787	531.56
313.017	523.56
313.246	545.56
313.476	545.56
313.706	551.56
313.935	556.56
314.165	548.56
314.394	567.56
314.624	551.56
314.853	565.56
315.083	540.56
315.312	568.56
315.542	554.56
315.771	569.56
316.001	535.56
316.23	543.56
316.46	537.56
316.689	535.56
316.919	539.56
317.148	547.56
317.377	533.56
317.607	542.56
317.836	519.56
318.065	550.56
318.295	549.56
318.524	516.56
318.753	520.56
318.983	526.56
319.212	503.56
319.441	530.56
319.67	538.56
319.9	545.56
320.129	558.56
320.358	528.56
320.587	547.56
320.816	532.56
321.046	535.56
321.275	539.56
321.504	552.56
321.733	545.56
321.962	547.56
322.191	551.56
322.42	553.56
322.649	546.56
322.878	543.56
323.108	545.56
323.337	551.56
323.566	582.56
323.795	582.56
324.024	575.56
324.253	570.56
324.482	554.56
324.71	563.56
324.939	571.56
325.168	575.56
325.397	583.56
325.626	567.56
325.855	561.56
326.084	570.56
326.313	599.56
326.542	597.56
326.77	601.56
326.999	607.56
327.228	568.56
327.457	596.56
327.686	571.56
327.914	585.56
328.143	599.56
328.372	604.56
328.6	579.56
328.829	556.56
329.058	591.56
329.287	604.56
329.515	590.56
329.744	575.56
329.972	590.56
330.201	565.56
330.43	585.56
330.658	595.56
330.887	620.56
331.115	602.56
331.344	634.56
331.572	625.56
331.801	628.56
332.03	645.56
332.258	679.56
332.486	704.56
332.715	711.56
332.943	738.56
333.172	730.56
333.4	809.56
333.629	804.56
333.857	821.56
334.085	794.56
334.314	766.56
334.542	753.56
334.771	748.56
334.999	731.56
335.227	726.56
335.455	741.56
335.684	731.56
335.912	738.56
336.14	711.56
336.369	720.56
336.597	746.56
336.825	685.56
337.053	698.56
337.281	701.56
337.51	702.56
337.738	712.56
337.966	670.56
338.194	651.56
338.422	626.56
338.65	645.56
338.878	649.56
339.106	619.56
339.334	674.56
339.562	638.56
339.79	632.56
340.018	619.56
340.246	630.56
340.474	603.56
340.702	630.56
340.93	615.56
341.158	621.56
341.386	623.56
341.614	621.56
341.842	644.56
342.07	628.56
342.298	636.56
342.526	626.56
342.754	634.56
342.981	615.56
343.209	623.56
343.437	651.56
343.665	715.56
343.893	771.56
344.12	777.56
344.348	743.56
344.576	663.56
344.804	675.56
345.031	633.56
345.259	629.56
345.487	633.56
345.714	609.56
345.942	617.56
346.17	629.56
346.397	645.56
346.625	601.56
346.853	578.56
347.08	591.56
347.308	606.56
347.535	598.56
347.763	617.56
347.99	634.56
348.218	603.56
348.445	617.56
348.673	610.56
348.9	567.56
349.128	584.56
349.355	587.56
349.583	596.56
349.81	587.56
350.037	583.56
350.265	599.56
350.492	578.56
350.72	565.56
350.947	575.56
351.174	588.56
351.402	594.56
351.629	606.56
351.856	594.56
352.083	595.56
352.311	601.56
352.538	570.56
352.765	610.56
352.992	589.56
353.22	580.56
353.447	533.56
353.674	554.56
353.901	555.56
354.128	575.56
354.355	578.56
354.583	574.56
354.81	570.56
355.037	561.56
355.264	548.56
355.491	562.56
355.718	555.56
355.945	572.56
356.172	568.56
356.399	568.56
356.626	584.56
356.853	574.56
357.08	572.56
357.307	590.56
357.534	582.56
357.761	548.56
357.988	564.56
358.215	543.56
358.441	571.56
358.668	564.56
358.895	594.56
359.122	570.56
359.349	557.56
359.576	579.56
359.802	579.56
360.029	577.56
360.256	579.56
360.483	579.56
360.709	579.56
360.936	596.56
361.163	575.56
361.39	584.56
361.616	574.56
361.843	568.56
362.07	590.56
362.296	582.56
362.523	583.56
362.749	561.56
362.976	556.56
363.203	558.56
363.429	557.56
363.656	551.56
363.882	546.56
364.109	565.56
364.335	566.56
364.562	551.56
364.788	558.56
365.015	565.56
365.241	572.56
365.468	572.56
365.694	560.56
365.92	564.56
366.147	566.56
366.373	556.56
366.599	574.56
366.826	575.56
367.052	566.56
367.278	567.56
367.505	575.56
367.731	567.56
367.957	565.56
368.184	568.56
368.41	579.56
368.636	567.56
368.862	549.56
369.089	567.56
369.315	579.56
369.541	575.56
369.767	587.56
369.993	607.56
370.219	588.56
370.445	598.56
370.672	598.56
370.898	592.56
371.124	603.56
371.35	611.56
371.576	620.56
371.802	629.56
372.028	646.56
372.254	603.56
372.48	601.56
372.706	614.56
372.932	621.56
373.158	639.56
373.384	606.56
373.61	625.56
373.835	609.56
374.061	624.56
374.287	611.56
374.513	619.56
374.739	641.56
374.965	682.56
375.191	649.56
375.416	662.56
375.642	631.56
375.868	646.56
376.094	636.56
376.319	622.56
376.545	627.56
376.771	612.56
376.997	613.56
377.222	622.56
377.448	609.56
377.674	612.56
377.899	615.56
378.125	607.56
378.35	605.56
378.576	606.56
378.802	596.56
379.027	582.56
379.253	607.56
379.478	598.56
379.704	597.56
379.929	601.56
380.155	595.56
380.38	596.56
380.606	596.56
380.831	597.56
381.057	624.56
381.282	599.56
381.507	576.56
381.733	598.56
381.958	582.56
382.184	613.56
382.409	644.56
382.634	645.56
382.86	629.56
383.085	621.56
383.31	649.56
383.535	661.56
383.761	633.56
383.986	681.56
384.211	673.56
384.436	708.56
384.662	706.56
384.887	735.56
385.112	707.56
385.337	708.56
385.562	721.56
385.787	711.56
386.013	707.56
386.238	730.56
386.463	729.56
386.688	739.56
386.913	718.56
387.138	726.56
387.363	721.56
387.588	727.56
387.813	720.56
388.038	709.56
388.263	699.56
388.488	694.56
388.713	695.56
388.938	690.56
389.163	717.56
389.387	696.56
389.612	721.56
389.837	715.56
390.062	721.56
390.287	707.56
390.512	695.56
390.736	701.56
390.961	719.56
391.186	715.56
391.411	775.56
391.636	801.56
391.86	795.56
392.085	813.56
392.31	818.56
392.534	781.56
392.759	763.56
392.984	748.56
393.208	773.56
393.433	749.56
393.658	783.56
393.882	762.56
394.107	759.56
394.331	772.56
394.556	754.56
394.78	775.56
395.005	795.56
395.229	797.56
395.454	810.56
395.678	809.56
395.903	795.56
396.127	810.56
396.352	797.56
396.576	775.56
396.801	767.56
397.025	786.56
397.249	805.56
397.474	805.56
397.698	810.56
397.922	806.56
398.147	828.56
398.371	830.56
398.595	850.56
398.82	846.56
399.044	945.56
399.268	1071.56
399.492	1213.56
399.717	1364.56
399.941	1337.56
400.165	1191.56
400.389	1067.56
400.613	987.56
400.837	942.56
401.062	960.56
401.286	903.56
401.51	901.56
401.734	923.56
401.958	929.56
402.182	927.56
402.406	935.56
402.63	958.56
402.854	960.56
403.078	980.56
403.302	1011.56
403.526	997.56
403.75	1034.56
403.974	1091.56
404.198	1060.56
404.422	1055.56
404.645	1049.56
404.869	1023.56
405.093	1021.56
405.317	1007.56
405.541	1002.56
405.765	999.56
405.988	986.56
406.212	985.56
406.436	984.56
406.66	1027.56
406.883	1043.56
407.107	1088.56
407.331	1136.56
407.555	1196.56
407.778	1178.56
408.002	1136.56
408.226	1105.56
408.449	1094.56
408.673	1038.56
408.896	1014.56
409.12	1016.56
409.344	1045.56
409.567	995.56
409.791	1007.56
410.014	1011.56
410.238	997.56
410.461	1012.56
410.685	1001.56
410.908	969.56
411.132	957.56
411.355	969.56
411.578	932.56
411.802	923.56
412.025	976.56
412.249	956.56
412.472	947.56
412.695	926.56
412.919	916.56
413.142	885.56
413.365	924.56
413.589	910.56
413.812	909.56
414.035	909.56
414.258	882.56
414.482	941.56
414.705	918.56
414.928	912.56
415.151	934.56
415.374	924.56
415.597	874.56
415.821	888.56
416.044	896.56
416.267	886.56
416.49	854.56
416.713	889.56
416.936	874.56
417.159	893.56
417.382	889.56
417.605	863.56
417.828	895.56
418.051	927.56
418.274	935.56
418.497	926.56
418.72	937.56
418.943	924.56
419.166	980.56
419.389	1015.56
419.611	1015.56
419.834	987.56
420.057	973.56
420.28	910.56
420.503	874.56
420.726	879.56
420.948	914.56
421.171	911.56
421.394	892.56
421.617	902.56
421.839	888.56
422.062	922.56
422.285	897.56
422.507	917.56
422.73	957.56
422.953	922.56
423.175	955.56
423.398	957.56
423.621	952.56
423.843	983.56
424.066	963.56
424.288	967.56
424.511	916.56
424.733	965.56
424.956	918.56
425.178	938.56
425.401	934.56
425.623	909.56
425.846	859.56
426.068	879.56
426.291	890.56
426.513	855.56
426.735	828.56
426.958	861.56
427.18	828.56
427.402	862.56
427.625	854.56
427.847	824.56
428.069	821.56
428.292	834.56
428.514	827.56
428.736	827.56
428.958	819.56
429.181	799.56
429.403	823.56
429.625	789.56
429.847	810.56
430.069	808.56
430.292	794.56
430.514	778.56
430.736	786.56
430.958	799.56
431.18	805.56
431.402	818.56
431.624	817.56
431.846	807.56
432.068	841.56
432.29	839.56
432.512	797.56
432.734	825.56
432.956	832.56
433.178	834.56
433.4	814.56
433.622	824.56
433.844	835.56
434.066	839.56
434.287	849.56
434.509	856.56
434.731	903.56
434.953	923.56
435.175	941.56
435.397	917.56
435.618	861.56
435.84	857.56
436.062	826.56
436.284	829.56
436.505	822.56
436.727	834.56
436.949	787.56
437.17	825.56
437.392	820.56
437.614	784.56
437.835	793.56
438.057	770.56
438.278	768.56
438.5	780.56
438.721	813.56
438.943	786.56
439.165	793.56
439.386	803.56
439.608	826.56
439.829	824.56
440.05	831.56
440.272	841.56
440.493	849.56
440.715	858.56
440.936	845.56
441.158	850.56
441.379	898.56
441.6	911.56
441.822	964.56
442.043	948.56
442.264	947.56
442.486	911.56
442.707	928.56
442.928	892.56
443.149	888.56
443.371	911.56
443.592	909.56
443.813	945.56
444.034	942.56
444.255	977.56
444.476	999.56
444.698	1044.56
444.919	1128.56
445.14	1172.56
445.361	1015.56
445.582	959.56
445.803	917.56
446.024	869.56
446.245	873.56
446.466	863.56
446.687	853.56
446.908	843.56
447.129	835.56
447.35	810.56
447.571	799.56
447.792	755.56
448.013	775.56
448.234	779.56
448.455	782.56
448.675	751.56
448.896	782.56
449.117	761.56
449.338	742.56
449.559	740.56
449.779	758.56
450	755.56
450.221	767.56
450.442	766.56
450.662	770.56
450.883	790.56
451.104	783.56
451.324	798.56
451.545	775.56
451.766	783.56
451.986	767.56
452.207	771.56
452.428	784.56
452.648	748.56
452.869	740.56
453.089	745.56
453.31	747.56
453.53	727.56
453.751	744.56
453.971	720.56
454.192	730.56
454.412	731.56
454.633	732.56
454.853	742.56
455.073	723.56
455.294	733.56
455.514	717.56
455.734	717.56
455.955	693.56
456.175	707.56
456.395	690.56
456.616	694.56
456.836	721.56
457.056	710.56
457.276	682.56
457.497	734.56
457.717	682.56
457.937	733.56
458.157	708.56
458.377	730.56
458.598	727.56
458.818	766.56
459.038	780.56
459.258	803.56
459.478	841.56
459.698	860.56
459.918	895.56
460.138	903.56
460.358	958.56
460.578	973.56
460.798	987.56
461.018	1003.56
461.238	992.56
461.458	969.56
461.678	981.56
461.898	1019.56
462.118	966.56
462.338	1027.56
462.558	1067.56
462.777	1117.56
462.997	1205.56
463.217	1308.56
463.437	1293.56
463.657	1183.56
463.876	1111.56
464.096	1121.56
464.316	1114.56
464.536	1142.56
464.755	1081.56
464.975	1064.56
465.195	1003.56
465.414	958.56
465.634	895.56
465.854	879.56
466.073	862.56
466.293	842.56
466.512	827.56
466.732	822.56
466.951	812.56
467.171	804.56
467.391	803.56
467.61	800.56
467.829	796.56
468.049	791.56
468.268	787.56
468.488	759.56
468.707	787.56
468.927	797.56
469.146	798.56
469.365	779.56
469.585	772.56
469.804	797.56
470.023	800.56
470.243	843.56
470.462	838.56
470.681	838.56
470.901	845.56
471.12	808.56
471.339	800.56
471.558	795.56
471.777	787.56
471.997	791.56
472.216	762.56
472.435	754.56
472.654	763.56
472.873	775.56
473.092	789.56
473.311	775.56
473.53	750.56
473.749	748.56
473.968	738.56
474.187	747.56
474.406	745.56
474.625	750.56
474.844	744.56
475.063	760.56
475.282	765.56
475.501	744.56
475.72	748.56
475.939	770.56
476.158	783.56
476.377	787.56
476.596	766.56
476.814	802.56
477.033	788.56
477.252	823.56
477.471	819.56
477.69	839.56
477.908	860.56
478.127	876.56
478.346	895.56
478.564	909.56
478.783	920.56
479.002	921.56
479.22	967.56
479.439	982.56
479.658	926.56
479.876	934.56
480.095	950.56
480.313	1001.56
480.532	1014.56
480.751	997.56
480.969	932.56
481.188	923.56
481.406	897.56
481.624	893.56
481.843	894.56
482.061	858.56
482.28	869.56
482.498	867.56
482.717	846.56
482.935	858.56
483.153	859.56
483.372	866.56
483.59	858.56
483.808	859.56
484.027	865.56
484.245	845.56
484.463	890.56
484.681	889.56
484.9	886.56
485.118	876.56
485.336	890.56
485.554	917.56
485.772	898.56
485.99	908.56
486.209	905.56
486.427	896.56
486.645	933.56
486.863	909.56
487.081	920.56
487.299	905.56
487.517	903.56
487.735	913.56
487.953	914.56
488.171	898.56
488.389	893.56
488.607	900.56
488.825	867.56
489.043	880.56
489.261	866.56
489.479	902.56
489.696	891.56
489.914	893.56
490.132	900.56
490.35	897.56
490.568	885.56
490.786	929.56
491.003	918.56
491.221	908.56
491.439	926.56
491.657	909.56
491.874	910.56
492.092	933.56
492.31	903.56
492.527	934.56
492.745	938.56
492.963	943.56
493.18	961.56
493.398	974.56
493.615	975.56
493.833	958.56
494.05	1001.56
494.268	952.56
494.485	970.56
494.703	962.56
494.92	959.56
495.138	950.56
495.355	945.56
495.573	997.56
495.79	985.56
496.008	1002.56
496.225	1003.56
496.442	998.56
496.66	1015.56
496.877	1006.56
497.094	1009.56
497.312	1047.56
497.529	1056.56
497.746	1119.56
497.963	1105.56
498.181	1143.56
498.398	1213.56
498.615	1253.56
498.832	1387.56
499.049	1496.56
499.267	1559.56
499.484	1735.56
499.701	1942.56
499.918	2117.56
500.135	2381.56
500.352	2749.56
500.569	2851.56
500.786	2858.56
501.003	2643.56
501.22	2361.56
501.437	2077.56
501.654	1831.56
501.871	1690.56
502.088	1522.56
502.305	1457.56
502.522	1372.56
502.739	1355.56
502.956	1266.56
503.172	1207.56
503.389	1143.56
503.606	1122.56
503.823	1087.56
504.04	1094.56
504.256	1084.56
504.473	1119.56
504.69	1166.56
504.907	1131.56
505.123	1056.56
505.34	980.56
505.557	980.56
505.773	919.56
505.99	915.56
506.207	887.56
506.423	876.56
506.64	843.56
506.856	874.56
507.073	860.56
507.289	853.56
507.506	833.56
507.722	824.56
507.939	814.56
508.155	821.56
508.372	809.56
508.588	795.56
508.805	814.56
509.021	808.56
509.238	794.56
509.454	786.56
509.67	759.56
509.887	775.56
510.103	793.56
510.319	778.56
510.536	762.56
510.752	757.56
510.968	769.56
511.184	770.56
511.401	755.56
511.617	790.56
511.833	773.56
512.049	749.56
512.265	756.56
512.481	787.56
512.698	748.56
512.914	769.56
513.13	753.56
513.346	769.56
513.562	764.56
513.778	765.56
513.994	771.56
514.21	767.56
514.426	780.56
514.642	777.56
514.858	792.56
515.074	789.56
515.29	773.56
515.506	811.56
515.721	814.56
515.937	801.56
516.153	855.56
516.369	843.56
516.585	884.56
516.801	909.56
517.016	966.56
517.232	1013.56
517.448	1045.56
517.664	1051.56
517.879	1079.56
518.095	1059.56
518.311	1077.56
518.527	994.56
518.742	919.56
518.958	910.56
519.173	874.56
519.389	872.56
519.605	835.56
519.82	839.56
520.036	820.56
520.251	786.56
520.467	774.56
520.682	770.56
520.898	802.56
521.113	762.56
521.329	766.56
521.544	735.56
521.76	735.56
521.975	733.56
522.19	746.56
522.406	721.56
522.621	739.56
522.836	721.56
523.052	716.56
523.267	705.56
523.482	711.56
523.698	736.56
523.913	708.56
524.128	702.56
524.343	700.56
524.559	730.56
524.774	715.56
524.989	718.56
525.204	706.56
525.419	681.56
525.634	690.56
525.849	680.56
526.064	681.56
526.28	691.56
526.495	701.56
526.71	675.56
526.925	685.56
527.14	691.56
527.355	669.56
527.57	679.56
527.785	663.56
527.999	678.56
528.214	670.56
528.429	685.56
528.644	691.56
528.859	713.56
529.074	678.56
529.289	705.56
529.503	705.56
529.718	695.56
529.933	689.56
530.148	678.56
530.363	678.56
530.577	682.56
530.792	671.56
531.007	680.56
531.221	691.56
531.436	695.56
531.651	671.56
531.865	665.56
532.08	685.56
532.295	676.56
532.509	669.56
532.724	676.56
532.938	676.56
533.153	669.56
533.367	691.56
533.582	689.56
533.796	677.56
534.011	676.56
534.225	679.56
534.44	678.56
534.654	674.56
534.868	661.56
535.083	652.56
535.297	674.56
535.511	665.56
535.726	661.56
535.94	639.56
536.154	644.56
536.369	640.56
536.583	641.56
536.797	661.56
537.011	665.56
537.225	627.56
537.44	620.56
537.654	603.56
537.868	611.56
538.082	639.56
538.296	621.56
538.51	609.56
538.724	623.56
538.938	637.56
539.153	621.56
539.367	612.56
539.581	629.56
539.795	621.56
540.009	645.56
540.222	617.56
540.436	600.56
540.65	629.56
540.864	589.56
541.078	617.56
541.292	628.56
541.506	631.56
541.72	605.56
541.934	631.56
542.147	623.56
542.361	634.56
542.575	627.56
542.789	628.56
543.002	622.56
543.216	613.56
543.43	605.56
543.644	618.56
543.857	631.56
544.071	620.56
544.285	645.56
544.498	661.56
544.712	622.56
544.925	620.56
545.139	633.56
545.352	651.56
545.566	627.56
545.779	635.56
545.993	644.56
546.206	633.56
546.42	644.56
546.633	634.56
546.847	635.56
547.06	649.56
547.274	626.56
547.487	623.56
547.7	627.56
547.914	625.56
548.127	645.56
548.34	650.56
548.554	643.56
548.767	658.56
548.98	638.56
549.193	631.56
549.407	620.56
549.62	663.56
549.833	678.56
550.046	647.56
550.259	643.56
550.473	644.56
550.686	626.56
550.899	631.56
551.112	630.56
551.325	604.56
551.538	631.56
551.751	622.56
551.964	641.56
552.177	644.56
552.39	623.56
552.603	656.56
552.816	655.56
553.029	683.56
553.242	699.56
553.455	699.56
553.667	678.56
553.88	681.56
554.093	699.56
554.306	663.56
554.519	635.56
554.732	633.56
554.944	611.56
555.157	613.56
555.37	599.56
555.583	602.56
555.795	606.56
556.008	580.56
556.221	576.56
556.433	547.56
556.646	573.56
556.859	554.56
557.071	567.56
557.284	537.56
557.496	563.56
557.709	566.56
557.921	551.56
558.134	563.56
558.346	526.56
558.559	535.56
558.771	526.56
558.984	531.56
559.196	526.56
559.409	520.56
559.621	509.56
559.833	535.56
560.046	515.56
560.258	517.56
560.47	536.56
560.683	532.56
560.895	502.56
561.107	535.56
561.32	522.56
561.532	519.56
561.744	516.56
561.956	524.56
562.168	522.56
562.381	515.56
562.593	519.56
562.805	521.56
563.017	524.56
563.229	527.56
563.441	535.56
563.653	540.56
563.865	526.56
564.077	559.56
564.289	550.56
564.501	574.56
564.713	564.56
564.925	579.56
565.137	581.56
565.349	613.56
565.561	609.56
565.773	617.56
565.985	631.56
566.197	682.56
566.408	708.56
566.62	773.56
566.832	836.56
567.044	879.56
567.255	826.56
567.467	872.56
567.679	906.56
567.891	997.56
568.102	993.56
568.314	955.56
568.526	842.56
568.737	790.56
568.949	731.56
569.161	635.56
569.372	600.56
569.584	613.56
569.795	575.56
570.007	551.56
570.218	559.56
570.43	543.56
570.641	543.56
570.853	520.56
571.064	550.56
571.276	548.56
571.487	523.56
571.698	495.56
571.91	485.56
572.121	486.56
572.333	481.56
572.544	478.56
572.755	451.56
572.966	449.56
573.178	437.56
573.389	427.56
573.6	450.56
573.811	423.56
574.023	439.56
574.234	437.56
574.445	425.56
574.656	426.56
574.867	444.56
575.078	429.56
575.289	429.56
575.501	422.56
575.712	415.56
575.923	403.56
576.134	405.56
576.345	413.56
576.556	414.56
576.767	403.56
576.978	430.56
577.188	392.56
577.399	393.56
577.61	384.56
577.821	391.56
578.032	404.56
578.243	391.56
578.454	397.56
578.665	385.56
578.875	387.56
579.086	409.56
579.297	382.56
579.508	385.56
579.718	382.56
579.929	387.56
580.14	370.56
580.35	370.56
580.561	374.56
580.772	357.56
580.982	364.56
581.193	375.56
581.403	362.56
581.614	371.56
581.825	377.56
582.035	374.56
582.246	387.56
582.456	371.56
582.667	369.56
582.877	347.56
583.087	339.56
583.298	370.56
583.508	367.56
583.719	331.56
583.929	365.56
584.139	369.56
584.35	353.56
584.56	371.56
584.77	356.56
584.981	359.56
585.191	363.56
585.401	347.56
585.611	341.56
585.821	357.56
586.032	350.56
586.242	347.56
586.452	355.56
586.662	345.56
586.872	337.56
587.082	332.56
587.292	357.56
587.502	343.56
587.713	339.56
587.923	332.56
588.133	350.56
588.343	349.56
588.553	344.56
588.762	355.56
588.972	355.56
589.182	395.56
589.392	376.56
589.602	341.56
589.812	389.56
590.022	377.56
590.232	350.56
590.441	353.56
590.651	349.56
590.861	339.56
591.071	338.56
591.281	364.56
591.49	366.56
591.7	357.56
591.91	385.56
592.119	367.56
592.329	366.56
592.539	399.56
592.748	411.56
592.958	432.56
593.167	441.56
593.377	419.56
593.587	434.56
593.796	424.56
594.006	433.56
594.215	473.56
594.424	458.56
594.634	414.56
594.843	409.56
595.053	385.56
595.262	400.56
595.472	378.56
595.681	381.56
595.89	349.56
596.1	349.56
596.309	355.56
596.518	342.56
596.727	336.56
596.937	328.56
597.146	324.56
597.355	322.56
597.564	306.56
597.774	309.56
597.983	313.56
598.192	317.56
598.401	308.56
598.61	302.56
598.819	313.56
599.028	307.56
599.237	316.56
599.446	289.56
599.655	301.56
599.864	308.56
600.073	306.56
600.282	291.56
600.491	300.56
600.7	285.56
600.909	290.56
601.118	289.56
601.327	284.56
601.536	296.56
601.745	309.56
601.953	292.56
602.162	299.56
602.371	274.56
602.58	283.56
602.789	292.56
602.997	286.56
603.206	287.56
603.415	271.56
603.623	280.56
603.832	298.56
604.041	309.56
604.249	285.56
604.458	279.56
604.666	285.56
604.875	261.56
605.084	290.56
605.292	265.56
605.501	278.56
605.709	275.56
605.918	270.56
606.126	251.56
606.334	259.56
606.543	270.56
606.751	269.56
606.96	277.56
607.168	267.56
607.376	257.56
607.585	284.56
607.793	278.56
608.001	278.56
608.21	265.56
608.418	245.56
608.626	265.56
608.834	264.56
609.043	276.56
609.251	271.56
609.459	266.56
609.667	263.56
609.875	247.56
610.083	233.56
610.291	265.56
610.499	268.56
610.707	262.56
610.916	246.56
611.124	271.56
611.332	248.56
611.54	257.56
611.748	247.56
611.955	255.56
612.163	279.56
612.371	258.56
612.579	258.56
612.787	254.56
612.995	262.56
613.203	251.56
613.411	254.56
613.618	249.56
613.826	267.56
614.034	271.56
614.242	250.56
614.449	257.56
614.657	235.56
614.865	246.56
615.072	262.56
615.28	244.56
615.488	269.56
615.695	243.56
615.903	236.56
616.111	250.56
616.318	262.56
616.526	268.56
616.733	266.56
616.941	255.56
617.148	249.56
617.356	255.56
617.563	250.56
617.771	259.56
617.978	249.56
618.185	247.56
618.393	245.56
618.6	223.56
618.807	260.56
619.015	234.56
619.222	263.56
619.429	269.56
619.637	241.56
619.844	236.56
620.051	230.56
620.258	238.56
620.466	231.56
620.673	232.56
620.88	234.56
621.087	237.56
621.294	237.56
621.501	237.56
621.708	234.56
621.915	243.56
622.122	229.56
622.329	230.56
622.536	241.56
622.743	239.56
622.95	216.56
623.157	238.56
623.364	231.56
623.571	243.56
623.778	227.56
623.985	228.56
624.192	227.56
624.399	251.56
624.606	233.56
624.812	211.56
625.019	238.56
625.226	231.56
625.433	229.56
625.639	213.56
625.846	231.56
626.053	202.56
626.259	220.56
626.466	220.56
626.673	224.56
626.879	221.56
627.086	223.56
627.293	198.56
627.499	227.56
627.706	203.56
627.912	213.56
628.119	219.56
628.325	217.56
628.532	220.56
628.738	206.56
628.945	212.56
629.151	219.56
629.357	204.56
629.564	199.56
629.77	214.56
629.976	206.56
630.183	189.56
630.389	197.56
630.595	204.56
630.802	195.56
631.008	198.56
631.214	195.56
631.42	199.56
631.627	204.56
631.833	193.56
632.039	204.56
632.245	212.56
632.451	197.56
632.657	201.56
632.863	201.56
633.069	203.56
633.275	209.56
633.481	181.56
633.688	186.56
633.893	177.56
634.099	188.56
634.305	187.56
634.511	180.56
634.717	206.56
634.923	183.56
635.129	203.56
635.335	188.56
635.541	197.56
635.747	187.56
635.952	194.56
636.158	191.56
636.364	202.56
636.57	181.56
636.775	193.56
636.981	195.56
637.187	169.56
637.392	184.56
637.598	190.56
637.804	187.56
638.009	177.56
638.215	173.56
638.421	183.56
638.626	187.56
638.832	205.56
639.037	186.56
639.243	183.56
639.448	180.56
639.654	169.56
639.859	174.56
640.065	190.56
640.27	195.56
640.475	172.56
640.681	187.56
640.886	177.56
641.091	176.56
641.297	190.56
641.502	179.56
641.707	170.56
641.913	174.56
642.118	181.56
642.323	173.56
642.528	190.56
642.733	167.56
642.939	173.56
643.144	180.56
643.349	187.56
643.554	182.56
643.759	182.56
643.964	169.56
644.169	174.56
644.374	169.56
644.579	194.56
644.784	179.56
644.989	168.56
645.194	163.56
645.399	181.56
645.604	171.56
645.809	178.56
646.014	169.56
646.219	179.56
646.423	155.56
646.628	168.56
646.833	168.56
647.038	173.56
647.243	189.56
647.447	179.56
647.652	183.56
647.857	184.56
648.062	184.56
648.266	178.56
648.471	184.56
648.676	178.56
648.88	177.56
649.085	157.56
649.289	179.56
649.494	165.56
649.698	173.56
649.903	165.56
650.107	155.56
650.312	159.56
650.516	179.56
650.721	166.56
650.925	172.56
651.13	170.56
651.334	159.56
651.539	152.56
651.743	142.56
651.947	165.56
652.152	163.56
652.356	147.56
652.56	157.56
652.764	159.56
652.969	148.56
653.173	139.56
653.377	141.56
653.581	145.56
653.785	134.56
653.99	146.56
654.194	127.56
654.398	135.56
654.602	133.56
654.806	146.56
655.01	125.56
655.214	138.56
655.418	137.56
655.622	139.56
655.826	134.56
656.03	140.56
656.234	151.56
656.438	143.56
656.642	142.56
656.846	126.56
657.049	119.56
657.253	126.56
657.457	126.56
657.661	123.56
657.865	117.56
658.068	105.56
658.272	116.56
658.476	98.56
658.68	107.56
658.883	115.56
659.087	111.56
659.291	107.56
659.494	97.56
659.698	92.56
659.901	102.56
660.105	102.56
660.309	102.56
660.512	90.56
660.716	97.56
660.919	81.56
661.123	99.56
661.326	102.56
661.53	104.56
661.733	83.56
661.936	85.56
662.14	94.56
662.343	98.56
662.546	86.56
662.75	91.56
662.953	76.56
663.156	73.56
663.36	89.56
663.563	98.56
663.766	90.56
663.969	73.56
664.173	79.56
664.376	77.56
664.579	84.56
664.782	85.56
664.985	89.56
665.188	83.56
665.391	70.56
665.594	75.56
665.797	80.56
666	77.56
666.203	93.56
666.406	92.56
666.609	84.56
666.812	108.56
667.015	81.56
667.218	88.56
667.421	84.56
667.624	88.56
667.827	84.56
668.03	100.56
668.232	79.56
668.435	97.56
668.638	82.56
668.841	85.56
669.043	82.56
669.246	95.56
669.449	81.56
669.651	83.56
669.854	73.56
670.057	76.56
670.259	82.56
670.462	79.56
670.665	87.56
670.867	89.56
671.07	92.56
671.272	85.56
671.475	77.56
671.677	86.56
671.88	75.56
672.082	94.56
672.284	80.56
672.487	76.56
672.689	73.56
672.892	84.56
