Data from NiCl2@0.125M.TitratingCurve.Agarose3%dH2O.NegLispCup.LampEnergy10.LIBS07252019_HRD10591_18-29-04-574.txt Node
Date: Thu Jul 25 18:29:04 EDT 2019
User: cochatt
Spectrometer: HR+D1059
Trigger mode: 1
Integration Time (sec): 1.000000E-1
Scans to average: 1
Electric dark correction enabled: true
Nonlinearity correction enabled: false
Boxcar width: 0
XAxis mode: Wavelengths
Number of Pixels in Spectrum: 2048
>>>>>Begin Spectral Data<<<<<
223.165	-14.69
223.4	-14.69
223.635	-14.69
223.869	-14.69
224.104	-26.69
224.338	-16.69
224.573	-14.69
224.808	-19.69
225.042	-0.69
225.277	5.31
225.511	6.31
225.746	6.31
225.98	-6.69
226.215	10.31
226.449	19.31
226.683	0.31
226.918	23.31
227.152	43.31
227.387	28.31
227.621	34.31
227.856	44.31
228.09	43.31
228.324	52.31
228.559	60.31
228.793	53.31
229.027	113.31
229.262	116.31
229.496	115.31
229.73	116.31
229.964	119.31
230.199	113.31
230.433	128.31
230.667	139.31
230.901	135.31
231.136	143.31
231.37	128.31
231.604	138.31
231.838	121.31
232.072	147.31
232.306	157.31
232.541	144.31
232.775	133.31
233.009	134.31
233.243	167.31
233.477	136.31
233.711	162.31
233.945	159.31
234.179	156.31
234.413	137.31
234.647	155.31
234.881	157.31
235.115	139.31
235.349	139.31
235.583	161.31
235.817	168.31
236.051	160.31
236.285	158.31
236.519	168.31
236.753	147.31
236.987	155.31
237.221	142.31
237.455	162.31
237.689	170.31
237.922	161.31
238.156	171.31
238.39	162.31
238.624	170.31
238.858	167.31
239.091	185.31
239.325	179.31
239.559	180.31
239.793	190.31
240.027	178.31
240.26	186.31
240.494	184.31
240.728	175.31
240.961	188.31
241.195	194.31
241.429	193.31
241.662	168.31
241.896	199.31
242.13	193.31
242.363	192.31
242.597	204.31
242.83	206.31
243.064	195.31
243.298	208.31
243.531	199.31
243.765	203.31
243.998	208.31
244.232	208.31
244.465	211.31
244.699	209.31
244.932	219.31
245.166	217.31
245.399	211.31
245.633	210.31
245.866	230.31
246.099	209.31
246.333	228.31
246.566	214.31
246.8	234.31
247.033	239.31
247.266	232.31
247.5	232.31
247.733	227.31
247.966	224.31
248.2	246.31
248.433	244.31
248.666	242.31
248.899	239.31
249.133	236.31
249.366	238.31
249.599	248.31
249.832	248.31
250.066	233.31
250.299	247.31
250.532	262.31
250.765	256.31
250.998	265.31
251.231	251.31
251.465	252.31
251.698	291.31
251.931	265.31
252.164	256.31
252.397	280.31
252.63	268.31
252.863	276.31
253.096	279.31
253.329	279.31
253.562	285.31
253.795	273.31
254.028	291.31
254.261	280.31
254.494	279.31
254.727	279.31
254.96	285.31
255.193	272.31
255.426	289.31
255.659	299.31
255.892	285.31
256.124	295.31
256.357	306.31
256.59	296.31
256.823	303.31
257.056	307.31
257.289	313.31
257.521	291.31
257.754	295.31
257.987	296.31
258.22	298.31
258.452	296.31
258.685	309.31
258.918	324.31
259.151	309.31
259.383	289.31
259.616	323.31
259.849	319.31
260.081	308.31
260.314	326.31
260.547	322.31
260.779	317.31
261.012	315.31
261.244	321.31
261.477	305.31
261.71	330.31
261.942	335.31
262.175	321.31
262.407	331.31
262.64	321.31
262.872	338.31
263.105	327.31
263.337	344.31
263.57	341.31
263.802	332.31
264.035	340.31
264.267	347.31
264.499	334.31
264.732	348.31
264.964	362.31
265.197	362.31
265.429	356.31
265.661	354.31
265.894	356.31
266.126	363.31
266.358	350.31
266.591	364.31
266.823	373.31
267.055	368.31
267.287	362.31
267.52	363.31
267.752	367.31
267.984	379.31
268.216	371.31
268.448	389.31
268.681	372.31
268.913	375.31
269.145	376.31
269.377	370.31
269.609	379.31
269.841	361.31
270.073	372.31
270.306	379.31
270.538	383.31
270.77	378.31
271.002	385.31
271.234	369.31
271.466	386.31
271.698	389.31
271.93	383.31
272.162	390.31
272.394	399.31
272.626	398.31
272.858	391.31
273.09	387.31
273.322	401.31
273.553	391.31
273.785	387.31
274.017	368.31
274.249	434.31
274.481	438.31
274.713	408.31
274.945	413.31
275.176	418.31
275.408	428.31
275.64	442.31
275.872	429.31
276.104	414.31
276.335	423.31
276.567	443.31
276.799	419.31
277.031	430.31
277.262	427.31
277.494	422.31
277.726	424.31
277.957	432.31
278.189	438.31
278.421	435.31
278.652	431.31
278.884	456.31
279.115	419.31
279.347	446.31
279.579	447.31
279.81	450.31
280.042	434.31
280.273	444.31
280.505	466.31
280.736	455.31
280.968	457.31
281.199	450.31
281.431	444.31
281.662	472.31
281.894	453.31
282.125	465.31
282.356	469.31
282.588	459.31
282.819	472.31
283.051	479.31
283.282	472.31
283.513	474.31
283.745	486.31
283.976	477.31
284.207	501.31
284.439	478.31
284.67	489.31
284.901	487.31
285.132	494.31
285.364	492.31
285.595	500.31
285.826	496.31
286.057	481.31
286.288	502.31
286.52	501.31
286.751	477.31
286.982	498.31
287.213	521.31
287.444	505.31
287.675	528.31
287.906	500.31
288.138	495.31
288.369	501.31
288.6	529.31
288.831	533.31
289.062	519.31
289.293	540.31
289.524	522.31
289.755	509.31
289.986	519.31
290.217	510.31
290.448	513.31
290.679	528.31
290.91	528.31
291.141	516.31
291.371	540.31
291.602	525.31
291.833	515.31
292.064	524.31
292.295	520.31
292.526	522.31
292.757	520.31
292.987	532.31
293.218	523.31
293.449	566.31
293.68	523.31
293.91	539.31
294.141	541.31
294.372	540.31
294.603	518.31
294.833	523.31
295.064	543.31
295.295	548.31
295.525	548.31
295.756	570.31
295.987	533.31
296.217	552.31
296.448	536.31
296.679	544.31
296.909	560.31
297.14	563.31
297.37	594.31
297.601	593.31
297.831	577.31
298.062	600.31
298.292	573.31
298.523	593.31
298.753	599.31
298.984	591.31
299.214	588.31
299.445	567.31
299.675	574.31
299.905	577.31
300.136	571.31
300.366	612.31
300.597	594.31
300.827	602.31
301.057	586.31
301.288	608.31
301.518	603.31
301.748	591.31
301.979	617.31
302.209	632.31
302.439	605.31
302.669	602.31
302.9	584.31
303.13	590.31
303.36	586.31
303.59	570.31
303.82	593.31
304.051	608.31
304.281	594.31
304.511	604.31
304.741	586.31
304.971	586.31
305.201	595.31
305.431	586.31
305.661	588.31
305.891	603.31
306.121	587.31
306.352	589.31
306.582	575.31
306.812	579.31
307.042	570.31
307.272	563.31
307.502	566.31
307.731	594.31
307.961	558.31
308.191	582.31
308.421	558.31
308.651	566.31
308.881	580.31
309.111	595.31
309.341	577.31
309.571	572.31
309.8	573.31
310.03	562.31
310.26	552.31
310.49	543.31
310.72	592.31
310.949	601.31
311.179	582.31
311.409	581.31
311.639	587.31
311.868	563.31
312.098	585.31
312.328	597.31
312.557	614.31
312.787	592.31
313.017	604.31
313.246	612.31
313.476	627.31
313.706	615.31
313.935	616.31
314.165	633.31
314.394	607.31
314.624	632.31
314.853	645.31
315.083	596.31
315.312	627.31
315.542	601.31
315.771	612.31
316.001	624.31
316.23	561.31
316.46	601.31
316.689	613.31
316.919	591.31
317.148	604.31
317.377	612.31
317.607	588.31
317.836	599.31
318.065	588.31
318.295	601.31
318.524	605.31
318.753	578.31
318.983	586.31
319.212	589.31
319.441	587.31
319.67	601.31
319.9	604.31
320.129	595.31
320.358	593.31
320.587	602.31
320.816	598.31
321.046	594.31
321.275	617.31
321.504	611.31
321.733	594.31
321.962	603.31
322.191	608.31
322.42	599.31
322.649	611.31
322.878	602.31
323.108	571.31
323.337	596.31
323.566	600.31
323.795	619.31
324.024	606.31
324.253	620.31
324.482	621.31
324.71	624.31
324.939	635.31
325.168	613.31
325.397	618.31
325.626	633.31
325.855	635.31
326.084	660.31
326.313	683.31
326.542	671.31
326.77	683.31
326.999	652.31
327.228	639.31
327.457	669.31
327.686	657.31
327.914	660.31
328.143	654.31
328.372	672.31
328.6	658.31
328.829	650.31
329.058	652.31
329.287	667.31
329.515	663.31
329.744	656.31
329.972	641.31
330.201	661.31
330.43	676.31
330.658	660.31
330.887	700.31
331.115	710.31
331.344	692.31
331.572	709.31
331.801	746.31
332.03	727.31
332.258	745.31
332.486	778.31
332.715	790.31
332.943	849.31
333.172	843.31
333.4	877.31
333.629	932.31
333.857	909.31
334.085	887.31
334.314	886.31
334.542	879.31
334.771	859.31
334.999	836.31
335.227	819.31
335.455	823.31
335.684	823.31
335.912	801.31
336.14	787.31
336.369	791.31
336.597	801.31
336.825	792.31
337.053	804.31
337.281	777.31
337.51	765.31
337.738	755.31
337.966	715.31
338.194	736.31
338.422	721.31
338.65	693.31
338.878	712.31
339.106	717.31
339.334	730.31
339.562	739.31
339.79	675.31
340.018	657.31
340.246	691.31
340.474	652.31
340.702	671.31
340.93	703.31
341.158	707.31
341.386	713.31
341.614	703.31
341.842	677.31
342.07	677.31
342.298	667.31
342.526	647.31
342.754	665.31
342.981	663.31
343.209	687.31
343.437	713.31
343.665	800.31
343.893	797.31
344.12	865.31
344.348	859.31
344.576	773.31
344.804	749.31
345.031	718.31
345.259	721.31
345.487	679.31
345.714	684.31
345.942	676.31
346.17	681.31
346.397	655.31
346.625	666.31
346.853	681.31
347.08	673.31
347.308	652.31
347.535	669.31
347.763	697.31
347.99	677.31
348.218	695.31
348.445	705.31
348.673	671.31
348.9	664.31
349.128	659.31
349.355	659.31
349.583	649.31
349.81	635.31
350.037	648.31
350.265	660.31
350.492	639.31
350.72	639.31
350.947	636.31
351.174	645.31
351.402	624.31
351.629	643.31
351.856	634.31
352.083	639.31
352.311	666.31
352.538	650.31
352.765	610.31
352.992	628.31
353.22	632.31
353.447	614.31
353.674	631.31
353.901	597.31
354.128	629.31
354.355	621.31
354.583	633.31
354.81	653.31
355.037	640.31
355.264	623.31
355.491	640.31
355.718	664.31
355.945	651.31
356.172	666.31
356.399	647.31
356.626	625.31
356.853	629.31
357.08	663.31
357.307	632.31
357.534	664.31
357.761	648.31
357.988	630.31
358.215	632.31
358.441	634.31
358.668	649.31
358.895	636.31
359.122	610.31
359.349	632.31
359.576	632.31
359.802	643.31
360.029	624.31
360.256	657.31
360.483	621.31
360.709	625.31
360.936	653.31
361.163	628.31
361.39	643.31
361.616	627.31
361.843	624.31
362.07	656.31
362.296	637.31
362.523	632.31
362.749	620.31
362.976	617.31
363.203	634.31
363.429	629.31
363.656	644.31
363.882	613.31
364.109	623.31
364.335	623.31
364.562	633.31
364.788	632.31
365.015	629.31
365.241	634.31
365.468	594.31
365.694	618.31
365.92	623.31
366.147	629.31
366.373	634.31
366.599	615.31
366.826	624.31
367.052	621.31
367.278	629.31
367.505	647.31
367.731	620.31
367.957	614.31
368.184	635.31
368.41	636.31
368.636	660.31
368.862	655.31
369.089	649.31
369.315	647.31
369.541	655.31
369.767	643.31
369.993	647.31
370.219	634.31
370.445	678.31
370.672	675.31
370.898	677.31
371.124	680.31
371.35	698.31
371.576	689.31
371.802	697.31
372.028	673.31
372.254	709.31
372.48	668.31
372.706	695.31
372.932	728.31
373.158	709.31
373.384	717.31
373.61	672.31
373.835	700.31
374.061	699.31
374.287	706.31
374.513	724.31
374.739	719.31
374.965	764.31
375.191	782.31
375.416	787.31
375.642	760.31
375.868	748.31
376.094	717.31
376.319	727.31
376.545	696.31
376.771	676.31
376.997	685.31
377.222	707.31
377.448	694.31
377.674	713.31
377.899	679.31
378.125	672.31
378.35	689.31
378.576	655.31
378.802	709.31
379.027	701.31
379.253	693.31
379.478	681.31
379.704	675.31
379.929	687.31
380.155	682.31
380.38	663.31
380.606	684.31
380.831	669.31
381.057	723.31
381.282	682.31
381.507	668.31
381.733	684.31
381.958	732.31
382.184	689.31
382.409	710.31
382.634	703.31
382.86	706.31
383.085	759.31
383.31	747.31
383.535	739.31
383.761	764.31
383.986	775.31
384.211	798.31
384.436	786.31
384.662	829.31
384.887	840.31
385.112	846.31
385.337	851.31
385.562	843.31
385.787	843.31
386.013	860.31
386.238	852.31
386.463	873.31
386.688	853.31
386.913	838.31
387.138	830.31
387.363	824.31
387.588	820.31
387.813	811.31
388.038	821.31
388.263	827.31
388.488	816.31
388.713	806.31
388.938	818.31
389.163	791.31
389.387	821.31
389.612	815.31
389.837	801.31
390.062	827.31
390.287	804.31
390.512	801.31
390.736	813.31
390.961	855.31
391.186	845.31
391.411	875.31
391.636	938.31
391.86	927.31
392.085	955.31
392.31	936.31
392.534	919.31
392.759	929.31
392.984	891.31
393.208	870.31
393.433	893.31
393.658	873.31
393.882	891.31
394.107	899.31
394.331	913.31
394.556	889.31
394.78	898.31
395.005	889.31
395.229	885.31
395.454	932.31
395.678	931.31
395.903	957.31
396.127	954.31
396.352	902.31
396.576	899.31
396.801	888.31
397.025	895.31
397.249	922.31
397.474	917.31
397.698	922.31
397.922	921.31
398.147	916.31
398.371	912.31
398.595	970.31
398.82	1030.31
399.044	1091.31
399.268	1223.31
399.492	1399.31
399.717	1612.31
399.941	1658.31
400.165	1461.31
400.389	1315.31
400.613	1186.31
400.837	1106.31
401.062	1073.31
401.286	1045.31
401.51	1035.31
401.734	1041.31
401.958	1050.31
402.182	1078.31
402.406	1061.31
402.63	1083.31
402.854	1122.31
403.078	1164.31
403.302	1161.31
403.526	1204.31
403.75	1265.31
403.974	1237.31
404.198	1227.31
404.422	1245.31
404.645	1259.31
404.869	1212.31
405.093	1200.31
405.317	1181.31
405.541	1175.31
405.765	1196.31
405.988	1174.31
406.212	1173.31
406.436	1149.31
406.66	1176.31
406.883	1231.31
407.107	1271.31
407.331	1356.31
407.555	1377.31
407.778	1374.31
408.002	1356.31
408.226	1299.31
408.449	1269.31
408.673	1225.31
408.896	1176.31
409.12	1178.31
409.344	1225.31
409.567	1192.31
409.791	1235.31
410.014	1247.31
410.238	1211.31
410.461	1189.31
410.685	1171.31
410.908	1149.31
411.132	1132.31
411.355	1072.31
411.578	1100.31
411.802	1092.31
412.025	1095.31
412.249	1104.31
412.472	1110.31
412.695	1087.31
412.919	1025.31
413.142	1031.31
413.365	1042.31
413.589	1059.31
413.812	1045.31
414.035	1054.31
414.258	1008.31
414.482	1052.31
414.705	1056.31
414.928	1035.31
415.151	1047.31
415.374	1049.31
415.597	1049.31
415.821	1035.31
416.044	1026.31
416.267	1019.31
416.49	1014.31
416.713	1010.31
416.936	1029.31
417.159	1021.31
417.382	1049.31
417.605	1027.31
417.828	1038.31
418.051	1048.31
418.274	1060.31
418.497	1040.31
418.72	1080.31
418.943	1057.31
419.166	1152.31
419.389	1234.31
419.611	1219.31
419.834	1156.31
420.057	1115.31
420.28	1107.31
420.503	1042.31
420.726	1049.31
420.948	1039.31
421.171	1065.31
421.394	1033.31
421.617	1025.31
421.839	1044.31
422.062	1037.31
422.285	1037.31
422.507	1084.31
422.73	1074.31
422.953	1095.31
423.175	1140.31
423.398	1153.31
423.621	1124.31
423.843	1156.31
424.066	1132.31
424.288	1145.31
424.511	1139.31
424.733	1093.31
424.956	1115.31
425.178	1089.31
425.401	1077.31
425.623	1066.31
425.846	1043.31
426.068	1014.31
426.291	1018.31
426.513	1001.31
426.735	953.31
426.958	1001.31
427.18	959.31
427.402	956.31
427.625	996.31
427.847	932.31
428.069	946.31
428.292	961.31
428.514	917.31
428.736	917.31
428.958	934.31
429.181	908.31
429.403	920.31
429.625	908.31
429.847	883.31
430.069	890.31
430.292	905.31
430.514	903.31
430.736	908.31
430.958	893.31
431.18	930.31
431.402	915.31
431.624	901.31
431.846	957.31
432.068	964.31
432.29	952.31
432.512	906.31
432.734	941.31
432.956	907.31
433.178	935.31
433.4	930.31
433.622	961.31
433.844	909.31
434.066	936.31
434.287	938.31
434.509	990.31
434.731	1011.31
434.953	1031.31
435.175	1047.31
435.397	1041.31
435.618	995.31
435.84	965.31
436.062	951.31
436.284	925.31
436.505	969.31
436.727	927.31
436.949	935.31
437.17	947.31
437.392	939.31
437.614	916.31
437.835	913.31
438.057	899.31
438.278	894.31
438.5	927.31
438.721	906.31
438.943	910.31
439.165	897.31
439.386	927.31
439.608	946.31
439.829	914.31
440.05	918.31
440.272	946.31
440.493	966.31
440.715	975.31
440.936	976.31
441.158	973.31
441.379	1029.31
441.6	1081.31
441.822	1105.31
442.043	1116.31
442.264	1058.31
442.486	1010.31
442.707	1035.31
442.928	1033.31
443.149	1063.31
443.371	1078.31
443.592	1064.31
443.813	1064.31
444.034	1065.31
444.255	1137.31
444.476	1156.31
444.698	1266.31
444.919	1323.31
445.14	1400.31
445.361	1209.31
445.582	1138.31
445.803	1040.31
446.024	1003.31
446.245	991.31
446.466	995.31
446.687	949.31
446.908	964.31
447.129	919.31
447.35	913.31
447.571	919.31
447.792	896.31
448.013	890.31
448.234	860.31
448.455	881.31
448.675	884.31
448.896	881.31
449.117	846.31
449.338	851.31
449.559	858.31
449.779	876.31
450	884.31
450.221	868.31
450.442	883.31
450.662	911.31
450.883	909.31
451.104	919.31
451.324	897.31
451.545	933.31
451.766	901.31
451.986	870.31
452.207	884.31
452.428	889.31
452.648	873.31
452.869	874.31
453.089	857.31
453.31	883.31
453.53	837.31
453.751	865.31
453.971	849.31
454.192	855.31
454.412	826.31
454.633	828.31
454.853	836.31
455.073	818.31
455.294	826.31
455.514	811.31
455.734	789.31
455.955	819.31
456.175	800.31
456.395	801.31
456.616	812.31
456.836	807.31
457.056	789.31
457.276	791.31
457.497	830.31
457.717	804.31
457.937	832.31
458.157	848.31
458.377	835.31
458.598	847.31
458.818	857.31
459.038	896.31
459.258	918.31
459.478	947.31
459.698	957.31
459.918	993.31
460.138	1054.31
460.358	1107.31
460.578	1129.31
460.798	1126.31
461.018	1165.31
461.238	1134.31
461.458	1108.31
461.678	1101.31
461.898	1125.31
462.118	1129.31
462.338	1173.31
462.558	1228.31
462.777	1269.31
462.997	1388.31
463.217	1564.31
463.437	1587.31
463.657	1448.31
463.876	1326.31
464.096	1344.31
464.316	1347.31
464.536	1336.31
464.755	1262.31
464.975	1239.31
465.195	1154.31
465.414	1091.31
465.634	1011.31
465.854	966.31
466.073	927.31
466.293	937.31
466.512	931.31
466.732	917.31
466.951	921.31
467.171	904.31
467.391	929.31
467.61	909.31
467.829	919.31
468.049	887.31
468.268	891.31
468.488	851.31
468.707	843.31
468.927	875.31
469.146	870.31
469.365	872.31
469.585	874.31
469.804	899.31
470.023	927.31
470.243	919.31
470.462	952.31
470.681	940.31
470.901	947.31
471.12	913.31
471.339	901.31
471.558	896.31
471.777	872.31
471.997	884.31
472.216	852.31
472.435	873.31
472.654	838.31
472.873	832.31
473.092	851.31
473.311	835.31
473.53	840.31
473.749	858.31
473.968	827.31
474.187	852.31
474.406	833.31
474.625	842.31
474.844	824.31
475.063	846.31
475.282	847.31
475.501	846.31
475.72	840.31
475.939	840.31
476.158	856.31
476.377	890.31
476.596	867.31
476.814	901.31
477.033	872.31
477.252	901.31
477.471	932.31
477.69	922.31
477.908	975.31
478.127	965.31
478.346	996.31
478.564	1031.31
478.783	1015.31
479.002	1040.31
479.22	1056.31
479.439	1033.31
479.658	1042.31
479.876	1045.31
480.095	1047.31
480.313	1134.31
480.532	1121.31
480.751	1162.31
480.969	1089.31
481.188	1027.31
481.406	993.31
481.624	961.31
481.843	959.31
482.061	977.31
482.28	952.31
482.498	949.31
482.717	926.31
482.935	931.31
483.153	950.31
483.372	951.31
483.59	965.31
483.808	923.31
484.027	945.31
484.245	951.31
484.463	967.31
484.681	986.31
484.9	953.31
485.118	949.31
485.336	996.31
485.554	1004.31
485.772	1029.31
485.99	1023.31
486.209	1047.31
486.427	1043.31
486.645	1046.31
486.863	1010.31
487.081	1027.31
487.299	1032.31
487.517	1013.31
487.735	990.31
487.953	981.31
488.171	993.31
488.389	978.31
488.607	991.31
488.825	980.31
489.043	959.31
489.261	949.31
489.479	959.31
489.696	977.31
489.914	984.31
490.132	989.31
490.35	1004.31
490.568	969.31
490.786	1000.31
491.003	1012.31
491.221	991.31
491.439	1029.31
491.657	984.31
491.874	1033.31
492.092	993.31
492.31	1020.31
492.527	1016.31
492.745	1048.31
492.963	996.31
493.18	1021.31
493.398	1025.31
493.615	1048.31
493.833	1017.31
494.05	1044.31
494.268	1065.31
494.485	1061.31
494.703	1066.31
494.92	1042.31
495.138	1038.31
495.355	1065.31
495.573	1057.31
495.79	1045.31
496.008	1057.31
496.225	1078.31
496.442	1055.31
496.66	1091.31
496.877	1100.31
497.094	1107.31
497.312	1128.31
497.529	1128.31
497.746	1175.31
497.963	1201.31
498.181	1249.31
498.398	1322.31
498.615	1416.31
498.832	1497.31
499.049	1639.31
499.267	1750.31
499.484	1951.31
499.701	2159.31
499.918	2414.31
500.135	2821.31
500.352	3205.31
500.569	3433.31
500.786	3388.31
501.003	3148.31
501.22	2769.31
501.437	2382.31
501.654	2090.31
501.871	1915.31
502.088	1725.31
502.305	1622.31
502.522	1535.31
502.739	1485.31
502.956	1385.31
503.172	1297.31
503.389	1288.31
503.606	1211.31
503.823	1181.31
504.04	1223.31
504.256	1196.31
504.473	1229.31
504.69	1309.31
504.907	1240.31
505.123	1169.31
505.34	1107.31
505.557	1029.31
505.773	1065.31
505.99	1039.31
506.207	967.31
506.423	998.31
506.64	944.31
506.856	960.31
507.073	957.31
507.289	965.31
507.506	935.31
507.722	939.31
507.939	938.31
508.155	930.31
508.372	897.31
508.588	885.31
508.805	904.31
509.021	853.31
509.238	870.31
509.454	849.31
509.67	883.31
509.887	855.31
510.103	877.31
510.319	845.31
510.536	852.31
510.752	865.31
510.968	859.31
511.184	849.31
511.401	837.31
511.617	835.31
511.833	872.31
512.049	848.31
512.265	835.31
512.481	844.31
512.698	848.31
512.914	870.31
513.13	848.31
513.346	855.31
513.562	852.31
513.778	857.31
513.994	871.31
514.21	875.31
514.426	864.31
514.642	857.31
514.858	898.31
515.074	888.31
515.29	856.31
515.506	870.31
515.721	891.31
515.937	915.31
516.153	947.31
516.369	970.31
516.585	1014.31
516.801	1011.31
517.016	1054.31
517.232	1151.31
517.448	1209.31
517.664	1217.31
517.879	1250.31
518.095	1231.31
518.311	1220.31
518.527	1155.31
518.742	1096.31
518.958	1048.31
519.173	988.31
519.389	969.31
519.605	949.31
519.82	930.31
520.036	887.31
520.251	903.31
520.467	876.31
520.682	877.31
520.898	857.31
521.113	864.31
521.329	874.31
521.544	809.31
521.76	843.31
521.975	823.31
522.19	828.31
522.406	817.31
522.621	809.31
522.836	803.31
523.052	810.31
523.267	812.31
523.482	803.31
523.698	803.31
523.913	797.31
524.128	820.31
524.343	804.31
524.559	787.31
524.774	808.31
524.989	775.31
525.204	793.31
525.419	794.31
525.634	792.31
525.849	805.31
526.064	781.31
526.28	805.31
526.495	769.31
526.71	782.31
526.925	764.31
527.14	790.31
527.355	769.31
527.57	761.31
527.785	782.31
527.999	779.31
528.214	771.31
528.429	779.31
528.644	781.31
528.859	779.31
529.074	756.31
529.289	775.31
529.503	771.31
529.718	776.31
529.933	780.31
530.148	768.31
530.363	760.31
530.577	755.31
530.792	777.31
531.007	771.31
531.221	760.31
531.436	775.31
531.651	766.31
531.865	747.31
532.08	781.31
532.295	757.31
532.509	780.31
532.724	752.31
532.938	770.31
533.153	779.31
533.367	777.31
533.582	779.31
533.796	783.31
534.011	777.31
534.225	757.31
534.44	760.31
534.654	777.31
534.868	749.31
535.083	754.31
535.297	755.31
535.511	742.31
535.726	748.31
535.94	742.31
536.154	757.31
536.369	721.31
536.583	703.31
536.797	729.31
537.011	731.31
537.225	707.31
537.44	709.31
537.654	705.31
537.868	719.31
538.082	692.31
538.296	712.31
538.51	713.31
538.724	740.31
538.938	681.31
539.153	713.31
539.367	701.31
539.581	676.31
539.795	672.31
540.009	705.31
540.222	672.31
540.436	689.31
540.65	700.31
540.864	674.31
541.078	699.31
541.292	703.31
541.506	686.31
541.72	689.31
541.934	684.31
542.147	698.31
542.361	700.31
542.575	680.31
542.789	683.31
543.002	690.31
543.216	687.31
543.43	674.31
543.644	665.31
543.857	664.31
544.071	683.31
544.285	667.31
544.498	697.31
544.712	681.31
544.925	710.31
545.139	682.31
545.352	721.31
545.566	695.31
545.779	713.31
545.993	725.31
546.206	707.31
546.42	691.31
546.633	690.31
546.847	703.31
547.06	704.31
547.274	695.31
547.487	691.31
547.7	728.31
547.914	718.31
548.127	717.31
548.34	724.31
548.554	723.31
548.767	725.31
548.98	741.31
549.193	724.31
549.407	712.31
549.62	772.31
549.833	729.31
550.046	724.31
550.259	729.31
550.473	688.31
550.686	708.31
550.899	682.31
551.112	703.31
551.325	696.31
551.538	695.31
551.751	674.31
551.964	705.31
552.177	701.31
552.39	723.31
552.603	758.31
552.816	748.31
553.029	741.31
553.242	786.31
553.455	792.31
553.667	805.31
553.88	784.31
554.093	768.31
554.306	756.31
554.519	713.31
554.732	706.31
554.944	679.31
555.157	684.31
555.37	672.31
555.583	674.31
555.795	653.31
556.008	632.31
556.221	646.31
556.433	633.31
556.646	623.31
556.859	630.31
557.071	626.31
557.284	604.31
557.496	624.31
557.709	605.31
557.921	612.31
558.134	605.31
558.346	597.31
558.559	602.31
558.771	593.31
558.984	605.31
559.196	591.31
559.409	587.31
559.621	619.31
559.833	585.31
560.046	586.31
560.258	597.31
560.47	595.31
560.683	557.31
560.895	593.31
561.107	587.31
561.32	575.31
561.532	588.31
561.744	580.31
561.956	591.31
562.168	582.31
562.381	612.31
562.593	592.31
562.805	612.31
563.017	592.31
563.229	616.31
563.441	608.31
563.653	607.31
563.865	625.31
564.077	601.31
564.289	614.31
564.501	627.31
564.713	633.31
564.925	654.31
565.137	647.31
565.349	663.31
565.561	658.31
565.773	687.31
565.985	723.31
566.197	738.31
566.408	823.31
566.62	919.31
566.832	991.31
567.044	979.31
567.255	1015.31
567.467	1051.31
567.679	1125.31
567.891	1184.31
568.102	1217.31
568.314	1191.31
568.526	1046.31
568.737	907.31
568.949	836.31
569.161	759.31
569.372	697.31
569.584	690.31
569.795	660.31
570.007	641.31
570.218	627.31
570.43	611.31
570.641	613.31
570.853	594.31
571.064	625.31
571.276	624.31
571.487	612.31
571.698	585.31
571.91	557.31
572.121	570.31
572.333	540.31
572.544	543.31
572.755	535.31
572.966	525.31
573.178	519.31
573.389	505.31
573.6	503.31
573.811	495.31
574.023	484.31
574.234	491.31
574.445	484.31
574.656	495.31
574.867	485.31
575.078	501.31
575.289	496.31
575.501	469.31
575.712	477.31
575.923	432.31
576.134	454.31
576.345	483.31
576.556	475.31
576.767	466.31
576.978	458.31
577.188	474.31
577.399	451.31
577.61	448.31
577.821	452.31
578.032	455.31
578.243	454.31
578.454	452.31
578.665	453.31
578.875	449.31
579.086	451.31
579.297	433.31
579.508	428.31
579.718	422.31
579.929	403.31
580.14	426.31
580.35	424.31
580.561	437.31
580.772	412.31
580.982	447.31
581.193	389.31
581.403	412.31
581.614	403.31
581.825	417.31
582.035	428.31
582.246	402.31
582.456	421.31
582.667	417.31
582.877	410.31
583.087	411.31
583.298	413.31
583.508	415.31
583.719	405.31
583.929	417.31
584.139	406.31
584.35	398.31
584.56	427.31
584.77	415.31
584.981	409.31
585.191	403.31
585.401	409.31
585.611	412.31
585.821	397.31
586.032	424.31
586.242	401.31
586.452	394.31
586.662	398.31
586.872	391.31
587.082	411.31
587.292	385.31
587.502	399.31
587.713	382.31
587.923	391.31
588.133	397.31
588.343	398.31
588.553	387.31
588.762	394.31
588.972	384.31
589.182	392.31
589.392	396.31
589.602	412.31
589.812	391.31
590.022	407.31
590.232	400.31
590.441	406.31
590.651	405.31
590.861	407.31
591.071	421.31
591.281	396.31
591.49	435.31
591.7	439.31
591.91	419.31
592.119	445.31
592.329	440.31
592.539	459.31
592.748	476.31
592.958	511.31
593.167	497.31
593.377	515.31
593.587	521.31
593.796	522.31
594.006	497.31
594.215	535.31
594.424	519.31
594.634	518.31
594.843	484.31
595.053	485.31
595.262	461.31
595.472	442.31
595.681	420.31
595.89	421.31
596.1	387.31
596.309	392.31
596.518	383.31
596.727	401.31
596.937	382.31
597.146	378.31
597.355	377.31
597.564	365.31
597.774	364.31
597.983	356.31
598.192	357.31
598.401	341.31
598.61	368.31
598.819	340.31
599.028	354.31
599.237	341.31
599.446	326.31
599.655	332.31
599.864	356.31
600.073	335.31
600.282	353.31
600.491	324.31
600.7	346.31
600.909	334.31
601.118	330.31
601.327	373.31
601.536	307.31
601.745	335.31
601.953	333.31
602.162	336.31
602.371	337.31
602.58	301.31
602.789	327.31
602.997	321.31
603.206	316.31
603.415	324.31
603.623	313.31
603.832	332.31
604.041	325.31
604.249	328.31
604.458	314.31
604.666	320.31
604.875	309.31
605.084	311.31
605.292	331.31
605.501	299.31
605.709	320.31
605.918	313.31
606.126	313.31
606.334	319.31
606.543	284.31
606.751	309.31
606.96	293.31
607.168	296.31
607.376	291.31
607.585	302.31
607.793	307.31
608.001	325.31
608.21	297.31
608.418	287.31
608.626	301.31
608.834	316.31
609.043	295.31
609.251	291.31
609.459	290.31
609.667	312.31
609.875	316.31
610.083	310.31
610.291	294.31
610.499	282.31
610.707	282.31
610.916	288.31
611.124	315.31
611.332	321.31
611.54	291.31
611.748	304.31
611.955	293.31
612.163	286.31
612.371	313.31
612.579	295.31
612.787	294.31
612.995	302.31
613.203	307.31
613.411	305.31
613.618	289.31
613.826	308.31
614.034	298.31
614.242	301.31
614.449	279.31
614.657	285.31
614.865	290.31
615.072	283.31
615.28	285.31
615.488	281.31
615.695	288.31
615.903	284.31
616.111	303.31
616.318	274.31
616.526	277.31
616.733	280.31
616.941	287.31
617.148	283.31
617.356	295.31
617.563	298.31
617.771	279.31
617.978	291.31
618.185	287.31
618.393	280.31
618.6	294.31
618.807	308.31
619.015	274.31
619.222	271.31
619.429	277.31
619.637	292.31
619.844	272.31
620.051	272.31
620.258	281.31
620.466	265.31
620.673	272.31
620.88	268.31
621.087	268.31
621.294	268.31
621.501	258.31
621.708	255.31
621.915	263.31
622.122	263.31
622.329	251.31
622.536	264.31
622.743	272.31
622.95	275.31
623.157	276.31
623.364	264.31
623.571	247.31
623.778	260.31
623.985	262.31
624.192	255.31
624.399	261.31
624.606	277.31
624.812	259.31
625.019	250.31
625.226	246.31
625.433	246.31
625.639	251.31
625.846	241.31
626.053	235.31
626.259	268.31
626.466	243.31
626.673	247.31
626.879	249.31
627.086	255.31
627.293	244.31
627.499	242.31
627.706	248.31
627.912	245.31
628.119	254.31
628.325	231.31
628.532	250.31
628.738	242.31
628.945	253.31
629.151	242.31
629.357	226.31
629.564	246.31
629.77	215.31
629.976	244.31
630.183	234.31
630.389	231.31
630.595	225.31
630.802	230.31
631.008	211.31
631.214	224.31
631.42	223.31
631.627	239.31
631.833	231.31
632.039	230.31
632.245	221.31
632.451	233.31
632.657	217.31
632.863	203.31
633.069	200.31
633.275	228.31
633.481	231.31
633.688	209.31
633.893	228.31
634.099	222.31
634.305	212.31
634.511	231.31
634.717	218.31
634.923	211.31
635.129	210.31
635.335	203.31
635.541	213.31
635.747	224.31
635.952	211.31
636.158	207.31
636.364	220.31
636.57	202.31
636.775	210.31
636.981	197.31
637.187	184.31
637.392	206.31
637.598	211.31
637.804	202.31
638.009	199.31
638.215	204.31
638.421	188.31
638.626	196.31
638.832	193.31
639.037	207.31
639.243	193.31
639.448	198.31
639.654	205.31
639.859	193.31
640.065	196.31
640.27	196.31
640.475	205.31
640.681	193.31
640.886	195.31
641.091	198.31
641.297	202.31
641.502	194.31
641.707	200.31
641.913	200.31
642.118	195.31
642.323	196.31
642.528	197.31
642.733	183.31
642.939	177.31
643.144	192.31
643.349	187.31
643.554	193.31
643.759	201.31
643.964	189.31
644.169	204.31
644.374	187.31
644.579	190.31
644.784	194.31
644.989	191.31
645.194	204.31
645.399	203.31
645.604	190.31
645.809	186.31
646.014	196.31
646.219	195.31
646.423	196.31
646.628	177.31
646.833	197.31
647.038	176.31
647.243	188.31
647.447	185.31
647.652	191.31
647.857	189.31
648.062	216.31
648.266	209.31
648.471	209.31
648.676	210.31
648.88	210.31
649.085	172.31
649.289	181.31
649.494	193.31
649.698	175.31
649.903	179.31
650.107	176.31
650.312	184.31
650.516	182.31
650.721	167.31
650.925	175.31
651.13	183.31
651.334	181.31
651.539	162.31
651.743	175.31
651.947	167.31
652.152	162.31
652.356	141.31
652.56	153.31
652.764	146.31
652.969	149.31
653.173	155.31
653.377	142.31
653.581	147.31
653.785	152.31
653.99	137.31
654.194	131.31
654.398	133.31
654.602	131.31
654.806	132.31
655.01	132.31
655.214	134.31
655.418	132.31
655.622	130.31
655.826	150.31
656.03	142.31
656.234	146.31
656.438	126.31
656.642	131.31
656.846	132.31
657.049	119.31
657.253	127.31
657.457	123.31
657.661	99.31
657.865	100.31
658.068	115.31
658.272	124.31
658.476	100.31
658.68	108.31
658.883	105.31
659.087	100.31
659.291	97.31
659.494	105.31
659.698	109.31
659.901	107.31
660.105	96.31
660.309	107.31
660.512	98.31
660.716	87.31
660.919	88.31
661.123	103.31
661.326	93.31
661.53	99.31
661.733	94.31
661.936	90.31
662.14	78.31
662.343	99.31
662.546	88.31
662.75	97.31
662.953	80.31
663.156	71.31
663.36	86.31
663.563	94.31
663.766	80.31
663.969	76.31
664.173	83.31
664.376	85.31
664.579	87.31
664.782	69.31
664.985	95.31
665.188	76.31
665.391	83.31
665.594	88.31
665.797	87.31
666	84.31
666.203	75.31
666.406	77.31
666.609	74.31
666.812	82.31
667.015	67.31
667.218	89.31
667.421	81.31
667.624	72.31
667.827	71.31
668.03	78.31
668.232	76.31
668.435	78.31
668.638	71.31
668.841	69.31
669.043	84.31
669.246	79.31
669.449	60.31
669.651	75.31
669.854	88.31
670.057	73.31
670.259	78.31
670.462	63.31
670.665	76.31
670.867	80.31
671.07	81.31
671.272	65.31
671.475	90.31
671.677	71.31
671.88	83.31
672.082	96.31
672.284	87.31
672.487	68.31
672.689	77.31
672.892	80.31
