Data from NiCl2@0.5M.TitratingCurve.Agarose3%dH2O.NegLispCup.LampEnergy10.LIBS07252019_HRD10591_18-20-04-572.txt Node
Date: Thu Jul 25 18:20:04 EDT 2019
User: cochatt
Spectrometer: HR+D1059
Trigger mode: 1
Integration Time (sec): 1.000000E-1
Scans to average: 1
Electric dark correction enabled: true
Nonlinearity correction enabled: false
Boxcar width: 0
XAxis mode: Wavelengths
Number of Pixels in Spectrum: 2048
>>>>>Begin Spectral Data<<<<<
223.165	-22.25
223.4	-22.25
223.635	-22.25
223.869	-23.25
224.104	-19.25
224.338	-11.25
224.573	-12.25
224.808	-9.25
225.042	-15.25
225.277	1.75
225.511	4.75
225.746	-6.25
225.98	8.75
226.215	12.75
226.449	7.75
226.683	12.75
226.918	36.75
227.152	33.75
227.387	35.75
227.621	47.75
227.856	50.75
228.09	38.75
228.324	53.75
228.559	61.75
228.793	75.75
229.027	121.75
229.262	118.75
229.496	127.75
229.73	121.75
229.964	136.75
230.199	150.75
230.433	151.75
230.667	154.75
230.901	151.75
231.136	166.75
231.37	151.75
231.604	155.75
231.838	154.75
232.072	160.75
232.306	168.75
232.541	159.75
232.775	161.75
233.009	160.75
233.243	149.75
233.477	153.75
233.711	163.75
233.945	161.75
234.179	180.75
234.413	167.75
234.647	166.75
234.881	171.75
235.115	151.75
235.349	179.75
235.583	160.75
235.817	152.75
236.051	150.75
236.285	156.75
236.519	171.75
236.753	180.75
236.987	171.75
237.221	174.75
237.455	175.75
237.689	162.75
237.922	181.75
238.156	167.75
238.39	168.75
238.624	187.75
238.858	165.75
239.091	194.75
239.325	195.75
239.559	211.75
239.793	211.75
240.027	206.75
240.26	212.75
240.494	190.75
240.728	201.75
240.961	178.75
241.195	215.75
241.429	194.75
241.662	205.75
241.896	214.75
242.13	216.75
242.363	206.75
242.597	185.75
242.83	215.75
243.064	209.75
243.298	206.75
243.531	233.75
243.765	209.75
243.998	227.75
244.232	226.75
244.465	238.75
244.699	214.75
244.932	236.75
245.166	233.75
245.399	248.75
245.633	234.75
245.866	230.75
246.099	230.75
246.333	246.75
246.566	234.75
246.8	233.75
247.033	230.75
247.266	235.75
247.5	241.75
247.733	235.75
247.966	256.75
248.2	248.75
248.433	279.75
248.666	251.75
248.899	261.75
249.133	249.75
249.366	269.75
249.599	273.75
249.832	278.75
250.066	255.75
250.299	274.75
250.532	265.75
250.765	272.75
250.998	287.75
251.231	292.75
251.465	289.75
251.698	291.75
251.931	294.75
252.164	289.75
252.397	295.75
252.63	292.75
252.863	287.75
253.096	298.75
253.329	288.75
253.562	298.75
253.795	292.75
254.028	293.75
254.261	321.75
254.494	283.75
254.727	306.75
254.96	314.75
255.193	296.75
255.426	308.75
255.659	296.75
255.892	296.75
256.124	330.75
256.357	308.75
256.59	329.75
256.823	307.75
257.056	335.75
257.289	315.75
257.521	321.75
257.754	314.75
257.987	321.75
258.22	319.75
258.452	329.75
258.685	342.75
258.918	347.75
259.151	326.75
259.383	361.75
259.616	321.75
259.849	331.75
260.081	346.75
260.314	347.75
260.547	341.75
260.779	339.75
261.012	334.75
261.244	346.75
261.477	363.75
261.71	373.75
261.942	349.75
262.175	359.75
262.407	359.75
262.64	377.75
262.872	337.75
263.105	354.75
263.337	378.75
263.57	385.75
263.802	377.75
264.035	366.75
264.267	367.75
264.499	367.75
264.732	380.75
264.964	397.75
265.197	375.75
265.429	395.75
265.661	373.75
265.894	410.75
266.126	399.75
266.358	395.75
266.591	378.75
266.823	406.75
267.055	369.75
267.287	406.75
267.52	386.75
267.752	398.75
267.984	417.75
268.216	412.75
268.448	418.75
268.681	399.75
268.913	409.75
269.145	421.75
269.377	417.75
269.609	418.75
269.841	411.75
270.073	413.75
270.306	397.75
270.538	428.75
270.77	413.75
271.002	394.75
271.234	402.75
271.466	438.75
271.698	427.75
271.93	421.75
272.162	433.75
272.394	421.75
272.626	427.75
272.858	444.75
273.09	433.75
273.322	449.75
273.553	435.75
273.785	428.75
274.017	449.75
274.249	468.75
274.481	471.75
274.713	424.75
274.945	429.75
275.176	456.75
275.408	469.75
275.64	462.75
275.872	457.75
276.104	457.75
276.335	468.75
276.567	467.75
276.799	468.75
277.031	474.75
277.262	459.75
277.494	463.75
277.726	476.75
277.957	480.75
278.189	474.75
278.421	471.75
278.652	493.75
278.884	474.75
279.115	495.75
279.347	489.75
279.579	478.75
279.81	498.75
280.042	491.75
280.273	490.75
280.505	499.75
280.736	490.75
280.968	488.75
281.199	493.75
281.431	507.75
281.662	497.75
281.894	535.75
282.125	511.75
282.356	500.75
282.588	523.75
282.819	519.75
283.051	524.75
283.282	507.75
283.513	515.75
283.745	552.75
283.976	542.75
284.207	518.75
284.439	541.75
284.67	547.75
284.901	569.75
285.132	544.75
285.364	539.75
285.595	539.75
285.826	566.75
286.057	548.75
286.288	540.75
286.52	558.75
286.751	555.75
286.982	564.75
287.213	545.75
287.444	565.75
287.675	567.75
287.906	596.75
288.138	563.75
288.369	566.75
288.6	554.75
288.831	581.75
289.062	569.75
289.293	563.75
289.524	577.75
289.755	588.75
289.986	579.75
290.217	562.75
290.448	565.75
290.679	583.75
290.91	569.75
291.141	590.75
291.371	573.75
291.602	578.75
291.833	579.75
292.064	581.75
292.295	593.75
292.526	578.75
292.757	594.75
292.987	582.75
293.218	572.75
293.449	577.75
293.68	589.75
293.91	584.75
294.141	588.75
294.372	599.75
294.603	593.75
294.833	596.75
295.064	585.75
295.295	614.75
295.525	626.75
295.756	601.75
295.987	598.75
296.217	603.75
296.448	611.75
296.679	621.75
296.909	627.75
297.14	614.75
297.37	637.75
297.601	648.75
297.831	657.75
298.062	601.75
298.292	645.75
298.523	637.75
298.753	639.75
298.984	647.75
299.214	659.75
299.445	636.75
299.675	627.75
299.905	640.75
300.136	643.75
300.366	671.75
300.597	677.75
300.827	693.75
301.057	673.75
301.288	684.75
301.518	677.75
301.748	675.75
301.979	702.75
302.209	712.75
302.439	681.75
302.669	679.75
302.9	678.75
303.13	680.75
303.36	685.75
303.59	670.75
303.82	711.75
304.051	681.75
304.281	666.75
304.511	683.75
304.741	675.75
304.971	679.75
305.201	707.75
305.431	723.75
305.661	684.75
305.891	697.75
306.121	692.75
306.352	677.75
306.582	674.75
306.812	683.75
307.042	693.75
307.272	681.75
307.502	661.75
307.731	655.75
307.961	668.75
308.191	674.75
308.421	676.75
308.651	670.75
308.881	663.75
309.111	695.75
309.341	667.75
309.571	671.75
309.8	693.75
310.03	725.75
310.26	715.75
310.49	742.75
310.72	702.75
310.949	697.75
311.179	692.75
311.409	694.75
311.639	711.75
311.868	676.75
312.098	689.75
312.328	727.75
312.557	701.75
312.787	726.75
313.017	722.75
313.246	727.75
313.476	743.75
313.706	718.75
313.935	742.75
314.165	743.75
314.394	722.75
314.624	704.75
314.853	735.75
315.083	718.75
315.312	748.75
315.542	742.75
315.771	736.75
316.001	709.75
316.23	712.75
316.46	723.75
316.689	717.75
316.919	720.75
317.148	718.75
317.377	716.75
317.607	721.75
317.836	703.75
318.065	737.75
318.295	742.75
318.524	725.75
318.753	719.75
318.983	728.75
319.212	724.75
319.441	730.75
319.67	726.75
319.9	727.75
320.129	717.75
320.358	731.75
320.587	762.75
320.816	747.75
321.046	741.75
321.275	742.75
321.504	737.75
321.733	744.75
321.962	711.75
322.191	750.75
322.42	749.75
322.649	737.75
322.878	758.75
323.108	735.75
323.337	752.75
323.566	767.75
323.795	754.75
324.024	776.75
324.253	767.75
324.482	773.75
324.71	759.75
324.939	753.75
325.168	771.75
325.397	759.75
325.626	761.75
325.855	796.75
326.084	791.75
326.313	814.75
326.542	810.75
326.77	800.75
326.999	793.75
327.228	761.75
327.457	787.75
327.686	792.75
327.914	775.75
328.143	810.75
328.372	781.75
328.6	809.75
328.829	791.75
329.058	773.75
329.287	810.75
329.515	807.75
329.744	807.75
329.972	833.75
330.201	814.75
330.43	810.75
330.658	825.75
330.887	815.75
331.115	818.75
331.344	845.75
331.572	816.75
331.801	825.75
332.03	857.75
332.258	846.75
332.486	871.75
332.715	921.75
332.943	859.75
333.172	915.75
333.4	962.75
333.629	968.75
333.857	952.75
334.085	967.75
334.314	921.75
334.542	968.75
334.771	965.75
334.999	953.75
335.227	935.75
335.455	946.75
335.684	978.75
335.912	957.75
336.14	961.75
336.369	959.75
336.597	963.75
336.825	979.75
337.053	970.75
337.281	951.75
337.51	913.75
337.738	900.75
337.966	900.75
338.194	934.75
338.422	908.75
338.65	846.75
338.878	891.75
339.106	858.75
339.334	885.75
339.562	853.75
339.79	838.75
340.018	827.75
340.246	835.75
340.474	838.75
340.702	837.75
340.93	822.75
341.158	832.75
341.386	869.75
341.614	868.75
341.842	885.75
342.07	823.75
342.298	813.75
342.526	832.75
342.754	858.75
342.981	851.75
343.209	833.75
343.437	869.75
343.665	884.75
343.893	925.75
344.12	923.75
344.348	940.75
344.576	919.75
344.804	921.75
345.031	882.75
345.259	860.75
345.487	843.75
345.714	850.75
345.942	876.75
346.17	873.75
346.397	865.75
346.625	831.75
346.853	811.75
347.08	817.75
347.308	789.75
347.535	829.75
347.763	824.75
347.99	820.75
348.218	799.75
348.445	811.75
348.673	804.75
348.9	779.75
349.128	801.75
349.355	824.75
349.583	817.75
349.81	808.75
350.037	775.75
350.265	750.75
350.492	769.75
350.72	767.75
350.947	767.75
351.174	794.75
351.402	801.75
351.629	809.75
351.856	810.75
352.083	771.75
352.311	786.75
352.538	798.75
352.765	823.75
352.992	790.75
353.22	765.75
353.447	737.75
353.674	736.75
353.901	753.75
354.128	742.75
354.355	762.75
354.583	725.75
354.81	745.75
355.037	747.75
355.264	743.75
355.491	739.75
355.718	731.75
355.945	721.75
356.172	757.75
356.399	737.75
356.626	793.75
356.853	814.75
357.08	796.75
357.307	767.75
357.534	756.75
357.761	750.75
357.988	747.75
358.215	735.75
358.441	755.75
358.668	743.75
358.895	755.75
359.122	746.75
359.349	741.75
359.576	747.75
359.802	766.75
360.029	756.75
360.256	735.75
360.483	729.75
360.709	753.75
360.936	759.75
361.163	745.75
361.39	749.75
361.616	779.75
361.843	771.75
362.07	798.75
362.296	791.75
362.523	746.75
362.749	729.75
362.976	733.75
363.203	754.75
363.429	731.75
363.656	739.75
363.882	738.75
364.109	742.75
364.335	726.75
364.562	733.75
364.788	734.75
365.015	723.75
365.241	718.75
365.468	735.75
365.694	704.75
365.92	702.75
366.147	726.75
366.373	710.75
366.599	735.75
366.826	707.75
367.052	723.75
367.278	719.75
367.505	731.75
367.731	759.75
367.957	725.75
368.184	757.75
368.41	742.75
368.636	740.75
368.862	738.75
369.089	724.75
369.315	728.75
369.541	728.75
369.767	753.75
369.993	739.75
370.219	743.75
370.445	749.75
370.672	769.75
370.898	736.75
371.124	734.75
371.35	771.75
371.576	781.75
371.802	773.75
372.028	783.75
372.254	732.75
372.48	753.75
372.706	774.75
372.932	795.75
373.158	777.75
373.384	778.75
373.61	771.75
373.835	770.75
374.061	791.75
374.287	782.75
374.513	783.75
374.739	830.75
374.965	808.75
375.191	819.75
375.416	817.75
375.642	801.75
375.868	806.75
376.094	764.75
376.319	767.75
376.545	731.75
376.771	769.75
376.997	747.75
377.222	749.75
377.448	766.75
377.674	756.75
377.899	751.75
378.125	723.75
378.35	740.75
378.576	717.75
378.802	744.75
379.027	743.75
379.253	741.75
379.478	746.75
379.704	727.75
379.929	742.75
380.155	721.75
380.38	741.75
380.606	740.75
380.831	724.75
381.057	742.75
381.282	742.75
381.507	733.75
381.733	723.75
381.958	734.75
382.184	778.75
382.409	742.75
382.634	769.75
382.86	761.75
383.085	786.75
383.31	771.75
383.535	776.75
383.761	788.75
383.986	786.75
384.211	812.75
384.436	790.75
384.662	802.75
384.887	830.75
385.112	823.75
385.337	865.75
385.562	856.75
385.787	846.75
386.013	885.75
386.238	857.75
386.463	865.75
386.688	859.75
386.913	819.75
387.138	856.75
387.363	830.75
387.588	838.75
387.813	824.75
388.038	850.75
388.263	842.75
388.488	898.75
388.713	852.75
388.938	843.75
389.163	834.75
389.387	826.75
389.612	859.75
389.837	831.75
390.062	851.75
390.287	847.75
390.512	836.75
390.736	856.75
390.961	856.75
391.186	870.75
391.411	887.75
391.636	893.75
391.86	918.75
392.085	947.75
392.31	930.75
392.534	909.75
392.759	888.75
392.984	913.75
393.208	900.75
393.433	895.75
393.658	911.75
393.882	923.75
394.107	919.75
394.331	920.75
394.556	914.75
394.78	894.75
395.005	922.75
395.229	906.75
395.454	924.75
395.678	946.75
395.903	943.75
396.127	951.75
396.352	907.75
396.576	921.75
396.801	878.75
397.025	931.75
397.249	927.75
397.474	965.75
397.698	952.75
397.922	955.75
398.147	955.75
398.371	991.75
398.595	1000.75
398.82	1050.75
399.044	1062.75
399.268	1156.75
399.492	1230.75
399.717	1359.75
399.941	1362.75
400.165	1285.75
400.389	1207.75
400.613	1121.75
400.837	1091.75
401.062	1086.75
401.286	1056.75
401.51	1054.75
401.734	1057.75
401.958	1061.75
402.182	1058.75
402.406	1048.75
402.63	1063.75
402.854	1063.75
403.078	1087.75
403.302	1094.75
403.526	1115.75
403.75	1121.75
403.974	1148.75
404.198	1091.75
404.422	1110.75
404.645	1151.75
404.869	1108.75
405.093	1137.75
405.317	1147.75
405.541	1159.75
405.765	1118.75
405.988	1106.75
406.212	1153.75
406.436	1118.75
406.66	1164.75
406.883	1124.75
407.107	1181.75
407.331	1244.75
407.555	1282.75
407.778	1275.75
408.002	1268.75
408.226	1245.75
408.449	1230.75
408.673	1204.75
408.896	1176.75
409.12	1190.75
409.344	1179.75
409.567	1157.75
409.791	1193.75
410.014	1147.75
410.238	1157.75
410.461	1143.75
410.685	1165.75
410.908	1146.75
411.132	1121.75
411.355	1107.75
411.578	1092.75
411.802	1100.75
412.025	1086.75
412.249	1131.75
412.472	1119.75
412.695	1096.75
412.919	1100.75
413.142	1087.75
413.365	1074.75
413.589	1094.75
413.812	1070.75
414.035	1096.75
414.258	1070.75
414.482	1087.75
414.705	1068.75
414.928	1057.75
415.151	1087.75
415.374	1089.75
415.597	1052.75
415.821	1061.75
416.044	1062.75
416.267	1053.75
416.49	1028.75
416.713	1055.75
416.936	1057.75
417.159	1061.75
417.382	1056.75
417.605	1031.75
417.828	1067.75
418.051	1060.75
418.274	1039.75
418.497	1027.75
418.72	1053.75
418.943	1109.75
419.166	1118.75
419.389	1213.75
419.611	1205.75
419.834	1130.75
420.057	1106.75
420.28	1069.75
420.503	1085.75
420.726	1086.75
420.948	1065.75
421.171	1047.75
421.394	1036.75
421.617	1043.75
421.839	1072.75
422.062	1093.75
422.285	1058.75
422.507	1036.75
422.73	1094.75
422.953	1086.75
423.175	1099.75
423.398	1077.75
423.621	1093.75
423.843	1103.75
424.066	1130.75
424.288	1137.75
424.511	1102.75
424.733	1124.75
424.956	1078.75
425.178	1090.75
425.401	1093.75
425.623	1076.75
425.846	1063.75
426.068	1066.75
426.291	1064.75
426.513	1061.75
426.735	1045.75
426.958	1044.75
427.18	1044.75
427.402	1036.75
427.625	1053.75
427.847	1017.75
428.069	1027.75
428.292	1034.75
428.514	1035.75
428.736	997.75
428.958	1015.75
429.181	991.75
429.403	1027.75
429.625	1046.75
429.847	986.75
430.069	990.75
430.292	997.75
430.514	1007.75
430.736	1010.75
430.958	1036.75
431.18	997.75
431.402	1050.75
431.624	1021.75
431.846	1008.75
432.068	1034.75
432.29	1096.75
432.512	1005.75
432.734	1051.75
432.956	1006.75
433.178	1069.75
433.4	1041.75
433.622	1052.75
433.844	1051.75
434.066	1061.75
434.287	1086.75
434.509	1100.75
434.731	1096.75
434.953	1115.75
435.175	1152.75
435.397	1100.75
435.618	1093.75
435.84	1051.75
436.062	1052.75
436.284	1060.75
436.505	1045.75
436.727	1081.75
436.949	1062.75
437.17	1047.75
437.392	1040.75
437.614	1021.75
437.835	982.75
438.057	1006.75
438.278	1039.75
438.5	1006.75
438.721	1017.75
438.943	1039.75
439.165	1033.75
439.386	1036.75
439.608	1028.75
439.829	1017.75
440.05	1071.75
440.272	1054.75
440.493	1078.75
440.715	1064.75
440.936	1077.75
441.158	1057.75
441.379	1109.75
441.6	1119.75
441.822	1117.75
442.043	1128.75
442.264	1140.75
442.486	1132.75
442.707	1145.75
442.928	1118.75
443.149	1130.75
443.371	1147.75
443.592	1153.75
443.813	1164.75
444.034	1158.75
444.255	1178.75
444.476	1211.75
444.698	1233.75
444.919	1272.75
445.14	1373.75
445.361	1276.75
445.582	1188.75
445.803	1136.75
446.024	1090.75
446.245	1086.75
446.466	1085.75
446.687	1044.75
446.908	1057.75
447.129	1047.75
447.35	1060.75
447.571	1034.75
447.792	1004.75
448.013	1016.75
448.234	1003.75
448.455	980.75
448.675	1014.75
448.896	977.75
449.117	972.75
449.338	969.75
449.559	977.75
449.779	949.75
450	947.75
450.221	1023.75
450.442	982.75
450.662	1013.75
450.883	1002.75
451.104	1011.75
451.324	1030.75
451.545	980.75
451.766	974.75
451.986	983.75
452.207	990.75
452.428	989.75
452.648	967.75
452.869	921.75
453.089	941.75
453.31	995.75
453.53	934.75
453.751	964.75
453.971	938.75
454.192	927.75
454.412	936.75
454.633	913.75
454.853	947.75
455.073	941.75
455.294	961.75
455.514	945.75
455.734	932.75
455.955	949.75
456.175	960.75
456.395	914.75
456.616	916.75
456.836	926.75
457.056	943.75
457.276	901.75
457.497	936.75
457.717	941.75
457.937	954.75
458.157	953.75
458.377	959.75
458.598	964.75
458.818	1029.75
459.038	1034.75
459.258	1013.75
459.478	1063.75
459.698	1110.75
459.918	1126.75
460.138	1157.75
460.358	1187.75
460.578	1174.75
460.798	1220.75
461.018	1243.75
461.238	1193.75
461.458	1158.75
461.678	1180.75
461.898	1220.75
462.118	1221.75
462.338	1275.75
462.558	1316.75
462.777	1344.75
462.997	1433.75
463.217	1478.75
463.437	1483.75
463.657	1414.75
463.876	1388.75
464.096	1389.75
464.316	1350.75
464.536	1353.75
464.755	1310.75
464.975	1266.75
465.195	1227.75
465.414	1192.75
465.634	1143.75
465.854	1131.75
466.073	1117.75
466.293	1095.75
466.512	1060.75
466.732	1039.75
466.951	1054.75
467.171	1059.75
467.391	1056.75
467.61	1064.75
467.829	1033.75
468.049	1015.75
468.268	1020.75
468.488	993.75
468.707	1027.75
468.927	1009.75
469.146	1045.75
469.365	1051.75
469.585	1037.75
469.804	1028.75
470.023	1069.75
470.243	1049.75
470.462	1065.75
470.681	1077.75
470.901	1092.75
471.12	1085.75
471.339	1062.75
471.558	1057.75
471.777	1065.75
471.997	1027.75
472.216	1020.75
472.435	1013.75
472.654	1014.75
472.873	1022.75
473.092	998.75
473.311	989.75
473.53	1010.75
473.749	1006.75
473.968	997.75
474.187	1033.75
474.406	1023.75
474.625	1045.75
474.844	1029.75
475.063	1002.75
475.282	1048.75
475.501	1031.75
475.72	1053.75
475.939	1057.75
476.158	1083.75
476.377	1066.75
476.596	1052.75
476.814	1079.75
477.033	1081.75
477.252	1081.75
477.471	1125.75
477.69	1160.75
477.908	1159.75
478.127	1186.75
478.346	1187.75
478.564	1207.75
478.783	1223.75
479.002	1226.75
479.22	1271.75
479.439	1213.75
479.658	1205.75
479.876	1203.75
480.095	1225.75
480.313	1258.75
480.532	1271.75
480.751	1262.75
480.969	1267.75
481.188	1203.75
481.406	1210.75
481.624	1187.75
481.843	1213.75
482.061	1203.75
482.28	1171.75
482.498	1167.75
482.717	1167.75
482.935	1217.75
483.153	1177.75
483.372	1195.75
483.59	1194.75
483.808	1203.75
484.027	1217.75
484.245	1180.75
484.463	1176.75
484.681	1179.75
484.9	1186.75
485.118	1222.75
485.336	1247.75
485.554	1195.75
485.772	1214.75
485.99	1208.75
486.209	1209.75
486.427	1218.75
486.645	1226.75
486.863	1229.75
487.081	1237.75
487.299	1242.75
487.517	1223.75
487.735	1231.75
487.953	1266.75
488.171	1250.75
488.389	1182.75
488.607	1204.75
488.825	1256.75
489.043	1197.75
489.261	1219.75
489.479	1215.75
489.696	1239.75
489.914	1228.75
490.132	1261.75
490.35	1238.75
490.568	1238.75
490.786	1231.75
491.003	1261.75
491.221	1250.75
491.439	1253.75
491.657	1268.75
491.874	1284.75
492.092	1281.75
492.31	1257.75
492.527	1293.75
492.745	1300.75
492.963	1301.75
493.18	1263.75
493.398	1296.75
493.615	1319.75
493.833	1336.75
494.05	1285.75
494.268	1346.75
494.485	1300.75
494.703	1301.75
494.92	1322.75
495.138	1326.75
495.355	1342.75
495.573	1367.75
495.79	1324.75
496.008	1353.75
496.225	1348.75
496.442	1341.75
496.66	1380.75
496.877	1415.75
497.094	1433.75
497.312	1405.75
497.529	1424.75
497.746	1453.75
497.963	1509.75
498.181	1561.75
498.398	1609.75
498.615	1671.75
498.832	1740.75
499.049	1864.75
499.267	1972.75
499.484	2100.75
499.701	2253.75
499.918	2410.75
500.135	2573.75
500.352	2842.75
500.569	2877.75
500.786	2837.75
501.003	2788.75
501.22	2604.75
501.437	2428.75
501.654	2190.75
501.871	2077.75
502.088	1924.75
502.305	1847.75
502.522	1787.75
502.739	1706.75
502.956	1666.75
503.172	1598.75
503.389	1561.75
503.606	1501.75
503.823	1514.75
504.04	1487.75
504.256	1471.75
504.473	1480.75
504.69	1456.75
504.907	1449.75
505.123	1373.75
505.34	1371.75
505.557	1296.75
505.773	1295.75
505.99	1244.75
506.207	1246.75
506.423	1184.75
506.64	1183.75
506.856	1207.75
507.073	1203.75
507.289	1186.75
507.506	1189.75
507.722	1172.75
507.939	1158.75
508.155	1153.75
508.372	1145.75
508.588	1141.75
508.805	1123.75
509.021	1107.75
509.238	1112.75
509.454	1118.75
509.67	1110.75
509.887	1096.75
510.103	1093.75
510.319	1055.75
510.536	1062.75
510.752	1059.75
510.968	1032.75
511.184	1058.75
511.401	1076.75
511.617	1023.75
511.833	1033.75
512.049	1064.75
512.265	1045.75
512.481	1041.75
512.698	1022.75
512.914	1057.75
513.13	1066.75
513.346	1065.75
513.562	1039.75
513.778	1038.75
513.994	1071.75
514.21	1059.75
514.426	1040.75
514.642	1049.75
514.858	1059.75
515.074	1078.75
515.29	1079.75
515.506	1100.75
515.721	1130.75
515.937	1120.75
516.153	1101.75
516.369	1153.75
516.585	1181.75
516.801	1164.75
517.016	1226.75
517.232	1281.75
517.448	1260.75
517.664	1303.75
517.879	1299.75
518.095	1284.75
518.311	1277.75
518.527	1238.75
518.742	1223.75
518.958	1223.75
519.173	1175.75
519.389	1142.75
519.605	1091.75
519.82	1084.75
520.036	1116.75
520.251	1092.75
520.467	1039.75
520.682	1036.75
520.898	1043.75
521.113	1071.75
521.329	1028.75
521.544	987.75
521.76	1019.75
521.975	969.75
522.19	989.75
522.406	982.75
522.621	997.75
522.836	993.75
523.052	997.75
523.267	979.75
523.482	975.75
523.698	993.75
523.913	1001.75
524.128	983.75
524.343	958.75
524.559	973.75
524.774	973.75
524.989	990.75
525.204	938.75
525.419	953.75
525.634	922.75
525.849	951.75
526.064	940.75
526.28	925.75
526.495	923.75
526.71	948.75
526.925	961.75
527.14	942.75
527.355	927.75
527.57	912.75
527.785	897.75
527.999	930.75
528.214	923.75
528.429	899.75
528.644	926.75
528.859	971.75
529.074	956.75
529.289	923.75
529.503	958.75
529.718	941.75
529.933	910.75
530.148	921.75
530.363	915.75
530.577	918.75
530.792	915.75
531.007	911.75
531.221	916.75
531.436	933.75
531.651	942.75
531.865	931.75
532.08	901.75
532.295	937.75
532.509	897.75
532.724	896.75
532.938	927.75
533.153	888.75
533.367	917.75
533.582	888.75
533.796	893.75
534.011	937.75
534.225	899.75
534.44	899.75
534.654	897.75
534.868	890.75
535.083	896.75
535.297	896.75
535.511	870.75
535.726	890.75
535.94	867.75
536.154	862.75
536.369	887.75
536.583	837.75
536.797	867.75
537.011	854.75
537.225	860.75
537.44	854.75
537.654	842.75
537.868	854.75
538.082	836.75
538.296	842.75
538.51	826.75
538.724	829.75
538.938	857.75
539.153	848.75
539.367	855.75
539.581	844.75
539.795	847.75
540.009	833.75
540.222	828.75
540.436	830.75
540.65	810.75
540.864	811.75
541.078	813.75
541.292	817.75
541.506	825.75
541.72	838.75
541.934	830.75
542.147	843.75
542.361	819.75
542.575	821.75
542.789	825.75
543.002	826.75
543.216	821.75
543.43	833.75
543.644	823.75
543.857	829.75
544.071	824.75
544.285	817.75
544.498	783.75
544.712	821.75
544.925	829.75
545.139	820.75
545.352	819.75
545.566	846.75
545.779	849.75
545.993	849.75
546.206	849.75
546.42	857.75
546.633	838.75
546.847	844.75
547.06	829.75
547.274	817.75
547.487	805.75
547.7	834.75
547.914	870.75
548.127	860.75
548.34	845.75
548.554	805.75
548.767	844.75
548.98	848.75
549.193	826.75
549.407	837.75
549.62	859.75
549.833	853.75
550.046	812.75
550.259	809.75
550.473	803.75
550.686	837.75
550.899	817.75
551.112	836.75
551.325	811.75
551.538	824.75
551.751	813.75
551.964	806.75
552.177	820.75
552.39	827.75
552.603	873.75
552.816	867.75
553.029	839.75
553.242	856.75
553.455	873.75
553.667	889.75
553.88	888.75
554.093	820.75
554.306	825.75
554.519	806.75
554.732	821.75
554.944	808.75
555.157	801.75
555.37	784.75
555.583	809.75
555.795	756.75
556.008	771.75
556.221	732.75
556.433	745.75
556.646	739.75
556.859	730.75
557.071	723.75
557.284	726.75
557.496	735.75
557.709	709.75
557.921	737.75
558.134	703.75
558.346	703.75
558.559	706.75
558.771	706.75
558.984	723.75
559.196	725.75
559.409	685.75
559.621	698.75
559.833	709.75
560.046	718.75
560.258	698.75
560.47	685.75
560.683	691.75
560.895	691.75
561.107	699.75
561.32	682.75
561.532	731.75
561.744	675.75
561.956	702.75
562.168	689.75
562.381	711.75
562.593	682.75
562.805	703.75
563.017	698.75
563.229	707.75
563.441	698.75
563.653	711.75
563.865	702.75
564.077	743.75
564.289	699.75
564.501	725.75
564.713	749.75
564.925	744.75
565.137	771.75
565.349	758.75
565.561	766.75
565.773	810.75
565.985	827.75
566.197	855.75
566.408	870.75
566.62	927.75
566.832	925.75
567.044	941.75
567.255	957.75
567.467	953.75
567.679	997.75
567.891	1062.75
568.102	1059.75
568.314	1018.75
568.526	962.75
568.737	909.75
568.949	860.75
569.161	813.75
569.372	737.75
569.584	733.75
569.795	729.75
570.007	714.75
570.218	697.75
570.43	683.75
570.641	690.75
570.853	691.75
571.064	668.75
571.276	666.75
571.487	673.75
571.698	652.75
571.91	622.75
572.121	613.75
572.333	625.75
572.544	600.75
572.755	603.75
572.966	583.75
573.178	608.75
573.389	590.75
573.6	578.75
573.811	606.75
574.023	588.75
574.234	596.75
574.445	587.75
574.656	553.75
574.867	588.75
575.078	563.75
575.289	558.75
575.501	550.75
575.712	548.75
575.923	548.75
576.134	545.75
576.345	547.75
576.556	527.75
576.767	529.75
576.978	524.75
577.188	536.75
577.399	503.75
577.61	538.75
577.821	519.75
578.032	502.75
578.243	516.75
578.454	509.75
578.665	514.75
578.875	502.75
579.086	494.75
579.297	464.75
579.508	497.75
579.718	518.75
579.929	500.75
580.14	472.75
580.35	485.75
580.561	483.75
580.772	512.75
580.982	501.75
581.193	484.75
581.403	513.75
581.614	488.75
581.825	497.75
582.035	475.75
582.246	468.75
582.456	475.75
582.667	458.75
582.877	466.75
583.087	466.75
583.298	468.75
583.508	475.75
583.719	465.75
583.929	489.75
584.139	491.75
584.35	459.75
584.56	472.75
584.77	465.75
584.981	453.75
585.191	452.75
585.401	466.75
585.611	451.75
585.821	453.75
586.032	462.75
586.242	468.75
586.452	436.75
586.662	445.75
586.872	468.75
587.082	443.75
587.292	430.75
587.502	446.75
587.713	440.75
587.923	459.75
588.133	452.75
588.343	445.75
588.553	436.75
588.762	427.75
588.972	441.75
589.182	506.75
589.392	498.75
589.602	481.75
589.812	502.75
590.022	485.75
590.232	467.75
590.441	467.75
590.651	434.75
590.861	438.75
591.071	456.75
591.281	475.75
591.49	454.75
591.7	467.75
591.91	479.75
592.119	483.75
592.329	467.75
592.539	469.75
592.748	490.75
592.958	506.75
593.167	507.75
593.377	502.75
593.587	498.75
593.796	499.75
594.006	494.75
594.215	499.75
594.424	511.75
594.634	505.75
594.843	489.75
595.053	460.75
595.262	457.75
595.472	458.75
595.681	470.75
595.89	431.75
596.1	435.75
596.309	419.75
596.518	438.75
596.727	403.75
596.937	418.75
597.146	420.75
597.355	411.75
597.564	416.75
597.774	415.75
597.983	417.75
598.192	401.75
598.401	396.75
598.61	396.75
598.819	388.75
599.028	386.75
599.237	366.75
599.446	391.75
599.655	405.75
599.864	383.75
600.073	373.75
600.282	376.75
600.491	363.75
600.7	376.75
600.909	369.75
601.118	359.75
601.327	377.75
601.536	369.75
601.745	391.75
601.953	379.75
602.162	379.75
602.371	352.75
602.58	348.75
602.789	361.75
602.997	356.75
603.206	379.75
603.415	363.75
603.623	350.75
603.832	340.75
604.041	346.75
604.249	356.75
604.458	335.75
604.666	344.75
604.875	342.75
605.084	331.75
605.292	349.75
605.501	344.75
605.709	361.75
605.918	338.75
606.126	343.75
606.334	329.75
606.543	350.75
606.751	325.75
606.96	343.75
607.168	317.75
607.376	354.75
607.585	323.75
607.793	332.75
608.001	328.75
608.21	316.75
608.418	347.75
608.626	334.75
608.834	321.75
609.043	354.75
609.251	335.75
609.459	334.75
609.667	323.75
609.875	321.75
610.083	302.75
610.291	317.75
610.499	311.75
610.707	325.75
610.916	336.75
611.124	312.75
611.332	306.75
611.54	334.75
611.748	308.75
611.955	331.75
612.163	328.75
612.371	316.75
612.579	290.75
612.787	326.75
612.995	314.75
613.203	330.75
613.411	299.75
613.618	305.75
613.826	301.75
614.034	330.75
614.242	304.75
614.449	311.75
614.657	330.75
614.865	331.75
615.072	319.75
615.28	317.75
615.488	302.75
615.695	313.75
615.903	327.75
616.111	302.75
616.318	308.75
616.526	317.75
616.733	322.75
616.941	323.75
617.148	318.75
617.356	296.75
617.563	309.75
617.771	316.75
617.978	290.75
618.185	296.75
618.393	300.75
618.6	297.75
618.807	305.75
619.015	294.75
619.222	293.75
619.429	291.75
619.637	299.75
619.844	284.75
620.051	288.75
620.258	296.75
620.466	287.75
620.673	285.75
620.88	284.75
621.087	283.75
621.294	287.75
621.501	291.75
621.708	282.75
621.915	287.75
622.122	284.75
622.329	268.75
622.536	291.75
622.743	285.75
622.95	290.75
623.157	281.75
623.364	286.75
623.571	249.75
623.778	270.75
623.985	281.75
624.192	276.75
624.399	276.75
624.606	280.75
624.812	277.75
625.019	276.75
625.226	271.75
625.433	261.75
625.639	266.75
625.846	282.75
626.053	246.75
626.259	259.75
626.466	260.75
626.673	262.75
626.879	273.75
627.086	273.75
627.293	248.75
627.499	259.75
627.706	246.75
627.912	252.75
628.119	246.75
628.325	259.75
628.532	256.75
628.738	257.75
628.945	237.75
629.151	245.75
629.357	265.75
629.564	229.75
629.77	263.75
629.976	255.75
630.183	259.75
630.389	259.75
630.595	263.75
630.802	248.75
631.008	242.75
631.214	239.75
631.42	253.75
631.627	234.75
631.833	229.75
632.039	247.75
632.245	243.75
632.451	237.75
632.657	222.75
632.863	238.75
633.069	238.75
633.275	241.75
633.481	225.75
633.688	230.75
633.893	246.75
634.099	228.75
634.305	235.75
634.511	247.75
634.717	241.75
634.923	230.75
635.129	219.75
635.335	216.75
635.541	241.75
635.747	222.75
635.952	222.75
636.158	243.75
636.364	247.75
636.57	221.75
636.775	218.75
636.981	210.75
637.187	226.75
637.392	207.75
637.598	215.75
637.804	203.75
638.009	220.75
638.215	219.75
638.421	217.75
638.626	223.75
638.832	208.75
639.037	221.75
639.243	218.75
639.448	223.75
639.654	227.75
639.859	216.75
640.065	215.75
640.27	209.75
640.475	220.75
640.681	230.75
640.886	215.75
641.091	194.75
641.297	210.75
641.502	219.75
641.707	211.75
641.913	229.75
642.118	209.75
642.323	206.75
642.528	209.75
642.733	210.75
642.939	207.75
643.144	216.75
643.349	201.75
643.554	205.75
643.759	201.75
643.964	212.75
644.169	215.75
644.374	200.75
644.579	207.75
644.784	203.75
644.989	204.75
645.194	209.75
645.399	207.75
645.604	206.75
645.809	217.75
646.014	207.75
646.219	199.75
646.423	204.75
646.628	209.75
646.833	202.75
647.038	210.75
647.243	193.75
647.447	208.75
647.652	199.75
647.857	215.75
648.062	197.75
648.266	216.75
648.471	227.75
648.676	198.75
648.88	190.75
649.085	205.75
649.289	217.75
649.494	203.75
649.698	204.75
649.903	189.75
650.107	195.75
650.312	211.75
650.516	197.75
650.721	179.75
650.925	193.75
651.13	187.75
651.334	183.75
651.539	196.75
651.743	196.75
651.947	180.75
652.152	180.75
652.356	188.75
652.56	165.75
652.764	171.75
652.969	170.75
653.173	181.75
653.377	177.75
653.581	182.75
653.785	164.75
653.99	165.75
654.194	167.75
654.398	171.75
654.602	166.75
654.806	143.75
655.01	148.75
655.214	181.75
655.418	159.75
655.622	149.75
655.826	148.75
656.03	161.75
656.234	153.75
656.438	151.75
656.642	144.75
656.846	146.75
657.049	144.75
657.253	125.75
657.457	131.75
657.661	137.75
657.865	124.75
658.068	132.75
658.272	127.75
658.476	134.75
658.68	123.75
658.883	105.75
659.087	116.75
659.291	114.75
659.494	105.75
659.698	107.75
659.901	96.75
660.105	113.75
660.309	115.75
660.512	99.75
660.716	108.75
660.919	111.75
661.123	109.75
661.326	94.75
661.53	103.75
661.733	107.75
661.936	91.75
662.14	93.75
662.343	94.75
662.546	83.75
662.75	79.75
662.953	85.75
663.156	89.75
663.36	96.75
663.563	75.75
663.766	78.75
663.969	91.75
664.173	91.75
664.376	72.75
664.579	89.75
664.782	79.75
664.985	90.75
665.188	93.75
665.391	82.75
665.594	85.75
665.797	86.75
666	90.75
666.203	95.75
666.406	91.75
666.609	69.75
666.812	95.75
667.015	78.75
667.218	94.75
667.421	92.75
667.624	90.75
667.827	95.75
668.03	87.75
668.232	94.75
668.435	68.75
668.638	87.75
668.841	86.75
669.043	89.75
669.246	90.75
669.449	85.75
669.651	73.75
669.854	86.75
670.057	98.75
670.259	76.75
670.462	91.75
670.665	89.75
670.867	89.75
671.07	86.75
671.272	98.75
671.475	94.75
671.677	81.75
671.88	88.75
672.082	74.75
672.284	84.75
672.487	76.75
672.689	75.75
672.892	73.75
