Data from NiCl2@0.5M.TitratingCurve.Agarose3%dH2O.NegLispCup.LampEnergy10.LIBS07252019_HRD10591_18-19-28-573.txt Node
Date: Thu Jul 25 18:19:28 EDT 2019
User: cochatt
Spectrometer: HR+D1059
Trigger mode: 1
Integration Time (sec): 1.000000E-1
Scans to average: 1
Electric dark correction enabled: true
Nonlinearity correction enabled: false
Boxcar width: 0
XAxis mode: Wavelengths
Number of Pixels in Spectrum: 2048
>>>>>Begin Spectral Data<<<<<
223.165	-18.5
223.4	-18.5
223.635	-18.5
223.869	-6.5
224.104	-14.5
224.338	-2.5
224.573	-24.5
224.808	-15.5
225.042	-3.5
225.277	-19.5
225.511	-2.5
225.746	14.5
225.98	11.5
226.215	4.5
226.449	21.5
226.683	10.5
226.918	20.5
227.152	24.5
227.387	39.5
227.621	38.5
227.856	36.5
228.09	36.5
228.324	39.5
228.559	62.5
228.793	62.5
229.027	108.5
229.262	94.5
229.496	110.5
229.73	120.5
229.964	123.5
230.199	127.5
230.433	130.5
230.667	126.5
230.901	131.5
231.136	121.5
231.37	143.5
231.604	135.5
231.838	140.5
232.072	140.5
232.306	142.5
232.541	145.5
232.775	144.5
233.009	133.5
233.243	132.5
233.477	149.5
233.711	146.5
233.945	154.5
234.179	147.5
234.413	156.5
234.647	140.5
234.881	133.5
235.115	153.5
235.349	138.5
235.583	135.5
235.817	148.5
236.051	140.5
236.285	128.5
236.519	138.5
236.753	132.5
236.987	139.5
237.221	135.5
237.455	152.5
237.689	162.5
237.922	149.5
238.156	155.5
238.39	153.5
238.624	157.5
238.858	157.5
239.091	141.5
239.325	155.5
239.559	158.5
239.793	159.5
240.027	156.5
240.26	157.5
240.494	164.5
240.728	178.5
240.961	173.5
241.195	169.5
241.429	184.5
241.662	173.5
241.896	181.5
242.13	185.5
242.363	169.5
242.597	169.5
242.83	179.5
243.064	171.5
243.298	188.5
243.531	184.5
243.765	187.5
243.998	174.5
244.232	185.5
244.465	202.5
244.699	182.5
244.932	196.5
245.166	190.5
245.399	202.5
245.633	212.5
245.866	195.5
246.099	200.5
246.333	207.5
246.566	217.5
246.8	207.5
247.033	189.5
247.266	208.5
247.5	201.5
247.733	216.5
247.966	210.5
248.2	217.5
248.433	212.5
248.666	215.5
248.899	215.5
249.133	226.5
249.366	225.5
249.599	240.5
249.832	229.5
250.066	238.5
250.299	245.5
250.532	223.5
250.765	219.5
250.998	232.5
251.231	246.5
251.465	248.5
251.698	232.5
251.931	243.5
252.164	234.5
252.397	235.5
252.63	257.5
252.863	233.5
253.096	263.5
253.329	241.5
253.562	242.5
253.795	247.5
254.028	254.5
254.261	250.5
254.494	236.5
254.727	239.5
254.96	259.5
255.193	245.5
255.426	258.5
255.659	258.5
255.892	261.5
256.124	245.5
256.357	260.5
256.59	254.5
256.823	269.5
257.056	270.5
257.289	272.5
257.521	268.5
257.754	269.5
257.987	266.5
258.22	266.5
258.452	273.5
258.685	278.5
258.918	274.5
259.151	285.5
259.383	266.5
259.616	286.5
259.849	287.5
260.081	270.5
260.314	286.5
260.547	278.5
260.779	277.5
261.012	296.5
261.244	299.5
261.477	299.5
261.71	292.5
261.942	291.5
262.175	307.5
262.407	307.5
262.64	297.5
262.872	304.5
263.105	312.5
263.337	317.5
263.57	304.5
263.802	324.5
264.035	302.5
264.267	316.5
264.499	319.5
264.732	290.5
264.964	309.5
265.197	318.5
265.429	317.5
265.661	322.5
265.894	321.5
266.126	322.5
266.358	317.5
266.591	331.5
266.823	331.5
267.055	309.5
267.287	328.5
267.52	326.5
267.752	334.5
267.984	319.5
268.216	326.5
268.448	347.5
268.681	329.5
268.913	352.5
269.145	342.5
269.377	350.5
269.609	347.5
269.841	326.5
270.073	342.5
270.306	337.5
270.538	332.5
270.77	354.5
271.002	363.5
271.234	355.5
271.466	349.5
271.698	356.5
271.93	309.5
272.162	345.5
272.394	377.5
272.626	352.5
272.858	358.5
273.09	347.5
273.322	370.5
273.553	372.5
273.785	364.5
274.017	346.5
274.249	384.5
274.481	368.5
274.713	361.5
274.945	368.5
275.176	370.5
275.408	385.5
275.64	380.5
275.872	380.5
276.104	361.5
276.335	363.5
276.567	379.5
276.799	376.5
277.031	376.5
277.262	398.5
277.494	398.5
277.726	398.5
277.957	399.5
278.189	370.5
278.421	404.5
278.652	410.5
278.884	372.5
279.115	396.5
279.347	389.5
279.579	409.5
279.81	400.5
280.042	412.5
280.273	405.5
280.505	387.5
280.736	417.5
280.968	403.5
281.199	420.5
281.431	430.5
281.662	419.5
281.894	412.5
282.125	426.5
282.356	416.5
282.588	434.5
282.819	426.5
283.051	429.5
283.282	434.5
283.513	432.5
283.745	441.5
283.976	433.5
284.207	433.5
284.439	433.5
284.67	440.5
284.901	438.5
285.132	441.5
285.364	439.5
285.595	437.5
285.826	433.5
286.057	461.5
286.288	456.5
286.52	470.5
286.751	433.5
286.982	472.5
287.213	441.5
287.444	471.5
287.675	449.5
287.906	448.5
288.138	481.5
288.369	458.5
288.6	461.5
288.831	459.5
289.062	483.5
289.293	471.5
289.524	462.5
289.755	457.5
289.986	470.5
290.217	476.5
290.448	465.5
290.679	491.5
290.91	491.5
291.141	483.5
291.371	478.5
291.602	484.5
291.833	482.5
292.064	478.5
292.295	481.5
292.526	476.5
292.757	488.5
292.987	467.5
293.218	480.5
293.449	498.5
293.68	508.5
293.91	467.5
294.141	478.5
294.372	473.5
294.603	473.5
294.833	485.5
295.064	523.5
295.295	506.5
295.525	484.5
295.756	508.5
295.987	483.5
296.217	497.5
296.448	498.5
296.679	487.5
296.909	504.5
297.14	508.5
297.37	504.5
297.601	525.5
297.831	528.5
298.062	508.5
298.292	514.5
298.523	526.5
298.753	531.5
298.984	509.5
299.214	512.5
299.445	529.5
299.675	540.5
299.905	512.5
300.136	525.5
300.366	540.5
300.597	525.5
300.827	521.5
301.057	557.5
301.288	555.5
301.518	569.5
301.748	554.5
301.979	560.5
302.209	538.5
302.439	548.5
302.669	518.5
302.9	536.5
303.13	527.5
303.36	566.5
303.59	553.5
303.82	552.5
304.051	576.5
304.281	564.5
304.511	550.5
304.741	542.5
304.971	542.5
305.201	578.5
305.431	546.5
305.661	570.5
305.891	545.5
306.121	561.5
306.352	544.5
306.582	566.5
306.812	517.5
307.042	551.5
307.272	544.5
307.502	562.5
307.731	536.5
307.961	566.5
308.191	524.5
308.421	556.5
308.651	540.5
308.881	556.5
309.111	556.5
309.341	526.5
309.571	561.5
309.8	548.5
310.03	570.5
310.26	558.5
310.49	587.5
310.72	564.5
310.949	534.5
311.179	563.5
311.409	572.5
311.639	550.5
311.868	583.5
312.098	581.5
312.328	541.5
312.557	579.5
312.787	575.5
313.017	577.5
313.246	581.5
313.476	578.5
313.706	601.5
313.935	573.5
314.165	589.5
314.394	566.5
314.624	573.5
314.853	588.5
315.083	573.5
315.312	590.5
315.542	576.5
315.771	580.5
316.001	594.5
316.23	579.5
316.46	588.5
316.689	600.5
316.919	571.5
317.148	576.5
317.377	579.5
317.607	602.5
317.836	565.5
318.065	587.5
318.295	593.5
318.524	588.5
318.753	579.5
318.983	564.5
319.212	589.5
319.441	565.5
319.67	587.5
319.9	580.5
320.129	586.5
320.358	605.5
320.587	578.5
320.816	580.5
321.046	576.5
321.275	591.5
321.504	600.5
321.733	597.5
321.962	604.5
322.191	584.5
322.42	567.5
322.649	610.5
322.878	594.5
323.108	597.5
323.337	596.5
323.566	625.5
323.795	591.5
324.024	612.5
324.253	606.5
324.482	615.5
324.71	594.5
324.939	631.5
325.168	632.5
325.397	593.5
325.626	620.5
325.855	635.5
326.084	664.5
326.313	629.5
326.542	634.5
326.77	639.5
326.999	633.5
327.228	630.5
327.457	638.5
327.686	614.5
327.914	640.5
328.143	654.5
328.372	628.5
328.6	627.5
328.829	641.5
329.058	638.5
329.287	638.5
329.515	626.5
329.744	646.5
329.972	648.5
330.201	644.5
330.43	644.5
330.658	663.5
330.887	671.5
331.115	653.5
331.344	677.5
331.572	689.5
331.801	691.5
332.03	709.5
332.258	724.5
332.486	723.5
332.715	732.5
332.943	764.5
333.172	775.5
333.4	770.5
333.629	789.5
333.857	798.5
334.085	796.5
334.314	780.5
334.542	773.5
334.771	809.5
334.999	795.5
335.227	768.5
335.455	782.5
335.684	770.5
335.912	768.5
336.14	768.5
336.369	769.5
336.597	753.5
336.825	757.5
337.053	768.5
337.281	735.5
337.51	740.5
337.738	716.5
337.966	717.5
338.194	717.5
338.422	706.5
338.65	718.5
338.878	689.5
339.106	690.5
339.334	726.5
339.562	707.5
339.79	673.5
340.018	675.5
340.246	661.5
340.474	669.5
340.702	683.5
340.93	674.5
341.158	691.5
341.386	672.5
341.614	704.5
341.842	682.5
342.07	652.5
342.298	693.5
342.526	666.5
342.754	657.5
342.981	686.5
343.209	680.5
343.437	705.5
343.665	740.5
343.893	775.5
344.12	786.5
344.348	769.5
344.576	748.5
344.804	726.5
345.031	692.5
345.259	686.5
345.487	667.5
345.714	673.5
345.942	672.5
346.17	695.5
346.397	685.5
346.625	652.5
346.853	655.5
347.08	650.5
347.308	658.5
347.535	653.5
347.763	656.5
347.99	655.5
348.218	674.5
348.445	633.5
348.673	655.5
348.9	657.5
349.128	651.5
349.355	657.5
349.583	674.5
349.81	640.5
350.037	654.5
350.265	628.5
350.492	638.5
350.72	626.5
350.947	641.5
351.174	641.5
351.402	662.5
351.629	644.5
351.856	641.5
352.083	632.5
352.311	629.5
352.538	624.5
352.765	653.5
352.992	614.5
353.22	636.5
353.447	605.5
353.674	621.5
353.901	601.5
354.128	636.5
354.355	590.5
354.583	582.5
354.81	589.5
355.037	619.5
355.264	636.5
355.491	631.5
355.718	612.5
355.945	621.5
356.172	632.5
356.399	620.5
356.626	628.5
356.853	629.5
357.08	633.5
357.307	615.5
357.534	650.5
357.761	619.5
357.988	619.5
358.215	622.5
358.441	602.5
358.668	618.5
358.895	602.5
359.122	607.5
359.349	609.5
359.576	637.5
359.802	618.5
360.029	622.5
360.256	620.5
360.483	631.5
360.709	614.5
360.936	620.5
361.163	616.5
361.39	639.5
361.616	636.5
361.843	611.5
362.07	638.5
362.296	643.5
362.523	629.5
362.749	638.5
362.976	600.5
363.203	622.5
363.429	603.5
363.656	601.5
363.882	602.5
364.109	589.5
364.335	618.5
364.562	600.5
364.788	617.5
365.015	628.5
365.241	607.5
365.468	598.5
365.694	606.5
365.92	594.5
366.147	594.5
366.373	614.5
366.599	610.5
366.826	609.5
367.052	628.5
367.278	623.5
367.505	613.5
367.731	602.5
367.957	621.5
368.184	598.5
368.41	636.5
368.636	621.5
368.862	613.5
369.089	618.5
369.315	636.5
369.541	621.5
369.767	634.5
369.993	628.5
370.219	630.5
370.445	647.5
370.672	638.5
370.898	654.5
371.124	659.5
371.35	645.5
371.576	661.5
371.802	653.5
372.028	635.5
372.254	658.5
372.48	638.5
372.706	658.5
372.932	679.5
373.158	666.5
373.384	662.5
373.61	652.5
373.835	664.5
374.061	659.5
374.287	650.5
374.513	679.5
374.739	679.5
374.965	680.5
375.191	706.5
375.416	703.5
375.642	681.5
375.868	656.5
376.094	641.5
376.319	689.5
376.545	649.5
376.771	647.5
376.997	646.5
377.222	643.5
377.448	642.5
377.674	632.5
377.899	652.5
378.125	644.5
378.35	631.5
378.576	641.5
378.802	646.5
379.027	609.5
379.253	630.5
379.478	640.5
379.704	624.5
379.929	628.5
380.155	604.5
380.38	645.5
380.606	646.5
380.831	638.5
381.057	654.5
381.282	641.5
381.507	640.5
381.733	636.5
381.958	647.5
382.184	670.5
382.409	673.5
382.634	679.5
382.86	658.5
383.085	653.5
383.31	680.5
383.535	669.5
383.761	680.5
383.986	685.5
384.211	712.5
384.436	714.5
384.662	714.5
384.887	730.5
385.112	745.5
385.337	747.5
385.562	744.5
385.787	770.5
386.013	772.5
386.238	749.5
386.463	744.5
386.688	736.5
386.913	738.5
387.138	755.5
387.363	756.5
387.588	762.5
387.813	752.5
388.038	750.5
388.263	745.5
388.488	757.5
388.713	767.5
388.938	726.5
389.163	740.5
389.387	733.5
389.612	710.5
389.837	731.5
390.062	740.5
390.287	730.5
390.512	720.5
390.736	729.5
390.961	767.5
391.186	776.5
391.411	796.5
391.636	785.5
391.86	814.5
392.085	827.5
392.31	827.5
392.534	807.5
392.759	818.5
392.984	802.5
393.208	792.5
393.433	772.5
393.658	808.5
393.882	781.5
394.107	779.5
394.331	821.5
394.556	798.5
394.78	802.5
395.005	804.5
395.229	808.5
395.454	810.5
395.678	823.5
395.903	833.5
396.127	832.5
396.352	789.5
396.576	810.5
396.801	816.5
397.025	810.5
397.249	821.5
397.474	827.5
397.698	828.5
397.922	813.5
398.147	828.5
398.371	883.5
398.595	892.5
398.82	896.5
399.044	969.5
399.268	1051.5
399.492	1138.5
399.717	1253.5
399.941	1230.5
400.165	1177.5
400.389	1042.5
400.613	1016.5
400.837	990.5
401.062	947.5
401.286	936.5
401.51	946.5
401.734	925.5
401.958	927.5
402.182	944.5
402.406	928.5
402.63	968.5
402.854	999.5
403.078	1003.5
403.302	998.5
403.526	990.5
403.75	1027.5
403.974	1024.5
404.198	1036.5
404.422	1010.5
404.645	1015.5
404.869	1001.5
405.093	1004.5
405.317	1017.5
405.541	960.5
405.765	990.5
405.988	983.5
406.212	1010.5
406.436	1012.5
406.66	1026.5
406.883	1048.5
407.107	1094.5
407.331	1105.5
407.555	1129.5
407.778	1125.5
408.002	1124.5
408.226	1129.5
408.449	1093.5
408.673	1075.5
408.896	1057.5
409.12	1052.5
409.344	1041.5
409.567	1027.5
409.791	1026.5
410.014	1008.5
410.238	1011.5
410.461	1021.5
410.685	1013.5
410.908	1002.5
411.132	979.5
411.355	956.5
411.578	977.5
411.802	980.5
412.025	950.5
412.249	979.5
412.472	994.5
412.695	951.5
412.919	950.5
413.142	958.5
413.365	948.5
413.589	938.5
413.812	916.5
414.035	958.5
414.258	928.5
414.482	934.5
414.705	962.5
414.928	946.5
415.151	952.5
415.374	946.5
415.597	931.5
415.821	910.5
416.044	926.5
416.267	922.5
416.49	911.5
416.713	908.5
416.936	917.5
417.159	933.5
417.382	926.5
417.605	897.5
417.828	920.5
418.051	920.5
418.274	925.5
418.497	903.5
418.72	935.5
418.943	930.5
419.166	981.5
419.389	1085.5
419.611	998.5
419.834	995.5
420.057	973.5
420.28	944.5
420.503	919.5
420.726	928.5
420.948	923.5
421.171	916.5
421.394	944.5
421.617	923.5
421.839	924.5
422.062	939.5
422.285	891.5
422.507	948.5
422.73	924.5
422.953	946.5
423.175	974.5
423.398	975.5
423.621	955.5
423.843	962.5
424.066	984.5
424.288	952.5
424.511	925.5
424.733	940.5
424.956	928.5
425.178	938.5
425.401	957.5
425.623	944.5
425.846	926.5
426.068	918.5
426.291	902.5
426.513	889.5
426.735	906.5
426.958	867.5
427.18	880.5
427.402	890.5
427.625	880.5
427.847	854.5
428.069	870.5
428.292	869.5
428.514	857.5
428.736	879.5
428.958	878.5
429.181	840.5
429.403	866.5
429.625	827.5
429.847	832.5
430.069	843.5
430.292	852.5
430.514	826.5
430.736	837.5
430.958	848.5
431.18	857.5
431.402	832.5
431.624	862.5
431.846	874.5
432.068	871.5
432.29	874.5
432.512	851.5
432.734	862.5
432.956	853.5
433.178	872.5
433.4	875.5
433.622	867.5
433.844	864.5
434.066	868.5
434.287	891.5
434.509	920.5
434.731	939.5
434.953	948.5
435.175	966.5
435.397	963.5
435.618	920.5
435.84	874.5
436.062	892.5
436.284	880.5
436.505	863.5
436.727	879.5
436.949	908.5
437.17	886.5
437.392	875.5
437.614	886.5
437.835	848.5
438.057	856.5
438.278	840.5
438.5	841.5
438.721	838.5
438.943	870.5
439.165	837.5
439.386	861.5
439.608	893.5
439.829	861.5
440.05	906.5
440.272	902.5
440.493	892.5
440.715	888.5
440.936	915.5
441.158	906.5
441.379	944.5
441.6	949.5
441.822	997.5
442.043	969.5
442.264	960.5
442.486	920.5
442.707	938.5
442.928	953.5
443.149	943.5
443.371	945.5
443.592	982.5
443.813	952.5
444.034	960.5
444.255	980.5
444.476	1017.5
444.698	1088.5
444.919	1101.5
445.14	1202.5
445.361	1097.5
445.582	994.5
445.803	954.5
446.024	920.5
446.245	938.5
446.466	930.5
446.687	872.5
446.908	901.5
447.129	886.5
447.35	883.5
447.571	866.5
447.792	848.5
448.013	814.5
448.234	824.5
448.455	832.5
448.675	859.5
448.896	826.5
449.117	816.5
449.338	822.5
449.559	818.5
449.779	788.5
450	820.5
450.221	788.5
450.442	846.5
450.662	827.5
450.883	845.5
451.104	833.5
451.324	806.5
451.545	811.5
451.766	834.5
451.986	831.5
452.207	796.5
452.428	805.5
452.648	803.5
452.869	794.5
453.089	769.5
453.31	803.5
453.53	795.5
453.751	782.5
453.971	760.5
454.192	775.5
454.412	794.5
454.633	816.5
454.853	779.5
455.073	792.5
455.294	780.5
455.514	789.5
455.734	784.5
455.955	778.5
456.175	779.5
456.395	773.5
456.616	772.5
456.836	767.5
457.056	760.5
457.276	740.5
457.497	776.5
457.717	778.5
457.937	777.5
458.157	777.5
458.377	811.5
458.598	814.5
458.818	835.5
459.038	842.5
459.258	848.5
459.478	885.5
459.698	939.5
459.918	908.5
460.138	962.5
460.358	1007.5
460.578	997.5
460.798	1039.5
461.018	1027.5
461.238	1017.5
461.458	1026.5
461.678	986.5
461.898	996.5
462.118	1030.5
462.338	1074.5
462.558	1078.5
462.777	1116.5
462.997	1223.5
463.217	1252.5
463.437	1291.5
463.657	1226.5
463.876	1162.5
464.096	1180.5
464.316	1129.5
464.536	1155.5
464.755	1133.5
464.975	1087.5
465.195	1054.5
465.414	1018.5
465.634	966.5
465.854	898.5
466.073	913.5
466.293	918.5
466.512	914.5
466.732	867.5
466.951	882.5
467.171	864.5
467.391	889.5
467.61	860.5
467.829	867.5
468.049	842.5
468.268	838.5
468.488	846.5
468.707	850.5
468.927	852.5
469.146	828.5
469.365	833.5
469.585	855.5
469.804	882.5
470.023	886.5
470.243	856.5
470.462	858.5
470.681	862.5
470.901	872.5
471.12	882.5
471.339	873.5
471.558	837.5
471.777	871.5
471.997	892.5
472.216	857.5
472.435	833.5
472.654	837.5
472.873	822.5
473.092	814.5
473.311	831.5
473.53	804.5
473.749	800.5
473.968	827.5
474.187	842.5
474.406	856.5
474.625	826.5
474.844	852.5
475.063	828.5
475.282	845.5
475.501	842.5
475.72	830.5
475.939	819.5
476.158	874.5
476.377	888.5
476.596	875.5
476.814	875.5
477.033	880.5
477.252	880.5
477.471	922.5
477.69	935.5
477.908	949.5
478.127	983.5
478.346	985.5
478.564	989.5
478.783	971.5
479.002	1045.5
479.22	1016.5
479.439	1012.5
479.658	978.5
479.876	1014.5
480.095	1008.5
480.313	1033.5
480.532	1057.5
480.751	1083.5
480.969	1014.5
481.188	977.5
481.406	975.5
481.624	979.5
481.843	942.5
482.061	936.5
482.28	978.5
482.498	934.5
482.717	927.5
482.935	953.5
483.153	949.5
483.372	957.5
483.59	954.5
483.808	947.5
484.027	957.5
484.245	940.5
484.463	951.5
484.681	980.5
484.9	994.5
485.118	981.5
485.336	974.5
485.554	979.5
485.772	983.5
485.99	988.5
486.209	1048.5
486.427	1019.5
486.645	988.5
486.863	1006.5
487.081	988.5
487.299	1013.5
487.517	996.5
487.735	992.5
487.953	1002.5
488.171	1014.5
488.389	1013.5
488.607	980.5
488.825	970.5
489.043	971.5
489.261	977.5
489.479	949.5
489.696	997.5
489.914	969.5
490.132	1014.5
490.35	1005.5
490.568	1028.5
490.786	989.5
491.003	986.5
491.221	1021.5
491.439	1024.5
491.657	1028.5
491.874	1023.5
492.092	1032.5
492.31	1049.5
492.527	1068.5
492.745	1046.5
492.963	1056.5
493.18	1046.5
493.398	1044.5
493.615	1056.5
493.833	1067.5
494.05	1055.5
494.268	1050.5
494.485	1094.5
494.703	1099.5
494.92	1092.5
495.138	1074.5
495.355	1064.5
495.573	1064.5
495.79	1069.5
496.008	1095.5
496.225	1107.5
496.442	1093.5
496.66	1118.5
496.877	1145.5
497.094	1152.5
497.312	1161.5
497.529	1186.5
497.746	1186.5
497.963	1239.5
498.181	1251.5
498.398	1297.5
498.615	1384.5
498.832	1445.5
499.049	1542.5
499.267	1631.5
499.484	1720.5
499.701	1907.5
499.918	2068.5
500.135	2331.5
500.352	2516.5
500.569	2582.5
500.786	2547.5
501.003	2464.5
501.22	2258.5
501.437	2051.5
501.654	1860.5
501.871	1724.5
502.088	1628.5
502.305	1489.5
502.522	1469.5
502.739	1404.5
502.956	1361.5
503.172	1259.5
503.389	1250.5
503.606	1236.5
503.823	1193.5
504.04	1206.5
504.256	1214.5
504.473	1192.5
504.69	1236.5
504.907	1174.5
505.123	1131.5
505.34	1098.5
505.557	1047.5
505.773	1018.5
505.99	1001.5
506.207	999.5
506.423	980.5
506.64	978.5
506.856	961.5
507.073	951.5
507.289	952.5
507.506	924.5
507.722	927.5
507.939	948.5
508.155	910.5
508.372	925.5
508.588	914.5
508.805	889.5
509.021	912.5
509.238	900.5
509.454	859.5
509.67	894.5
509.887	866.5
510.103	877.5
510.319	835.5
510.536	851.5
510.752	844.5
510.968	850.5
511.184	847.5
511.401	845.5
511.617	840.5
511.833	844.5
512.049	841.5
512.265	848.5
512.481	858.5
512.698	849.5
512.914	851.5
513.13	842.5
513.346	863.5
513.562	850.5
513.778	858.5
513.994	818.5
514.21	853.5
514.426	833.5
514.642	882.5
514.858	853.5
515.074	874.5
515.29	878.5
515.506	883.5
515.721	902.5
515.937	901.5
516.153	924.5
516.369	891.5
516.585	957.5
516.801	961.5
517.016	1000.5
517.232	1025.5
517.448	1052.5
517.664	1066.5
517.879	1091.5
518.095	1086.5
518.311	1078.5
518.527	1048.5
518.742	1001.5
518.958	954.5
519.173	941.5
519.389	928.5
519.605	932.5
519.82	910.5
520.036	894.5
520.251	868.5
520.467	866.5
520.682	829.5
520.898	850.5
521.113	840.5
521.329	826.5
521.544	817.5
521.76	833.5
521.975	826.5
522.19	790.5
522.406	820.5
522.621	787.5
522.836	788.5
523.052	788.5
523.267	790.5
523.482	782.5
523.698	790.5
523.913	765.5
524.128	749.5
524.343	777.5
524.559	779.5
524.774	780.5
524.989	790.5
525.204	815.5
525.419	775.5
525.634	784.5
525.849	778.5
526.064	761.5
526.28	768.5
526.495	753.5
526.71	748.5
526.925	762.5
527.14	747.5
527.355	746.5
527.57	729.5
527.785	755.5
527.999	748.5
528.214	738.5
528.429	780.5
528.644	754.5
528.859	769.5
529.074	764.5
529.289	776.5
529.503	771.5
529.718	786.5
529.933	774.5
530.148	750.5
530.363	747.5
530.577	730.5
530.792	756.5
531.007	748.5
531.221	724.5
531.436	739.5
531.651	736.5
531.865	755.5
532.08	728.5
532.295	754.5
532.509	756.5
532.724	727.5
532.938	752.5
533.153	737.5
533.367	749.5
533.582	740.5
533.796	729.5
534.011	725.5
534.225	714.5
534.44	727.5
534.654	705.5
534.868	730.5
535.083	701.5
535.297	718.5
535.511	698.5
535.726	731.5
535.94	725.5
536.154	708.5
536.369	688.5
536.583	669.5
536.797	696.5
537.011	689.5
537.225	689.5
537.44	692.5
537.654	691.5
537.868	667.5
538.082	694.5
538.296	694.5
538.51	698.5
538.724	698.5
538.938	694.5
539.153	681.5
539.367	682.5
539.581	664.5
539.795	678.5
540.009	680.5
540.222	678.5
540.436	697.5
540.65	684.5
540.864	668.5
541.078	686.5
541.292	667.5
541.506	675.5
541.72	688.5
541.934	702.5
542.147	692.5
542.361	704.5
542.575	690.5
542.789	677.5
543.002	665.5
543.216	655.5
543.43	673.5
543.644	677.5
543.857	676.5
544.071	677.5
544.285	688.5
544.498	670.5
544.712	694.5
544.925	698.5
545.139	668.5
545.352	709.5
545.566	700.5
545.779	716.5
545.993	708.5
546.206	710.5
546.42	699.5
546.633	685.5
546.847	694.5
547.06	690.5
547.274	680.5
547.487	699.5
547.7	705.5
547.914	710.5
548.127	723.5
548.34	690.5
548.554	696.5
548.767	676.5
548.98	692.5
549.193	695.5
549.407	705.5
549.62	714.5
549.833	688.5
550.046	706.5
550.259	681.5
550.473	701.5
550.686	694.5
550.899	684.5
551.112	667.5
551.325	660.5
551.538	680.5
551.751	682.5
551.964	660.5
552.177	699.5
552.39	686.5
552.603	703.5
552.816	717.5
553.029	716.5
553.242	730.5
553.455	717.5
553.667	744.5
553.88	721.5
554.093	717.5
554.306	705.5
554.519	688.5
554.732	665.5
554.944	659.5
555.157	636.5
555.37	647.5
555.583	626.5
555.795	661.5
556.008	621.5
556.221	608.5
556.433	606.5
556.646	599.5
556.859	607.5
557.071	613.5
557.284	595.5
557.496	607.5
557.709	598.5
557.921	592.5
558.134	603.5
558.346	584.5
558.559	595.5
558.771	592.5
558.984	580.5
559.196	573.5
559.409	584.5
559.621	581.5
559.833	578.5
560.046	588.5
560.258	561.5
560.47	560.5
560.683	577.5
560.895	581.5
561.107	592.5
561.32	590.5
561.532	586.5
561.744	586.5
561.956	564.5
562.168	570.5
562.381	581.5
562.593	584.5
562.805	550.5
563.017	587.5
563.229	582.5
563.441	578.5
563.653	556.5
563.865	568.5
564.077	576.5
564.289	590.5
564.501	579.5
564.713	618.5
564.925	632.5
565.137	642.5
565.349	618.5
565.561	630.5
565.773	646.5
565.985	677.5
566.197	709.5
566.408	740.5
566.62	774.5
566.832	827.5
567.044	839.5
567.255	844.5
567.467	829.5
567.679	888.5
567.891	920.5
568.102	951.5
568.314	889.5
568.526	806.5
568.737	762.5
568.949	733.5
569.161	678.5
569.372	638.5
569.584	601.5
569.795	580.5
570.007	578.5
570.218	585.5
570.43	598.5
570.641	565.5
570.853	578.5
571.064	576.5
571.276	569.5
571.487	576.5
571.698	544.5
571.91	563.5
572.121	482.5
572.333	497.5
572.544	487.5
572.755	486.5
572.966	490.5
573.178	473.5
573.389	497.5
573.6	468.5
573.811	458.5
574.023	472.5
574.234	471.5
574.445	461.5
574.656	454.5
574.867	460.5
575.078	461.5
575.289	459.5
575.501	435.5
575.712	444.5
575.923	463.5
576.134	453.5
576.345	457.5
576.556	450.5
576.767	449.5
576.978	445.5
577.188	423.5
577.399	450.5
577.61	425.5
577.821	416.5
578.032	406.5
578.243	401.5
578.454	434.5
578.665	402.5
578.875	430.5
579.086	406.5
579.297	417.5
579.508	396.5
579.718	400.5
579.929	406.5
580.14	400.5
580.35	403.5
580.561	415.5
580.772	395.5
580.982	383.5
581.193	385.5
581.403	370.5
581.614	412.5
581.825	400.5
582.035	395.5
582.246	391.5
582.456	377.5
582.667	385.5
582.877	388.5
583.087	371.5
583.298	377.5
583.508	383.5
583.719	407.5
583.929	389.5
584.139	389.5
584.35	384.5
584.56	386.5
584.77	376.5
584.981	377.5
585.191	376.5
585.401	396.5
585.611	376.5
585.821	383.5
586.032	389.5
586.242	400.5
586.452	364.5
586.662	362.5
586.872	382.5
587.082	373.5
587.292	380.5
587.502	364.5
587.713	361.5
587.923	389.5
588.133	369.5
588.343	363.5
588.553	376.5
588.762	387.5
588.972	363.5
589.182	432.5
589.392	442.5
589.602	400.5
589.812	412.5
590.022	397.5
590.232	379.5
590.441	373.5
590.651	373.5
590.861	376.5
591.071	386.5
591.281	375.5
591.49	369.5
591.7	394.5
591.91	400.5
592.119	398.5
592.329	395.5
592.539	416.5
592.748	426.5
592.958	424.5
593.167	424.5
593.377	449.5
593.587	433.5
593.796	440.5
594.006	455.5
594.215	438.5
594.424	443.5
594.634	446.5
594.843	415.5
595.053	398.5
595.262	379.5
595.472	390.5
595.681	365.5
595.89	370.5
596.1	356.5
596.309	363.5
596.518	354.5
596.727	362.5
596.937	356.5
597.146	376.5
597.355	353.5
597.564	320.5
597.774	348.5
597.983	325.5
598.192	334.5
598.401	331.5
598.61	327.5
598.819	307.5
599.028	328.5
599.237	332.5
599.446	329.5
599.655	325.5
599.864	309.5
600.073	333.5
600.282	328.5
600.491	321.5
600.7	326.5
600.909	306.5
601.118	315.5
601.327	308.5
601.536	312.5
601.745	306.5
601.953	332.5
602.162	309.5
602.371	310.5
602.58	313.5
602.789	309.5
602.997	305.5
603.206	304.5
603.415	307.5
603.623	297.5
603.832	302.5
604.041	280.5
604.249	296.5
604.458	297.5
604.666	305.5
604.875	294.5
605.084	283.5
605.292	315.5
605.501	286.5
605.709	290.5
605.918	290.5
606.126	296.5
606.334	293.5
606.543	310.5
606.751	294.5
606.96	287.5
607.168	281.5
607.376	278.5
607.585	294.5
607.793	286.5
608.001	279.5
608.21	280.5
608.418	291.5
608.626	285.5
608.834	284.5
609.043	288.5
609.251	284.5
609.459	286.5
609.667	284.5
609.875	276.5
610.083	270.5
610.291	257.5
610.499	288.5
610.707	279.5
610.916	274.5
611.124	272.5
611.332	280.5
611.54	285.5
611.748	274.5
611.955	276.5
612.163	253.5
612.371	273.5
612.579	273.5
612.787	261.5
612.995	266.5
613.203	278.5
613.411	273.5
613.618	281.5
613.826	287.5
614.034	277.5
614.242	278.5
614.449	267.5
614.657	270.5
614.865	260.5
615.072	267.5
615.28	275.5
615.488	281.5
615.695	279.5
615.903	268.5
616.111	270.5
616.318	274.5
616.526	276.5
616.733	267.5
616.941	263.5
617.148	269.5
617.356	266.5
617.563	270.5
617.771	260.5
617.978	275.5
618.185	267.5
618.393	276.5
618.6	280.5
618.807	247.5
619.015	264.5
619.222	254.5
619.429	257.5
619.637	253.5
619.844	264.5
620.051	259.5
620.258	252.5
620.466	257.5
620.673	245.5
620.88	265.5
621.087	251.5
621.294	260.5
621.501	231.5
621.708	252.5
621.915	233.5
622.122	243.5
622.329	225.5
622.536	249.5
622.743	235.5
622.95	240.5
623.157	249.5
623.364	276.5
623.571	242.5
623.778	241.5
623.985	249.5
624.192	236.5
624.399	225.5
624.606	237.5
624.812	240.5
625.019	235.5
625.226	230.5
625.433	219.5
625.639	240.5
625.846	249.5
626.053	228.5
626.259	220.5
626.466	227.5
626.673	230.5
626.879	214.5
627.086	238.5
627.293	227.5
627.499	228.5
627.706	244.5
627.912	242.5
628.119	225.5
628.325	225.5
628.532	232.5
628.738	217.5
628.945	210.5
629.151	228.5
629.357	214.5
629.564	217.5
629.77	222.5
629.976	205.5
630.183	218.5
630.389	203.5
630.595	214.5
630.802	216.5
631.008	210.5
631.214	205.5
631.42	207.5
631.627	207.5
631.833	231.5
632.039	211.5
632.245	195.5
632.451	205.5
632.657	212.5
632.863	204.5
633.069	202.5
633.275	213.5
633.481	211.5
633.688	212.5
633.893	223.5
634.099	199.5
634.305	199.5
634.511	196.5
634.717	200.5
634.923	196.5
635.129	190.5
635.335	210.5
635.541	204.5
635.747	206.5
635.952	201.5
636.158	201.5
636.364	208.5
636.57	201.5
636.775	205.5
636.981	186.5
637.187	203.5
637.392	183.5
637.598	194.5
637.804	197.5
638.009	197.5
638.215	195.5
638.421	202.5
638.626	192.5
638.832	187.5
639.037	214.5
639.243	195.5
639.448	192.5
639.654	195.5
639.859	180.5
640.065	184.5
640.27	197.5
640.475	180.5
640.681	176.5
640.886	191.5
641.091	187.5
641.297	171.5
641.502	192.5
641.707	187.5
641.913	184.5
642.118	172.5
642.323	180.5
642.528	182.5
642.733	176.5
642.939	165.5
643.144	176.5
643.349	188.5
643.554	190.5
643.759	178.5
643.964	171.5
644.169	173.5
644.374	189.5
644.579	198.5
644.784	171.5
644.989	177.5
645.194	185.5
645.399	183.5
645.604	178.5
645.809	167.5
646.014	171.5
646.219	186.5
646.423	184.5
646.628	163.5
646.833	158.5
647.038	185.5
647.243	191.5
647.447	193.5
647.652	179.5
647.857	199.5
648.062	186.5
648.266	196.5
648.471	194.5
648.676	196.5
648.88	200.5
649.085	197.5
649.289	196.5
649.494	185.5
649.698	174.5
649.903	176.5
650.107	179.5
650.312	173.5
650.516	170.5
650.721	192.5
650.925	152.5
651.13	169.5
651.334	174.5
651.539	169.5
651.743	171.5
651.947	165.5
652.152	154.5
652.356	170.5
652.56	156.5
652.764	163.5
652.969	162.5
653.173	158.5
653.377	143.5
653.581	148.5
653.785	160.5
653.99	158.5
654.194	154.5
654.398	156.5
654.602	147.5
654.806	124.5
655.01	134.5
655.214	139.5
655.418	141.5
655.622	146.5
655.826	134.5
656.03	130.5
656.234	131.5
656.438	147.5
656.642	143.5
656.846	133.5
657.049	152.5
657.253	126.5
657.457	129.5
657.661	140.5
657.865	128.5
658.068	122.5
658.272	116.5
658.476	126.5
658.68	106.5
658.883	114.5
659.087	102.5
659.291	126.5
659.494	118.5
659.698	112.5
659.901	109.5
660.105	94.5
660.309	99.5
660.512	105.5
660.716	101.5
660.919	98.5
661.123	105.5
661.326	92.5
661.53	94.5
661.733	88.5
661.936	96.5
662.14	84.5
662.343	101.5
662.546	93.5
662.75	77.5
662.953	112.5
663.156	110.5
663.36	88.5
663.563	97.5
663.766	93.5
663.969	68.5
664.173	83.5
664.376	81.5
664.579	77.5
664.782	93.5
664.985	84.5
665.188	78.5
665.391	79.5
665.594	84.5
665.797	94.5
666	85.5
666.203	90.5
666.406	77.5
666.609	98.5
666.812	98.5
667.015	80.5
667.218	83.5
667.421	71.5
667.624	93.5
667.827	84.5
668.03	78.5
668.232	80.5
668.435	74.5
668.638	94.5
668.841	74.5
669.043	77.5
669.246	81.5
669.449	72.5
669.651	81.5
669.854	91.5
670.057	73.5
670.259	91.5
670.462	95.5
670.665	89.5
670.867	82.5
671.07	87.5
671.272	77.5
671.475	83.5
671.677	98.5
671.88	88.5
672.082	91.5
672.284	79.5
672.487	86.5
672.689	83.5
672.892	88.5
