Data from NiCl2@0.25M.TitratingCurve.Agarose3%dH2O.NegLispCup.LampEnergy10.LIBS07252019_HRD10591_18-24-30-572.txt Node
Date: Thu Jul 25 18:24:30 EDT 2019
User: cochatt
Spectrometer: HR+D1059
Trigger mode: 1
Integration Time (sec): 1.000000E-1
Scans to average: 1
Electric dark correction enabled: true
Nonlinearity correction enabled: false
Boxcar width: 0
XAxis mode: Wavelengths
Number of Pixels in Spectrum: 2048
>>>>>Begin Spectral Data<<<<<
223.165	-12.44
223.4	-12.44
223.635	-12.44
223.869	-28.44
224.104	-26.44
224.338	-1.44
224.573	-9.44
224.808	-20.44
225.042	-3.44
225.277	2.56
225.511	-7.44
225.746	6.56
225.98	5.56
226.215	3.56
226.449	17.56
226.683	22.56
226.918	25.56
227.152	25.56
227.387	36.56
227.621	26.56
227.856	40.56
228.09	51.56
228.324	59.56
228.559	58.56
228.793	63.56
229.027	118.56
229.262	117.56
229.496	138.56
229.73	137.56
229.964	141.56
230.199	147.56
230.433	147.56
230.667	149.56
230.901	146.56
231.136	151.56
231.37	156.56
231.604	163.56
231.838	164.56
232.072	151.56
232.306	187.56
232.541	178.56
232.775	170.56
233.009	168.56
233.243	161.56
233.477	176.56
233.711	163.56
233.945	171.56
234.179	181.56
234.413	172.56
234.647	173.56
234.881	167.56
235.115	176.56
235.349	179.56
235.583	185.56
235.817	191.56
236.051	176.56
236.285	172.56
236.519	189.56
236.753	180.56
236.987	179.56
237.221	168.56
237.455	192.56
237.689	190.56
237.922	179.56
238.156	201.56
238.39	202.56
238.624	202.56
238.858	199.56
239.091	199.56
239.325	202.56
239.559	199.56
239.793	209.56
240.027	208.56
240.26	224.56
240.494	199.56
240.728	212.56
240.961	223.56
241.195	215.56
241.429	227.56
241.662	200.56
241.896	217.56
242.13	227.56
242.363	213.56
242.597	248.56
242.83	242.56
243.064	227.56
243.298	241.56
243.531	231.56
243.765	250.56
243.998	268.56
244.232	245.56
244.465	266.56
244.699	259.56
244.932	257.56
245.166	256.56
245.399	271.56
245.633	256.56
245.866	259.56
246.099	274.56
246.333	255.56
246.566	295.56
246.8	258.56
247.033	275.56
247.266	284.56
247.5	282.56
247.733	278.56
247.966	295.56
248.2	287.56
248.433	286.56
248.666	289.56
248.899	284.56
249.133	291.56
249.366	295.56
249.599	304.56
249.832	300.56
250.066	295.56
250.299	302.56
250.532	299.56
250.765	313.56
250.998	318.56
251.231	317.56
251.465	308.56
251.698	307.56
251.931	296.56
252.164	317.56
252.397	315.56
252.63	340.56
252.863	345.56
253.096	343.56
253.329	326.56
253.562	328.56
253.795	340.56
254.028	342.56
254.261	348.56
254.494	354.56
254.727	341.56
254.96	330.56
255.193	350.56
255.426	365.56
255.659	371.56
255.892	364.56
256.124	365.56
256.357	357.56
256.59	372.56
256.823	356.56
257.056	371.56
257.289	367.56
257.521	364.56
257.754	367.56
257.987	365.56
258.22	394.56
258.452	345.56
258.685	389.56
258.918	367.56
259.151	368.56
259.383	379.56
259.616	390.56
259.849	387.56
260.081	403.56
260.314	396.56
260.547	380.56
260.779	385.56
261.012	401.56
261.244	395.56
261.477	395.56
261.71	411.56
261.942	401.56
262.175	391.56
262.407	417.56
262.64	397.56
262.872	414.56
263.105	413.56
263.337	428.56
263.57	419.56
263.802	435.56
264.035	434.56
264.267	432.56
264.499	408.56
264.732	427.56
264.964	439.56
265.197	431.56
265.429	415.56
265.661	436.56
265.894	423.56
266.126	447.56
266.358	443.56
266.591	432.56
266.823	455.56
267.055	444.56
267.287	442.56
267.52	450.56
267.752	452.56
267.984	468.56
268.216	450.56
268.448	453.56
268.681	455.56
268.913	455.56
269.145	453.56
269.377	472.56
269.609	483.56
269.841	472.56
270.073	460.56
270.306	465.56
270.538	461.56
270.77	471.56
271.002	470.56
271.234	484.56
271.466	479.56
271.698	480.56
271.93	495.56
272.162	507.56
272.394	487.56
272.626	468.56
272.858	492.56
273.09	490.56
273.322	524.56
273.553	499.56
273.785	513.56
274.017	523.56
274.249	504.56
274.481	502.56
274.713	513.56
274.945	504.56
275.176	497.56
275.408	521.56
275.64	520.56
275.872	505.56
276.104	523.56
276.335	537.56
276.567	540.56
276.799	525.56
277.031	514.56
277.262	529.56
277.494	541.56
277.726	555.56
277.957	538.56
278.189	528.56
278.421	535.56
278.652	536.56
278.884	556.56
279.115	543.56
279.347	545.56
279.579	548.56
279.81	551.56
280.042	553.56
280.273	552.56
280.505	562.56
280.736	579.56
280.968	579.56
281.199	588.56
281.431	551.56
281.662	562.56
281.894	588.56
282.125	587.56
282.356	573.56
282.588	603.56
282.819	578.56
283.051	604.56
283.282	588.56
283.513	583.56
283.745	599.56
283.976	590.56
284.207	604.56
284.439	603.56
284.67	608.56
284.901	613.56
285.132	608.56
285.364	632.56
285.595	612.56
285.826	607.56
286.057	624.56
286.288	628.56
286.52	652.56
286.751	640.56
286.982	649.56
287.213	630.56
287.444	661.56
287.675	655.56
287.906	676.56
288.138	636.56
288.369	633.56
288.6	659.56
288.831	652.56
289.062	679.56
289.293	642.56
289.524	663.56
289.755	671.56
289.986	653.56
290.217	677.56
290.448	661.56
290.679	653.56
290.91	636.56
291.141	663.56
291.371	677.56
291.602	671.56
291.833	670.56
292.064	666.56
292.295	688.56
292.526	672.56
292.757	674.56
292.987	674.56
293.218	664.56
293.449	644.56
293.68	672.56
293.91	673.56
294.141	665.56
294.372	680.56
294.603	684.56
294.833	661.56
295.064	705.56
295.295	677.56
295.525	669.56
295.756	679.56
295.987	670.56
296.217	688.56
296.448	689.56
296.679	693.56
296.909	708.56
297.14	699.56
297.37	716.56
297.601	709.56
297.831	716.56
298.062	694.56
298.292	706.56
298.523	754.56
298.753	762.56
298.984	722.56
299.214	723.56
299.445	703.56
299.675	727.56
299.905	751.56
300.136	739.56
300.366	743.56
300.597	746.56
300.827	738.56
301.057	775.56
301.288	782.56
301.518	768.56
301.748	747.56
301.979	771.56
302.209	772.56
302.439	762.56
302.669	752.56
302.9	736.56
303.13	745.56
303.36	769.56
303.59	748.56
303.82	758.56
304.051	741.56
304.281	773.56
304.511	761.56
304.741	759.56
304.971	754.56
305.201	760.56
305.431	750.56
305.661	776.56
305.891	736.56
306.121	736.56
306.352	725.56
306.582	741.56
306.812	709.56
307.042	779.56
307.272	738.56
307.502	760.56
307.731	747.56
307.961	740.56
308.191	736.56
308.421	722.56
308.651	739.56
308.881	754.56
309.111	741.56
309.341	723.56
309.571	738.56
309.8	723.56
310.03	725.56
310.26	744.56
310.49	755.56
310.72	756.56
310.949	752.56
311.179	748.56
311.409	740.56
311.639	751.56
311.868	755.56
312.098	764.56
312.328	794.56
312.557	755.56
312.787	779.56
313.017	757.56
313.246	791.56
313.476	788.56
313.706	790.56
313.935	789.56
314.165	793.56
314.394	804.56
314.624	791.56
314.853	796.56
315.083	815.56
315.312	818.56
315.542	800.56
315.771	791.56
316.001	797.56
316.23	772.56
316.46	771.56
316.689	774.56
316.919	759.56
317.148	798.56
317.377	771.56
317.607	779.56
317.836	770.56
318.065	778.56
318.295	769.56
318.524	757.56
318.753	769.56
318.983	759.56
319.212	771.56
319.441	788.56
319.67	789.56
319.9	787.56
320.129	788.56
320.358	778.56
320.587	772.56
320.816	795.56
321.046	785.56
321.275	788.56
321.504	800.56
321.733	786.56
321.962	780.56
322.191	822.56
322.42	791.56
322.649	811.56
322.878	807.56
323.108	848.56
323.337	801.56
323.566	800.56
323.795	808.56
324.024	807.56
324.253	818.56
324.482	813.56
324.71	821.56
324.939	783.56
325.168	817.56
325.397	802.56
325.626	821.56
325.855	842.56
326.084	851.56
326.313	854.56
326.542	842.56
326.77	896.56
326.999	839.56
327.228	836.56
327.457	885.56
327.686	847.56
327.914	857.56
328.143	859.56
328.372	869.56
328.6	835.56
328.829	871.56
329.058	875.56
329.287	901.56
329.515	856.56
329.744	872.56
329.972	886.56
330.201	906.56
330.43	891.56
330.658	867.56
330.887	910.56
331.115	912.56
331.344	940.56
331.572	906.56
331.801	883.56
332.03	960.56
332.258	965.56
332.486	973.56
332.715	1008.56
332.943	1082.56
333.172	1126.56
333.4	1146.56
333.629	1188.56
333.857	1203.56
334.085	1187.56
334.314	1173.56
334.542	1144.56
334.771	1125.56
334.999	1133.56
335.227	1085.56
335.455	1094.56
335.684	1049.56
335.912	1084.56
336.14	1069.56
336.369	1064.56
336.597	1036.56
336.825	1058.56
337.053	1058.56
337.281	1042.56
337.51	994.56
337.738	1010.56
337.966	991.56
338.194	978.56
338.422	940.56
338.65	946.56
338.878	951.56
339.106	947.56
339.334	977.56
339.562	918.56
339.79	929.56
340.018	917.56
340.246	890.56
340.474	880.56
340.702	892.56
340.93	871.56
341.158	907.56
341.386	921.56
341.614	918.56
341.842	941.56
342.07	899.56
342.298	895.56
342.526	871.56
342.754	915.56
342.981	917.56
343.209	914.56
343.437	948.56
343.665	1017.56
343.893	1084.56
344.12	1120.56
344.348	1093.56
344.576	1041.56
344.804	965.56
345.031	946.56
345.259	935.56
345.487	936.56
345.714	893.56
345.942	898.56
346.17	903.56
346.397	878.56
346.625	878.56
346.853	847.56
347.08	849.56
347.308	890.56
347.535	867.56
347.763	850.56
347.99	894.56
348.218	889.56
348.445	870.56
348.673	841.56
348.9	858.56
349.128	858.56
349.355	872.56
349.583	873.56
349.81	846.56
350.037	845.56
350.265	843.56
350.492	839.56
350.72	837.56
350.947	838.56
351.174	839.56
351.402	824.56
351.629	827.56
351.856	838.56
352.083	826.56
352.311	823.56
352.538	828.56
352.765	848.56
352.992	823.56
353.22	833.56
353.447	825.56
353.674	815.56
353.901	811.56
354.128	835.56
354.355	796.56
354.583	831.56
354.81	833.56
355.037	845.56
355.264	837.56
355.491	840.56
355.718	849.56
355.945	854.56
356.172	801.56
356.399	841.56
356.626	830.56
356.853	833.56
357.08	829.56
357.307	825.56
357.534	831.56
357.761	860.56
357.988	853.56
358.215	840.56
358.441	829.56
358.668	836.56
358.895	836.56
359.122	864.56
359.349	845.56
359.576	800.56
359.802	838.56
360.029	823.56
360.256	824.56
360.483	821.56
360.709	825.56
360.936	834.56
361.163	857.56
361.39	845.56
361.616	864.56
361.843	840.56
362.07	855.56
362.296	825.56
362.523	822.56
362.749	839.56
362.976	814.56
363.203	836.56
363.429	817.56
363.656	808.56
363.882	833.56
364.109	817.56
364.335	841.56
364.562	836.56
364.788	829.56
365.015	823.56
365.241	800.56
365.468	813.56
365.694	850.56
365.92	848.56
366.147	831.56
366.373	823.56
366.599	799.56
366.826	798.56
367.052	818.56
367.278	851.56
367.505	820.56
367.731	843.56
367.957	828.56
368.184	844.56
368.41	859.56
368.636	857.56
368.862	829.56
369.089	858.56
369.315	856.56
369.541	859.56
369.767	839.56
369.993	860.56
370.219	860.56
370.445	866.56
370.672	851.56
370.898	901.56
371.124	883.56
371.35	910.56
371.576	918.56
371.802	895.56
372.028	911.56
372.254	876.56
372.48	909.56
372.706	938.56
372.932	941.56
373.158	958.56
373.384	923.56
373.61	897.56
373.835	905.56
374.061	934.56
374.287	920.56
374.513	920.56
374.739	973.56
374.965	959.56
375.191	1009.56
375.416	1001.56
375.642	976.56
375.868	966.56
376.094	953.56
376.319	948.56
376.545	901.56
376.771	929.56
376.997	896.56
377.222	916.56
377.448	923.56
377.674	886.56
377.899	905.56
378.125	891.56
378.35	885.56
378.576	885.56
378.802	886.56
379.027	903.56
379.253	886.56
379.478	898.56
379.704	904.56
379.929	900.56
380.155	892.56
380.38	889.56
380.606	872.56
380.831	887.56
381.057	895.56
381.282	882.56
381.507	908.56
381.733	937.56
381.958	902.56
382.184	945.56
382.409	929.56
382.634	925.56
382.86	922.56
383.085	959.56
383.31	985.56
383.535	951.56
383.761	1019.56
383.986	1032.56
384.211	1054.56
384.436	1061.56
384.662	1074.56
384.887	1119.56
385.112	1072.56
385.337	1136.56
385.562	1069.56
385.787	1096.56
386.013	1133.56
386.238	1132.56
386.463	1130.56
386.688	1122.56
386.913	1104.56
387.138	1098.56
387.363	1103.56
387.588	1073.56
387.813	1094.56
388.038	1078.56
388.263	1092.56
388.488	1098.56
388.713	1073.56
388.938	1098.56
389.163	1091.56
389.387	1067.56
389.612	1063.56
389.837	1077.56
390.062	1064.56
390.287	1085.56
390.512	1084.56
390.736	1093.56
390.961	1074.56
391.186	1095.56
391.411	1177.56
391.636	1215.56
391.86	1235.56
392.085	1276.56
392.31	1266.56
392.534	1207.56
392.759	1181.56
392.984	1204.56
393.208	1167.56
393.433	1156.56
393.658	1165.56
393.882	1159.56
394.107	1162.56
394.331	1187.56
394.556	1135.56
394.78	1215.56
395.005	1174.56
395.229	1182.56
395.454	1236.56
395.678	1259.56
395.903	1248.56
396.127	1230.56
396.352	1177.56
396.576	1159.56
396.801	1149.56
397.025	1169.56
397.249	1203.56
397.474	1232.56
397.698	1245.56
397.922	1277.56
398.147	1263.56
398.371	1305.56
398.595	1288.56
398.82	1355.56
399.044	1503.56
399.268	1640.56
399.492	1879.56
399.717	2168.56
399.941	2113.56
400.165	1967.56
400.389	1733.56
400.613	1573.56
400.837	1467.56
401.062	1452.56
401.286	1434.56
401.51	1405.56
401.734	1401.56
401.958	1410.56
402.182	1435.56
402.406	1452.56
402.63	1465.56
402.854	1509.56
403.078	1485.56
403.302	1552.56
403.526	1553.56
403.75	1618.56
403.974	1628.56
404.198	1611.56
404.422	1618.56
404.645	1629.56
404.869	1594.56
405.093	1624.56
405.317	1526.56
405.541	1508.56
405.765	1539.56
405.988	1507.56
406.212	1550.56
406.436	1527.56
406.66	1575.56
406.883	1589.56
407.107	1698.56
407.331	1787.56
407.555	1819.56
407.778	1799.56
408.002	1818.56
408.226	1725.56
408.449	1689.56
408.673	1611.56
408.896	1591.56
409.12	1575.56
409.344	1579.56
409.567	1540.56
409.791	1546.56
410.014	1559.56
410.238	1540.56
410.461	1537.56
410.685	1532.56
410.908	1473.56
411.132	1480.56
411.355	1450.56
411.578	1454.56
411.802	1457.56
412.025	1441.56
412.249	1455.56
412.472	1461.56
412.695	1459.56
412.919	1397.56
413.142	1400.56
413.365	1387.56
413.589	1395.56
413.812	1372.56
414.035	1368.56
414.258	1343.56
414.482	1387.56
414.705	1419.56
414.928	1395.56
415.151	1415.56
415.374	1381.56
415.597	1381.56
415.821	1336.56
416.044	1353.56
416.267	1380.56
416.49	1367.56
416.713	1345.56
416.936	1371.56
417.159	1362.56
417.382	1363.56
417.605	1331.56
417.828	1385.56
418.051	1373.56
418.274	1364.56
418.497	1357.56
418.72	1419.56
418.943	1422.56
419.166	1500.56
419.389	1592.56
419.611	1564.56
419.834	1490.56
420.057	1475.56
420.28	1402.56
420.503	1359.56
420.726	1368.56
420.948	1349.56
421.171	1357.56
421.394	1378.56
421.617	1407.56
421.839	1364.56
422.062	1370.56
422.285	1337.56
422.507	1382.56
422.73	1383.56
422.953	1447.56
423.175	1396.56
423.398	1413.56
423.621	1402.56
423.843	1468.56
424.066	1486.56
424.288	1475.56
424.511	1447.56
424.733	1419.56
424.956	1427.56
425.178	1368.56
425.401	1399.56
425.623	1370.56
425.846	1345.56
426.068	1337.56
426.291	1321.56
426.513	1307.56
426.735	1300.56
426.958	1283.56
427.18	1255.56
427.402	1262.56
427.625	1246.56
427.847	1197.56
428.069	1205.56
428.292	1194.56
428.514	1199.56
428.736	1188.56
428.958	1222.56
429.181	1188.56
429.403	1184.56
429.625	1175.56
429.847	1159.56
430.069	1186.56
430.292	1177.56
430.514	1152.56
430.736	1157.56
430.958	1154.56
431.18	1136.56
431.402	1197.56
431.624	1188.56
431.846	1194.56
432.068	1230.56
432.29	1230.56
432.512	1181.56
432.734	1205.56
432.956	1158.56
433.178	1236.56
433.4	1210.56
433.622	1201.56
433.844	1251.56
434.066	1223.56
434.287	1215.56
434.509	1228.56
434.731	1332.56
434.953	1391.56
435.175	1378.56
435.397	1363.56
435.618	1282.56
435.84	1243.56
436.062	1203.56
436.284	1200.56
436.505	1204.56
436.727	1180.56
436.949	1196.56
437.17	1213.56
437.392	1165.56
437.614	1124.56
437.835	1148.56
438.057	1135.56
438.278	1127.56
438.5	1135.56
438.721	1146.56
438.943	1147.56
439.165	1137.56
439.386	1145.56
439.608	1165.56
439.829	1180.56
440.05	1211.56
440.272	1199.56
440.493	1221.56
440.715	1237.56
440.936	1252.56
441.158	1235.56
441.379	1311.56
441.6	1343.56
441.822	1377.56
442.043	1399.56
442.264	1307.56
442.486	1338.56
442.707	1340.56
442.928	1300.56
443.149	1339.56
443.371	1302.56
443.592	1322.56
443.813	1354.56
444.034	1330.56
444.255	1410.56
444.476	1466.56
444.698	1571.56
444.919	1619.56
445.14	1704.56
445.361	1532.56
445.582	1429.56
445.803	1331.56
446.024	1290.56
446.245	1273.56
446.466	1260.56
446.687	1237.56
446.908	1238.56
447.129	1179.56
447.35	1146.56
447.571	1122.56
447.792	1104.56
448.013	1145.56
448.234	1121.56
448.455	1124.56
448.675	1108.56
448.896	1099.56
449.117	1043.56
449.338	1071.56
449.559	1046.56
449.779	1065.56
450	1082.56
450.221	1087.56
450.442	1048.56
450.662	1092.56
450.883	1072.56
451.104	1110.56
451.324	1101.56
451.545	1135.56
451.766	1120.56
451.986	1097.56
452.207	1091.56
452.428	1103.56
452.648	1074.56
452.869	1055.56
453.089	1055.56
453.31	1080.56
453.53	1059.56
453.751	1055.56
453.971	1066.56
454.192	1039.56
454.412	1051.56
454.633	1038.56
454.853	1020.56
455.073	1035.56
455.294	1044.56
455.514	1009.56
455.734	991.56
455.955	978.56
456.175	989.56
456.395	1014.56
456.616	1020.56
456.836	1033.56
457.056	998.56
457.276	996.56
457.497	1027.56
457.717	998.56
457.937	1055.56
458.157	1003.56
458.377	1053.56
458.598	1100.56
458.818	1074.56
459.038	1161.56
459.258	1183.56
459.478	1202.56
459.698	1236.56
459.918	1296.56
460.138	1319.56
460.358	1391.56
460.578	1444.56
460.798	1443.56
461.018	1456.56
461.238	1436.56
461.458	1444.56
461.678	1398.56
461.898	1433.56
462.118	1448.56
462.338	1528.56
462.558	1596.56
462.777	1643.56
462.997	1738.56
463.217	1863.56
463.437	1936.56
463.657	1789.56
463.876	1688.56
464.096	1694.56
464.316	1708.56
464.536	1689.56
464.755	1619.56
464.975	1546.56
465.195	1472.56
465.414	1380.56
465.634	1299.56
465.854	1264.56
466.073	1223.56
466.293	1191.56
466.512	1185.56
466.732	1167.56
466.951	1139.56
467.171	1181.56
467.391	1147.56
467.61	1108.56
467.829	1133.56
468.049	1155.56
468.268	1097.56
468.488	1093.56
468.707	1087.56
468.927	1090.56
469.146	1101.56
469.365	1103.56
469.585	1131.56
469.804	1149.56
470.023	1187.56
470.243	1172.56
470.462	1170.56
470.681	1180.56
470.901	1184.56
471.12	1171.56
471.339	1180.56
471.558	1137.56
471.777	1133.56
471.997	1101.56
472.216	1104.56
472.435	1110.56
472.654	1084.56
472.873	1048.56
473.092	1069.56
473.311	1088.56
473.53	1093.56
473.749	1036.56
473.968	1033.56
474.187	1052.56
474.406	1063.56
474.625	1082.56
474.844	1066.56
475.063	1108.56
475.282	1077.56
475.501	1066.56
475.72	1064.56
475.939	1077.56
476.158	1089.56
476.377	1119.56
476.596	1138.56
476.814	1146.56
477.033	1100.56
477.252	1157.56
477.471	1141.56
477.69	1204.56
477.908	1256.56
478.127	1270.56
478.346	1299.56
478.564	1312.56
478.783	1316.56
479.002	1367.56
479.22	1354.56
479.439	1359.56
479.658	1333.56
479.876	1354.56
480.095	1370.56
480.313	1422.56
480.532	1436.56
480.751	1491.56
480.969	1385.56
481.188	1347.56
481.406	1314.56
481.624	1302.56
481.843	1254.56
482.061	1241.56
482.28	1235.56
482.498	1234.56
482.717	1199.56
482.935	1215.56
483.153	1186.56
483.372	1213.56
483.59	1229.56
483.808	1237.56
484.027	1242.56
484.245	1231.56
484.463	1231.56
484.681	1275.56
484.9	1250.56
485.118	1285.56
485.336	1244.56
485.554	1297.56
485.772	1282.56
485.99	1281.56
486.209	1315.56
486.427	1300.56
486.645	1290.56
486.863	1305.56
487.081	1285.56
487.299	1274.56
487.517	1292.56
487.735	1269.56
487.953	1298.56
488.171	1269.56
488.389	1276.56
488.607	1257.56
488.825	1228.56
489.043	1252.56
489.261	1228.56
489.479	1258.56
489.696	1276.56
489.914	1305.56
490.132	1301.56
490.35	1292.56
490.568	1282.56
490.786	1309.56
491.003	1283.56
491.221	1275.56
491.439	1314.56
491.657	1257.56
491.874	1294.56
492.092	1349.56
492.31	1308.56
492.527	1322.56
492.745	1311.56
492.963	1336.56
493.18	1331.56
493.398	1341.56
493.615	1379.56
493.833	1351.56
494.05	1343.56
494.268	1360.56
494.485	1407.56
494.703	1381.56
494.92	1379.56
495.138	1385.56
495.355	1364.56
495.573	1365.56
495.79	1375.56
496.008	1394.56
496.225	1415.56
496.442	1452.56
496.66	1443.56
496.877	1468.56
497.094	1496.56
497.312	1504.56
497.529	1536.56
497.746	1585.56
497.963	1666.56
498.181	1713.56
498.398	1753.56
498.615	1892.56
498.832	2034.56
499.049	2244.56
499.267	2418.56
499.484	2711.56
499.701	2914.56
499.918	3251.56
500.135	3691.56
500.352	4165.56
500.569	4351.56
500.786	4347.56
501.003	4057.56
501.22	3615.56
501.437	3234.56
501.654	2835.56
501.871	2512.56
502.088	2406.56
502.305	2208.56
502.522	2058.56
502.739	1946.56
502.956	1908.56
503.172	1755.56
503.389	1677.56
503.606	1620.56
503.823	1605.56
504.04	1613.56
504.256	1641.56
504.473	1652.56
504.69	1667.56
504.907	1671.56
505.123	1557.56
505.34	1475.56
505.557	1396.56
505.773	1357.56
505.99	1351.56
506.207	1261.56
506.423	1291.56
506.64	1264.56
506.856	1210.56
507.073	1227.56
507.289	1263.56
507.506	1219.56
507.722	1174.56
507.939	1188.56
508.155	1219.56
508.372	1161.56
508.588	1168.56
508.805	1145.56
509.021	1196.56
509.238	1148.56
509.454	1151.56
509.67	1130.56
509.887	1158.56
510.103	1090.56
510.319	1079.56
510.536	1120.56
510.752	1098.56
510.968	1115.56
511.184	1107.56
511.401	1100.56
511.617	1092.56
511.833	1113.56
512.049	1107.56
512.265	1109.56
512.481	1076.56
512.698	1076.56
512.914	1112.56
513.13	1088.56
513.346	1124.56
513.562	1104.56
513.778	1119.56
513.994	1092.56
514.21	1110.56
514.426	1135.56
514.642	1110.56
514.858	1139.56
515.074	1120.56
515.29	1141.56
515.506	1164.56
515.721	1164.56
515.937	1249.56
516.153	1223.56
516.369	1265.56
516.585	1286.56
516.801	1316.56
517.016	1385.56
517.232	1425.56
517.448	1493.56
517.664	1571.56
517.879	1587.56
518.095	1603.56
518.311	1577.56
518.527	1494.56
518.742	1408.56
518.958	1359.56
519.173	1315.56
519.389	1256.56
519.605	1237.56
519.82	1200.56
520.036	1194.56
520.251	1155.56
520.467	1119.56
520.682	1144.56
520.898	1144.56
521.113	1102.56
521.329	1095.56
521.544	1046.56
521.76	1067.56
521.975	1053.56
522.19	1014.56
522.406	1056.56
522.621	1069.56
522.836	1017.56
523.052	1024.56
523.267	1020.56
523.482	1041.56
523.698	989.56
523.913	1017.56
524.128	1038.56
524.343	1016.56
524.559	1035.56
524.774	995.56
524.989	1003.56
525.204	1003.56
525.419	1013.56
525.634	969.56
525.849	1002.56
526.064	1023.56
526.28	985.56
526.495	1016.56
526.71	979.56
526.925	1027.56
527.14	996.56
527.355	998.56
527.57	977.56
527.785	987.56
527.999	981.56
528.214	993.56
528.429	986.56
528.644	989.56
528.859	998.56
529.074	982.56
529.289	989.56
529.503	972.56
529.718	969.56
529.933	980.56
530.148	987.56
530.363	967.56
530.577	985.56
530.792	991.56
531.007	992.56
531.221	994.56
531.436	993.56
531.651	973.56
531.865	955.56
532.08	978.56
532.295	1005.56
532.509	991.56
532.724	976.56
532.938	975.56
533.153	980.56
533.367	966.56
533.582	985.56
533.796	961.56
534.011	974.56
534.225	949.56
534.44	970.56
534.654	975.56
534.868	942.56
535.083	931.56
535.297	939.56
535.511	957.56
535.726	939.56
535.94	934.56
536.154	933.56
536.369	946.56
536.583	917.56
536.797	920.56
537.011	904.56
537.225	908.56
537.44	898.56
537.654	909.56
537.868	896.56
538.082	898.56
538.296	881.56
538.51	876.56
538.724	893.56
538.938	901.56
539.153	890.56
539.367	868.56
539.581	889.56
539.795	863.56
540.009	887.56
540.222	869.56
540.436	880.56
540.65	872.56
540.864	840.56
541.078	870.56
541.292	880.56
541.506	874.56
541.72	896.56
541.934	875.56
542.147	889.56
542.361	859.56
542.575	881.56
542.789	851.56
543.002	843.56
543.216	857.56
543.43	871.56
543.644	825.56
543.857	863.56
544.071	861.56
544.285	869.56
544.498	857.56
544.712	883.56
544.925	895.56
545.139	881.56
545.352	909.56
545.566	879.56
545.779	897.56
545.993	904.56
546.206	910.56
546.42	903.56
546.633	912.56
546.847	860.56
547.06	856.56
547.274	899.56
547.487	903.56
547.7	879.56
547.914	855.56
548.127	887.56
548.34	923.56
548.554	915.56
548.767	889.56
548.98	906.56
549.193	899.56
549.407	920.56
549.62	925.56
549.833	944.56
550.046	903.56
550.259	923.56
550.473	882.56
550.686	920.56
550.899	868.56
551.112	865.56
551.325	871.56
551.538	868.56
551.751	883.56
551.964	919.56
552.177	887.56
552.39	893.56
552.603	937.56
552.816	964.56
553.029	970.56
553.242	1018.56
553.455	995.56
553.667	1010.56
553.88	972.56
554.093	955.56
554.306	940.56
554.519	908.56
554.732	897.56
554.944	865.56
555.157	886.56
555.37	850.56
555.583	832.56
555.795	827.56
556.008	781.56
556.221	821.56
556.433	782.56
556.646	794.56
556.859	800.56
557.071	791.56
557.284	774.56
557.496	762.56
557.709	760.56
557.921	729.56
558.134	777.56
558.346	767.56
558.559	767.56
558.771	746.56
558.984	762.56
559.196	729.56
559.409	724.56
559.621	755.56
559.833	738.56
560.046	757.56
560.258	716.56
560.47	747.56
560.683	732.56
560.895	726.56
561.107	727.56
561.32	727.56
561.532	736.56
561.744	743.56
561.956	741.56
562.168	719.56
562.381	745.56
562.593	731.56
562.805	737.56
563.017	735.56
563.229	734.56
563.441	724.56
563.653	744.56
563.865	729.56
564.077	769.56
564.289	737.56
564.501	777.56
564.713	789.56
564.925	791.56
565.137	800.56
565.349	825.56
565.561	836.56
565.773	916.56
565.985	949.56
566.197	975.56
566.408	1023.56
566.62	1131.56
566.832	1229.56
567.044	1240.56
567.255	1259.56
567.467	1309.56
567.679	1355.56
567.891	1465.56
568.102	1486.56
568.314	1384.56
568.526	1252.56
568.737	1178.56
568.949	1045.56
569.161	973.56
569.372	916.56
569.584	872.56
569.795	833.56
570.007	793.56
570.218	793.56
570.43	762.56
570.641	772.56
570.853	765.56
571.064	787.56
571.276	753.56
571.487	759.56
571.698	713.56
571.91	691.56
572.121	680.56
572.333	661.56
572.544	669.56
572.755	624.56
572.966	633.56
573.178	637.56
573.389	624.56
573.6	618.56
573.811	631.56
574.023	589.56
574.234	606.56
574.445	616.56
574.656	610.56
574.867	626.56
575.078	620.56
575.289	617.56
575.501	593.56
575.712	575.56
575.923	578.56
576.134	579.56
576.345	563.56
576.556	577.56
576.767	568.56
576.978	563.56
577.188	569.56
577.399	562.56
577.61	552.56
577.821	539.56
578.032	561.56
578.243	540.56
578.454	554.56
578.665	551.56
578.875	552.56
579.086	524.56
579.297	524.56
579.508	544.56
579.718	549.56
579.929	526.56
580.14	534.56
580.35	508.56
580.561	515.56
580.772	514.56
580.982	505.56
581.193	518.56
581.403	528.56
581.614	517.56
581.825	503.56
582.035	495.56
582.246	489.56
582.456	526.56
582.667	491.56
582.877	492.56
583.087	507.56
583.298	489.56
583.508	478.56
583.719	490.56
583.929	509.56
584.139	483.56
584.35	495.56
584.56	501.56
584.77	487.56
584.981	495.56
585.191	499.56
585.401	481.56
585.611	465.56
585.821	479.56
586.032	480.56
586.242	492.56
586.452	488.56
586.662	501.56
586.872	469.56
587.082	470.56
587.292	479.56
587.502	486.56
587.713	489.56
587.923	474.56
588.133	477.56
588.343	460.56
588.553	473.56
588.762	467.56
588.972	475.56
589.182	509.56
589.392	497.56
589.602	471.56
589.812	501.56
590.022	487.56
590.232	469.56
590.441	498.56
590.651	484.56
590.861	492.56
591.071	476.56
591.281	484.56
591.49	504.56
591.7	502.56
591.91	510.56
592.119	531.56
592.329	509.56
592.539	543.56
592.748	556.56
592.958	598.56
593.167	603.56
593.377	605.56
593.587	639.56
593.796	632.56
594.006	616.56
594.215	618.56
594.424	641.56
594.634	623.56
594.843	632.56
595.053	592.56
595.262	569.56
595.472	548.56
595.681	540.56
595.89	515.56
596.1	497.56
596.309	479.56
596.518	478.56
596.727	467.56
596.937	442.56
597.146	457.56
597.355	443.56
597.564	432.56
597.774	427.56
597.983	418.56
598.192	450.56
598.401	426.56
598.61	416.56
598.819	423.56
599.028	436.56
599.237	418.56
599.446	415.56
599.655	399.56
599.864	423.56
600.073	407.56
600.282	419.56
600.491	399.56
600.7	407.56
600.909	403.56
601.118	389.56
601.327	400.56
601.536	387.56
601.745	388.56
601.953	389.56
602.162	406.56
602.371	372.56
602.58	371.56
602.789	384.56
602.997	387.56
603.206	367.56
603.415	388.56
603.623	389.56
603.832	383.56
604.041	372.56
604.249	372.56
604.458	379.56
604.666	354.56
604.875	363.56
605.084	375.56
605.292	373.56
605.501	354.56
605.709	367.56
605.918	353.56
606.126	342.56
606.334	373.56
606.543	355.56
606.751	379.56
606.96	355.56
607.168	342.56
607.376	354.56
607.585	360.56
607.793	356.56
608.001	361.56
608.21	345.56
608.418	356.56
608.626	340.56
608.834	358.56
609.043	342.56
609.251	359.56
609.459	360.56
609.667	349.56
609.875	342.56
610.083	356.56
610.291	347.56
610.499	348.56
610.707	327.56
610.916	343.56
611.124	349.56
611.332	351.56
611.54	330.56
611.748	342.56
611.955	357.56
612.163	337.56
612.371	357.56
612.579	330.56
612.787	315.56
612.995	336.56
613.203	356.56
613.411	332.56
613.618	348.56
613.826	340.56
614.034	344.56
614.242	342.56
614.449	335.56
614.657	332.56
614.865	346.56
615.072	355.56
615.28	353.56
615.488	320.56
615.695	340.56
615.903	329.56
616.111	343.56
616.318	331.56
616.526	341.56
616.733	343.56
616.941	328.56
617.148	314.56
617.356	331.56
617.563	335.56
617.771	347.56
617.978	337.56
618.185	327.56
618.393	340.56
618.6	332.56
618.807	332.56
619.015	352.56
619.222	316.56
619.429	315.56
619.637	323.56
619.844	324.56
620.051	323.56
620.258	325.56
620.466	312.56
620.673	300.56
620.88	311.56
621.087	295.56
621.294	308.56
621.501	315.56
621.708	306.56
621.915	322.56
622.122	329.56
622.329	292.56
622.536	292.56
622.743	326.56
622.95	309.56
623.157	309.56
623.364	317.56
623.571	296.56
623.778	332.56
623.985	297.56
624.192	277.56
624.399	303.56
624.606	295.56
624.812	294.56
625.019	293.56
625.226	298.56
625.433	284.56
625.639	293.56
625.846	293.56
626.053	283.56
626.259	285.56
626.466	265.56
626.673	294.56
626.879	296.56
627.086	292.56
627.293	291.56
627.499	300.56
627.706	288.56
627.912	287.56
628.119	282.56
628.325	261.56
628.532	275.56
628.738	275.56
628.945	279.56
629.151	274.56
629.357	290.56
629.564	257.56
629.77	267.56
629.976	265.56
630.183	267.56
630.389	270.56
630.595	268.56
630.802	248.56
631.008	264.56
631.214	276.56
631.42	281.56
631.627	275.56
631.833	266.56
632.039	255.56
632.245	276.56
632.451	268.56
632.657	245.56
632.863	248.56
633.069	255.56
633.275	243.56
633.481	240.56
633.688	244.56
633.893	241.56
634.099	258.56
634.305	251.56
634.511	245.56
634.717	262.56
634.923	231.56
635.129	262.56
635.335	244.56
635.541	246.56
635.747	239.56
635.952	238.56
636.158	242.56
636.364	259.56
636.57	235.56
636.775	258.56
636.981	240.56
637.187	239.56
637.392	241.56
637.598	239.56
637.804	247.56
638.009	237.56
638.215	232.56
638.421	231.56
638.626	224.56
638.832	242.56
639.037	225.56
639.243	223.56
639.448	226.56
639.654	224.56
639.859	244.56
640.065	245.56
640.27	228.56
640.475	211.56
640.681	248.56
640.886	210.56
641.091	233.56
641.297	231.56
641.502	209.56
641.707	232.56
641.913	230.56
642.118	212.56
642.323	196.56
642.528	220.56
642.733	232.56
642.939	209.56
643.144	208.56
643.349	220.56
643.554	216.56
643.759	216.56
643.964	210.56
644.169	214.56
644.374	221.56
644.579	205.56
644.784	211.56
644.989	226.56
645.194	224.56
645.399	212.56
645.604	208.56
645.809	212.56
646.014	214.56
646.219	213.56
646.423	227.56
646.628	229.56
646.833	206.56
647.038	204.56
647.243	217.56
647.447	219.56
647.652	227.56
647.857	224.56
648.062	225.56
648.266	225.56
648.471	224.56
648.676	232.56
648.88	221.56
649.085	205.56
649.289	241.56
649.494	214.56
649.698	199.56
649.903	221.56
650.107	228.56
650.312	203.56
650.516	195.56
650.721	187.56
650.925	199.56
651.13	192.56
651.334	185.56
651.539	194.56
651.743	191.56
651.947	189.56
652.152	199.56
652.356	175.56
652.56	164.56
652.764	181.56
652.969	168.56
653.173	163.56
653.377	151.56
653.581	159.56
653.785	172.56
653.99	146.56
654.194	157.56
654.398	163.56
654.602	171.56
654.806	160.56
655.01	149.56
655.214	147.56
655.418	145.56
655.622	148.56
655.826	131.56
656.03	147.56
656.234	137.56
656.438	147.56
656.642	145.56
656.846	128.56
657.049	129.56
657.253	136.56
657.457	132.56
657.661	115.56
657.865	124.56
658.068	139.56
658.272	111.56
658.476	131.56
658.68	120.56
658.883	123.56
659.087	107.56
659.291	103.56
659.494	94.56
659.698	107.56
659.901	105.56
660.105	100.56
660.309	105.56
660.512	104.56
660.716	92.56
660.919	112.56
661.123	89.56
661.326	108.56
661.53	93.56
661.733	101.56
661.936	85.56
662.14	75.56
662.343	91.56
662.546	83.56
662.75	70.56
662.953	96.56
663.156	85.56
663.36	86.56
663.563	81.56
663.766	76.56
663.969	76.56
664.173	83.56
664.376	76.56
664.579	68.56
664.782	85.56
664.985	82.56
665.188	92.56
665.391	84.56
665.594	92.56
665.797	94.56
666	75.56
666.203	89.56
666.406	71.56
666.609	88.56
666.812	76.56
667.015	83.56
667.218	67.56
667.421	67.56
667.624	77.56
667.827	89.56
668.03	86.56
668.232	65.56
668.435	80.56
668.638	81.56
668.841	92.56
669.043	76.56
669.246	72.56
669.449	88.56
669.651	91.56
669.854	65.56
670.057	76.56
670.259	88.56
670.462	75.56
670.665	60.56
670.867	86.56
671.07	87.56
671.272	78.56
671.475	73.56
671.677	85.56
671.88	82.56
672.082	77.56
672.284	70.56
672.487	99.56
672.689	76.56
672.892	89.56
