Data from NiCl2@0.5M.TitratingCurve.Agarose3%dH2O.NegLispCup.LampEnergy10.LIBS07252019_HRD10591_18-19-18-571.txt Node
Date: Thu Jul 25 18:19:18 EDT 2019
User: cochatt
Spectrometer: HR+D1059
Trigger mode: 1
Integration Time (sec): 1.000000E-1
Scans to average: 1
Electric dark correction enabled: true
Nonlinearity correction enabled: false
Boxcar width: 0
XAxis mode: Wavelengths
Number of Pixels in Spectrum: 2048
>>>>>Begin Spectral Data<<<<<
223.165	-15.94
223.4	-15.94
223.635	-15.94
223.869	-5.94
224.104	-16.94
224.338	-38.94
224.573	-19.94
224.808	-9.94
225.042	-4.94
225.277	7.06
225.511	8.06
225.746	2.06
225.98	-1.94
226.215	10.06
226.449	12.06
226.683	15.06
226.918	16.06
227.152	44.06
227.387	34.06
227.621	43.06
227.856	53.06
228.09	61.06
228.324	59.06
228.559	35.06
228.793	68.06
229.027	90.06
229.262	102.06
229.496	114.06
229.73	110.06
229.964	107.06
230.199	120.06
230.433	130.06
230.667	97.06
230.901	121.06
231.136	120.06
231.37	116.06
231.604	119.06
231.838	114.06
232.072	135.06
232.306	135.06
232.541	131.06
232.775	127.06
233.009	139.06
233.243	124.06
233.477	131.06
233.711	139.06
233.945	143.06
234.179	130.06
234.413	114.06
234.647	124.06
234.881	125.06
235.115	128.06
235.349	124.06
235.583	122.06
235.817	124.06
236.051	145.06
236.285	138.06
236.519	138.06
236.753	108.06
236.987	123.06
237.221	119.06
237.455	142.06
237.689	152.06
237.922	140.06
238.156	135.06
238.39	132.06
238.624	136.06
238.858	150.06
239.091	150.06
239.325	133.06
239.559	148.06
239.793	160.06
240.027	144.06
240.26	149.06
240.494	155.06
240.728	142.06
240.961	144.06
241.195	163.06
241.429	158.06
241.662	155.06
241.896	152.06
242.13	165.06
242.363	174.06
242.597	144.06
242.83	162.06
243.064	143.06
243.298	158.06
243.531	160.06
243.765	145.06
243.998	171.06
244.232	164.06
244.465	175.06
244.699	164.06
244.932	175.06
245.166	182.06
245.399	179.06
245.633	183.06
245.866	158.06
246.099	164.06
246.333	173.06
246.566	170.06
246.8	171.06
247.033	154.06
247.266	162.06
247.5	188.06
247.733	178.06
247.966	184.06
248.2	179.06
248.433	178.06
248.666	185.06
248.899	173.06
249.133	173.06
249.366	190.06
249.599	188.06
249.832	197.06
250.066	200.06
250.299	197.06
250.532	186.06
250.765	212.06
250.998	185.06
251.231	192.06
251.465	189.06
251.698	207.06
251.931	198.06
252.164	218.06
252.397	205.06
252.63	198.06
252.863	188.06
253.096	208.06
253.329	205.06
253.562	217.06
253.795	210.06
254.028	220.06
254.261	200.06
254.494	213.06
254.727	231.06
254.96	233.06
255.193	213.06
255.426	232.06
255.659	215.06
255.892	231.06
256.124	227.06
256.357	222.06
256.59	238.06
256.823	214.06
257.056	231.06
257.289	227.06
257.521	227.06
257.754	222.06
257.987	223.06
258.22	216.06
258.452	251.06
258.685	233.06
258.918	250.06
259.151	236.06
259.383	234.06
259.616	215.06
259.849	237.06
260.081	230.06
260.314	245.06
260.547	242.06
260.779	233.06
261.012	221.06
261.244	230.06
261.477	246.06
261.71	259.06
261.942	232.06
262.175	246.06
262.407	257.06
262.64	244.06
262.872	243.06
263.105	262.06
263.337	256.06
263.57	242.06
263.802	215.06
264.035	247.06
264.267	239.06
264.499	238.06
264.732	259.06
264.964	266.06
265.197	260.06
265.429	262.06
265.661	272.06
265.894	257.06
266.126	267.06
266.358	275.06
266.591	262.06
266.823	260.06
267.055	256.06
267.287	275.06
267.52	273.06
267.752	274.06
267.984	261.06
268.216	271.06
268.448	284.06
268.681	270.06
268.913	283.06
269.145	279.06
269.377	267.06
269.609	286.06
269.841	282.06
270.073	306.06
270.306	280.06
270.538	280.06
270.77	291.06
271.002	289.06
271.234	277.06
271.466	278.06
271.698	286.06
271.93	298.06
272.162	287.06
272.394	284.06
272.626	298.06
272.858	282.06
273.09	299.06
273.322	307.06
273.553	300.06
273.785	299.06
274.017	306.06
274.249	292.06
274.481	283.06
274.713	328.06
274.945	306.06
275.176	291.06
275.408	306.06
275.64	299.06
275.872	287.06
276.104	311.06
276.335	312.06
276.567	325.06
276.799	314.06
277.031	310.06
277.262	316.06
277.494	317.06
277.726	309.06
277.957	330.06
278.189	358.06
278.421	306.06
278.652	315.06
278.884	317.06
279.115	328.06
279.347	326.06
279.579	346.06
279.81	336.06
280.042	316.06
280.273	347.06
280.505	333.06
280.736	331.06
280.968	343.06
281.199	344.06
281.431	358.06
281.662	349.06
281.894	350.06
282.125	344.06
282.356	341.06
282.588	344.06
282.819	351.06
283.051	356.06
283.282	354.06
283.513	347.06
283.745	376.06
283.976	362.06
284.207	374.06
284.439	346.06
284.67	362.06
284.901	348.06
285.132	367.06
285.364	367.06
285.595	355.06
285.826	353.06
286.057	364.06
286.288	376.06
286.52	387.06
286.751	378.06
286.982	366.06
287.213	372.06
287.444	374.06
287.675	388.06
287.906	370.06
288.138	372.06
288.369	370.06
288.6	388.06
288.831	374.06
289.062	365.06
289.293	380.06
289.524	368.06
289.755	386.06
289.986	368.06
290.217	380.06
290.448	358.06
290.679	393.06
290.91	380.06
291.141	388.06
291.371	366.06
291.602	384.06
291.833	378.06
292.064	395.06
292.295	397.06
292.526	379.06
292.757	406.06
292.987	392.06
293.218	391.06
293.449	403.06
293.68	398.06
293.91	370.06
294.141	414.06
294.372	390.06
294.603	404.06
294.833	400.06
295.064	382.06
295.295	399.06
295.525	389.06
295.756	398.06
295.987	409.06
296.217	394.06
296.448	399.06
296.679	421.06
296.909	413.06
297.14	408.06
297.37	420.06
297.601	408.06
297.831	421.06
298.062	424.06
298.292	417.06
298.523	437.06
298.753	419.06
298.984	419.06
299.214	414.06
299.445	420.06
299.675	419.06
299.905	452.06
300.136	436.06
300.366	446.06
300.597	448.06
300.827	453.06
301.057	439.06
301.288	432.06
301.518	449.06
301.748	446.06
301.979	445.06
302.209	439.06
302.439	454.06
302.669	446.06
302.9	426.06
303.13	420.06
303.36	440.06
303.59	455.06
303.82	441.06
304.051	431.06
304.281	445.06
304.511	450.06
304.741	451.06
304.971	473.06
305.201	455.06
305.431	460.06
305.661	460.06
305.891	476.06
306.121	452.06
306.352	453.06
306.582	434.06
306.812	447.06
307.042	412.06
307.272	441.06
307.502	441.06
307.731	452.06
307.961	470.06
308.191	437.06
308.421	448.06
308.651	442.06
308.881	448.06
309.111	441.06
309.341	442.06
309.571	443.06
309.8	442.06
310.03	468.06
310.26	475.06
310.49	479.06
310.72	476.06
310.949	462.06
311.179	456.06
311.409	452.06
311.639	464.06
311.868	471.06
312.098	467.06
312.328	476.06
312.557	457.06
312.787	451.06
313.017	473.06
313.246	472.06
313.476	487.06
313.706	491.06
313.935	464.06
314.165	475.06
314.394	475.06
314.624	471.06
314.853	477.06
315.083	467.06
315.312	472.06
315.542	462.06
315.771	471.06
316.001	474.06
316.23	479.06
316.46	478.06
316.689	451.06
316.919	464.06
317.148	469.06
317.377	482.06
317.607	482.06
317.836	469.06
318.065	463.06
318.295	486.06
318.524	474.06
318.753	476.06
318.983	469.06
319.212	463.06
319.441	473.06
319.67	510.06
319.9	492.06
320.129	471.06
320.358	493.06
320.587	480.06
320.816	476.06
321.046	485.06
321.275	500.06
321.504	474.06
321.733	483.06
321.962	477.06
322.191	474.06
322.42	476.06
322.649	485.06
322.878	496.06
323.108	495.06
323.337	492.06
323.566	497.06
323.795	482.06
324.024	501.06
324.253	508.06
324.482	487.06
324.71	504.06
324.939	500.06
325.168	512.06
325.397	495.06
325.626	522.06
325.855	527.06
326.084	505.06
326.313	540.06
326.542	517.06
326.77	522.06
326.999	519.06
327.228	514.06
327.457	522.06
327.686	504.06
327.914	504.06
328.143	500.06
328.372	518.06
328.6	515.06
328.829	524.06
329.058	523.06
329.287	528.06
329.515	535.06
329.744	503.06
329.972	525.06
330.201	522.06
330.43	542.06
330.658	540.06
330.887	543.06
331.115	536.06
331.344	538.06
331.572	549.06
331.801	547.06
332.03	541.06
332.258	569.06
332.486	600.06
332.715	582.06
332.943	593.06
333.172	623.06
333.4	625.06
333.629	638.06
333.857	666.06
334.085	626.06
334.314	639.06
334.542	626.06
334.771	646.06
334.999	632.06
335.227	637.06
335.455	640.06
335.684	626.06
335.912	640.06
336.14	620.06
336.369	600.06
336.597	636.06
336.825	635.06
337.053	600.06
337.281	603.06
337.51	566.06
337.738	613.06
337.966	591.06
338.194	591.06
338.422	576.06
338.65	562.06
338.878	575.06
339.106	557.06
339.334	573.06
339.562	596.06
339.79	564.06
340.018	535.06
340.246	547.06
340.474	572.06
340.702	570.06
340.93	565.06
341.158	555.06
341.386	550.06
341.614	565.06
341.842	582.06
342.07	537.06
342.298	532.06
342.526	572.06
342.754	540.06
342.981	540.06
343.209	543.06
343.437	584.06
343.665	604.06
343.893	644.06
344.12	604.06
344.348	615.06
344.576	619.06
344.804	599.06
345.031	553.06
345.259	575.06
345.487	569.06
345.714	547.06
345.942	563.06
346.17	573.06
346.397	552.06
346.625	532.06
346.853	532.06
347.08	539.06
347.308	562.06
347.535	543.06
347.763	540.06
347.99	534.06
348.218	525.06
348.445	536.06
348.673	525.06
348.9	525.06
349.128	535.06
349.355	528.06
349.583	547.06
349.81	521.06
350.037	494.06
350.265	518.06
350.492	501.06
350.72	510.06
350.947	495.06
351.174	517.06
351.402	528.06
351.629	522.06
351.856	519.06
352.083	501.06
352.311	536.06
352.538	545.06
352.765	530.06
352.992	520.06
353.22	506.06
353.447	501.06
353.674	489.06
353.901	481.06
354.128	504.06
354.355	489.06
354.583	476.06
354.81	500.06
355.037	501.06
355.264	513.06
355.491	499.06
355.718	517.06
355.945	496.06
356.172	514.06
356.399	524.06
356.626	520.06
356.853	517.06
357.08	508.06
357.307	506.06
357.534	520.06
357.761	528.06
357.988	520.06
358.215	500.06
358.441	503.06
358.668	509.06
358.895	483.06
359.122	489.06
359.349	500.06
359.576	490.06
359.802	494.06
360.029	498.06
360.256	509.06
360.483	517.06
360.709	492.06
360.936	510.06
361.163	487.06
361.39	500.06
361.616	502.06
361.843	509.06
362.07	517.06
362.296	528.06
362.523	499.06
362.749	495.06
362.976	489.06
363.203	494.06
363.429	519.06
363.656	479.06
363.882	491.06
364.109	484.06
364.335	504.06
364.562	495.06
364.788	516.06
365.015	493.06
365.241	522.06
365.468	487.06
365.694	494.06
365.92	492.06
366.147	492.06
366.373	506.06
366.599	510.06
366.826	519.06
367.052	492.06
367.278	485.06
367.505	512.06
367.731	504.06
367.957	483.06
368.184	495.06
368.41	501.06
368.636	503.06
368.862	498.06
369.089	520.06
369.315	516.06
369.541	496.06
369.767	512.06
369.993	514.06
370.219	503.06
370.445	534.06
370.672	537.06
370.898	506.06
371.124	523.06
371.35	539.06
371.576	539.06
371.802	534.06
372.028	520.06
372.254	535.06
372.48	535.06
372.706	524.06
372.932	529.06
373.158	541.06
373.384	514.06
373.61	532.06
373.835	535.06
374.061	525.06
374.287	550.06
374.513	552.06
374.739	563.06
374.965	556.06
375.191	576.06
375.416	568.06
375.642	545.06
375.868	537.06
376.094	554.06
376.319	556.06
376.545	525.06
376.771	541.06
376.997	534.06
377.222	540.06
377.448	550.06
377.674	539.06
377.899	520.06
378.125	512.06
378.35	519.06
378.576	518.06
378.802	528.06
379.027	508.06
379.253	525.06
379.478	522.06
379.704	518.06
379.929	519.06
380.155	523.06
380.38	523.06
380.606	502.06
380.831	532.06
381.057	519.06
381.282	489.06
381.507	511.06
381.733	522.06
381.958	541.06
382.184	528.06
382.409	533.06
382.634	532.06
382.86	534.06
383.085	541.06
383.31	537.06
383.535	563.06
383.761	578.06
383.986	564.06
384.211	582.06
384.436	583.06
384.662	588.06
384.887	585.06
385.112	591.06
385.337	591.06
385.562	601.06
385.787	610.06
386.013	611.06
386.238	621.06
386.463	615.06
386.688	601.06
386.913	583.06
387.138	598.06
387.363	582.06
387.588	578.06
387.813	563.06
388.038	607.06
388.263	636.06
388.488	606.06
388.713	604.06
388.938	589.06
389.163	616.06
389.387	595.06
389.612	579.06
389.837	591.06
390.062	590.06
390.287	605.06
390.512	622.06
390.736	623.06
390.961	604.06
391.186	633.06
391.411	631.06
391.636	622.06
391.86	666.06
392.085	662.06
392.31	669.06
392.534	649.06
392.759	630.06
392.984	660.06
393.208	648.06
393.433	656.06
393.658	647.06
393.882	623.06
394.107	650.06
394.331	666.06
394.556	640.06
394.78	651.06
395.005	660.06
395.229	628.06
395.454	652.06
395.678	665.06
395.903	680.06
396.127	669.06
396.352	657.06
396.576	633.06
396.801	653.06
397.025	646.06
397.249	667.06
397.474	681.06
397.698	688.06
397.922	684.06
398.147	679.06
398.371	694.06
398.595	713.06
398.82	746.06
399.044	795.06
399.268	830.06
399.492	929.06
399.717	988.06
399.941	987.06
400.165	913.06
400.389	860.06
400.613	805.06
400.837	766.06
401.062	770.06
401.286	738.06
401.51	719.06
401.734	735.06
401.958	750.06
402.182	740.06
402.406	772.06
402.63	745.06
402.854	758.06
403.078	774.06
403.302	806.06
403.526	808.06
403.75	780.06
403.974	824.06
404.198	823.06
404.422	796.06
404.645	820.06
404.869	807.06
405.093	844.06
405.317	783.06
405.541	788.06
405.765	804.06
405.988	794.06
406.212	846.06
406.436	797.06
406.66	847.06
406.883	863.06
407.107	887.06
407.331	914.06
407.555	938.06
407.778	919.06
408.002	912.06
408.226	887.06
408.449	866.06
408.673	848.06
408.896	832.06
409.12	825.06
409.344	865.06
409.567	833.06
409.791	828.06
410.014	844.06
410.238	845.06
410.461	839.06
410.685	804.06
410.908	795.06
411.132	797.06
411.355	755.06
411.578	806.06
411.802	781.06
412.025	788.06
412.249	814.06
412.472	769.06
412.695	786.06
412.919	771.06
413.142	795.06
413.365	771.06
413.589	786.06
413.812	762.06
414.035	760.06
414.258	739.06
414.482	741.06
414.705	788.06
414.928	794.06
415.151	770.06
415.374	762.06
415.597	747.06
415.821	741.06
416.044	747.06
416.267	734.06
416.49	731.06
416.713	732.06
416.936	742.06
417.159	728.06
417.382	744.06
417.605	772.06
417.828	744.06
418.051	754.06
418.274	747.06
418.497	763.06
418.72	769.06
418.943	778.06
419.166	809.06
419.389	826.06
419.611	846.06
419.834	792.06
420.057	768.06
420.28	749.06
420.503	758.06
420.726	760.06
420.948	761.06
421.171	761.06
421.394	762.06
421.617	730.06
421.839	765.06
422.062	771.06
422.285	738.06
422.507	766.06
422.73	755.06
422.953	750.06
423.175	760.06
423.398	787.06
423.621	783.06
423.843	784.06
424.066	771.06
424.288	771.06
424.511	771.06
424.733	768.06
424.956	771.06
425.178	775.06
425.401	752.06
425.623	762.06
425.846	759.06
426.068	742.06
426.291	730.06
426.513	724.06
426.735	734.06
426.958	770.06
427.18	700.06
427.402	726.06
427.625	716.06
427.847	718.06
428.069	723.06
428.292	694.06
428.514	700.06
428.736	714.06
428.958	701.06
429.181	703.06
429.403	688.06
429.625	694.06
429.847	695.06
430.069	683.06
430.292	738.06
430.514	692.06
430.736	686.06
430.958	701.06
431.18	683.06
431.402	701.06
431.624	700.06
431.846	719.06
432.068	725.06
432.29	732.06
432.512	704.06
432.734	698.06
432.956	715.06
433.178	719.06
433.4	727.06
433.622	734.06
433.844	735.06
434.066	718.06
434.287	732.06
434.509	749.06
434.731	773.06
434.953	753.06
435.175	770.06
435.397	760.06
435.618	758.06
435.84	740.06
436.062	707.06
436.284	716.06
436.505	713.06
436.727	725.06
436.949	690.06
437.17	710.06
437.392	706.06
437.614	712.06
437.835	680.06
438.057	685.06
438.278	684.06
438.5	692.06
438.721	696.06
438.943	727.06
439.165	699.06
439.386	709.06
439.608	712.06
439.829	719.06
440.05	712.06
440.272	707.06
440.493	743.06
440.715	730.06
440.936	750.06
441.158	762.06
441.379	769.06
441.6	814.06
441.822	807.06
442.043	783.06
442.264	758.06
442.486	771.06
442.707	789.06
442.928	789.06
443.149	791.06
443.371	779.06
443.592	800.06
443.813	807.06
444.034	802.06
444.255	795.06
444.476	832.06
444.698	868.06
444.919	887.06
445.14	1002.06
445.361	914.06
445.582	849.06
445.803	796.06
446.024	770.06
446.245	770.06
446.466	745.06
446.687	710.06
446.908	731.06
447.129	724.06
447.35	733.06
447.571	725.06
447.792	686.06
448.013	708.06
448.234	677.06
448.455	679.06
448.675	672.06
448.896	680.06
449.117	679.06
449.338	675.06
449.559	660.06
449.779	669.06
450	678.06
450.221	710.06
450.442	692.06
450.662	677.06
450.883	672.06
451.104	694.06
451.324	705.06
451.545	682.06
451.766	672.06
451.986	684.06
452.207	691.06
452.428	678.06
452.648	672.06
452.869	660.06
453.089	645.06
453.31	678.06
453.53	644.06
453.751	639.06
453.971	644.06
454.192	663.06
454.412	644.06
454.633	657.06
454.853	639.06
455.073	622.06
455.294	648.06
455.514	642.06
455.734	632.06
455.955	638.06
456.175	644.06
456.395	648.06
456.616	611.06
456.836	612.06
457.056	621.06
457.276	621.06
457.497	628.06
457.717	640.06
457.937	651.06
458.157	657.06
458.377	655.06
458.598	685.06
458.818	684.06
459.038	681.06
459.258	696.06
459.478	714.06
459.698	747.06
459.918	767.06
460.138	766.06
460.358	814.06
460.578	806.06
460.798	808.06
461.018	832.06
461.238	815.06
461.458	853.06
461.678	831.06
461.898	840.06
462.118	841.06
462.338	892.06
462.558	884.06
462.777	938.06
462.997	988.06
463.217	1018.06
463.437	1030.06
463.657	998.06
463.876	938.06
464.096	951.06
464.316	931.06
464.536	978.06
464.755	939.06
464.975	861.06
465.195	853.06
465.414	830.06
465.634	762.06
465.854	763.06
466.073	736.06
466.293	745.06
466.512	711.06
466.732	713.06
466.951	716.06
467.171	717.06
467.391	705.06
467.61	741.06
467.829	715.06
468.049	726.06
468.268	696.06
468.488	702.06
468.707	667.06
468.927	688.06
469.146	678.06
469.365	706.06
469.585	711.06
469.804	715.06
470.023	715.06
470.243	714.06
470.462	726.06
470.681	720.06
470.901	728.06
471.12	726.06
471.339	719.06
471.558	707.06
471.777	716.06
471.997	695.06
472.216	701.06
472.435	694.06
472.654	677.06
472.873	668.06
473.092	664.06
473.311	676.06
473.53	701.06
473.749	699.06
473.968	663.06
474.187	669.06
474.406	669.06
474.625	668.06
474.844	696.06
475.063	692.06
475.282	673.06
475.501	674.06
475.72	704.06
475.939	709.06
476.158	707.06
476.377	714.06
476.596	686.06
476.814	714.06
477.033	701.06
477.252	700.06
477.471	742.06
477.69	746.06
477.908	770.06
478.127	795.06
478.346	800.06
478.564	783.06
478.783	828.06
479.002	836.06
479.22	858.06
479.439	840.06
479.658	829.06
479.876	829.06
480.095	836.06
480.313	890.06
480.532	855.06
480.751	869.06
480.969	838.06
481.188	796.06
481.406	807.06
481.624	787.06
481.843	760.06
482.061	778.06
482.28	806.06
482.498	757.06
482.717	776.06
482.935	781.06
483.153	779.06
483.372	787.06
483.59	818.06
483.808	797.06
484.027	786.06
484.245	789.06
484.463	815.06
484.681	828.06
484.9	798.06
485.118	811.06
485.336	808.06
485.554	822.06
485.772	836.06
485.99	834.06
486.209	816.06
486.427	822.06
486.645	822.06
486.863	824.06
487.081	834.06
487.299	821.06
487.517	818.06
487.735	823.06
487.953	825.06
488.171	873.06
488.389	845.06
488.607	837.06
488.825	810.06
489.043	798.06
489.261	844.06
489.479	808.06
489.696	830.06
489.914	800.06
490.132	819.06
490.35	811.06
490.568	813.06
490.786	854.06
491.003	827.06
491.221	840.06
491.439	861.06
491.657	849.06
491.874	857.06
492.092	895.06
492.31	879.06
492.527	854.06
492.745	898.06
492.963	863.06
493.18	886.06
493.398	880.06
493.615	892.06
493.833	868.06
494.05	861.06
494.268	888.06
494.485	886.06
494.703	898.06
494.92	871.06
495.138	865.06
495.355	893.06
495.573	892.06
495.79	855.06
496.008	902.06
496.225	908.06
496.442	919.06
496.66	922.06
496.877	931.06
497.094	960.06
497.312	930.06
497.529	965.06
497.746	978.06
497.963	1033.06
498.181	1062.06
498.398	1063.06
498.615	1115.06
498.832	1198.06
499.049	1223.06
499.267	1307.06
499.484	1434.06
499.701	1540.06
499.918	1670.06
500.135	1815.06
500.352	1986.06
500.569	2031.06
500.786	2017.06
501.003	1922.06
501.22	1798.06
501.437	1621.06
501.654	1482.06
501.871	1373.06
502.088	1308.06
502.305	1243.06
502.522	1200.06
502.739	1164.06
502.956	1069.06
503.172	1041.06
503.389	1030.06
503.606	986.06
503.823	991.06
504.04	965.06
504.256	964.06
504.473	962.06
504.69	969.06
504.907	982.06
505.123	918.06
505.34	874.06
505.557	876.06
505.773	857.06
505.99	833.06
506.207	819.06
506.423	813.06
506.64	776.06
506.856	775.06
507.073	777.06
507.289	786.06
507.506	758.06
507.722	765.06
507.939	770.06
508.155	736.06
508.372	738.06
508.588	747.06
508.805	743.06
509.021	737.06
509.238	706.06
509.454	739.06
509.67	714.06
509.887	718.06
510.103	706.06
510.319	694.06
510.536	700.06
510.752	703.06
510.968	710.06
511.184	696.06
511.401	689.06
511.617	693.06
511.833	670.06
512.049	687.06
512.265	703.06
512.481	709.06
512.698	717.06
512.914	694.06
513.13	710.06
513.346	710.06
513.562	667.06
513.778	682.06
513.994	692.06
514.21	719.06
514.426	714.06
514.642	708.06
514.858	728.06
515.074	719.06
515.29	730.06
515.506	741.06
515.721	714.06
515.937	749.06
516.153	735.06
516.369	758.06
516.585	776.06
516.801	811.06
517.016	823.06
517.232	857.06
517.448	878.06
517.664	891.06
517.879	898.06
518.095	866.06
518.311	848.06
518.527	817.06
518.742	823.06
518.958	819.06
519.173	783.06
519.389	748.06
519.605	751.06
519.82	724.06
520.036	738.06
520.251	700.06
520.467	725.06
520.682	685.06
520.898	720.06
521.113	685.06
521.329	690.06
521.544	684.06
521.76	676.06
521.975	679.06
522.19	660.06
522.406	675.06
522.621	657.06
522.836	672.06
523.052	658.06
523.267	678.06
523.482	663.06
523.698	626.06
523.913	639.06
524.128	640.06
524.343	673.06
524.559	650.06
524.774	653.06
524.989	660.06
525.204	630.06
525.419	661.06
525.634	652.06
525.849	661.06
526.064	634.06
526.28	635.06
526.495	661.06
526.71	644.06
526.925	615.06
527.14	617.06
527.355	604.06
527.57	603.06
527.785	631.06
527.999	615.06
528.214	605.06
528.429	623.06
528.644	638.06
528.859	643.06
529.074	642.06
529.289	660.06
529.503	639.06
529.718	642.06
529.933	626.06
530.148	625.06
530.363	620.06
530.577	636.06
530.792	628.06
531.007	655.06
531.221	618.06
531.436	606.06
531.651	611.06
531.865	618.06
532.08	635.06
532.295	617.06
532.509	604.06
532.724	634.06
532.938	638.06
533.153	602.06
533.367	640.06
533.582	613.06
533.796	626.06
534.011	634.06
534.225	610.06
534.44	631.06
534.654	608.06
534.868	624.06
535.083	612.06
535.297	607.06
535.511	595.06
535.726	626.06
535.94	594.06
536.154	581.06
536.369	582.06
536.583	575.06
536.797	591.06
537.011	573.06
537.225	591.06
537.44	583.06
537.654	581.06
537.868	583.06
538.082	558.06
538.296	572.06
538.51	589.06
538.724	590.06
538.938	585.06
539.153	580.06
539.367	575.06
539.581	575.06
539.795	580.06
540.009	573.06
540.222	562.06
540.436	554.06
540.65	578.06
540.864	560.06
541.078	562.06
541.292	608.06
541.506	604.06
541.72	601.06
541.934	580.06
542.147	596.06
542.361	598.06
542.575	557.06
542.789	563.06
543.002	560.06
543.216	559.06
543.43	567.06
543.644	580.06
543.857	574.06
544.071	564.06
544.285	571.06
544.498	588.06
544.712	590.06
544.925	582.06
545.139	582.06
545.352	583.06
545.566	580.06
545.779	584.06
545.993	576.06
546.206	597.06
546.42	579.06
546.633	600.06
546.847	559.06
547.06	582.06
547.274	602.06
547.487	596.06
547.7	583.06
547.914	575.06
548.127	596.06
548.34	591.06
548.554	591.06
548.767	597.06
548.98	582.06
549.193	593.06
549.407	575.06
549.62	573.06
549.833	571.06
550.046	577.06
550.259	590.06
550.473	562.06
550.686	575.06
550.899	570.06
551.112	568.06
551.325	590.06
551.538	593.06
551.751	552.06
551.964	581.06
552.177	587.06
552.39	587.06
552.603	606.06
552.816	591.06
553.029	612.06
553.242	612.06
553.455	598.06
553.667	625.06
553.88	601.06
554.093	606.06
554.306	592.06
554.519	556.06
554.732	569.06
554.944	556.06
555.157	557.06
555.37	556.06
555.583	522.06
555.795	542.06
556.008	543.06
556.221	530.06
556.433	495.06
556.646	530.06
556.859	506.06
557.071	508.06
557.284	500.06
557.496	493.06
557.709	504.06
557.921	498.06
558.134	510.06
558.346	518.06
558.559	510.06
558.771	502.06
558.984	483.06
559.196	490.06
559.409	493.06
559.621	473.06
559.833	476.06
560.046	483.06
560.258	500.06
560.47	494.06
560.683	484.06
560.895	474.06
561.107	481.06
561.32	482.06
561.532	481.06
561.744	483.06
561.956	483.06
562.168	459.06
562.381	501.06
562.593	481.06
562.805	484.06
563.017	484.06
563.229	494.06
563.441	512.06
563.653	496.06
563.865	470.06
564.077	503.06
564.289	502.06
564.501	503.06
564.713	511.06
564.925	517.06
565.137	519.06
565.349	518.06
565.561	518.06
565.773	566.06
565.985	571.06
566.197	584.06
566.408	609.06
566.62	643.06
566.832	663.06
567.044	678.06
567.255	681.06
567.467	694.06
567.679	727.06
567.891	755.06
568.102	764.06
568.314	723.06
568.526	665.06
568.737	646.06
568.949	606.06
569.161	586.06
569.372	535.06
569.584	504.06
569.795	517.06
570.007	479.06
570.218	474.06
570.43	473.06
570.641	440.06
570.853	477.06
571.064	488.06
571.276	480.06
571.487	453.06
571.698	443.06
571.91	457.06
572.121	436.06
572.333	434.06
572.544	415.06
572.755	418.06
572.966	421.06
573.178	407.06
573.389	416.06
573.6	399.06
573.811	394.06
574.023	387.06
574.234	395.06
574.445	392.06
574.656	387.06
574.867	393.06
575.078	416.06
575.289	398.06
575.501	383.06
575.712	389.06
575.923	386.06
576.134	381.06
576.345	400.06
576.556	370.06
576.767	370.06
576.978	374.06
577.188	372.06
577.399	361.06
577.61	368.06
577.821	359.06
578.032	375.06
578.243	358.06
578.454	375.06
578.665	344.06
578.875	363.06
579.086	350.06
579.297	348.06
579.508	361.06
579.718	371.06
579.929	337.06
580.14	332.06
580.35	339.06
580.561	354.06
580.772	347.06
580.982	340.06
581.193	348.06
581.403	350.06
581.614	349.06
581.825	346.06
582.035	347.06
582.246	324.06
582.456	318.06
582.667	344.06
582.877	337.06
583.087	341.06
583.298	332.06
583.508	351.06
583.719	338.06
583.929	325.06
584.139	310.06
584.35	333.06
584.56	344.06
584.77	316.06
584.981	322.06
585.191	324.06
585.401	338.06
585.611	329.06
585.821	312.06
586.032	330.06
586.242	326.06
586.452	337.06
586.662	312.06
586.872	312.06
587.082	313.06
587.292	309.06
587.502	333.06
587.713	326.06
587.923	324.06
588.133	330.06
588.343	338.06
588.553	332.06
588.762	332.06
588.972	343.06
589.182	413.06
589.392	392.06
589.602	338.06
589.812	382.06
590.022	361.06
590.232	340.06
590.441	316.06
590.651	318.06
590.861	327.06
591.071	313.06
591.281	315.06
591.49	319.06
591.7	322.06
591.91	336.06
592.119	341.06
592.329	339.06
592.539	350.06
592.748	345.06
592.958	356.06
593.167	381.06
593.377	360.06
593.587	374.06
593.796	363.06
594.006	377.06
594.215	366.06
594.424	361.06
594.634	356.06
594.843	352.06
595.053	355.06
595.262	348.06
595.472	321.06
595.681	318.06
595.89	320.06
596.1	323.06
596.309	309.06
596.518	302.06
596.727	314.06
596.937	302.06
597.146	280.06
597.355	297.06
597.564	296.06
597.774	290.06
597.983	289.06
598.192	277.06
598.401	286.06
598.61	292.06
598.819	272.06
599.028	279.06
599.237	288.06
599.446	280.06
599.655	284.06
599.864	284.06
600.073	258.06
600.282	271.06
600.491	273.06
600.7	282.06
600.909	288.06
601.118	271.06
601.327	273.06
601.536	279.06
601.745	276.06
601.953	254.06
602.162	269.06
602.371	265.06
602.58	248.06
602.789	266.06
602.997	264.06
603.206	272.06
603.415	266.06
603.623	260.06
603.832	243.06
604.041	278.06
604.249	259.06
604.458	238.06
604.666	238.06
604.875	268.06
605.084	242.06
605.292	261.06
605.501	264.06
605.709	261.06
605.918	242.06
606.126	259.06
606.334	248.06
606.543	249.06
606.751	260.06
606.96	246.06
607.168	279.06
607.376	245.06
607.585	258.06
607.793	256.06
608.001	250.06
608.21	258.06
608.418	231.06
608.626	256.06
608.834	234.06
609.043	255.06
609.251	249.06
609.459	255.06
609.667	256.06
609.875	253.06
610.083	247.06
610.291	238.06
610.499	244.06
610.707	242.06
610.916	261.06
611.124	253.06
611.332	248.06
611.54	238.06
611.748	228.06
611.955	236.06
612.163	229.06
612.371	244.06
612.579	248.06
612.787	239.06
612.995	231.06
613.203	248.06
613.411	251.06
613.618	225.06
613.826	228.06
614.034	219.06
614.242	234.06
614.449	243.06
614.657	233.06
614.865	231.06
615.072	222.06
615.28	248.06
615.488	216.06
615.695	238.06
615.903	239.06
616.111	242.06
616.318	250.06
616.526	231.06
616.733	263.06
616.941	241.06
617.148	234.06
617.356	237.06
617.563	244.06
617.771	241.06
617.978	222.06
618.185	244.06
618.393	219.06
618.6	228.06
618.807	232.06
619.015	243.06
619.222	234.06
619.429	215.06
619.637	228.06
619.844	221.06
620.051	238.06
620.258	221.06
620.466	217.06
620.673	216.06
620.88	208.06
621.087	210.06
621.294	212.06
621.501	213.06
621.708	226.06
621.915	216.06
622.122	195.06
622.329	215.06
622.536	223.06
622.743	221.06
622.95	211.06
623.157	208.06
623.364	198.06
623.571	210.06
623.778	202.06
623.985	217.06
624.192	229.06
624.399	211.06
624.606	206.06
624.812	198.06
625.019	205.06
625.226	200.06
625.433	211.06
625.639	202.06
625.846	199.06
626.053	204.06
626.259	203.06
626.466	217.06
626.673	187.06
626.879	206.06
627.086	190.06
627.293	197.06
627.499	211.06
627.706	218.06
627.912	216.06
628.119	203.06
628.325	192.06
628.532	202.06
628.738	194.06
628.945	186.06
629.151	192.06
629.357	214.06
629.564	194.06
629.77	195.06
629.976	215.06
630.183	181.06
630.389	200.06
630.595	199.06
630.802	191.06
631.008	180.06
631.214	186.06
631.42	203.06
631.627	200.06
631.833	200.06
632.039	204.06
632.245	184.06
632.451	171.06
632.657	182.06
632.863	196.06
633.069	202.06
633.275	195.06
633.481	182.06
633.688	180.06
633.893	183.06
634.099	189.06
634.305	185.06
634.511	174.06
634.717	180.06
634.923	179.06
635.129	191.06
635.335	184.06
635.541	181.06
635.747	188.06
635.952	187.06
636.158	191.06
636.364	174.06
636.57	169.06
636.775	185.06
636.981	160.06
637.187	161.06
637.392	167.06
637.598	176.06
637.804	194.06
638.009	174.06
638.215	180.06
638.421	178.06
638.626	180.06
638.832	174.06
639.037	190.06
639.243	179.06
639.448	178.06
639.654	182.06
639.859	190.06
640.065	182.06
640.27	194.06
640.475	170.06
640.681	175.06
640.886	188.06
641.091	174.06
641.297	178.06
641.502	184.06
641.707	175.06
641.913	166.06
642.118	163.06
642.323	165.06
642.528	162.06
642.733	171.06
642.939	195.06
643.144	180.06
643.349	165.06
643.554	178.06
643.759	166.06
643.964	162.06
644.169	170.06
644.374	166.06
644.579	176.06
644.784	164.06
644.989	174.06
645.194	183.06
645.399	178.06
645.604	162.06
645.809	152.06
646.014	176.06
646.219	173.06
646.423	175.06
646.628	173.06
646.833	172.06
647.038	184.06
647.243	166.06
647.447	184.06
647.652	175.06
647.857	163.06
648.062	151.06
648.266	171.06
648.471	178.06
648.676	182.06
648.88	157.06
649.085	176.06
649.289	168.06
649.494	142.06
649.698	163.06
649.903	158.06
650.107	169.06
650.312	162.06
650.516	156.06
650.721	155.06
650.925	156.06
651.13	172.06
651.334	153.06
651.539	144.06
651.743	150.06
651.947	170.06
652.152	168.06
652.356	146.06
652.56	151.06
652.764	153.06
652.969	140.06
653.173	136.06
653.377	143.06
653.581	142.06
653.785	135.06
653.99	134.06
654.194	139.06
654.398	127.06
654.602	163.06
654.806	134.06
655.01	143.06
655.214	141.06
655.418	125.06
655.622	125.06
655.826	128.06
656.03	147.06
656.234	149.06
656.438	145.06
656.642	146.06
656.846	133.06
657.049	125.06
657.253	127.06
657.457	128.06
657.661	133.06
657.865	115.06
658.068	129.06
658.272	118.06
658.476	104.06
658.68	110.06
658.883	104.06
659.087	120.06
659.291	103.06
659.494	106.06
659.698	101.06
659.901	111.06
660.105	106.06
660.309	89.06
660.512	86.06
660.716	106.06
660.919	92.06
661.123	104.06
661.326	99.06
661.53	102.06
661.733	100.06
661.936	93.06
662.14	82.06
662.343	82.06
662.546	87.06
662.75	82.06
662.953	98.06
663.156	87.06
663.36	100.06
663.563	96.06
663.766	75.06
663.969	79.06
664.173	80.06
664.376	71.06
664.579	92.06
664.782	99.06
664.985	94.06
665.188	89.06
665.391	90.06
665.594	83.06
665.797	88.06
666	86.06
666.203	79.06
666.406	68.06
666.609	94.06
666.812	81.06
667.015	81.06
667.218	89.06
667.421	79.06
667.624	95.06
667.827	83.06
668.03	86.06
668.232	76.06
668.435	87.06
668.638	79.06
668.841	74.06
669.043	77.06
669.246	78.06
669.449	87.06
669.651	75.06
669.854	84.06
670.057	80.06
670.259	76.06
670.462	87.06
670.665	93.06
670.867	74.06
671.07	73.06
671.272	82.06
671.475	86.06
671.677	82.06
671.88	90.06
672.082	79.06
672.284	88.06
672.487	82.06
672.689	76.06
672.892	76.06
