Data from NiCl2@0.25M.TitratingCurve.Agarose3%dH2O.NegLispCup.LampEnergy10.LIBS07252019_HRD10591_18-24-34-573.txt Node
Date: Thu Jul 25 18:24:34 EDT 2019
User: cochatt
Spectrometer: HR+D1059
Trigger mode: 1
Integration Time (sec): 1.000000E-1
Scans to average: 1
Electric dark correction enabled: true
Nonlinearity correction enabled: false
Boxcar width: 0
XAxis mode: Wavelengths
Number of Pixels in Spectrum: 2048
>>>>>Begin Spectral Data<<<<<
223.165	-6.12
223.4	-6.12
223.635	-6.12
223.869	-9.12
224.104	-17.12
224.338	-14.12
224.573	-10.12
224.808	-20.12
225.042	-14.12
225.277	1.88
225.511	-0.12
225.746	5.88
225.98	-3.12
226.215	13.88
226.449	6.88
226.683	8.88
226.918	21.88
227.152	34.88
227.387	35.88
227.621	26.88
227.856	45.88
228.09	48.88
228.324	51.88
228.559	57.88
228.793	74.88
229.027	121.88
229.262	134.88
229.496	118.88
229.73	127.88
229.964	138.88
230.199	142.88
230.433	150.88
230.667	144.88
230.901	144.88
231.136	136.88
231.37	159.88
231.604	161.88
231.838	145.88
232.072	171.88
232.306	157.88
232.541	165.88
232.775	168.88
233.009	164.88
233.243	163.88
233.477	156.88
233.711	163.88
233.945	172.88
234.179	177.88
234.413	165.88
234.647	161.88
234.881	167.88
235.115	191.88
235.349	166.88
235.583	180.88
235.817	168.88
236.051	179.88
236.285	183.88
236.519	192.88
236.753	192.88
236.987	178.88
237.221	174.88
237.455	188.88
237.689	193.88
237.922	195.88
238.156	197.88
238.39	180.88
238.624	185.88
238.858	192.88
239.091	191.88
239.325	200.88
239.559	188.88
239.793	197.88
240.027	197.88
240.26	196.88
240.494	201.88
240.728	226.88
240.961	212.88
241.195	205.88
241.429	206.88
241.662	201.88
241.896	214.88
242.13	238.88
242.363	227.88
242.597	224.88
242.83	230.88
243.064	226.88
243.298	229.88
243.531	237.88
243.765	241.88
243.998	239.88
244.232	243.88
244.465	232.88
244.699	248.88
244.932	259.88
245.166	241.88
245.399	253.88
245.633	249.88
245.866	249.88
246.099	262.88
246.333	269.88
246.566	263.88
246.8	253.88
247.033	251.88
247.266	275.88
247.5	277.88
247.733	279.88
247.966	284.88
248.2	270.88
248.433	260.88
248.666	285.88
248.899	281.88
249.133	264.88
249.366	286.88
249.599	286.88
249.832	279.88
250.066	291.88
250.299	293.88
250.532	288.88
250.765	274.88
250.998	283.88
251.231	288.88
251.465	283.88
251.698	294.88
251.931	313.88
252.164	305.88
252.397	309.88
252.63	325.88
252.863	322.88
253.096	332.88
253.329	329.88
253.562	328.88
253.795	311.88
254.028	319.88
254.261	331.88
254.494	333.88
254.727	323.88
254.96	326.88
255.193	316.88
255.426	323.88
255.659	326.88
255.892	328.88
256.124	372.88
256.357	347.88
256.59	325.88
256.823	337.88
257.056	337.88
257.289	338.88
257.521	357.88
257.754	372.88
257.987	369.88
258.22	371.88
258.452	366.88
258.685	367.88
258.918	370.88
259.151	366.88
259.383	367.88
259.616	355.88
259.849	375.88
260.081	365.88
260.314	384.88
260.547	359.88
260.779	373.88
261.012	395.88
261.244	387.88
261.477	398.88
261.71	373.88
261.942	374.88
262.175	387.88
262.407	385.88
262.64	381.88
262.872	355.88
263.105	366.88
263.337	357.88
263.57	408.88
263.802	399.88
264.035	408.88
264.267	399.88
264.499	383.88
264.732	400.88
264.964	402.88
265.197	426.88
265.429	424.88
265.661	412.88
265.894	408.88
266.126	422.88
266.358	407.88
266.591	414.88
266.823	426.88
267.055	413.88
267.287	422.88
267.52	419.88
267.752	428.88
267.984	412.88
268.216	433.88
268.448	414.88
268.681	439.88
268.913	427.88
269.145	431.88
269.377	439.88
269.609	435.88
269.841	440.88
270.073	429.88
270.306	460.88
270.538	455.88
270.77	426.88
271.002	439.88
271.234	429.88
271.466	453.88
271.698	465.88
271.93	460.88
272.162	455.88
272.394	470.88
272.626	469.88
272.858	458.88
273.09	477.88
273.322	457.88
273.553	473.88
273.785	453.88
274.017	484.88
274.249	484.88
274.481	499.88
274.713	485.88
274.945	495.88
275.176	477.88
275.408	481.88
275.64	503.88
275.872	471.88
276.104	502.88
276.335	487.88
276.567	489.88
276.799	503.88
277.031	524.88
277.262	503.88
277.494	491.88
277.726	500.88
277.957	508.88
278.189	520.88
278.421	508.88
278.652	511.88
278.884	521.88
279.115	543.88
279.347	525.88
279.579	547.88
279.81	539.88
280.042	542.88
280.273	537.88
280.505	542.88
280.736	549.88
280.968	526.88
281.199	536.88
281.431	535.88
281.662	533.88
281.894	555.88
282.125	552.88
282.356	550.88
282.588	549.88
282.819	573.88
283.051	551.88
283.282	575.88
283.513	571.88
283.745	579.88
283.976	573.88
284.207	573.88
284.439	588.88
284.67	595.88
284.901	594.88
285.132	580.88
285.364	562.88
285.595	567.88
285.826	591.88
286.057	618.88
286.288	588.88
286.52	600.88
286.751	599.88
286.982	618.88
287.213	622.88
287.444	586.88
287.675	607.88
287.906	593.88
288.138	597.88
288.369	607.88
288.6	622.88
288.831	605.88
289.062	615.88
289.293	603.88
289.524	610.88
289.755	598.88
289.986	596.88
290.217	630.88
290.448	592.88
290.679	639.88
290.91	623.88
291.141	629.88
291.371	624.88
291.602	634.88
291.833	618.88
292.064	662.88
292.295	645.88
292.526	649.88
292.757	611.88
292.987	607.88
293.218	619.88
293.449	638.88
293.68	629.88
293.91	648.88
294.141	616.88
294.372	621.88
294.603	634.88
294.833	631.88
295.064	665.88
295.295	651.88
295.525	636.88
295.756	637.88
295.987	643.88
296.217	642.88
296.448	665.88
296.679	649.88
296.909	654.88
297.14	668.88
297.37	670.88
297.601	676.88
297.831	664.88
298.062	681.88
298.292	689.88
298.523	665.88
298.753	699.88
298.984	681.88
299.214	675.88
299.445	670.88
299.675	663.88
299.905	674.88
300.136	691.88
300.366	691.88
300.597	661.88
300.827	712.88
301.057	737.88
301.288	718.88
301.518	717.88
301.748	713.88
301.979	718.88
302.209	721.88
302.439	739.88
302.669	711.88
302.9	702.88
303.13	734.88
303.36	704.88
303.59	726.88
303.82	707.88
304.051	729.88
304.281	715.88
304.511	701.88
304.741	723.88
304.971	720.88
305.201	735.88
305.431	725.88
305.661	711.88
305.891	698.88
306.121	685.88
306.352	707.88
306.582	701.88
306.812	690.88
307.042	715.88
307.272	706.88
307.502	698.88
307.731	716.88
307.961	703.88
308.191	668.88
308.421	688.88
308.651	692.88
308.881	683.88
309.111	699.88
309.341	692.88
309.571	699.88
309.8	705.88
310.03	691.88
310.26	730.88
310.49	707.88
310.72	721.88
310.949	703.88
311.179	716.88
311.409	715.88
311.639	700.88
311.868	704.88
312.098	730.88
312.328	705.88
312.557	734.88
312.787	734.88
313.017	727.88
313.246	735.88
313.476	747.88
313.706	738.88
313.935	758.88
314.165	771.88
314.394	745.88
314.624	749.88
314.853	734.88
315.083	753.88
315.312	769.88
315.542	760.88
315.771	734.88
316.001	739.88
316.23	737.88
316.46	727.88
316.689	735.88
316.919	732.88
317.148	757.88
317.377	738.88
317.607	726.88
317.836	740.88
318.065	708.88
318.295	756.88
318.524	766.88
318.753	711.88
318.983	699.88
319.212	721.88
319.441	730.88
319.67	754.88
319.9	745.88
320.129	726.88
320.358	753.88
320.587	736.88
320.816	718.88
321.046	749.88
321.275	735.88
321.504	758.88
321.733	754.88
321.962	739.88
322.191	763.88
322.42	729.88
322.649	738.88
322.878	754.88
323.108	761.88
323.337	749.88
323.566	767.88
323.795	779.88
324.024	767.88
324.253	781.88
324.482	765.88
324.71	772.88
324.939	770.88
325.168	788.88
325.397	774.88
325.626	789.88
325.855	788.88
326.084	797.88
326.313	833.88
326.542	832.88
326.77	835.88
326.999	779.88
327.228	805.88
327.457	795.88
327.686	794.88
327.914	826.88
328.143	810.88
328.372	813.88
328.6	819.88
328.829	798.88
329.058	803.88
329.287	827.88
329.515	831.88
329.744	838.88
329.972	837.88
330.201	814.88
330.43	840.88
330.658	812.88
330.887	818.88
331.115	858.88
331.344	841.88
331.572	854.88
331.801	874.88
332.03	922.88
332.258	949.88
332.486	937.88
332.715	965.88
332.943	1020.88
333.172	1040.88
333.4	1113.88
333.629	1134.88
333.857	1090.88
334.085	1129.88
334.314	1107.88
334.542	1068.88
334.771	1069.88
334.999	1028.88
335.227	1002.88
335.455	1000.88
335.684	998.88
335.912	1012.88
336.14	996.88
336.369	984.88
336.597	1022.88
336.825	984.88
337.053	1010.88
337.281	949.88
337.51	961.88
337.738	933.88
337.966	908.88
338.194	914.88
338.422	911.88
338.65	907.88
338.878	903.88
339.106	885.88
339.334	893.88
339.562	886.88
339.79	878.88
340.018	870.88
340.246	837.88
340.474	865.88
340.702	830.88
340.93	873.88
341.158	843.88
341.386	855.88
341.614	853.88
341.842	866.88
342.07	887.88
342.298	854.88
342.526	844.88
342.754	852.88
342.981	848.88
343.209	864.88
343.437	901.88
343.665	976.88
343.893	1020.88
344.12	1068.88
344.348	1005.88
344.576	973.88
344.804	923.88
345.031	895.88
345.259	850.88
345.487	832.88
345.714	858.88
345.942	832.88
346.17	858.88
346.397	853.88
346.625	830.88
346.853	826.88
347.08	812.88
347.308	801.88
347.535	815.88
347.763	822.88
347.99	844.88
348.218	838.88
348.445	798.88
348.673	791.88
348.9	821.88
349.128	796.88
349.355	823.88
349.583	810.88
349.81	795.88
350.037	798.88
350.265	815.88
350.492	787.88
350.72	777.88
350.947	790.88
351.174	794.88
351.402	804.88
351.629	812.88
351.856	789.88
352.083	822.88
352.311	791.88
352.538	783.88
352.765	799.88
352.992	771.88
353.22	755.88
353.447	771.88
353.674	784.88
353.901	777.88
354.128	782.88
354.355	790.88
354.583	776.88
354.81	777.88
355.037	777.88
355.264	778.88
355.491	799.88
355.718	792.88
355.945	782.88
356.172	782.88
356.399	794.88
356.626	789.88
356.853	791.88
357.08	780.88
357.307	815.88
357.534	806.88
357.761	795.88
357.988	803.88
358.215	785.88
358.441	769.88
358.668	754.88
358.895	807.88
359.122	783.88
359.349	794.88
359.576	782.88
359.802	784.88
360.029	759.88
360.256	792.88
360.483	759.88
360.709	782.88
360.936	793.88
361.163	771.88
361.39	810.88
361.616	779.88
361.843	789.88
362.07	803.88
362.296	796.88
362.523	777.88
362.749	799.88
362.976	789.88
363.203	778.88
363.429	753.88
363.656	745.88
363.882	830.88
364.109	784.88
364.335	794.88
364.562	777.88
364.788	795.88
365.015	783.88
365.241	784.88
365.468	776.88
365.694	783.88
365.92	793.88
366.147	783.88
366.373	815.88
366.599	761.88
366.826	793.88
367.052	790.88
367.278	776.88
367.505	810.88
367.731	814.88
367.957	773.88
368.184	792.88
368.41	781.88
368.636	795.88
368.862	773.88
369.089	789.88
369.315	794.88
369.541	804.88
369.767	803.88
369.993	827.88
370.219	826.88
370.445	808.88
370.672	834.88
370.898	819.88
371.124	848.88
371.35	855.88
371.576	842.88
371.802	853.88
372.028	827.88
372.254	847.88
372.48	882.88
372.706	898.88
372.932	912.88
373.158	895.88
373.384	871.88
373.61	862.88
373.835	860.88
374.061	868.88
374.287	870.88
374.513	867.88
374.739	903.88
374.965	951.88
375.191	951.88
375.416	953.88
375.642	945.88
375.868	911.88
376.094	890.88
376.319	887.88
376.545	889.88
376.771	870.88
376.997	851.88
377.222	889.88
377.448	869.88
377.674	848.88
377.899	829.88
378.125	842.88
378.35	862.88
378.576	854.88
378.802	842.88
379.027	834.88
379.253	861.88
379.478	854.88
379.704	848.88
379.929	841.88
380.155	849.88
380.38	857.88
380.606	820.88
380.831	836.88
381.057	878.88
381.282	822.88
381.507	847.88
381.733	858.88
381.958	859.88
382.184	878.88
382.409	878.88
382.634	892.88
382.86	874.88
383.085	917.88
383.31	921.88
383.535	928.88
383.761	946.88
383.986	965.88
384.211	985.88
384.436	1002.88
384.662	1014.88
384.887	1009.88
385.112	1035.88
385.337	1048.88
385.562	1037.88
385.787	1053.88
386.013	1065.88
386.238	1039.88
386.463	1057.88
386.688	1035.88
386.913	1041.88
387.138	1043.88
387.363	1026.88
387.588	1029.88
387.813	1032.88
388.038	1028.88
388.263	1044.88
388.488	1031.88
388.713	1009.88
388.938	1023.88
389.163	986.88
389.387	1015.88
389.612	1016.88
389.837	1007.88
390.062	991.88
390.287	1000.88
390.512	1025.88
390.736	1034.88
390.961	1047.88
391.186	1069.88
391.411	1081.88
391.636	1144.88
391.86	1177.88
392.085	1198.88
392.31	1155.88
392.534	1135.88
392.759	1102.88
392.984	1081.88
393.208	1107.88
393.433	1106.88
393.658	1125.88
393.882	1114.88
394.107	1094.88
394.331	1111.88
394.556	1109.88
394.78	1145.88
395.005	1115.88
395.229	1131.88
395.454	1154.88
395.678	1178.88
395.903	1177.88
396.127	1165.88
396.352	1092.88
396.576	1100.88
396.801	1106.88
397.025	1109.88
397.249	1145.88
397.474	1156.88
397.698	1180.88
397.922	1161.88
398.147	1188.88
398.371	1185.88
398.595	1249.88
398.82	1318.88
399.044	1407.88
399.268	1571.88
399.492	1801.88
399.717	2010.88
399.941	2051.88
400.165	1803.88
400.389	1636.88
400.613	1494.88
400.837	1378.88
401.062	1375.88
401.286	1342.88
401.51	1316.88
401.734	1295.88
401.958	1324.88
402.182	1357.88
402.406	1372.88
402.63	1383.88
402.854	1404.88
403.078	1417.88
403.302	1480.88
403.526	1506.88
403.75	1515.88
403.974	1556.88
404.198	1509.88
404.422	1583.88
404.645	1511.88
404.869	1534.88
405.093	1513.88
405.317	1493.88
405.541	1438.88
405.765	1462.88
405.988	1471.88
406.212	1457.88
406.436	1473.88
406.66	1489.88
406.883	1523.88
407.107	1560.88
407.331	1709.88
407.555	1723.88
407.778	1727.88
408.002	1655.88
408.226	1612.88
408.449	1613.88
408.673	1512.88
408.896	1474.88
409.12	1492.88
409.344	1495.88
409.567	1495.88
409.791	1479.88
410.014	1483.88
410.238	1460.88
410.461	1417.88
410.685	1427.88
410.908	1382.88
411.132	1433.88
411.355	1300.88
411.578	1364.88
411.802	1356.88
412.025	1355.88
412.249	1402.88
412.472	1369.88
412.695	1329.88
412.919	1282.88
413.142	1287.88
413.365	1322.88
413.589	1315.88
413.812	1280.88
414.035	1284.88
414.258	1286.88
414.482	1309.88
414.705	1291.88
414.928	1316.88
415.151	1313.88
415.374	1329.88
415.597	1330.88
415.821	1285.88
416.044	1272.88
416.267	1235.88
416.49	1268.88
416.713	1259.88
416.936	1258.88
417.159	1265.88
417.382	1310.88
417.605	1274.88
417.828	1299.88
418.051	1299.88
418.274	1302.88
418.497	1307.88
418.72	1357.88
418.943	1349.88
419.166	1442.88
419.389	1531.88
419.611	1448.88
419.834	1388.88
420.057	1374.88
420.28	1319.88
420.503	1284.88
420.726	1278.88
420.948	1276.88
421.171	1274.88
421.394	1266.88
421.617	1278.88
421.839	1278.88
422.062	1283.88
422.285	1277.88
422.507	1313.88
422.73	1339.88
422.953	1333.88
423.175	1364.88
423.398	1406.88
423.621	1335.88
423.843	1382.88
424.066	1379.88
424.288	1393.88
424.511	1370.88
424.733	1345.88
424.956	1327.88
425.178	1359.88
425.401	1325.88
425.623	1294.88
425.846	1265.88
426.068	1235.88
426.291	1251.88
426.513	1203.88
426.735	1198.88
426.958	1196.88
427.18	1180.88
427.402	1175.88
427.625	1175.88
427.847	1149.88
428.069	1153.88
428.292	1150.88
428.514	1126.88
428.736	1145.88
428.958	1141.88
429.181	1114.88
429.403	1111.88
429.625	1100.88
429.847	1096.88
430.069	1092.88
430.292	1102.88
430.514	1094.88
430.736	1121.88
430.958	1117.88
431.18	1109.88
431.402	1125.88
431.624	1145.88
431.846	1141.88
432.068	1154.88
432.29	1139.88
432.512	1101.88
432.734	1173.88
432.956	1135.88
433.178	1151.88
433.4	1151.88
433.622	1131.88
433.844	1169.88
434.066	1189.88
434.287	1183.88
434.509	1221.88
434.731	1282.88
434.953	1261.88
435.175	1269.88
435.397	1287.88
435.618	1208.88
435.84	1176.88
436.062	1161.88
436.284	1129.88
436.505	1120.88
436.727	1143.88
436.949	1164.88
437.17	1132.88
437.392	1096.88
437.614	1109.88
437.835	1054.88
438.057	1103.88
438.278	1074.88
438.5	1087.88
438.721	1103.88
438.943	1121.88
439.165	1081.88
439.386	1116.88
439.608	1124.88
439.829	1097.88
440.05	1099.88
440.272	1134.88
440.493	1151.88
440.715	1193.88
440.936	1207.88
441.158	1167.88
441.379	1266.88
441.6	1304.88
441.822	1286.88
442.043	1292.88
442.264	1261.88
442.486	1237.88
442.707	1268.88
442.928	1283.88
443.149	1266.88
443.371	1236.88
443.592	1262.88
443.813	1289.88
444.034	1288.88
444.255	1367.88
444.476	1413.88
444.698	1475.88
444.919	1515.88
445.14	1621.88
445.361	1459.88
445.582	1341.88
445.803	1271.88
446.024	1220.88
446.245	1190.88
446.466	1160.88
446.687	1147.88
446.908	1138.88
447.129	1127.88
447.35	1103.88
447.571	1048.88
447.792	1058.88
448.013	1087.88
448.234	1045.88
448.455	1083.88
448.675	1022.88
448.896	1015.88
449.117	1026.88
449.338	1013.88
449.559	1009.88
449.779	999.88
450	1009.88
450.221	1029.88
450.442	993.88
450.662	1014.88
450.883	1049.88
451.104	1065.88
451.324	1039.88
451.545	1054.88
451.766	1061.88
451.986	1000.88
452.207	1014.88
452.428	1018.88
452.648	1007.88
452.869	997.88
453.089	984.88
453.31	1027.88
453.53	990.88
453.751	1005.88
453.971	977.88
454.192	999.88
454.412	976.88
454.633	960.88
454.853	982.88
455.073	979.88
455.294	965.88
455.514	958.88
455.734	982.88
455.955	923.88
456.175	975.88
456.395	963.88
456.616	946.88
456.836	978.88
457.056	976.88
457.276	957.88
457.497	961.88
457.717	976.88
457.937	969.88
458.157	995.88
458.377	1016.88
458.598	1037.88
458.818	1030.88
459.038	1117.88
459.258	1117.88
459.478	1154.88
459.698	1197.88
459.918	1222.88
460.138	1281.88
460.358	1337.88
460.578	1329.88
460.798	1357.88
461.018	1408.88
461.238	1321.88
461.458	1329.88
461.678	1340.88
461.898	1382.88
462.118	1374.88
462.338	1463.88
462.558	1501.88
462.777	1529.88
462.997	1685.88
463.217	1794.88
463.437	1809.88
463.657	1699.88
463.876	1611.88
464.096	1585.88
464.316	1583.88
464.536	1612.88
464.755	1544.88
464.975	1509.88
465.195	1422.88
465.414	1340.88
465.634	1219.88
465.854	1170.88
466.073	1159.88
466.293	1164.88
466.512	1133.88
466.732	1083.88
466.951	1093.88
467.171	1070.88
467.391	1089.88
467.61	1088.88
467.829	1075.88
468.049	1089.88
468.268	1039.88
468.488	1045.88
468.707	1031.88
468.927	1056.88
469.146	1030.88
469.365	1042.88
469.585	1083.88
469.804	1093.88
470.023	1132.88
470.243	1114.88
470.462	1140.88
470.681	1142.88
470.901	1145.88
471.12	1137.88
471.339	1103.88
471.558	1077.88
471.777	1082.88
471.997	1043.88
472.216	1052.88
472.435	1083.88
472.654	1034.88
472.873	1019.88
473.092	983.88
473.311	1013.88
473.53	1022.88
473.749	1006.88
473.968	1010.88
474.187	995.88
474.406	1000.88
474.625	997.88
474.844	1025.88
475.063	1028.88
475.282	1023.88
475.501	1038.88
475.72	1044.88
475.939	1067.88
476.158	1031.88
476.377	1055.88
476.596	1061.88
476.814	1086.88
477.033	1059.88
477.252	1083.88
477.471	1110.88
477.69	1150.88
477.908	1198.88
478.127	1200.88
478.346	1234.88
478.564	1253.88
478.783	1261.88
479.002	1243.88
479.22	1295.88
479.439	1292.88
479.658	1252.88
479.876	1271.88
480.095	1311.88
480.313	1363.88
480.532	1409.88
480.751	1381.88
480.969	1323.88
481.188	1296.88
481.406	1235.88
481.624	1233.88
481.843	1198.88
482.061	1180.88
482.28	1172.88
482.498	1173.88
482.717	1146.88
482.935	1162.88
483.153	1160.88
483.372	1155.88
483.59	1171.88
483.808	1186.88
484.027	1139.88
484.245	1189.88
484.463	1185.88
484.681	1230.88
484.9	1197.88
485.118	1157.88
485.336	1177.88
485.554	1231.88
485.772	1198.88
485.99	1231.88
486.209	1209.88
486.427	1255.88
486.645	1229.88
486.863	1216.88
487.081	1227.88
487.299	1227.88
487.517	1192.88
487.735	1210.88
487.953	1214.88
488.171	1214.88
488.389	1218.88
488.607	1167.88
488.825	1177.88
489.043	1214.88
489.261	1184.88
489.479	1189.88
489.696	1238.88
489.914	1202.88
490.132	1233.88
490.35	1245.88
490.568	1207.88
490.786	1208.88
491.003	1235.88
491.221	1238.88
491.439	1230.88
491.657	1252.88
491.874	1225.88
492.092	1227.88
492.31	1218.88
492.527	1238.88
492.745	1277.88
492.963	1238.88
493.18	1260.88
493.398	1258.88
493.615	1270.88
493.833	1257.88
494.05	1265.88
494.268	1288.88
494.485	1298.88
494.703	1321.88
494.92	1299.88
495.138	1318.88
495.355	1325.88
495.573	1335.88
495.79	1335.88
496.008	1389.88
496.225	1354.88
496.442	1374.88
496.66	1363.88
496.877	1381.88
497.094	1401.88
497.312	1424.88
497.529	1447.88
497.746	1517.88
497.963	1528.88
498.181	1635.88
498.398	1697.88
498.615	1807.88
498.832	1920.88
499.049	2089.88
499.267	2255.88
499.484	2497.88
499.701	2758.88
499.918	3050.88
500.135	3532.88
500.352	3978.88
500.569	4195.88
500.786	4153.88
501.003	3855.88
501.22	3437.88
501.437	3075.88
501.654	2693.88
501.871	2431.88
502.088	2202.88
502.305	2103.88
502.522	1957.88
502.739	1875.88
502.956	1766.88
503.172	1689.88
503.389	1608.88
503.606	1564.88
503.823	1514.88
504.04	1535.88
504.256	1547.88
504.473	1587.88
504.69	1620.88
504.907	1571.88
505.123	1448.88
505.34	1376.88
505.557	1322.88
505.773	1269.88
505.99	1254.88
506.207	1220.88
506.423	1206.88
506.64	1191.88
506.856	1180.88
507.073	1171.88
507.289	1153.88
507.506	1173.88
507.722	1153.88
507.939	1172.88
508.155	1150.88
508.372	1138.88
508.588	1124.88
508.805	1072.88
509.021	1084.88
509.238	1111.88
509.454	1081.88
509.67	1099.88
509.887	1073.88
510.103	1076.88
510.319	1053.88
510.536	1055.88
510.752	1045.88
510.968	1058.88
511.184	1054.88
511.401	1054.88
511.617	1042.88
511.833	1060.88
512.049	1067.88
512.265	1074.88
512.481	1031.88
512.698	1025.88
512.914	1046.88
513.13	1048.88
513.346	1030.88
513.562	1058.88
513.778	1070.88
513.994	1057.88
514.21	1045.88
514.426	1054.88
514.642	1057.88
514.858	1061.88
515.074	1091.88
515.29	1075.88
515.506	1103.88
515.721	1129.88
515.937	1138.88
516.153	1140.88
516.369	1201.88
516.585	1200.88
516.801	1289.88
517.016	1321.88
517.232	1369.88
517.448	1438.88
517.664	1473.88
517.879	1492.88
518.095	1526.88
518.311	1502.88
518.527	1402.88
518.742	1336.88
518.958	1275.88
519.173	1229.88
519.389	1200.88
519.605	1154.88
519.82	1155.88
520.036	1132.88
520.251	1126.88
520.467	1097.88
520.682	1036.88
520.898	1054.88
521.113	1017.88
521.329	1026.88
521.544	1029.88
521.76	978.88
521.975	997.88
522.19	1007.88
522.406	995.88
522.621	979.88
522.836	949.88
523.052	967.88
523.267	999.88
523.482	989.88
523.698	953.88
523.913	972.88
524.128	989.88
524.343	951.88
524.559	962.88
524.774	955.88
524.989	949.88
525.204	951.88
525.419	966.88
525.634	953.88
525.849	950.88
526.064	943.88
526.28	952.88
526.495	927.88
526.71	949.88
526.925	919.88
527.14	940.88
527.355	929.88
527.57	928.88
527.785	942.88
527.999	935.88
528.214	915.88
528.429	961.88
528.644	954.88
528.859	957.88
529.074	949.88
529.289	939.88
529.503	901.88
529.718	945.88
529.933	916.88
530.148	915.88
530.363	922.88
530.577	950.88
530.792	927.88
531.007	903.88
531.221	948.88
531.436	936.88
531.651	926.88
531.865	933.88
532.08	937.88
532.295	933.88
532.509	941.88
532.724	931.88
532.938	940.88
533.153	917.88
533.367	955.88
533.582	929.88
533.796	936.88
534.011	921.88
534.225	921.88
534.44	943.88
534.654	902.88
534.868	913.88
535.083	912.88
535.297	899.88
535.511	913.88
535.726	902.88
535.94	877.88
536.154	881.88
536.369	882.88
536.583	858.88
536.797	876.88
537.011	885.88
537.225	852.88
537.44	860.88
537.654	887.88
537.868	868.88
538.082	859.88
538.296	867.88
538.51	855.88
538.724	881.88
538.938	855.88
539.153	852.88
539.367	843.88
539.581	861.88
539.795	831.88
540.009	842.88
540.222	853.88
540.436	844.88
540.65	856.88
540.864	847.88
541.078	853.88
541.292	840.88
541.506	852.88
541.72	845.88
541.934	845.88
542.147	829.88
542.361	839.88
542.575	821.88
542.789	805.88
543.002	800.88
543.216	827.88
543.43	839.88
543.644	838.88
543.857	826.88
544.071	836.88
544.285	827.88
544.498	837.88
544.712	839.88
544.925	857.88
545.139	859.88
545.352	861.88
545.566	863.88
545.779	839.88
545.993	868.88
546.206	863.88
546.42	862.88
546.633	872.88
546.847	863.88
547.06	874.88
547.274	833.88
547.487	851.88
547.7	866.88
547.914	878.88
548.127	848.88
548.34	868.88
548.554	846.88
548.767	893.88
548.98	875.88
549.193	859.88
549.407	886.88
549.62	907.88
549.833	926.88
550.046	883.88
550.259	842.88
550.473	841.88
550.686	857.88
550.899	839.88
551.112	839.88
551.325	822.88
551.538	849.88
551.751	831.88
551.964	849.88
552.177	843.88
552.39	875.88
552.603	894.88
552.816	933.88
553.029	929.88
553.242	951.88
553.455	957.88
553.667	942.88
553.88	929.88
554.093	908.88
554.306	890.88
554.519	876.88
554.732	860.88
554.944	847.88
555.157	825.88
555.37	827.88
555.583	815.88
555.795	786.88
556.008	767.88
556.221	758.88
556.433	747.88
556.646	749.88
556.859	740.88
557.071	739.88
557.284	717.88
557.496	732.88
557.709	742.88
557.921	726.88
558.134	722.88
558.346	697.88
558.559	733.88
558.771	723.88
558.984	703.88
559.196	713.88
559.409	714.88
559.621	691.88
559.833	705.88
560.046	719.88
560.258	718.88
560.47	695.88
560.683	695.88
560.895	709.88
561.107	687.88
561.32	690.88
561.532	710.88
561.744	681.88
561.956	710.88
562.168	700.88
562.381	716.88
562.593	697.88
562.805	721.88
563.017	695.88
563.229	719.88
563.441	729.88
563.653	701.88
563.865	726.88
564.077	709.88
564.289	742.88
564.501	745.88
564.713	758.88
564.925	750.88
565.137	774.88
565.349	803.88
565.561	827.88
565.773	873.88
565.985	903.88
566.197	943.88
566.408	1038.88
566.62	1092.88
566.832	1195.88
567.044	1207.88
567.255	1195.88
567.467	1247.88
567.679	1329.88
567.891	1376.88
568.102	1401.88
568.314	1370.88
568.526	1234.88
568.737	1098.88
568.949	1016.88
569.161	917.88
569.372	857.88
569.584	832.88
569.795	784.88
570.007	758.88
570.218	738.88
570.43	739.88
570.641	727.88
570.853	748.88
571.064	746.88
571.276	774.88
571.487	720.88
571.698	687.88
571.91	670.88
572.121	656.88
572.333	650.88
572.544	643.88
572.755	631.88
572.966	616.88
573.178	616.88
573.389	602.88
573.6	616.88
573.811	598.88
574.023	594.88
574.234	606.88
574.445	581.88
574.656	575.88
574.867	597.88
575.078	584.88
575.289	587.88
575.501	565.88
575.712	555.88
575.923	553.88
576.134	574.88
576.345	559.88
576.556	545.88
576.767	521.88
576.978	541.88
577.188	543.88
577.399	539.88
577.61	528.88
577.821	538.88
578.032	507.88
578.243	499.88
578.454	489.88
578.665	517.88
578.875	507.88
579.086	508.88
579.297	513.88
579.508	500.88
579.718	493.88
579.929	499.88
580.14	497.88
580.35	497.88
580.561	501.88
580.772	522.88
580.982	485.88
581.193	477.88
581.403	471.88
581.614	479.88
581.825	498.88
582.035	472.88
582.246	490.88
582.456	482.88
582.667	484.88
582.877	500.88
583.087	484.88
583.298	489.88
583.508	495.88
583.719	474.88
583.929	478.88
584.139	467.88
584.35	472.88
584.56	477.88
584.77	449.88
584.981	459.88
585.191	468.88
585.401	469.88
585.611	459.88
585.821	451.88
586.032	478.88
586.242	477.88
586.452	464.88
586.662	461.88
586.872	483.88
587.082	481.88
587.292	471.88
587.502	451.88
587.713	434.88
587.923	468.88
588.133	471.88
588.343	466.88
588.553	450.88
588.762	487.88
588.972	457.88
589.182	482.88
589.392	486.88
589.602	482.88
589.812	452.88
590.022	473.88
590.232	449.88
590.441	477.88
590.651	467.88
590.861	459.88
591.071	462.88
591.281	473.88
591.49	470.88
591.7	479.88
591.91	506.88
592.119	494.88
592.329	507.88
592.539	538.88
592.748	545.88
592.958	545.88
593.167	565.88
593.377	586.88
593.587	606.88
593.796	597.88
594.006	599.88
594.215	621.88
594.424	609.88
594.634	610.88
594.843	579.88
595.053	551.88
595.262	504.88
595.472	513.88
595.681	490.88
595.89	509.88
596.1	468.88
596.309	465.88
596.518	436.88
596.727	453.88
596.937	429.88
597.146	443.88
597.355	447.88
597.564	445.88
597.774	415.88
597.983	427.88
598.192	407.88
598.401	404.88
598.61	374.88
598.819	397.88
599.028	412.88
599.237	393.88
599.446	393.88
599.655	362.88
599.864	395.88
600.073	374.88
600.282	380.88
600.491	399.88
600.7	378.88
600.909	391.88
601.118	384.88
601.327	391.88
601.536	396.88
601.745	371.88
601.953	379.88
602.162	387.88
602.371	382.88
602.58	354.88
602.789	371.88
602.997	375.88
603.206	399.88
603.415	373.88
603.623	363.88
603.832	367.88
604.041	367.88
604.249	370.88
604.458	362.88
604.666	360.88
604.875	347.88
605.084	348.88
605.292	359.88
605.501	346.88
605.709	359.88
605.918	347.88
606.126	353.88
606.334	364.88
606.543	337.88
606.751	357.88
606.96	345.88
607.168	372.88
607.376	328.88
607.585	337.88
607.793	341.88
608.001	349.88
608.21	354.88
608.418	325.88
608.626	337.88
608.834	331.88
609.043	342.88
609.251	360.88
609.459	354.88
609.667	331.88
609.875	332.88
610.083	341.88
610.291	364.88
610.499	343.88
610.707	339.88
610.916	348.88
611.124	338.88
611.332	322.88
611.54	327.88
611.748	342.88
611.955	347.88
612.163	349.88
612.371	319.88
612.579	358.88
612.787	337.88
612.995	318.88
613.203	337.88
613.411	315.88
613.618	328.88
613.826	316.88
614.034	343.88
614.242	325.88
614.449	323.88
614.657	332.88
614.865	312.88
615.072	307.88
615.28	299.88
615.488	329.88
615.695	319.88
615.903	329.88
616.111	334.88
616.318	317.88
616.526	315.88
616.733	335.88
616.941	335.88
617.148	325.88
617.356	335.88
617.563	321.88
617.771	354.88
617.978	330.88
618.185	324.88
618.393	319.88
618.6	327.88
618.807	314.88
619.015	326.88
619.222	319.88
619.429	302.88
619.637	313.88
619.844	313.88
620.051	327.88
620.258	307.88
620.466	306.88
620.673	301.88
620.88	290.88
621.087	302.88
621.294	325.88
621.501	308.88
621.708	281.88
621.915	299.88
622.122	308.88
622.329	309.88
622.536	308.88
622.743	299.88
622.95	301.88
623.157	291.88
623.364	307.88
623.571	289.88
623.778	300.88
623.985	295.88
624.192	273.88
624.399	281.88
624.606	309.88
624.812	286.88
625.019	289.88
625.226	271.88
625.433	296.88
625.639	279.88
625.846	280.88
626.053	285.88
626.259	277.88
626.466	282.88
626.673	273.88
626.879	268.88
627.086	275.88
627.293	267.88
627.499	285.88
627.706	263.88
627.912	267.88
628.119	270.88
628.325	268.88
628.532	275.88
628.738	267.88
628.945	281.88
629.151	270.88
629.357	267.88
629.564	284.88
629.77	247.88
629.976	252.88
630.183	254.88
630.389	241.88
630.595	248.88
630.802	255.88
631.008	250.88
631.214	267.88
631.42	257.88
631.627	275.88
631.833	265.88
632.039	260.88
632.245	261.88
632.451	255.88
632.657	249.88
632.863	231.88
633.069	237.88
633.275	240.88
633.481	250.88
633.688	237.88
633.893	249.88
634.099	243.88
634.305	241.88
634.511	233.88
634.717	251.88
634.923	253.88
635.129	262.88
635.335	235.88
635.541	223.88
635.747	231.88
635.952	225.88
636.158	223.88
636.364	237.88
636.57	239.88
636.775	234.88
636.981	235.88
637.187	239.88
637.392	230.88
637.598	233.88
637.804	243.88
638.009	230.88
638.215	237.88
638.421	233.88
638.626	233.88
638.832	229.88
639.037	219.88
639.243	222.88
639.448	226.88
639.654	230.88
639.859	232.88
640.065	218.88
640.27	230.88
640.475	219.88
640.681	220.88
640.886	211.88
641.091	207.88
641.297	226.88
641.502	213.88
641.707	203.88
641.913	198.88
642.118	215.88
642.323	225.88
642.528	222.88
642.733	222.88
642.939	206.88
643.144	231.88
643.349	226.88
643.554	210.88
643.759	219.88
643.964	222.88
644.169	211.88
644.374	200.88
644.579	218.88
644.784	202.88
644.989	206.88
645.194	191.88
645.399	202.88
645.604	209.88
645.809	197.88
646.014	218.88
646.219	211.88
646.423	233.88
646.628	221.88
646.833	197.88
647.038	202.88
647.243	214.88
647.447	216.88
647.652	215.88
647.857	219.88
648.062	223.88
648.266	226.88
648.471	225.88
648.676	231.88
648.88	218.88
649.085	222.88
649.289	230.88
649.494	194.88
649.698	210.88
649.903	190.88
650.107	201.88
650.312	185.88
650.516	197.88
650.721	194.88
650.925	191.88
651.13	191.88
651.334	190.88
651.539	186.88
651.743	190.88
651.947	184.88
652.152	175.88
652.356	169.88
652.56	186.88
652.764	171.88
652.969	183.88
653.173	161.88
653.377	165.88
653.581	151.88
653.785	165.88
653.99	165.88
654.194	162.88
654.398	149.88
654.602	154.88
654.806	149.88
655.01	163.88
655.214	147.88
655.418	157.88
655.622	145.88
655.826	151.88
656.03	151.88
656.234	138.88
656.438	142.88
656.642	144.88
656.846	133.88
657.049	141.88
657.253	136.88
657.457	133.88
657.661	129.88
657.865	131.88
658.068	130.88
658.272	125.88
658.476	120.88
658.68	116.88
658.883	123.88
659.087	107.88
659.291	113.88
659.494	121.88
659.698	108.88
659.901	107.88
660.105	99.88
660.309	108.88
660.512	101.88
660.716	105.88
660.919	107.88
661.123	86.88
661.326	93.88
661.53	97.88
661.733	101.88
661.936	85.88
662.14	93.88
662.343	82.88
662.546	84.88
662.75	98.88
662.953	91.88
663.156	82.88
663.36	94.88
663.563	85.88
663.766	74.88
663.969	79.88
664.173	92.88
664.376	87.88
664.579	93.88
664.782	86.88
664.985	84.88
665.188	86.88
665.391	87.88
665.594	80.88
665.797	75.88
666	69.88
666.203	91.88
666.406	97.88
666.609	78.88
666.812	84.88
667.015	79.88
667.218	81.88
667.421	97.88
667.624	86.88
667.827	87.88
668.03	76.88
668.232	79.88
668.435	78.88
668.638	91.88
668.841	88.88
669.043	79.88
669.246	92.88
669.449	79.88
669.651	82.88
669.854	96.88
670.057	78.88
670.259	94.88
670.462	91.88
670.665	88.88
670.867	79.88
671.07	99.88
671.272	86.88
671.475	93.88
671.677	83.88
671.88	78.88
672.082	82.88
672.284	80.88
672.487	99.88
672.689	77.88
672.892	90.88
