Data from NiCl2@0.25M.TitratingCurve.Agarose3%dH2O.NegLispCup.LampEnergy10.LIBS07252019_HRD10591_18-22-37-572.txt Node
Date: Thu Jul 25 18:22:37 EDT 2019
User: cochatt
Spectrometer: HR+D1059
Trigger mode: 1
Integration Time (sec): 1.000000E-1
Scans to average: 1
Electric dark correction enabled: true
Nonlinearity correction enabled: false
Boxcar width: 0
XAxis mode: Wavelengths
Number of Pixels in Spectrum: 2048
>>>>>Begin Spectral Data<<<<<
223.165	-14.19
223.4	-14.19
223.635	-14.19
223.869	-25.19
224.104	-15.19
224.338	-20.19
224.573	-19.19
224.808	-1.19
225.042	5.81
225.277	11.81
225.511	-5.19
225.746	6.81
225.98	11.81
226.215	15.81
226.449	-4.19
226.683	11.81
226.918	18.81
227.152	21.81
227.387	41.81
227.621	29.81
227.856	35.81
228.09	50.81
228.324	46.81
228.559	68.81
228.793	69.81
229.027	105.81
229.262	109.81
229.496	107.81
229.73	127.81
229.964	132.81
230.199	140.81
230.433	135.81
230.667	148.81
230.901	144.81
231.136	138.81
231.37	152.81
231.604	142.81
231.838	160.81
232.072	155.81
232.306	145.81
232.541	153.81
232.775	145.81
233.009	149.81
233.243	137.81
233.477	147.81
233.711	146.81
233.945	147.81
234.179	147.81
234.413	139.81
234.647	138.81
234.881	163.81
235.115	149.81
235.349	147.81
235.583	157.81
235.817	165.81
236.051	153.81
236.285	143.81
236.519	165.81
236.753	148.81
236.987	133.81
237.221	147.81
237.455	153.81
237.689	181.81
237.922	161.81
238.156	159.81
238.39	163.81
238.624	156.81
238.858	167.81
239.091	158.81
239.325	162.81
239.559	167.81
239.793	175.81
240.027	186.81
240.26	177.81
240.494	161.81
240.728	142.81
240.961	179.81
241.195	174.81
241.429	196.81
241.662	177.81
241.896	190.81
242.13	179.81
242.363	180.81
242.597	178.81
242.83	199.81
243.064	180.81
243.298	201.81
243.531	206.81
243.765	191.81
243.998	199.81
244.232	201.81
244.465	183.81
244.699	189.81
244.932	205.81
245.166	213.81
245.399	213.81
245.633	206.81
245.866	207.81
246.099	211.81
246.333	199.81
246.566	217.81
246.8	194.81
247.033	205.81
247.266	223.81
247.5	227.81
247.733	225.81
247.966	223.81
248.2	227.81
248.433	211.81
248.666	235.81
248.899	214.81
249.133	234.81
249.366	239.81
249.599	241.81
249.832	231.81
250.066	248.81
250.299	227.81
250.532	223.81
250.765	244.81
250.998	251.81
251.231	266.81
251.465	250.81
251.698	248.81
251.931	238.81
252.164	267.81
252.397	240.81
252.63	249.81
252.863	261.81
253.096	255.81
253.329	270.81
253.562	251.81
253.795	270.81
254.028	262.81
254.261	274.81
254.494	265.81
254.727	268.81
254.96	264.81
255.193	274.81
255.426	277.81
255.659	268.81
255.892	273.81
256.124	269.81
256.357	285.81
256.59	278.81
256.823	257.81
257.056	278.81
257.289	277.81
257.521	262.81
257.754	294.81
257.987	281.81
258.22	286.81
258.452	297.81
258.685	296.81
258.918	282.81
259.151	304.81
259.383	291.81
259.616	291.81
259.849	286.81
260.081	309.81
260.314	292.81
260.547	285.81
260.779	285.81
261.012	310.81
261.244	318.81
261.477	308.81
261.71	314.81
261.942	314.81
262.175	318.81
262.407	309.81
262.64	306.81
262.872	313.81
263.105	312.81
263.337	327.81
263.57	326.81
263.802	328.81
264.035	300.81
264.267	326.81
264.499	330.81
264.732	312.81
264.964	328.81
265.197	316.81
265.429	335.81
265.661	322.81
265.894	335.81
266.126	341.81
266.358	341.81
266.591	340.81
266.823	346.81
267.055	338.81
267.287	319.81
267.52	334.81
267.752	348.81
267.984	341.81
268.216	336.81
268.448	323.81
268.681	339.81
268.913	364.81
269.145	352.81
269.377	359.81
269.609	352.81
269.841	342.81
270.073	345.81
270.306	332.81
270.538	353.81
270.77	363.81
271.002	362.81
271.234	358.81
271.466	361.81
271.698	340.81
271.93	373.81
272.162	357.81
272.394	366.81
272.626	344.81
272.858	370.81
273.09	371.81
273.322	388.81
273.553	372.81
273.785	372.81
274.017	373.81
274.249	379.81
274.481	380.81
274.713	380.81
274.945	386.81
275.176	382.81
275.408	386.81
275.64	394.81
275.872	383.81
276.104	402.81
276.335	400.81
276.567	409.81
276.799	419.81
277.031	396.81
277.262	415.81
277.494	414.81
277.726	404.81
277.957	398.81
278.189	397.81
278.421	412.81
278.652	398.81
278.884	417.81
279.115	414.81
279.347	416.81
279.579	401.81
279.81	403.81
280.042	406.81
280.273	406.81
280.505	422.81
280.736	442.81
280.968	428.81
281.199	429.81
281.431	436.81
281.662	433.81
281.894	423.81
282.125	445.81
282.356	439.81
282.588	458.81
282.819	445.81
283.051	449.81
283.282	445.81
283.513	438.81
283.745	442.81
283.976	441.81
284.207	456.81
284.439	471.81
284.67	439.81
284.901	469.81
285.132	446.81
285.364	453.81
285.595	428.81
285.826	441.81
286.057	449.81
286.288	461.81
286.52	479.81
286.751	471.81
286.982	489.81
287.213	465.81
287.444	473.81
287.675	475.81
287.906	501.81
288.138	485.81
288.369	470.81
288.6	495.81
288.831	474.81
289.062	485.81
289.293	483.81
289.524	471.81
289.755	456.81
289.986	469.81
290.217	479.81
290.448	499.81
290.679	505.81
290.91	493.81
291.141	509.81
291.371	522.81
291.602	491.81
291.833	493.81
292.064	472.81
292.295	486.81
292.526	479.81
292.757	500.81
292.987	491.81
293.218	490.81
293.449	485.81
293.68	491.81
293.91	520.81
294.141	506.81
294.372	491.81
294.603	491.81
294.833	487.81
295.064	493.81
295.295	498.81
295.525	486.81
295.756	507.81
295.987	499.81
296.217	514.81
296.448	516.81
296.679	509.81
296.909	505.81
297.14	526.81
297.37	527.81
297.601	552.81
297.831	521.81
298.062	503.81
298.292	529.81
298.523	557.81
298.753	556.81
298.984	535.81
299.214	540.81
299.445	532.81
299.675	528.81
299.905	557.81
300.136	535.81
300.366	570.81
300.597	561.81
300.827	558.81
301.057	563.81
301.288	580.81
301.518	579.81
301.748	582.81
301.979	579.81
302.209	577.81
302.439	570.81
302.669	547.81
302.9	569.81
303.13	566.81
303.36	574.81
303.59	574.81
303.82	574.81
304.051	555.81
304.281	552.81
304.511	588.81
304.741	587.81
304.971	567.81
305.201	582.81
305.431	572.81
305.661	569.81
305.891	550.81
306.121	568.81
306.352	547.81
306.582	551.81
306.812	548.81
307.042	557.81
307.272	557.81
307.502	566.81
307.731	562.81
307.961	518.81
308.191	539.81
308.421	544.81
308.651	562.81
308.881	535.81
309.111	538.81
309.341	548.81
309.571	556.81
309.8	555.81
310.03	576.81
310.26	572.81
310.49	582.81
310.72	572.81
310.949	555.81
311.179	581.81
311.409	566.81
311.639	566.81
311.868	571.81
312.098	583.81
312.328	577.81
312.557	596.81
312.787	574.81
313.017	581.81
313.246	598.81
313.476	602.81
313.706	643.81
313.935	601.81
314.165	586.81
314.394	593.81
314.624	599.81
314.853	595.81
315.083	583.81
315.312	599.81
315.542	616.81
315.771	596.81
316.001	610.81
316.23	579.81
316.46	585.81
316.689	593.81
316.919	599.81
317.148	609.81
317.377	601.81
317.607	591.81
317.836	597.81
318.065	583.81
318.295	589.81
318.524	581.81
318.753	591.81
318.983	589.81
319.212	564.81
319.441	586.81
319.67	566.81
319.9	588.81
320.129	590.81
320.358	597.81
320.587	591.81
320.816	591.81
321.046	597.81
321.275	589.81
321.504	597.81
321.733	602.81
321.962	618.81
322.191	602.81
322.42	615.81
322.649	627.81
322.878	615.81
323.108	604.81
323.337	606.81
323.566	630.81
323.795	626.81
324.024	609.81
324.253	632.81
324.482	605.81
324.71	590.81
324.939	631.81
325.168	627.81
325.397	621.81
325.626	618.81
325.855	635.81
326.084	641.81
326.313	627.81
326.542	650.81
326.77	655.81
326.999	661.81
327.228	620.81
327.457	644.81
327.686	649.81
327.914	669.81
328.143	659.81
328.372	638.81
328.6	644.81
328.829	661.81
329.058	669.81
329.287	654.81
329.515	648.81
329.744	635.81
329.972	665.81
330.201	669.81
330.43	679.81
330.658	656.81
330.887	679.81
331.115	689.81
331.344	678.81
331.572	714.81
331.801	692.81
332.03	698.81
332.258	718.81
332.486	758.81
332.715	778.81
332.943	814.81
333.172	855.81
333.4	876.81
333.629	897.81
333.857	875.81
334.085	876.81
334.314	841.81
334.542	837.81
334.771	835.81
334.999	793.81
335.227	826.81
335.455	812.81
335.684	801.81
335.912	806.81
336.14	787.81
336.369	804.81
336.597	755.81
336.825	809.81
337.053	782.81
337.281	748.81
337.51	768.81
337.738	733.81
337.966	723.81
338.194	747.81
338.422	725.81
338.65	710.81
338.878	736.81
339.106	712.81
339.334	699.81
339.562	719.81
339.79	685.81
340.018	693.81
340.246	676.81
340.474	696.81
340.702	699.81
340.93	708.81
341.158	723.81
341.386	682.81
341.614	709.81
341.842	699.81
342.07	689.81
342.298	682.81
342.526	705.81
342.754	687.81
342.981	671.81
343.209	723.81
343.437	748.81
343.665	791.81
343.893	854.81
344.12	868.81
344.348	809.81
344.576	736.81
344.804	739.81
345.031	735.81
345.259	716.81
345.487	720.81
345.714	689.81
345.942	689.81
346.17	682.81
346.397	682.81
346.625	681.81
346.853	655.81
347.08	668.81
347.308	666.81
347.535	666.81
347.763	683.81
347.99	677.81
348.218	665.81
348.445	657.81
348.673	648.81
348.9	653.81
349.128	661.81
349.355	676.81
349.583	653.81
349.81	645.81
350.037	652.81
350.265	633.81
350.492	653.81
350.72	632.81
350.947	638.81
351.174	658.81
351.402	642.81
351.629	664.81
351.856	635.81
352.083	664.81
352.311	648.81
352.538	644.81
352.765	652.81
352.992	637.81
353.22	639.81
353.447	630.81
353.674	636.81
353.901	618.81
354.128	637.81
354.355	638.81
354.583	618.81
354.81	626.81
355.037	650.81
355.264	654.81
355.491	645.81
355.718	636.81
355.945	636.81
356.172	656.81
356.399	645.81
356.626	660.81
356.853	681.81
357.08	659.81
357.307	634.81
357.534	658.81
357.761	637.81
357.988	641.81
358.215	635.81
358.441	656.81
358.668	630.81
358.895	638.81
359.122	642.81
359.349	653.81
359.576	653.81
359.802	645.81
360.029	620.81
360.256	643.81
360.483	675.81
360.709	662.81
360.936	634.81
361.163	650.81
361.39	667.81
361.616	629.81
361.843	669.81
362.07	672.81
362.296	662.81
362.523	631.81
362.749	658.81
362.976	626.81
363.203	642.81
363.429	643.81
363.656	651.81
363.882	626.81
364.109	665.81
364.335	647.81
364.562	638.81
364.788	615.81
365.015	657.81
365.241	643.81
365.468	646.81
365.694	633.81
365.92	643.81
366.147	644.81
366.373	625.81
366.599	642.81
366.826	636.81
367.052	645.81
367.278	637.81
367.505	664.81
367.731	657.81
367.957	635.81
368.184	640.81
368.41	657.81
368.636	636.81
368.862	658.81
369.089	667.81
369.315	666.81
369.541	657.81
369.767	662.81
369.993	643.81
370.219	661.81
370.445	667.81
370.672	663.81
370.898	678.81
371.124	674.81
371.35	695.81
371.576	695.81
371.802	687.81
372.028	690.81
372.254	703.81
372.48	697.81
372.706	698.81
372.932	726.81
373.158	742.81
373.384	732.81
373.61	699.81
373.835	695.81
374.061	703.81
374.287	694.81
374.513	710.81
374.739	727.81
374.965	759.81
375.191	769.81
375.416	766.81
375.642	744.81
375.868	753.81
376.094	745.81
376.319	703.81
376.545	700.81
376.771	694.81
376.997	689.81
377.222	705.81
377.448	676.81
377.674	705.81
377.899	696.81
378.125	696.81
378.35	692.81
378.576	687.81
378.802	675.81
379.027	691.81
379.253	710.81
379.478	674.81
379.704	708.81
379.929	692.81
380.155	678.81
380.38	680.81
380.606	669.81
380.831	682.81
381.057	693.81
381.282	695.81
381.507	698.81
381.733	699.81
381.958	703.81
382.184	718.81
382.409	731.81
382.634	728.81
382.86	741.81
383.085	742.81
383.31	750.81
383.535	747.81
383.761	769.81
383.986	781.81
384.211	783.81
384.436	801.81
384.662	814.81
384.887	840.81
385.112	842.81
385.337	834.81
385.562	839.81
385.787	836.81
386.013	887.81
386.238	853.81
386.463	846.81
386.688	860.81
386.913	851.81
387.138	809.81
387.363	843.81
387.588	828.81
387.813	838.81
388.038	817.81
388.263	838.81
388.488	827.81
388.713	821.81
388.938	809.81
389.163	817.81
389.387	828.81
389.612	798.81
389.837	832.81
390.062	819.81
390.287	821.81
390.512	807.81
390.736	823.81
390.961	846.81
391.186	854.81
391.411	889.81
391.636	874.81
391.86	919.81
392.085	940.81
392.31	932.81
392.534	893.81
392.759	909.81
392.984	936.81
393.208	931.81
393.433	846.81
393.658	898.81
393.882	887.81
394.107	879.81
394.331	899.81
394.556	883.81
394.78	895.81
395.005	893.81
395.229	905.81
395.454	937.81
395.678	967.81
395.903	945.81
396.127	935.81
396.352	893.81
396.576	898.81
396.801	901.81
397.025	912.81
397.249	909.81
397.474	963.81
397.698	981.81
397.922	957.81
398.147	984.81
398.371	934.81
398.595	979.81
398.82	1052.81
399.044	1109.81
399.268	1239.81
399.492	1425.81
399.717	1595.81
399.941	1500.81
400.165	1359.81
400.389	1248.81
400.613	1153.81
400.837	1098.81
401.062	1054.81
401.286	1025.81
401.51	1071.81
401.734	1031.81
401.958	1094.81
402.182	1077.81
402.406	1065.81
402.63	1086.81
402.854	1121.81
403.078	1146.81
403.302	1170.81
403.526	1161.81
403.75	1203.81
403.974	1175.81
404.198	1180.81
404.422	1218.81
404.645	1215.81
404.869	1198.81
405.093	1190.81
405.317	1171.81
405.541	1163.81
405.765	1148.81
405.988	1148.81
406.212	1133.81
406.436	1180.81
406.66	1163.81
406.883	1168.81
407.107	1265.81
407.331	1321.81
407.555	1371.81
407.778	1367.81
408.002	1288.81
408.226	1234.81
408.449	1245.81
408.673	1220.81
408.896	1180.81
409.12	1151.81
409.344	1160.81
409.567	1142.81
409.791	1164.81
410.014	1141.81
410.238	1133.81
410.461	1146.81
410.685	1158.81
410.908	1104.81
411.132	1081.81
411.355	1061.81
411.578	1085.81
411.802	1067.81
412.025	1086.81
412.249	1084.81
412.472	1100.81
412.695	1078.81
412.919	1057.81
413.142	1079.81
413.365	1037.81
413.589	1049.81
413.812	1039.81
414.035	1052.81
414.258	1045.81
414.482	1049.81
414.705	1052.81
414.928	1035.81
415.151	1045.81
415.374	1035.81
415.597	1037.81
415.821	1039.81
416.044	1034.81
416.267	1003.81
416.49	1027.81
416.713	1006.81
416.936	1040.81
417.159	1029.81
417.382	983.81
417.605	1028.81
417.828	1050.81
418.051	1045.81
418.274	1035.81
418.497	1026.81
418.72	1061.81
418.943	1070.81
419.166	1124.81
419.389	1180.81
419.611	1159.81
419.834	1096.81
420.057	1063.81
420.28	1047.81
420.503	1016.81
420.726	1007.81
420.948	1003.81
421.171	1031.81
421.394	997.81
421.617	1024.81
421.839	1029.81
422.062	1017.81
422.285	1007.81
422.507	1033.81
422.73	1039.81
422.953	1038.81
423.175	1081.81
423.398	1099.81
423.621	1058.81
423.843	1071.81
424.066	1091.81
424.288	1096.81
424.511	1084.81
424.733	1041.81
424.956	1017.81
425.178	1045.81
425.401	1020.81
425.623	1041.81
425.846	1011.81
426.068	981.81
426.291	997.81
426.513	973.81
426.735	974.81
426.958	932.81
427.18	923.81
427.402	919.81
427.625	964.81
427.847	939.81
428.069	890.81
428.292	933.81
428.514	888.81
428.736	914.81
428.958	901.81
429.181	919.81
429.403	866.81
429.625	895.81
429.847	853.81
430.069	872.81
430.292	879.81
430.514	906.81
430.736	892.81
430.958	891.81
431.18	879.81
431.402	886.81
431.624	905.81
431.846	890.81
432.068	897.81
432.29	908.81
432.512	899.81
432.734	918.81
432.956	910.81
433.178	902.81
433.4	930.81
433.622	928.81
433.844	948.81
434.066	929.81
434.287	967.81
434.509	961.81
434.731	1007.81
434.953	1015.81
435.175	1049.81
435.397	1026.81
435.618	945.81
435.84	937.81
436.062	905.81
436.284	919.81
436.505	879.81
436.727	924.81
436.949	919.81
437.17	909.81
437.392	874.81
437.614	894.81
437.835	856.81
438.057	877.81
438.278	860.81
438.5	863.81
438.721	867.81
438.943	891.81
439.165	873.81
439.386	890.81
439.608	885.81
439.829	874.81
440.05	897.81
440.272	923.81
440.493	911.81
440.715	929.81
440.936	911.81
441.158	941.81
441.379	997.81
441.6	1052.81
441.822	1004.81
442.043	1018.81
442.264	989.81
442.486	989.81
442.707	994.81
442.928	1021.81
443.149	991.81
443.371	1020.81
443.592	1019.81
443.813	1061.81
444.034	1040.81
444.255	1047.81
444.476	1102.81
444.698	1168.81
444.919	1211.81
445.14	1265.81
445.361	1168.81
445.582	1067.81
445.803	1002.81
446.024	948.81
446.245	981.81
446.466	955.81
446.687	927.81
446.908	923.81
447.129	882.81
447.35	869.81
447.571	882.81
447.792	853.81
448.013	839.81
448.234	837.81
448.455	832.81
448.675	826.81
448.896	831.81
449.117	806.81
449.338	834.81
449.559	814.81
449.779	797.81
450	820.81
450.221	822.81
450.442	837.81
450.662	836.81
450.883	858.81
451.104	870.81
451.324	849.81
451.545	815.81
451.766	817.81
451.986	810.81
452.207	824.81
452.428	837.81
452.648	835.81
452.869	805.81
453.089	800.81
453.31	813.81
453.53	794.81
453.751	777.81
453.971	801.81
454.192	797.81
454.412	789.81
454.633	794.81
454.853	789.81
455.073	791.81
455.294	782.81
455.514	763.81
455.734	757.81
455.955	748.81
456.175	790.81
456.395	759.81
456.616	763.81
456.836	771.81
457.056	779.81
457.276	776.81
457.497	799.81
457.717	776.81
457.937	799.81
458.157	778.81
458.377	805.81
458.598	836.81
458.818	854.81
459.038	842.81
459.258	895.81
459.478	919.81
459.698	965.81
459.918	968.81
460.138	1003.81
460.358	1023.81
460.578	1065.81
460.798	1062.81
461.018	1109.81
461.238	1045.81
461.458	1082.81
461.678	1073.81
461.898	1063.81
462.118	1071.81
462.338	1128.81
462.558	1173.81
462.777	1221.81
462.997	1311.81
463.217	1418.81
463.437	1457.81
463.657	1311.81
463.876	1260.81
464.096	1233.81
464.316	1243.81
464.536	1256.81
464.755	1197.81
464.975	1133.81
465.195	1131.81
465.414	1058.81
465.634	987.81
465.854	954.81
466.073	934.81
466.293	892.81
466.512	882.81
466.732	855.81
466.951	868.81
467.171	835.81
467.391	867.81
467.61	883.81
467.829	863.81
468.049	838.81
468.268	833.81
468.488	822.81
468.707	843.81
468.927	829.81
469.146	856.81
469.365	859.81
469.585	857.81
469.804	874.81
470.023	889.81
470.243	901.81
470.462	882.81
470.681	878.81
470.901	909.81
471.12	887.81
471.339	856.81
471.558	866.81
471.777	882.81
471.997	853.81
472.216	831.81
472.435	827.81
472.654	830.81
472.873	828.81
473.092	818.81
473.311	857.81
473.53	819.81
473.749	814.81
473.968	811.81
474.187	809.81
474.406	798.81
474.625	817.81
474.844	823.81
475.063	828.81
475.282	833.81
475.501	821.81
475.72	809.81
475.939	829.81
476.158	831.81
476.377	842.81
476.596	844.81
476.814	841.81
477.033	873.81
477.252	898.81
477.471	878.81
477.69	941.81
477.908	930.81
478.127	968.81
478.346	989.81
478.564	979.81
478.783	1019.81
479.002	1032.81
479.22	1036.81
479.439	1037.81
479.658	1043.81
479.876	1040.81
480.095	995.81
480.313	1058.81
480.532	1085.81
480.751	1087.81
480.969	1045.81
481.188	1025.81
481.406	1014.81
481.624	976.81
481.843	935.81
482.061	959.81
482.28	938.81
482.498	919.81
482.717	922.81
482.935	932.81
483.153	958.81
483.372	937.81
483.59	926.81
483.808	924.81
484.027	933.81
484.245	934.81
484.463	934.81
484.681	970.81
484.9	956.81
485.118	981.81
485.336	985.81
485.554	961.81
485.772	969.81
485.99	979.81
486.209	987.81
486.427	969.81
486.645	991.81
486.863	972.81
487.081	992.81
487.299	961.81
487.517	970.81
487.735	971.81
487.953	1011.81
488.171	981.81
488.389	984.81
488.607	971.81
488.825	964.81
489.043	952.81
489.261	970.81
489.479	1000.81
489.696	968.81
489.914	964.81
490.132	961.81
490.35	999.81
490.568	988.81
490.786	983.81
491.003	986.81
491.221	999.81
491.439	1015.81
491.657	998.81
491.874	1006.81
492.092	1027.81
492.31	990.81
492.527	1010.81
492.745	985.81
492.963	1043.81
493.18	996.81
493.398	994.81
493.615	1038.81
493.833	1021.81
494.05	1032.81
494.268	1063.81
494.485	1044.81
494.703	1043.81
494.92	1085.81
495.138	1044.81
495.355	1046.81
495.573	1053.81
495.79	1056.81
496.008	1078.81
496.225	1057.81
496.442	1105.81
496.66	1093.81
496.877	1095.81
497.094	1144.81
497.312	1113.81
497.529	1174.81
497.746	1163.81
497.963	1236.81
498.181	1309.81
498.398	1360.81
498.615	1429.81
498.832	1529.81
499.049	1597.81
499.267	1789.81
499.484	1928.81
499.701	2131.81
499.918	2355.81
500.135	2660.81
500.352	2994.81
500.569	3082.81
500.786	3068.81
501.003	2774.81
501.22	2552.81
501.437	2217.81
501.654	1995.81
501.871	1828.81
502.088	1691.81
502.305	1619.81
502.522	1506.81
502.739	1449.81
502.956	1337.81
503.172	1292.81
503.389	1271.81
503.606	1209.81
503.823	1199.81
504.04	1203.81
504.256	1209.81
504.473	1215.81
504.69	1235.81
504.907	1198.81
505.123	1126.81
505.34	1098.81
505.557	1035.81
505.773	1027.81
505.99	979.81
506.207	965.81
506.423	967.81
506.64	937.81
506.856	953.81
507.073	906.81
507.289	934.81
507.506	922.81
507.722	907.81
507.939	905.81
508.155	901.81
508.372	899.81
508.588	896.81
508.805	882.81
509.021	865.81
509.238	884.81
509.454	855.81
509.67	850.81
509.887	846.81
510.103	847.81
510.319	839.81
510.536	847.81
510.752	835.81
510.968	827.81
511.184	841.81
511.401	833.81
511.617	815.81
511.833	854.81
512.049	825.81
512.265	814.81
512.481	822.81
512.698	818.81
512.914	835.81
513.13	844.81
513.346	846.81
513.562	833.81
513.778	834.81
513.994	837.81
514.21	829.81
514.426	854.81
514.642	828.81
514.858	851.81
515.074	852.81
515.29	887.81
515.506	903.81
515.721	896.81
515.937	914.81
516.153	900.81
516.369	952.81
516.585	945.81
516.801	969.81
517.016	1037.81
517.232	1085.81
517.448	1147.81
517.664	1197.81
517.879	1153.81
518.095	1169.81
518.311	1150.81
518.527	1094.81
518.742	1046.81
518.958	1023.81
519.173	961.81
519.389	937.81
519.605	905.81
519.82	870.81
520.036	904.81
520.251	845.81
520.467	861.81
520.682	842.81
520.898	821.81
521.113	832.81
521.329	822.81
521.544	813.81
521.76	800.81
521.975	793.81
522.19	787.81
522.406	797.81
522.621	796.81
522.836	781.81
523.052	807.81
523.267	772.81
523.482	738.81
523.698	746.81
523.913	764.81
524.128	767.81
524.343	765.81
524.559	754.81
524.774	779.81
524.989	773.81
525.204	775.81
525.419	788.81
525.634	750.81
525.849	751.81
526.064	761.81
526.28	780.81
526.495	710.81
526.71	733.81
526.925	756.81
527.14	749.81
527.355	749.81
527.57	718.81
527.785	746.81
527.999	741.81
528.214	753.81
528.429	753.81
528.644	731.81
528.859	751.81
529.074	753.81
529.289	739.81
529.503	729.81
529.718	749.81
529.933	714.81
530.148	730.81
530.363	754.81
530.577	726.81
530.792	714.81
531.007	733.81
531.221	731.81
531.436	734.81
531.651	746.81
531.865	723.81
532.08	761.81
532.295	744.81
532.509	771.81
532.724	719.81
532.938	710.81
533.153	741.81
533.367	737.81
533.582	741.81
533.796	740.81
534.011	730.81
534.225	723.81
534.44	708.81
534.654	729.81
534.868	715.81
535.083	705.81
535.297	713.81
535.511	715.81
535.726	710.81
535.94	690.81
536.154	711.81
536.369	724.81
536.583	714.81
536.797	684.81
537.011	671.81
537.225	682.81
537.44	683.81
537.654	673.81
537.868	665.81
538.082	671.81
538.296	665.81
538.51	663.81
538.724	714.81
538.938	660.81
539.153	650.81
539.367	676.81
539.581	679.81
539.795	664.81
540.009	667.81
540.222	646.81
540.436	670.81
540.65	660.81
540.864	673.81
541.078	653.81
541.292	685.81
541.506	675.81
541.72	697.81
541.934	684.81
542.147	702.81
542.361	660.81
542.575	685.81
542.789	658.81
543.002	641.81
543.216	648.81
543.43	641.81
543.644	668.81
543.857	663.81
544.071	697.81
544.285	663.81
544.498	677.81
544.712	673.81
544.925	645.81
545.139	661.81
545.352	698.81
545.566	716.81
545.779	679.81
545.993	677.81
546.206	675.81
546.42	678.81
546.633	697.81
546.847	677.81
547.06	661.81
547.274	682.81
547.487	679.81
547.7	716.81
547.914	711.81
548.127	704.81
548.34	685.81
548.554	712.81
548.767	696.81
548.98	702.81
549.193	699.81
549.407	696.81
549.62	708.81
549.833	719.81
550.046	705.81
550.259	701.81
550.473	658.81
550.686	689.81
550.899	682.81
551.112	658.81
551.325	676.81
551.538	662.81
551.751	675.81
551.964	659.81
552.177	683.81
552.39	687.81
552.603	711.81
552.816	726.81
553.029	715.81
553.242	749.81
553.455	771.81
553.667	770.81
553.88	737.81
554.093	725.81
554.306	708.81
554.519	691.81
554.732	681.81
554.944	693.81
555.157	659.81
555.37	656.81
555.583	625.81
555.795	630.81
556.008	623.81
556.221	610.81
556.433	589.81
556.646	610.81
556.859	595.81
557.071	580.81
557.284	610.81
557.496	577.81
557.709	605.81
557.921	586.81
558.134	580.81
558.346	584.81
558.559	594.81
558.771	566.81
558.984	561.81
559.196	569.81
559.409	560.81
559.621	555.81
559.833	542.81
560.046	559.81
560.258	554.81
560.47	547.81
560.683	572.81
560.895	555.81
561.107	552.81
561.32	557.81
561.532	567.81
561.744	557.81
561.956	545.81
562.168	568.81
562.381	568.81
562.593	570.81
562.805	581.81
563.017	572.81
563.229	539.81
563.441	561.81
563.653	575.81
563.865	566.81
564.077	586.81
564.289	587.81
564.501	599.81
564.713	598.81
564.925	597.81
565.137	625.81
565.349	631.81
565.561	652.81
565.773	677.81
565.985	697.81
566.197	730.81
566.408	798.81
566.62	826.81
566.832	906.81
567.044	908.81
567.255	907.81
567.467	956.81
567.679	991.81
567.891	1060.81
568.102	1081.81
568.314	1022.81
568.526	909.81
568.737	838.81
568.949	771.81
569.161	747.81
569.372	663.81
569.584	619.81
569.795	615.81
570.007	608.81
570.218	579.81
570.43	571.81
570.641	584.81
570.853	579.81
571.064	589.81
571.276	576.81
571.487	550.81
571.698	528.81
571.91	507.81
572.121	524.81
572.333	514.81
572.544	492.81
572.755	497.81
572.966	486.81
573.178	471.81
573.389	462.81
573.6	476.81
573.811	471.81
574.023	451.81
574.234	463.81
574.445	473.81
574.656	457.81
574.867	441.81
575.078	442.81
575.289	465.81
575.501	446.81
575.712	450.81
575.923	447.81
576.134	426.81
576.345	431.81
576.556	435.81
576.767	430.81
576.978	450.81
577.188	433.81
577.399	437.81
577.61	424.81
577.821	422.81
578.032	400.81
578.243	414.81
578.454	407.81
578.665	427.81
578.875	414.81
579.086	395.81
579.297	399.81
579.508	401.81
579.718	394.81
579.929	399.81
580.14	398.81
580.35	393.81
580.561	381.81
580.772	403.81
580.982	372.81
581.193	396.81
581.403	406.81
581.614	397.81
581.825	413.81
582.035	396.81
582.246	388.81
582.456	387.81
582.667	391.81
582.877	386.81
583.087	399.81
583.298	371.81
583.508	362.81
583.719	379.81
583.929	379.81
584.139	359.81
584.35	362.81
584.56	384.81
584.77	381.81
584.981	376.81
585.191	377.81
585.401	373.81
585.611	365.81
585.821	369.81
586.032	379.81
586.242	385.81
586.452	378.81
586.662	372.81
586.872	377.81
587.082	387.81
587.292	366.81
587.502	370.81
587.713	358.81
587.923	364.81
588.133	377.81
588.343	365.81
588.553	365.81
588.762	386.81
588.972	379.81
589.182	421.81
589.392	393.81
589.602	385.81
589.812	377.81
590.022	378.81
590.232	371.81
590.441	390.81
590.651	386.81
590.861	362.81
591.071	387.81
591.281	369.81
591.49	378.81
591.7	397.81
591.91	383.81
592.119	399.81
592.329	414.81
592.539	416.81
592.748	421.81
592.958	454.81
593.167	463.81
593.377	479.81
593.587	510.81
593.796	488.81
594.006	491.81
594.215	478.81
594.424	500.81
594.634	459.81
594.843	461.81
595.053	430.81
595.262	422.81
595.472	399.81
595.681	387.81
595.89	395.81
596.1	375.81
596.309	377.81
596.518	350.81
596.727	364.81
596.937	351.81
597.146	355.81
597.355	347.81
597.564	365.81
597.774	330.81
597.983	339.81
598.192	332.81
598.401	334.81
598.61	320.81
598.819	322.81
599.028	308.81
599.237	320.81
599.446	327.81
599.655	317.81
599.864	323.81
600.073	313.81
600.282	302.81
600.491	315.81
600.7	320.81
600.909	305.81
601.118	303.81
601.327	330.81
601.536	302.81
601.745	314.81
601.953	312.81
602.162	296.81
602.371	305.81
602.58	289.81
602.789	314.81
602.997	296.81
603.206	307.81
603.415	311.81
603.623	292.81
603.832	306.81
604.041	309.81
604.249	269.81
604.458	307.81
604.666	290.81
604.875	287.81
605.084	301.81
605.292	310.81
605.501	292.81
605.709	306.81
605.918	281.81
606.126	275.81
606.334	298.81
606.543	286.81
606.751	294.81
606.96	297.81
607.168	302.81
607.376	277.81
607.585	291.81
607.793	293.81
608.001	282.81
608.21	289.81
608.418	278.81
608.626	277.81
608.834	291.81
609.043	298.81
609.251	272.81
609.459	252.81
609.667	297.81
609.875	286.81
610.083	290.81
610.291	303.81
610.499	292.81
610.707	290.81
610.916	278.81
611.124	286.81
611.332	290.81
611.54	284.81
611.748	260.81
611.955	270.81
612.163	257.81
612.371	278.81
612.579	286.81
612.787	283.81
612.995	264.81
613.203	277.81
613.411	288.81
613.618	265.81
613.826	267.81
614.034	262.81
614.242	282.81
614.449	273.81
614.657	268.81
614.865	262.81
615.072	271.81
615.28	274.81
615.488	282.81
615.695	282.81
615.903	272.81
616.111	283.81
616.318	261.81
616.526	285.81
616.733	260.81
616.941	281.81
617.148	274.81
617.356	265.81
617.563	280.81
617.771	268.81
617.978	268.81
618.185	259.81
618.393	263.81
618.6	268.81
618.807	264.81
619.015	281.81
619.222	249.81
619.429	274.81
619.637	261.81
619.844	250.81
620.051	272.81
620.258	248.81
620.466	244.81
620.673	265.81
620.88	235.81
621.087	243.81
621.294	257.81
621.501	250.81
621.708	257.81
621.915	251.81
622.122	251.81
622.329	247.81
622.536	237.81
622.743	255.81
622.95	241.81
623.157	248.81
623.364	231.81
623.571	236.81
623.778	249.81
623.985	239.81
624.192	244.81
624.399	249.81
624.606	248.81
624.812	242.81
625.019	241.81
625.226	240.81
625.433	231.81
625.639	223.81
625.846	225.81
626.053	233.81
626.259	226.81
626.466	230.81
626.673	234.81
626.879	223.81
627.086	251.81
627.293	232.81
627.499	245.81
627.706	251.81
627.912	223.81
628.119	227.81
628.325	223.81
628.532	214.81
628.738	220.81
628.945	238.81
629.151	221.81
629.357	221.81
629.564	238.81
629.77	225.81
629.976	209.81
630.183	217.81
630.389	212.81
630.595	202.81
630.802	217.81
631.008	229.81
631.214	222.81
631.42	216.81
631.627	207.81
631.833	206.81
632.039	213.81
632.245	206.81
632.451	223.81
632.657	218.81
632.863	204.81
633.069	221.81
633.275	212.81
633.481	207.81
633.688	195.81
633.893	206.81
634.099	215.81
634.305	204.81
634.511	205.81
634.717	215.81
634.923	205.81
635.129	221.81
635.335	204.81
635.541	190.81
635.747	215.81
635.952	201.81
636.158	213.81
636.364	197.81
636.57	199.81
636.775	206.81
636.981	211.81
637.187	216.81
637.392	206.81
637.598	232.81
637.804	200.81
638.009	211.81
638.215	204.81
638.421	202.81
638.626	191.81
638.832	195.81
639.037	181.81
639.243	176.81
639.448	202.81
639.654	203.81
639.859	189.81
640.065	186.81
640.27	195.81
640.475	198.81
640.681	197.81
640.886	189.81
641.091	184.81
641.297	195.81
641.502	185.81
641.707	196.81
641.913	189.81
642.118	195.81
642.323	193.81
642.528	198.81
642.733	190.81
642.939	187.81
643.144	199.81
643.349	194.81
643.554	198.81
643.759	183.81
643.964	192.81
644.169	177.81
644.374	186.81
644.579	195.81
644.784	178.81
644.989	185.81
645.194	196.81
645.399	184.81
645.604	193.81
645.809	196.81
646.014	184.81
646.219	193.81
646.423	174.81
646.628	179.81
646.833	184.81
647.038	181.81
647.243	195.81
647.447	188.81
647.652	190.81
647.857	189.81
648.062	201.81
648.266	191.81
648.471	210.81
648.676	205.81
648.88	199.81
649.085	211.81
649.289	185.81
649.494	186.81
649.698	190.81
649.903	181.81
650.107	182.81
650.312	181.81
650.516	180.81
650.721	183.81
650.925	173.81
651.13	191.81
651.334	172.81
651.539	177.81
651.743	181.81
651.947	166.81
652.152	159.81
652.356	170.81
652.56	176.81
652.764	175.81
652.969	149.81
653.173	177.81
653.377	157.81
653.581	163.81
653.785	166.81
653.99	147.81
654.194	153.81
654.398	143.81
654.602	155.81
654.806	151.81
655.01	148.81
655.214	152.81
655.418	141.81
655.622	147.81
655.826	149.81
656.03	156.81
656.234	153.81
656.438	139.81
656.642	141.81
656.846	137.81
657.049	135.81
657.253	136.81
657.457	143.81
657.661	127.81
657.865	119.81
658.068	135.81
658.272	123.81
658.476	121.81
658.68	111.81
658.883	113.81
659.087	114.81
659.291	119.81
659.494	110.81
659.698	108.81
659.901	103.81
660.105	106.81
660.309	93.81
660.512	111.81
660.716	109.81
660.919	106.81
661.123	101.81
661.326	90.81
661.53	100.81
661.733	106.81
661.936	81.81
662.14	92.81
662.343	77.81
662.546	96.81
662.75	82.81
662.953	91.81
663.156	88.81
663.36	91.81
663.563	90.81
663.766	83.81
663.969	80.81
664.173	97.81
664.376	82.81
664.579	90.81
664.782	98.81
664.985	98.81
665.188	83.81
665.391	74.81
665.594	82.81
665.797	70.81
666	88.81
666.203	77.81
666.406	87.81
666.609	80.81
666.812	89.81
667.015	75.81
667.218	103.81
667.421	91.81
667.624	76.81
667.827	76.81
668.03	77.81
668.232	88.81
668.435	86.81
668.638	85.81
668.841	82.81
669.043	74.81
669.246	79.81
669.449	87.81
669.651	88.81
669.854	81.81
670.057	73.81
670.259	88.81
670.462	85.81
670.665	86.81
670.867	90.81
671.07	83.81
671.272	83.81
671.475	71.81
671.677	83.81
671.88	84.81
672.082	94.81
672.284	90.81
672.487	84.81
672.689	75.81
672.892	98.81
