Data from NiCl2@0.25M.TitratingCurve.Agarose3%dH2O.NegLispCup.LampEnergy10.LIBS07252019_HRD10591_18-24-47-573.txt Node
Date: Thu Jul 25 18:24:47 EDT 2019
User: cochatt
Spectrometer: HR+D1059
Trigger mode: 1
Integration Time (sec): 1.000000E-1
Scans to average: 1
Electric dark correction enabled: true
Nonlinearity correction enabled: false
Boxcar width: 0
XAxis mode: Wavelengths
Number of Pixels in Spectrum: 2048
>>>>>Begin Spectral Data<<<<<
223.165	-18.62
223.4	-18.62
223.635	-18.62
223.869	-14.62
224.104	-21.62
224.338	-5.62
224.573	-25.62
224.808	-10.62
225.042	-3.62
225.277	2.38
225.511	-3.62
225.746	1.38
225.98	2.38
226.215	3.38
226.449	8.38
226.683	32.38
226.918	25.38
227.152	28.38
227.387	49.38
227.621	39.38
227.856	42.38
228.09	42.38
228.324	52.38
228.559	50.38
228.793	73.38
229.027	100.38
229.262	100.38
229.496	107.38
229.73	125.38
229.964	116.38
230.199	135.38
230.433	120.38
230.667	143.38
230.901	134.38
231.136	128.38
231.37	129.38
231.604	131.38
231.838	126.38
232.072	133.38
232.306	149.38
232.541	149.38
232.775	135.38
233.009	135.38
233.243	151.38
233.477	143.38
233.711	142.38
233.945	155.38
234.179	148.38
234.413	144.38
234.647	141.38
234.881	147.38
235.115	154.38
235.349	136.38
235.583	150.38
235.817	152.38
236.051	148.38
236.285	145.38
236.519	156.38
236.753	156.38
236.987	159.38
237.221	165.38
237.455	153.38
237.689	163.38
237.922	154.38
238.156	151.38
238.39	178.38
238.624	157.38
238.858	162.38
239.091	146.38
239.325	181.38
239.559	162.38
239.793	154.38
240.027	165.38
240.26	175.38
240.494	166.38
240.728	182.38
240.961	173.38
241.195	169.38
241.429	170.38
241.662	181.38
241.896	187.38
242.13	199.38
242.363	189.38
242.597	182.38
242.83	207.38
243.064	191.38
243.298	190.38
243.531	197.38
243.765	207.38
243.998	180.38
244.232	200.38
244.465	208.38
244.699	194.38
244.932	203.38
245.166	209.38
245.399	210.38
245.633	202.38
245.866	208.38
246.099	215.38
246.333	204.38
246.566	219.38
246.8	200.38
247.033	216.38
247.266	221.38
247.5	204.38
247.733	210.38
247.966	210.38
248.2	238.38
248.433	220.38
248.666	216.38
248.899	229.38
249.133	230.38
249.366	256.38
249.599	236.38
249.832	222.38
250.066	220.38
250.299	232.38
250.532	246.38
250.765	229.38
250.998	228.38
251.231	226.38
251.465	247.38
251.698	242.38
251.931	242.38
252.164	245.38
252.397	258.38
252.63	269.38
252.863	269.38
253.096	262.38
253.329	234.38
253.562	247.38
253.795	271.38
254.028	248.38
254.261	274.38
254.494	280.38
254.727	285.38
254.96	278.38
255.193	262.38
255.426	260.38
255.659	254.38
255.892	270.38
256.124	282.38
256.357	279.38
256.59	286.38
256.823	269.38
257.056	286.38
257.289	282.38
257.521	278.38
257.754	292.38
257.987	292.38
258.22	276.38
258.452	293.38
258.685	286.38
258.918	293.38
259.151	314.38
259.383	300.38
259.616	300.38
259.849	295.38
260.081	296.38
260.314	305.38
260.547	313.38
260.779	301.38
261.012	317.38
261.244	317.38
261.477	304.38
261.71	297.38
261.942	302.38
262.175	313.38
262.407	317.38
262.64	290.38
262.872	326.38
263.105	322.38
263.337	319.38
263.57	338.38
263.802	318.38
264.035	325.38
264.267	330.38
264.499	326.38
264.732	349.38
264.964	323.38
265.197	327.38
265.429	316.38
265.661	327.38
265.894	334.38
266.126	322.38
266.358	330.38
266.591	331.38
266.823	349.38
267.055	346.38
267.287	363.38
267.52	347.38
267.752	337.38
267.984	335.38
268.216	362.38
268.448	355.38
268.681	362.38
268.913	371.38
269.145	350.38
269.377	365.38
269.609	364.38
269.841	344.38
270.073	355.38
270.306	361.38
270.538	362.38
270.77	364.38
271.002	371.38
271.234	365.38
271.466	364.38
271.698	351.38
271.93	369.38
272.162	358.38
272.394	375.38
272.626	372.38
272.858	367.38
273.09	366.38
273.322	384.38
273.553	392.38
273.785	388.38
274.017	396.38
274.249	387.38
274.481	398.38
274.713	392.38
274.945	398.38
275.176	403.38
275.408	401.38
275.64	403.38
275.872	387.38
276.104	395.38
276.335	413.38
276.567	404.38
276.799	387.38
277.031	410.38
277.262	400.38
277.494	395.38
277.726	400.38
277.957	389.38
278.189	403.38
278.421	419.38
278.652	418.38
278.884	423.38
279.115	403.38
279.347	397.38
279.579	424.38
279.81	420.38
280.042	410.38
280.273	427.38
280.505	436.38
280.736	414.38
280.968	418.38
281.199	451.38
281.431	430.38
281.662	434.38
281.894	434.38
282.125	441.38
282.356	456.38
282.588	424.38
282.819	456.38
283.051	462.38
283.282	440.38
283.513	463.38
283.745	476.38
283.976	450.38
284.207	474.38
284.439	463.38
284.67	444.38
284.901	449.38
285.132	439.38
285.364	467.38
285.595	452.38
285.826	478.38
286.057	459.38
286.288	470.38
286.52	478.38
286.751	466.38
286.982	494.38
287.213	449.38
287.444	464.38
287.675	484.38
287.906	491.38
288.138	494.38
288.369	486.38
288.6	479.38
288.831	480.38
289.062	491.38
289.293	470.38
289.524	470.38
289.755	498.38
289.986	488.38
290.217	495.38
290.448	479.38
290.679	481.38
290.91	499.38
291.141	505.38
291.371	510.38
291.602	513.38
291.833	491.38
292.064	503.38
292.295	481.38
292.526	496.38
292.757	459.38
292.987	502.38
293.218	526.38
293.449	502.38
293.68	535.38
293.91	502.38
294.141	504.38
294.372	483.38
294.603	492.38
294.833	496.38
295.064	528.38
295.295	506.38
295.525	499.38
295.756	517.38
295.987	501.38
296.217	516.38
296.448	496.38
296.679	518.38
296.909	540.38
297.14	523.38
297.37	526.38
297.601	538.38
297.831	539.38
298.062	535.38
298.292	554.38
298.523	566.38
298.753	555.38
298.984	530.38
299.214	527.38
299.445	538.38
299.675	550.38
299.905	549.38
300.136	518.38
300.366	543.38
300.597	574.38
300.827	552.38
301.057	562.38
301.288	582.38
301.518	568.38
301.748	573.38
301.979	571.38
302.209	587.38
302.439	575.38
302.669	564.38
302.9	534.38
303.13	551.38
303.36	547.38
303.59	559.38
303.82	552.38
304.051	576.38
304.281	558.38
304.511	573.38
304.741	578.38
304.971	540.38
305.201	558.38
305.431	571.38
305.661	564.38
305.891	566.38
306.121	566.38
306.352	581.38
306.582	558.38
306.812	548.38
307.042	555.38
307.272	547.38
307.502	536.38
307.731	546.38
307.961	570.38
308.191	557.38
308.421	550.38
308.651	568.38
308.881	550.38
309.111	539.38
309.341	556.38
309.571	573.38
309.8	554.38
310.03	551.38
310.26	558.38
310.49	590.38
310.72	574.38
310.949	553.38
311.179	548.38
311.409	579.38
311.639	589.38
311.868	566.38
312.098	585.38
312.328	590.38
312.557	590.38
312.787	591.38
313.017	583.38
313.246	601.38
313.476	603.38
313.706	588.38
313.935	611.38
314.165	579.38
314.394	591.38
314.624	585.38
314.853	584.38
315.083	620.38
315.312	599.38
315.542	596.38
315.771	594.38
316.001	602.38
316.23	590.38
316.46	583.38
316.689	576.38
316.919	572.38
317.148	583.38
317.377	591.38
317.607	589.38
317.836	579.38
318.065	596.38
318.295	577.38
318.524	592.38
318.753	570.38
318.983	560.38
319.212	582.38
319.441	586.38
319.67	581.38
319.9	562.38
320.129	601.38
320.358	578.38
320.587	607.38
320.816	587.38
321.046	587.38
321.275	610.38
321.504	602.38
321.733	590.38
321.962	610.38
322.191	591.38
322.42	581.38
322.649	579.38
322.878	598.38
323.108	596.38
323.337	596.38
323.566	594.38
323.795	620.38
324.024	618.38
324.253	598.38
324.482	601.38
324.71	603.38
324.939	606.38
325.168	616.38
325.397	616.38
325.626	619.38
325.855	664.38
326.084	641.38
326.313	646.38
326.542	646.38
326.77	650.38
326.999	638.38
327.228	632.38
327.457	631.38
327.686	638.38
327.914	646.38
328.143	635.38
328.372	651.38
328.6	659.38
328.829	622.38
329.058	632.38
329.287	628.38
329.515	660.38
329.744	651.38
329.972	651.38
330.201	659.38
330.43	670.38
330.658	653.38
330.887	664.38
331.115	656.38
331.344	668.38
331.572	664.38
331.801	705.38
332.03	712.38
332.258	755.38
332.486	775.38
332.715	748.38
332.943	777.38
333.172	846.38
333.4	847.38
333.629	863.38
333.857	885.38
334.085	876.38
334.314	872.38
334.542	837.38
334.771	842.38
334.999	831.38
335.227	810.38
335.455	818.38
335.684	788.38
335.912	783.38
336.14	756.38
336.369	785.38
336.597	788.38
336.825	795.38
337.053	788.38
337.281	759.38
337.51	744.38
337.738	735.38
337.966	708.38
338.194	721.38
338.422	726.38
338.65	705.38
338.878	692.38
339.106	715.38
339.334	709.38
339.562	697.38
339.79	712.38
340.018	664.38
340.246	655.38
340.474	664.38
340.702	676.38
340.93	675.38
341.158	690.38
341.386	678.38
341.614	664.38
341.842	678.38
342.07	656.38
342.298	688.38
342.526	678.38
342.754	670.38
342.981	678.38
343.209	708.38
343.437	754.38
343.665	734.38
343.893	818.38
344.12	831.38
344.348	814.38
344.576	766.38
344.804	733.38
345.031	703.38
345.259	710.38
345.487	646.38
345.714	665.38
345.942	676.38
346.17	668.38
346.397	650.38
346.625	644.38
346.853	623.38
347.08	654.38
347.308	666.38
347.535	652.38
347.763	650.38
347.99	660.38
348.218	692.38
348.445	640.38
348.673	652.38
348.9	653.38
349.128	632.38
349.355	636.38
349.583	641.38
349.81	638.38
350.037	643.38
350.265	646.38
350.492	636.38
350.72	639.38
350.947	620.38
351.174	620.38
351.402	613.38
351.629	629.38
351.856	613.38
352.083	640.38
352.311	634.38
352.538	644.38
352.765	653.38
352.992	616.38
353.22	623.38
353.447	612.38
353.674	606.38
353.901	609.38
354.128	646.38
354.355	627.38
354.583	628.38
354.81	628.38
355.037	628.38
355.264	639.38
355.491	646.38
355.718	622.38
355.945	619.38
356.172	642.38
356.399	642.38
356.626	632.38
356.853	638.38
357.08	628.38
357.307	626.38
357.534	634.38
357.761	637.38
357.988	651.38
358.215	610.38
358.441	621.38
358.668	605.38
358.895	624.38
359.122	626.38
359.349	635.38
359.576	624.38
359.802	614.38
360.029	618.38
360.256	624.38
360.483	631.38
360.709	644.38
360.936	624.38
361.163	623.38
361.39	655.38
361.616	642.38
361.843	618.38
362.07	619.38
362.296	621.38
362.523	611.38
362.749	626.38
362.976	632.38
363.203	607.38
363.429	632.38
363.656	634.38
363.882	651.38
364.109	621.38
364.335	623.38
364.562	641.38
364.788	617.38
365.015	600.38
365.241	638.38
365.468	638.38
365.694	615.38
365.92	614.38
366.147	627.38
366.373	651.38
366.599	616.38
366.826	638.38
367.052	638.38
367.278	622.38
367.505	634.38
367.731	630.38
367.957	631.38
368.184	644.38
368.41	653.38
368.636	621.38
368.862	640.38
369.089	636.38
369.315	654.38
369.541	654.38
369.767	643.38
369.993	651.38
370.219	644.38
370.445	650.38
370.672	666.38
370.898	670.38
371.124	670.38
371.35	674.38
371.576	687.38
371.802	676.38
372.028	666.38
372.254	676.38
372.48	701.38
372.706	687.38
372.932	717.38
373.158	669.38
373.384	708.38
373.61	690.38
373.835	687.38
374.061	701.38
374.287	673.38
374.513	715.38
374.739	712.38
374.965	730.38
375.191	786.38
375.416	750.38
375.642	712.38
375.868	700.38
376.094	750.38
376.319	704.38
376.545	681.38
376.771	677.38
376.997	676.38
377.222	701.38
377.448	699.38
377.674	663.38
377.899	672.38
378.125	667.38
378.35	675.38
378.576	666.38
378.802	675.38
379.027	679.38
379.253	696.38
379.478	672.38
379.704	696.38
379.929	685.38
380.155	676.38
380.38	659.38
380.606	678.38
380.831	664.38
381.057	699.38
381.282	694.38
381.507	679.38
381.733	687.38
381.958	702.38
382.184	690.38
382.409	715.38
382.634	707.38
382.86	718.38
383.085	728.38
383.31	750.38
383.535	741.38
383.761	775.38
383.986	767.38
384.211	779.38
384.436	792.38
384.662	830.38
384.887	823.38
385.112	826.38
385.337	818.38
385.562	823.38
385.787	822.38
386.013	823.38
386.238	861.38
386.463	810.38
386.688	824.38
386.913	824.38
387.138	795.38
387.363	810.38
387.588	808.38
387.813	822.38
388.038	804.38
388.263	824.38
388.488	819.38
388.713	808.38
388.938	803.38
389.163	802.38
389.387	800.38
389.612	794.38
389.837	800.38
390.062	820.38
390.287	790.38
390.512	778.38
390.736	802.38
390.961	794.38
391.186	870.38
391.411	861.38
391.636	885.38
391.86	922.38
392.085	951.38
392.31	933.38
392.534	897.38
392.759	868.38
392.984	870.38
393.208	890.38
393.433	870.38
393.658	859.38
393.882	867.38
394.107	894.38
394.331	888.38
394.556	887.38
394.78	902.38
395.005	874.38
395.229	868.38
395.454	908.38
395.678	934.38
395.903	919.38
396.127	899.38
396.352	863.38
396.576	873.38
396.801	889.38
397.025	894.38
397.249	900.38
397.474	922.38
397.698	927.38
397.922	935.38
398.147	920.38
398.371	944.38
398.595	1000.38
398.82	1039.38
399.044	1114.38
399.268	1234.38
399.492	1418.38
399.717	1577.38
399.941	1570.38
400.165	1402.38
400.389	1242.38
400.613	1127.38
400.837	1085.38
401.062	1072.38
401.286	1045.38
401.51	1060.38
401.734	1048.38
401.958	1069.38
402.182	1032.38
402.406	1080.38
402.63	1083.38
402.854	1104.38
403.078	1114.38
403.302	1162.38
403.526	1180.38
403.75	1200.38
403.974	1210.38
404.198	1196.38
404.422	1218.38
404.645	1183.38
404.869	1168.38
405.093	1172.38
405.317	1116.38
405.541	1145.38
405.765	1158.38
405.988	1112.38
406.212	1120.38
406.436	1144.38
406.66	1143.38
406.883	1174.38
407.107	1260.38
407.331	1295.38
407.555	1332.38
407.778	1363.38
408.002	1280.38
408.226	1259.38
408.449	1214.38
408.673	1221.38
408.896	1162.38
409.12	1176.38
409.344	1186.38
409.567	1175.38
409.791	1196.38
410.014	1170.38
410.238	1160.38
410.461	1143.38
410.685	1110.38
410.908	1111.38
411.132	1102.38
411.355	1042.38
411.578	1076.38
411.802	1062.38
412.025	1082.38
412.249	1086.38
412.472	1079.38
412.695	1058.38
412.919	1016.38
413.142	1001.38
413.365	1052.38
413.589	1040.38
413.812	1016.38
414.035	1038.38
414.258	1028.38
414.482	1055.38
414.705	1053.38
414.928	1086.38
415.151	1058.38
415.374	1032.38
415.597	1037.38
415.821	1017.38
416.044	1000.38
416.267	969.38
416.49	974.38
416.713	1020.38
416.936	1020.38
417.159	1012.38
417.382	1001.38
417.605	994.38
417.828	1018.38
418.051	1041.38
418.274	1028.38
418.497	1038.38
418.72	1058.38
418.943	1062.38
419.166	1142.38
419.389	1185.38
419.611	1164.38
419.834	1097.38
420.057	1054.38
420.28	1052.38
420.503	1023.38
420.726	1008.38
420.948	1031.38
421.171	1015.38
421.394	1038.38
421.617	1012.38
421.839	1034.38
422.062	1041.38
422.285	1042.38
422.507	1043.38
422.73	1024.38
422.953	1047.38
423.175	1030.38
423.398	1092.38
423.621	1069.38
423.843	1090.38
424.066	1118.38
424.288	1084.38
424.511	1065.38
424.733	1055.38
424.956	1032.38
425.178	1052.38
425.401	1018.38
425.623	1017.38
425.846	969.38
426.068	970.38
426.291	956.38
426.513	953.38
426.735	954.38
426.958	966.38
427.18	920.38
427.402	913.38
427.625	935.38
427.847	898.38
428.069	910.38
428.292	927.38
428.514	896.38
428.736	917.38
428.958	892.38
429.181	890.38
429.403	871.38
429.625	873.38
429.847	884.38
430.069	888.38
430.292	884.38
430.514	834.38
430.736	876.38
430.958	914.38
431.18	918.38
431.402	883.38
431.624	898.38
431.846	927.38
432.068	893.38
432.29	904.38
432.512	854.38
432.734	898.38
432.956	894.38
433.178	911.38
433.4	919.38
433.622	897.38
433.844	910.38
434.066	934.38
434.287	920.38
434.509	959.38
434.731	985.38
434.953	1031.38
435.175	1050.38
435.397	1008.38
435.618	973.38
435.84	926.38
436.062	912.38
436.284	926.38
436.505	873.38
436.727	912.38
436.949	898.38
437.17	916.38
437.392	899.38
437.614	873.38
437.835	872.38
438.057	898.38
438.278	876.38
438.5	863.38
438.721	864.38
438.943	849.38
439.165	879.38
439.386	875.38
439.608	895.38
439.829	880.38
440.05	908.38
440.272	912.38
440.493	907.38
440.715	892.38
440.936	916.38
441.158	967.38
441.379	938.38
441.6	1019.38
441.822	1028.38
442.043	1031.38
442.264	1014.38
442.486	973.38
442.707	990.38
442.928	998.38
443.149	1008.38
443.371	976.38
443.592	1018.38
443.813	1004.38
444.034	1016.38
444.255	1050.38
444.476	1084.38
444.698	1182.38
444.919	1208.38
445.14	1307.38
445.361	1138.38
445.582	1039.38
445.803	962.38
446.024	972.38
446.245	947.38
446.466	940.38
446.687	898.38
446.908	906.38
447.129	903.38
447.35	894.38
447.571	880.38
447.792	850.38
448.013	869.38
448.234	834.38
448.455	853.38
448.675	814.38
448.896	839.38
449.117	804.38
449.338	780.38
449.559	810.38
449.779	812.38
450	813.38
450.221	796.38
450.442	828.38
450.662	836.38
450.883	858.38
451.104	860.38
451.324	841.38
451.545	824.38
451.766	824.38
451.986	840.38
452.207	839.38
452.428	836.38
452.648	854.38
452.869	828.38
453.089	804.38
453.31	806.38
453.53	797.38
453.751	791.38
453.971	787.38
454.192	790.38
454.412	774.38
454.633	795.38
454.853	798.38
455.073	773.38
455.294	806.38
455.514	770.38
455.734	771.38
455.955	792.38
456.175	761.38
456.395	779.38
456.616	730.38
456.836	794.38
457.056	798.38
457.276	733.38
457.497	800.38
457.717	779.38
457.937	802.38
458.157	788.38
458.377	807.38
458.598	804.38
458.818	827.38
459.038	860.38
459.258	904.38
459.478	908.38
459.698	913.38
459.918	956.38
460.138	1003.38
460.358	1041.38
460.578	1030.38
460.798	1065.38
461.018	1092.38
461.238	1047.38
461.458	1071.38
461.678	1035.38
461.898	1092.38
462.118	1062.38
462.338	1154.38
462.558	1199.38
462.777	1227.38
462.997	1324.38
463.217	1412.38
463.437	1432.38
463.657	1302.38
463.876	1269.38
464.096	1255.38
464.316	1228.38
464.536	1260.38
464.755	1217.38
464.975	1148.38
465.195	1121.38
465.414	1059.38
465.634	978.38
465.854	939.38
466.073	917.38
466.293	924.38
466.512	887.38
466.732	855.38
466.951	864.38
467.171	871.38
467.391	855.38
467.61	861.38
467.829	894.38
468.049	845.38
468.268	811.38
468.488	803.38
468.707	819.38
468.927	811.38
469.146	808.38
469.365	864.38
469.585	866.38
469.804	866.38
470.023	892.38
470.243	891.38
470.462	894.38
470.681	896.38
470.901	874.38
471.12	893.38
471.339	860.38
471.558	839.38
471.777	834.38
471.997	847.38
472.216	858.38
472.435	806.38
472.654	796.38
472.873	822.38
473.092	802.38
473.311	826.38
473.53	814.38
473.749	790.38
473.968	800.38
474.187	797.38
474.406	812.38
474.625	795.38
474.844	830.38
475.063	838.38
475.282	815.38
475.501	820.38
475.72	828.38
475.939	838.38
476.158	837.38
476.377	848.38
476.596	824.38
476.814	836.38
477.033	875.38
477.252	876.38
477.471	890.38
477.69	923.38
477.908	933.38
478.127	963.38
478.346	977.38
478.564	979.38
478.783	992.38
479.002	1003.38
479.22	1012.38
479.439	1040.38
479.658	988.38
479.876	1033.38
480.095	1007.38
480.313	1058.38
480.532	1090.38
480.751	1106.38
480.969	1031.38
481.188	987.38
481.406	976.38
481.624	930.38
481.843	946.38
482.061	934.38
482.28	906.38
482.498	921.38
482.717	931.38
482.935	927.38
483.153	918.38
483.372	906.38
483.59	896.38
483.808	930.38
484.027	913.38
484.245	938.38
484.463	949.38
484.681	949.38
484.9	941.38
485.118	952.38
485.336	944.38
485.554	929.38
485.772	959.38
485.99	987.38
486.209	958.38
486.427	962.38
486.645	972.38
486.863	986.38
487.081	982.38
487.299	950.38
487.517	984.38
487.735	966.38
487.953	960.38
488.171	975.38
488.389	962.38
488.607	960.38
488.825	969.38
489.043	949.38
489.261	947.38
489.479	976.38
489.696	982.38
489.914	942.38
490.132	980.38
490.35	973.38
490.568	994.38
490.786	976.38
491.003	1004.38
491.221	987.38
491.439	1002.38
491.657	1005.38
491.874	980.38
492.092	963.38
492.31	1021.38
492.527	973.38
492.745	1025.38
492.963	1008.38
493.18	1016.38
493.398	996.38
493.615	1024.38
493.833	1012.38
494.05	997.38
494.268	1017.38
494.485	1046.38
494.703	1057.38
494.92	1060.38
495.138	1062.38
495.355	1055.38
495.573	1047.38
495.79	1041.38
496.008	1038.38
496.225	1091.38
496.442	1063.38
496.66	1064.38
496.877	1110.38
497.094	1105.38
497.312	1122.38
497.529	1148.38
497.746	1182.38
497.963	1230.38
498.181	1273.38
498.398	1326.38
498.615	1393.38
498.832	1490.38
499.049	1612.38
499.267	1762.38
499.484	1909.38
499.701	2164.38
499.918	2383.38
500.135	2708.38
500.352	3081.38
500.569	3228.38
500.786	3168.38
501.003	2936.38
501.22	2610.38
501.437	2346.38
501.654	2005.38
501.871	1829.38
502.088	1689.38
502.305	1598.38
502.522	1478.38
502.739	1435.38
502.956	1351.38
503.172	1332.38
503.389	1270.38
503.606	1251.38
503.823	1170.38
504.04	1194.38
504.256	1198.38
504.473	1248.38
504.69	1266.38
504.907	1228.38
505.123	1146.38
505.34	1093.38
505.557	1076.38
505.773	1036.38
505.99	996.38
506.207	956.38
506.423	962.38
506.64	930.38
506.856	935.38
507.073	930.38
507.289	935.38
507.506	896.38
507.722	925.38
507.939	924.38
508.155	922.38
508.372	870.38
508.588	857.38
508.805	862.38
509.021	891.38
509.238	894.38
509.454	859.38
509.67	872.38
509.887	830.38
510.103	844.38
510.319	846.38
510.536	858.38
510.752	843.38
510.968	850.38
511.184	823.38
511.401	822.38
511.617	862.38
511.833	834.38
512.049	812.38
512.265	829.38
512.481	856.38
512.698	838.38
512.914	834.38
513.13	852.38
513.346	845.38
513.562	845.38
513.778	857.38
513.994	855.38
514.21	847.38
514.426	856.38
514.642	859.38
514.858	876.38
515.074	866.38
515.29	869.38
515.506	886.38
515.721	902.38
515.937	886.38
516.153	902.38
516.369	922.38
516.585	958.38
516.801	964.38
517.016	1030.38
517.232	1098.38
517.448	1135.38
517.664	1178.38
517.879	1195.38
518.095	1177.38
518.311	1142.38
518.527	1104.38
518.742	1063.38
518.958	1026.38
519.173	973.38
519.389	910.38
519.605	927.38
519.82	897.38
520.036	898.38
520.251	849.38
520.467	877.38
520.682	839.38
520.898	855.38
521.113	838.38
521.329	834.38
521.544	801.38
521.76	810.38
521.975	799.38
522.19	810.38
522.406	800.38
522.621	799.38
522.836	771.38
523.052	772.38
523.267	775.38
523.482	791.38
523.698	768.38
523.913	776.38
524.128	781.38
524.343	779.38
524.559	770.38
524.774	760.38
524.989	776.38
525.204	776.38
525.419	783.38
525.634	779.38
525.849	773.38
526.064	759.38
526.28	771.38
526.495	723.38
526.71	758.38
526.925	770.38
527.14	743.38
527.355	750.38
527.57	762.38
527.785	744.38
527.999	754.38
528.214	759.38
528.429	750.38
528.644	763.38
528.859	748.38
529.074	752.38
529.289	745.38
529.503	752.38
529.718	756.38
529.933	729.38
530.148	731.38
530.363	759.38
530.577	751.38
530.792	754.38
531.007	765.38
531.221	744.38
531.436	761.38
531.651	743.38
531.865	766.38
532.08	776.38
532.295	777.38
532.509	799.38
532.724	732.38
532.938	743.38
533.153	764.38
533.367	751.38
533.582	745.38
533.796	758.38
534.011	751.38
534.225	723.38
534.44	730.38
534.654	727.38
534.868	713.38
535.083	760.38
535.297	760.38
535.511	709.38
535.726	729.38
535.94	722.38
536.154	714.38
536.369	716.38
536.583	710.38
536.797	712.38
537.011	707.38
537.225	707.38
537.44	685.38
537.654	698.38
537.868	715.38
538.082	688.38
538.296	696.38
538.51	685.38
538.724	682.38
538.938	685.38
539.153	688.38
539.367	680.38
539.581	682.38
539.795	659.38
540.009	690.38
540.222	691.38
540.436	689.38
540.65	682.38
540.864	655.38
541.078	699.38
541.292	674.38
541.506	676.38
541.72	678.38
541.934	669.38
542.147	680.38
542.361	658.38
542.575	666.38
542.789	690.38
543.002	640.38
543.216	671.38
543.43	692.38
543.644	670.38
543.857	700.38
544.071	672.38
544.285	688.38
544.498	690.38
544.712	677.38
544.925	679.38
545.139	676.38
545.352	694.38
545.566	714.38
545.779	706.38
545.993	700.38
546.206	717.38
546.42	704.38
546.633	684.38
546.847	708.38
547.06	675.38
547.274	686.38
547.487	687.38
547.7	683.38
547.914	693.38
548.127	706.38
548.34	709.38
548.554	690.38
548.767	696.38
548.98	687.38
549.193	692.38
549.407	687.38
549.62	704.38
549.833	722.38
550.046	711.38
550.259	707.38
550.473	678.38
550.686	679.38
550.899	703.38
551.112	683.38
551.325	652.38
551.538	663.38
551.751	708.38
551.964	663.38
552.177	683.38
552.39	692.38
552.603	719.38
552.816	754.38
553.029	745.38
553.242	742.38
553.455	771.38
553.667	776.38
553.88	733.38
554.093	724.38
554.306	717.38
554.519	693.38
554.732	682.38
554.944	666.38
555.157	662.38
555.37	667.38
555.583	634.38
555.795	660.38
556.008	624.38
556.221	648.38
556.433	623.38
556.646	616.38
556.859	603.38
557.071	600.38
557.284	620.38
557.496	589.38
557.709	582.38
557.921	577.38
558.134	582.38
558.346	588.38
558.559	573.38
558.771	598.38
558.984	575.38
559.196	556.38
559.409	586.38
559.621	569.38
559.833	560.38
560.046	564.38
560.258	571.38
560.47	553.38
560.683	565.38
560.895	576.38
561.107	552.38
561.32	570.38
561.532	590.38
561.744	581.38
561.956	574.38
562.168	541.38
562.381	570.38
562.593	559.38
562.805	573.38
563.017	574.38
563.229	560.38
563.441	575.38
563.653	587.38
563.865	582.38
564.077	582.38
564.289	597.38
564.501	613.38
564.713	600.38
564.925	622.38
565.137	614.38
565.349	612.38
565.561	645.38
565.773	698.38
565.985	700.38
566.197	751.38
566.408	775.38
566.62	864.38
566.832	901.38
567.044	934.38
567.255	946.38
567.467	975.38
567.679	1013.38
567.891	1104.38
568.102	1163.38
568.314	1050.38
568.526	954.38
568.737	873.38
568.949	780.38
569.161	745.38
569.372	683.38
569.584	631.38
569.795	629.38
570.007	606.38
570.218	603.38
570.43	595.38
570.641	572.38
570.853	598.38
571.064	620.38
571.276	604.38
571.487	571.38
571.698	555.38
571.91	523.38
572.121	520.38
572.333	520.38
572.544	502.38
572.755	506.38
572.966	479.38
573.178	498.38
573.389	462.38
573.6	461.38
573.811	482.38
574.023	467.38
574.234	480.38
574.445	456.38
574.656	476.38
574.867	487.38
575.078	488.38
575.289	466.38
575.501	471.38
575.712	463.38
575.923	452.38
576.134	438.38
576.345	448.38
576.556	454.38
576.767	432.38
576.978	446.38
577.188	439.38
577.399	429.38
577.61	432.38
577.821	432.38
578.032	402.38
578.243	427.38
578.454	406.38
578.665	418.38
578.875	447.38
579.086	431.38
579.297	404.38
579.508	417.38
579.718	424.38
579.929	422.38
580.14	392.38
580.35	398.38
580.561	398.38
580.772	406.38
580.982	412.38
581.193	405.38
581.403	401.38
581.614	387.38
581.825	409.38
582.035	389.38
582.246	389.38
582.456	395.38
582.667	398.38
582.877	386.38
583.087	395.38
583.298	378.38
583.508	388.38
583.719	404.38
583.929	403.38
584.139	378.38
584.35	390.38
584.56	406.38
584.77	374.38
584.981	385.38
585.191	404.38
585.401	380.38
585.611	380.38
585.821	377.38
586.032	388.38
586.242	375.38
586.452	374.38
586.662	379.38
586.872	352.38
587.082	402.38
587.292	380.38
587.502	375.38
587.713	368.38
587.923	368.38
588.133	374.38
588.343	389.38
588.553	363.38
588.762	363.38
588.972	383.38
589.182	386.38
589.392	382.38
589.602	387.38
589.812	382.38
590.022	391.38
590.232	384.38
590.441	360.38
590.651	383.38
590.861	376.38
591.071	380.38
591.281	396.38
591.49	385.38
591.7	400.38
591.91	408.38
592.119	402.38
592.329	401.38
592.539	432.38
592.748	446.38
592.958	470.38
593.167	473.38
593.377	466.38
593.587	494.38
593.796	494.38
594.006	488.38
594.215	487.38
594.424	486.38
594.634	482.38
594.843	458.38
595.053	442.38
595.262	435.38
595.472	409.38
595.681	411.38
595.89	401.38
596.1	385.38
596.309	382.38
596.518	374.38
596.727	349.38
596.937	358.38
597.146	343.38
597.355	358.38
597.564	349.38
597.774	341.38
597.983	333.38
598.192	332.38
598.401	324.38
598.61	334.38
598.819	334.38
599.028	357.38
599.237	334.38
599.446	320.38
599.655	334.38
599.864	320.38
600.073	335.38
600.282	292.38
600.491	314.38
600.7	321.38
600.909	335.38
601.118	307.38
601.327	311.38
601.536	313.38
601.745	326.38
601.953	283.38
602.162	314.38
602.371	311.38
602.58	324.38
602.789	306.38
602.997	311.38
603.206	309.38
603.415	311.38
603.623	311.38
603.832	307.38
604.041	298.38
604.249	296.38
604.458	300.38
604.666	294.38
604.875	291.38
605.084	303.38
605.292	292.38
605.501	298.38
605.709	288.38
605.918	296.38
606.126	309.38
606.334	280.38
606.543	313.38
606.751	298.38
606.96	299.38
607.168	302.38
607.376	288.38
607.585	274.38
607.793	287.38
608.001	290.38
608.21	312.38
608.418	292.38
608.626	308.38
608.834	291.38
609.043	299.38
609.251	287.38
609.459	271.38
609.667	283.38
609.875	278.38
610.083	275.38
610.291	277.38
610.499	278.38
610.707	283.38
610.916	277.38
611.124	283.38
611.332	299.38
611.54	293.38
611.748	280.38
611.955	262.38
612.163	272.38
612.371	275.38
612.579	282.38
612.787	275.38
612.995	267.38
613.203	291.38
613.411	272.38
613.618	280.38
613.826	275.38
614.034	268.38
614.242	267.38
614.449	269.38
614.657	292.38
614.865	280.38
615.072	277.38
615.28	284.38
615.488	280.38
615.695	280.38
615.903	265.38
616.111	267.38
616.318	286.38
616.526	262.38
616.733	272.38
616.941	270.38
617.148	272.38
617.356	272.38
617.563	278.38
617.771	282.38
617.978	257.38
618.185	274.38
618.393	284.38
618.6	273.38
618.807	253.38
619.015	286.38
619.222	279.38
619.429	267.38
619.637	263.38
619.844	287.38
620.051	273.38
620.258	264.38
620.466	255.38
620.673	268.38
620.88	251.38
621.087	249.38
621.294	259.38
621.501	236.38
621.708	244.38
621.915	247.38
622.122	271.38
622.329	265.38
622.536	262.38
622.743	253.38
622.95	239.38
623.157	230.38
623.364	269.38
623.571	260.38
623.778	258.38
623.985	248.38
624.192	233.38
624.399	238.38
624.606	265.38
624.812	233.38
625.019	254.38
625.226	247.38
625.433	234.38
625.639	244.38
625.846	225.38
626.053	240.38
626.259	249.38
626.466	231.38
626.673	258.38
626.879	237.38
627.086	238.38
627.293	224.38
627.499	228.38
627.706	237.38
627.912	228.38
628.119	229.38
628.325	228.38
628.532	234.38
628.738	238.38
628.945	240.38
629.151	214.38
629.357	224.38
629.564	210.38
629.77	237.38
629.976	205.38
630.183	206.38
630.389	220.38
630.595	212.38
630.802	217.38
631.008	222.38
631.214	212.38
631.42	239.38
631.627	205.38
631.833	227.38
632.039	222.38
632.245	235.38
632.451	212.38
632.657	198.38
632.863	226.38
633.069	210.38
633.275	204.38
633.481	207.38
633.688	203.38
633.893	205.38
634.099	214.38
634.305	186.38
634.511	202.38
634.717	213.38
634.923	213.38
635.129	219.38
635.335	215.38
635.541	210.38
635.747	207.38
635.952	192.38
636.158	200.38
636.364	211.38
636.57	202.38
636.775	208.38
636.981	207.38
637.187	202.38
637.392	195.38
637.598	207.38
637.804	205.38
638.009	203.38
638.215	197.38
638.421	197.38
638.626	185.38
638.832	194.38
639.037	198.38
639.243	216.38
639.448	195.38
639.654	199.38
639.859	198.38
640.065	183.38
640.27	201.38
640.475	198.38
640.681	171.38
640.886	198.38
641.091	197.38
641.297	175.38
641.502	188.38
641.707	189.38
641.913	186.38
642.118	174.38
642.323	182.38
642.528	199.38
642.733	200.38
642.939	199.38
643.144	192.38
643.349	203.38
643.554	178.38
643.759	188.38
643.964	191.38
644.169	181.38
644.374	196.38
644.579	195.38
644.784	185.38
644.989	191.38
645.194	192.38
645.399	195.38
645.604	168.38
645.809	165.38
646.014	179.38
646.219	184.38
646.423	184.38
646.628	166.38
646.833	188.38
647.038	175.38
647.243	189.38
647.447	179.38
647.652	190.38
647.857	198.38
648.062	190.38
648.266	178.38
648.471	203.38
648.676	199.38
648.88	205.38
649.085	186.38
649.289	182.38
649.494	186.38
649.698	181.38
649.903	168.38
650.107	182.38
650.312	169.38
650.516	157.38
650.721	169.38
650.925	183.38
651.13	172.38
651.334	154.38
651.539	154.38
651.743	163.38
651.947	163.38
652.152	160.38
652.356	172.38
652.56	165.38
652.764	175.38
652.969	164.38
653.173	139.38
653.377	148.38
653.581	154.38
653.785	154.38
653.99	147.38
654.194	130.38
654.398	128.38
654.602	123.38
654.806	148.38
655.01	153.38
655.214	135.38
655.418	152.38
655.622	129.38
655.826	138.38
656.03	138.38
656.234	129.38
656.438	135.38
656.642	126.38
656.846	119.38
657.049	123.38
657.253	124.38
657.457	126.38
657.661	133.38
657.865	114.38
658.068	129.38
658.272	110.38
658.476	125.38
658.68	119.38
658.883	99.38
659.087	120.38
659.291	100.38
659.494	96.38
659.698	104.38
659.901	112.38
660.105	103.38
660.309	107.38
660.512	107.38
660.716	103.38
660.919	92.38
661.123	103.38
661.326	88.38
661.53	100.38
661.733	85.38
661.936	92.38
662.14	94.38
662.343	95.38
662.546	87.38
662.75	96.38
662.953	84.38
663.156	96.38
663.36	88.38
663.563	90.38
663.766	89.38
663.969	88.38
664.173	75.38
664.376	91.38
664.579	81.38
664.782	83.38
664.985	82.38
665.188	80.38
665.391	95.38
665.594	89.38
665.797	72.38
666	81.38
666.203	92.38
666.406	81.38
666.609	84.38
666.812	85.38
667.015	86.38
667.218	91.38
667.421	92.38
667.624	99.38
667.827	81.38
668.03	78.38
668.232	79.38
668.435	91.38
668.638	80.38
668.841	99.38
669.043	84.38
669.246	78.38
669.449	69.38
669.651	79.38
669.854	77.38
670.057	84.38
670.259	76.38
670.462	74.38
670.665	78.38
670.867	85.38
671.07	71.38
671.272	91.38
671.475	84.38
671.677	79.38
671.88	87.38
672.082	92.38
672.284	96.38
672.487	89.38
672.689	82.38
672.892	80.38
