Data from NiCl2@0.25M.TitratingCurve.Agarose3%dH2O.NegLispCup.LampEnergy10.LIBS07252019_HRD10591_18-25-35-574.txt Node
Date: Thu Jul 25 18:25:35 EDT 2019
User: cochatt
Spectrometer: HR+D1059
Trigger mode: 1
Integration Time (sec): 1.000000E-1
Scans to average: 1
Electric dark correction enabled: true
Nonlinearity correction enabled: false
Boxcar width: 0
XAxis mode: Wavelengths
Number of Pixels in Spectrum: 2048
>>>>>Begin Spectral Data<<<<<
223.165	-22.19
223.4	-22.19
223.635	-22.19
223.869	-9.19
224.104	-11.19
224.338	-4.19
224.573	-25.19
224.808	-22.19
225.042	-23.19
225.277	-12.19
225.511	-1.19
225.746	13.81
225.98	10.81
226.215	9.81
226.449	13.81
226.683	21.81
226.918	38.81
227.152	21.81
227.387	28.81
227.621	33.81
227.856	54.81
228.09	41.81
228.324	57.81
228.559	47.81
228.793	72.81
229.027	98.81
229.262	89.81
229.496	110.81
229.73	104.81
229.964	109.81
230.199	123.81
230.433	112.81
230.667	122.81
230.901	125.81
231.136	130.81
231.37	129.81
231.604	121.81
231.838	129.81
232.072	130.81
232.306	137.81
232.541	149.81
232.775	141.81
233.009	137.81
233.243	134.81
233.477	114.81
233.711	141.81
233.945	141.81
234.179	153.81
234.413	143.81
234.647	138.81
234.881	130.81
235.115	122.81
235.349	143.81
235.583	147.81
235.817	143.81
236.051	149.81
236.285	146.81
236.519	144.81
236.753	138.81
236.987	144.81
237.221	159.81
237.455	157.81
237.689	150.81
237.922	152.81
238.156	154.81
238.39	161.81
238.624	155.81
238.858	167.81
239.091	165.81
239.325	158.81
239.559	148.81
239.793	146.81
240.027	184.81
240.26	183.81
240.494	147.81
240.728	162.81
240.961	170.81
241.195	168.81
241.429	160.81
241.662	159.81
241.896	159.81
242.13	179.81
242.363	170.81
242.597	174.81
242.83	177.81
243.064	178.81
243.298	187.81
243.531	185.81
243.765	189.81
243.998	182.81
244.232	177.81
244.465	190.81
244.699	183.81
244.932	200.81
245.166	196.81
245.399	204.81
245.633	198.81
245.866	197.81
246.099	194.81
246.333	198.81
246.566	200.81
246.8	201.81
247.033	183.81
247.266	213.81
247.5	187.81
247.733	197.81
247.966	210.81
248.2	204.81
248.433	208.81
248.666	204.81
248.899	206.81
249.133	203.81
249.366	226.81
249.599	216.81
249.832	237.81
250.066	230.81
250.299	227.81
250.532	224.81
250.765	224.81
250.998	229.81
251.231	217.81
251.465	212.81
251.698	242.81
251.931	229.81
252.164	217.81
252.397	216.81
252.63	231.81
252.863	247.81
253.096	225.81
253.329	224.81
253.562	221.81
253.795	224.81
254.028	271.81
254.261	257.81
254.494	244.81
254.727	240.81
254.96	257.81
255.193	251.81
255.426	247.81
255.659	270.81
255.892	252.81
256.124	256.81
256.357	235.81
256.59	241.81
256.823	252.81
257.056	260.81
257.289	253.81
257.521	276.81
257.754	264.81
257.987	259.81
258.22	264.81
258.452	258.81
258.685	282.81
258.918	260.81
259.151	263.81
259.383	261.81
259.616	268.81
259.849	289.81
260.081	266.81
260.314	277.81
260.547	279.81
260.779	288.81
261.012	270.81
261.244	291.81
261.477	288.81
261.71	288.81
261.942	286.81
262.175	274.81
262.407	277.81
262.64	291.81
262.872	291.81
263.105	280.81
263.337	295.81
263.57	292.81
263.802	310.81
264.035	301.81
264.267	306.81
264.499	296.81
264.732	291.81
264.964	299.81
265.197	293.81
265.429	295.81
265.661	295.81
265.894	288.81
266.126	314.81
266.358	317.81
266.591	306.81
266.823	301.81
267.055	304.81
267.287	310.81
267.52	311.81
267.752	318.81
267.984	328.81
268.216	333.81
268.448	325.81
268.681	307.81
268.913	333.81
269.145	320.81
269.377	327.81
269.609	326.81
269.841	320.81
270.073	311.81
270.306	306.81
270.538	330.81
270.77	331.81
271.002	335.81
271.234	350.81
271.466	344.81
271.698	333.81
271.93	333.81
272.162	329.81
272.394	339.81
272.626	321.81
272.858	343.81
273.09	336.81
273.322	341.81
273.553	346.81
273.785	350.81
274.017	355.81
274.249	347.81
274.481	355.81
274.713	333.81
274.945	368.81
275.176	346.81
275.408	364.81
275.64	366.81
275.872	364.81
276.104	386.81
276.335	364.81
276.567	361.81
276.799	356.81
277.031	368.81
277.262	365.81
277.494	390.81
277.726	390.81
277.957	385.81
278.189	364.81
278.421	368.81
278.652	358.81
278.884	372.81
279.115	374.81
279.347	389.81
279.579	378.81
279.81	390.81
280.042	383.81
280.273	382.81
280.505	392.81
280.736	371.81
280.968	383.81
281.199	393.81
281.431	387.81
281.662	413.81
281.894	387.81
282.125	402.81
282.356	399.81
282.588	416.81
282.819	409.81
283.051	403.81
283.282	397.81
283.513	422.81
283.745	403.81
283.976	430.81
284.207	408.81
284.439	422.81
284.67	425.81
284.901	412.81
285.132	404.81
285.364	414.81
285.595	418.81
285.826	419.81
286.057	416.81
286.288	430.81
286.52	416.81
286.751	428.81
286.982	420.81
287.213	440.81
287.444	436.81
287.675	438.81
287.906	438.81
288.138	432.81
288.369	426.81
288.6	457.81
288.831	428.81
289.062	458.81
289.293	428.81
289.524	454.81
289.755	458.81
289.986	454.81
290.217	457.81
290.448	454.81
290.679	436.81
290.91	473.81
291.141	451.81
291.371	448.81
291.602	438.81
291.833	450.81
292.064	452.81
292.295	462.81
292.526	437.81
292.757	472.81
292.987	451.81
293.218	438.81
293.449	442.81
293.68	457.81
293.91	464.81
294.141	467.81
294.372	448.81
294.603	453.81
294.833	452.81
295.064	471.81
295.295	464.81
295.525	467.81
295.756	455.81
295.987	464.81
296.217	475.81
296.448	469.81
296.679	497.81
296.909	475.81
297.14	471.81
297.37	490.81
297.601	486.81
297.831	499.81
298.062	486.81
298.292	473.81
298.523	505.81
298.753	491.81
298.984	500.81
299.214	481.81
299.445	489.81
299.675	476.81
299.905	497.81
300.136	498.81
300.366	489.81
300.597	487.81
300.827	498.81
301.057	553.81
301.288	526.81
301.518	514.81
301.748	510.81
301.979	525.81
302.209	529.81
302.439	516.81
302.669	498.81
302.9	512.81
303.13	520.81
303.36	509.81
303.59	485.81
303.82	513.81
304.051	547.81
304.281	530.81
304.511	520.81
304.741	525.81
304.971	519.81
305.201	498.81
305.431	500.81
305.661	512.81
305.891	533.81
306.121	509.81
306.352	520.81
306.582	519.81
306.812	497.81
307.042	502.81
307.272	505.81
307.502	515.81
307.731	500.81
307.961	487.81
308.191	492.81
308.421	502.81
308.651	518.81
308.881	516.81
309.111	514.81
309.341	509.81
309.571	506.81
309.8	505.81
310.03	497.81
310.26	497.81
310.49	510.81
310.72	505.81
310.949	505.81
311.179	510.81
311.409	516.81
311.639	524.81
311.868	532.81
312.098	520.81
312.328	532.81
312.557	520.81
312.787	534.81
313.017	540.81
313.246	535.81
313.476	532.81
313.706	570.81
313.935	553.81
314.165	552.81
314.394	535.81
314.624	543.81
314.853	500.81
315.083	546.81
315.312	552.81
315.542	526.81
315.771	568.81
316.001	528.81
316.23	544.81
316.46	545.81
316.689	550.81
316.919	531.81
317.148	533.81
317.377	549.81
317.607	541.81
317.836	527.81
318.065	545.81
318.295	546.81
318.524	534.81
318.753	536.81
318.983	540.81
319.212	541.81
319.441	535.81
319.67	531.81
319.9	546.81
320.129	554.81
320.358	530.81
320.587	551.81
320.816	521.81
321.046	531.81
321.275	533.81
321.504	578.81
321.733	542.81
321.962	551.81
322.191	541.81
322.42	534.81
322.649	540.81
322.878	545.81
323.108	528.81
323.337	540.81
323.566	544.81
323.795	553.81
324.024	545.81
324.253	574.81
324.482	555.81
324.71	565.81
324.939	547.81
325.168	555.81
325.397	572.81
325.626	571.81
325.855	582.81
326.084	590.81
326.313	606.81
326.542	598.81
326.77	609.81
326.999	592.81
327.228	586.81
327.457	580.81
327.686	584.81
327.914	560.81
328.143	593.81
328.372	588.81
328.6	590.81
328.829	581.81
329.058	575.81
329.287	578.81
329.515	572.81
329.744	626.81
329.972	582.81
330.201	588.81
330.43	617.81
330.658	591.81
330.887	608.81
331.115	611.81
331.344	626.81
331.572	632.81
331.801	665.81
332.03	644.81
332.258	649.81
332.486	651.81
332.715	699.81
332.943	717.81
333.172	739.81
333.4	763.81
333.629	784.81
333.857	783.81
334.085	805.81
334.314	763.81
334.542	756.81
334.771	732.81
334.999	732.81
335.227	738.81
335.455	725.81
335.684	708.81
335.912	738.81
336.14	696.81
336.369	714.81
336.597	715.81
336.825	687.81
337.053	684.81
337.281	692.81
337.51	672.81
337.738	662.81
337.966	678.81
338.194	665.81
338.422	633.81
338.65	637.81
338.878	635.81
339.106	649.81
339.334	637.81
339.562	644.81
339.79	637.81
340.018	614.81
340.246	605.81
340.474	622.81
340.702	618.81
340.93	641.81
341.158	619.81
341.386	641.81
341.614	630.81
341.842	621.81
342.07	591.81
342.298	611.81
342.526	622.81
342.754	611.81
342.981	592.81
343.209	642.81
343.437	650.81
343.665	697.81
343.893	758.81
344.12	760.81
344.348	726.81
344.576	680.81
344.804	672.81
345.031	657.81
345.259	650.81
345.487	633.81
345.714	612.81
345.942	612.81
346.17	619.81
346.397	604.81
346.625	583.81
346.853	593.81
347.08	609.81
347.308	590.81
347.535	582.81
347.763	609.81
347.99	592.81
348.218	620.81
348.445	574.81
348.673	576.81
348.9	596.81
349.128	595.81
349.355	565.81
349.583	581.81
349.81	574.81
350.037	575.81
350.265	594.81
350.492	577.81
350.72	576.81
350.947	573.81
351.174	597.81
351.402	574.81
351.629	569.81
351.856	572.81
352.083	577.81
352.311	592.81
352.538	590.81
352.765	593.81
352.992	562.81
353.22	580.81
353.447	571.81
353.674	600.81
353.901	570.81
354.128	554.81
354.355	583.81
354.583	565.81
354.81	566.81
355.037	572.81
355.264	579.81
355.491	571.81
355.718	597.81
355.945	584.81
356.172	566.81
356.399	570.81
356.626	582.81
356.853	580.81
357.08	580.81
357.307	576.81
357.534	569.81
357.761	589.81
357.988	618.81
358.215	572.81
358.441	562.81
358.668	567.81
358.895	577.81
359.122	586.81
359.349	600.81
359.576	568.81
359.802	597.81
360.029	587.81
360.256	590.81
360.483	577.81
360.709	584.81
360.936	601.81
361.163	595.81
361.39	563.81
361.616	568.81
361.843	581.81
362.07	575.81
362.296	601.81
362.523	573.81
362.749	604.81
362.976	584.81
363.203	586.81
363.429	587.81
363.656	599.81
363.882	597.81
364.109	574.81
364.335	574.81
364.562	603.81
364.788	562.81
365.015	562.81
365.241	603.81
365.468	598.81
365.694	575.81
365.92	580.81
366.147	560.81
366.373	587.81
366.599	576.81
366.826	582.81
367.052	589.81
367.278	583.81
367.505	591.81
367.731	579.81
367.957	578.81
368.184	581.81
368.41	595.81
368.636	564.81
368.862	582.81
369.089	598.81
369.315	589.81
369.541	608.81
369.767	611.81
369.993	635.81
370.219	591.81
370.445	609.81
370.672	596.81
370.898	605.81
371.124	631.81
371.35	643.81
371.576	638.81
371.802	618.81
372.028	637.81
372.254	632.81
372.48	632.81
372.706	634.81
372.932	658.81
373.158	653.81
373.384	660.81
373.61	641.81
373.835	640.81
374.061	650.81
374.287	632.81
374.513	658.81
374.739	678.81
374.965	665.81
375.191	694.81
375.416	668.81
375.642	660.81
375.868	660.81
376.094	642.81
376.319	634.81
376.545	653.81
376.771	636.81
376.997	642.81
377.222	641.81
377.448	641.81
377.674	629.81
377.899	624.81
378.125	635.81
378.35	624.81
378.576	630.81
378.802	643.81
379.027	624.81
379.253	616.81
379.478	628.81
379.704	616.81
379.929	624.81
380.155	630.81
380.38	624.81
380.606	642.81
380.831	609.81
381.057	620.81
381.282	637.81
381.507	630.81
381.733	635.81
381.958	650.81
382.184	644.81
382.409	649.81
382.634	650.81
382.86	666.81
383.085	688.81
383.31	673.81
383.535	679.81
383.761	706.81
383.986	700.81
384.211	722.81
384.436	727.81
384.662	734.81
384.887	749.81
385.112	739.81
385.337	770.81
385.562	741.81
385.787	737.81
386.013	755.81
386.238	749.81
386.463	755.81
386.688	773.81
386.913	758.81
387.138	735.81
387.363	748.81
387.588	769.81
387.813	737.81
388.038	726.81
388.263	723.81
388.488	770.81
388.713	738.81
388.938	758.81
389.163	724.81
389.387	720.81
389.612	728.81
389.837	721.81
390.062	726.81
390.287	747.81
390.512	746.81
390.736	752.81
390.961	741.81
391.186	796.81
391.411	804.81
391.636	830.81
391.86	862.81
392.085	854.81
392.31	848.81
392.534	796.81
392.759	813.81
392.984	834.81
393.208	786.81
393.433	780.81
393.658	792.81
393.882	818.81
394.107	805.81
394.331	816.81
394.556	804.81
394.78	802.81
395.005	844.81
395.229	828.81
395.454	827.81
395.678	839.81
395.903	839.81
396.127	838.81
396.352	789.81
396.576	780.81
396.801	797.81
397.025	808.81
397.249	821.81
397.474	848.81
397.698	858.81
397.922	841.81
398.147	839.81
398.371	856.81
398.595	908.81
398.82	958.81
399.044	995.81
399.268	1076.81
399.492	1264.81
399.717	1414.81
399.941	1386.81
400.165	1252.81
400.389	1125.81
400.613	1006.81
400.837	970.81
401.062	962.81
401.286	966.81
401.51	951.81
401.734	935.81
401.958	950.81
402.182	970.81
402.406	1003.81
402.63	1012.81
402.854	1005.81
403.078	1020.81
403.302	1064.81
403.526	1074.81
403.75	1084.81
403.974	1100.81
404.198	1092.81
404.422	1083.81
404.645	1068.81
404.869	1044.81
405.093	1065.81
405.317	1041.81
405.541	1088.81
405.765	1034.81
405.988	1046.81
406.212	1030.81
406.436	1027.81
406.66	1086.81
406.883	1078.81
407.107	1157.81
407.331	1184.81
407.555	1193.81
407.778	1220.81
408.002	1220.81
408.226	1148.81
408.449	1150.81
408.673	1079.81
408.896	1072.81
409.12	1049.81
409.344	1078.81
409.567	1072.81
409.791	1081.81
410.014	1079.81
410.238	1032.81
410.461	1039.81
410.685	1068.81
410.908	1031.81
411.132	989.81
411.355	995.81
411.578	1008.81
411.802	956.81
412.025	971.81
412.249	983.81
412.472	964.81
412.695	980.81
412.919	969.81
413.142	950.81
413.365	918.81
413.589	951.81
413.812	925.81
414.035	921.81
414.258	934.81
414.482	931.81
414.705	959.81
414.928	958.81
415.151	963.81
415.374	972.81
415.597	938.81
415.821	929.81
416.044	945.81
416.267	921.81
416.49	918.81
416.713	930.81
416.936	956.81
417.159	941.81
417.382	931.81
417.605	933.81
417.828	928.81
418.051	942.81
418.274	944.81
418.497	942.81
418.72	962.81
418.943	955.81
419.166	1016.81
419.389	1067.81
419.611	1048.81
419.834	1021.81
420.057	958.81
420.28	961.81
420.503	883.81
420.726	925.81
420.948	911.81
421.171	924.81
421.394	963.81
421.617	916.81
421.839	946.81
422.062	924.81
422.285	924.81
422.507	962.81
422.73	936.81
422.953	965.81
423.175	986.81
423.398	1030.81
423.621	965.81
423.843	991.81
424.066	1003.81
424.288	1004.81
424.511	981.81
424.733	972.81
424.956	940.81
425.178	941.81
425.401	935.81
425.623	958.81
425.846	918.81
426.068	908.81
426.291	889.81
426.513	908.81
426.735	888.81
426.958	868.81
427.18	859.81
427.402	863.81
427.625	870.81
427.847	824.81
428.069	830.81
428.292	839.81
428.514	814.81
428.736	831.81
428.958	836.81
429.181	818.81
429.403	806.81
429.625	799.81
429.847	792.81
430.069	786.81
430.292	824.81
430.514	803.81
430.736	806.81
430.958	811.81
431.18	796.81
431.402	841.81
431.624	793.81
431.846	809.81
432.068	838.81
432.29	845.81
432.512	819.81
432.734	834.81
432.956	809.81
433.178	829.81
433.4	833.81
433.622	847.81
433.844	857.81
434.066	842.81
434.287	855.81
434.509	891.81
434.731	915.81
434.953	960.81
435.175	935.81
435.397	897.81
435.618	874.81
435.84	876.81
436.062	840.81
436.284	811.81
436.505	806.81
436.727	809.81
436.949	821.81
437.17	832.81
437.392	812.81
437.614	809.81
437.835	811.81
438.057	786.81
438.278	793.81
438.5	759.81
438.721	801.81
438.943	827.81
439.165	809.81
439.386	775.81
439.608	818.81
439.829	800.81
440.05	812.81
440.272	828.81
440.493	810.81
440.715	846.81
440.936	852.81
441.158	873.81
441.379	915.81
441.6	921.81
441.822	951.81
442.043	947.81
442.264	916.81
442.486	904.81
442.707	879.81
442.928	893.81
443.149	904.81
443.371	900.81
443.592	897.81
443.813	949.81
444.034	945.81
444.255	970.81
444.476	1003.81
444.698	1057.81
444.919	1129.81
445.14	1161.81
445.361	1058.81
445.582	948.81
445.803	896.81
446.024	873.81
446.245	841.81
446.466	841.81
446.687	829.81
446.908	837.81
447.129	825.81
447.35	793.81
447.571	796.81
447.792	786.81
448.013	786.81
448.234	780.81
448.455	750.81
448.675	794.81
448.896	774.81
449.117	750.81
449.338	778.81
449.559	744.81
449.779	733.81
450	736.81
450.221	764.81
450.442	755.81
450.662	741.81
450.883	778.81
451.104	779.81
451.324	779.81
451.545	770.81
451.766	772.81
451.986	746.81
452.207	737.81
452.428	761.81
452.648	765.81
452.869	740.81
453.089	736.81
453.31	753.81
453.53	739.81
453.751	719.81
453.971	713.81
454.192	742.81
454.412	694.81
454.633	697.81
454.853	736.81
455.073	704.81
455.294	689.81
455.514	714.81
455.734	696.81
455.955	690.81
456.175	705.81
456.395	709.81
456.616	696.81
456.836	718.81
457.056	694.81
457.276	694.81
457.497	717.81
457.717	704.81
457.937	701.81
458.157	719.81
458.377	722.81
458.598	764.81
458.818	771.81
459.038	791.81
459.258	786.81
459.478	814.81
459.698	867.81
459.918	868.81
460.138	913.81
460.358	974.81
460.578	971.81
460.798	964.81
461.018	963.81
461.238	961.81
461.458	973.81
461.678	972.81
461.898	990.81
462.118	987.81
462.338	1032.81
462.558	1065.81
462.777	1090.81
462.997	1208.81
463.217	1294.81
463.437	1306.81
463.657	1178.81
463.876	1127.81
464.096	1152.81
464.316	1152.81
464.536	1155.81
464.755	1098.81
464.975	1055.81
465.195	1010.81
465.414	937.81
465.634	890.81
465.854	880.81
466.073	846.81
466.293	820.81
466.512	802.81
466.732	792.81
466.951	804.81
467.171	819.81
467.391	828.81
467.61	783.81
467.829	807.81
468.049	774.81
468.268	737.81
468.488	750.81
468.707	749.81
468.927	771.81
469.146	774.81
469.365	768.81
469.585	764.81
469.804	791.81
470.023	796.81
470.243	813.81
470.462	826.81
470.681	808.81
470.901	840.81
471.12	808.81
471.339	793.81
471.558	786.81
471.777	781.81
471.997	773.81
472.216	770.81
472.435	767.81
472.654	740.81
472.873	756.81
473.092	760.81
473.311	714.81
473.53	748.81
473.749	733.81
473.968	754.81
474.187	762.81
474.406	743.81
474.625	733.81
474.844	741.81
475.063	778.81
475.282	736.81
475.501	780.81
475.72	726.81
475.939	773.81
476.158	749.81
476.377	767.81
476.596	774.81
476.814	809.81
477.033	804.81
477.252	805.81
477.471	810.81
477.69	855.81
477.908	854.81
478.127	875.81
478.346	886.81
478.564	888.81
478.783	883.81
479.002	956.81
479.22	910.81
479.439	920.81
479.658	919.81
479.876	905.81
480.095	964.81
480.313	960.81
480.532	966.81
480.751	992.81
480.969	950.81
481.188	923.81
481.406	907.81
481.624	887.81
481.843	861.81
482.061	862.81
482.28	862.81
482.498	861.81
482.717	858.81
482.935	850.81
483.153	846.81
483.372	858.81
483.59	846.81
483.808	851.81
484.027	852.81
484.245	874.81
484.463	868.81
484.681	868.81
484.9	884.81
485.118	874.81
485.336	851.81
485.554	890.81
485.772	870.81
485.99	898.81
486.209	885.81
486.427	882.81
486.645	901.81
486.863	914.81
487.081	871.81
487.299	911.81
487.517	892.81
487.735	891.81
487.953	890.81
488.171	885.81
488.389	877.81
488.607	869.81
488.825	890.81
489.043	878.81
489.261	891.81
489.479	893.81
489.696	868.81
489.914	874.81
490.132	881.81
490.35	906.81
490.568	909.81
490.786	905.81
491.003	919.81
491.221	909.81
491.439	908.81
491.657	914.81
491.874	926.81
492.092	933.81
492.31	939.81
492.527	894.81
492.745	930.81
492.963	932.81
493.18	933.81
493.398	941.81
493.615	940.81
493.833	932.81
494.05	972.81
494.268	932.81
494.485	954.81
494.703	962.81
494.92	969.81
495.138	967.81
495.355	946.81
495.573	966.81
495.79	986.81
496.008	984.81
496.225	975.81
496.442	996.81
496.66	995.81
496.877	1025.81
497.094	1012.81
497.312	1020.81
497.529	1065.81
497.746	1092.81
497.963	1126.81
498.181	1157.81
498.398	1225.81
498.615	1332.81
498.832	1380.81
499.049	1485.81
499.267	1601.81
499.484	1753.81
499.701	1936.81
499.918	2106.81
500.135	2392.81
500.352	2796.81
500.569	2818.81
500.786	2792.81
501.003	2617.81
501.22	2349.81
501.437	2086.81
501.654	1845.81
501.871	1723.81
502.088	1541.81
502.305	1445.81
502.522	1365.81
502.739	1308.81
502.956	1242.81
503.172	1203.81
503.389	1142.81
503.606	1144.81
503.823	1111.81
504.04	1093.81
504.256	1092.81
504.473	1113.81
504.69	1145.81
504.907	1129.81
505.123	1031.81
505.34	1008.81
505.557	943.81
505.773	934.81
505.99	936.81
506.207	889.81
506.423	864.81
506.64	880.81
506.856	853.81
507.073	871.81
507.289	858.81
507.506	852.81
507.722	840.81
507.939	830.81
508.155	824.81
508.372	822.81
508.588	838.81
508.805	825.81
509.021	775.81
509.238	791.81
509.454	805.81
509.67	808.81
509.887	813.81
510.103	766.81
510.319	782.81
510.536	787.81
510.752	770.81
510.968	765.81
511.184	781.81
511.401	756.81
511.617	760.81
511.833	766.81
512.049	770.81
512.265	753.81
512.481	806.81
512.698	778.81
512.914	793.81
513.13	766.81
513.346	764.81
513.562	790.81
513.778	740.81
513.994	788.81
514.21	767.81
514.426	760.81
514.642	796.81
514.858	773.81
515.074	809.81
515.29	804.81
515.506	807.81
515.721	861.81
515.937	836.81
516.153	855.81
516.369	840.81
516.585	908.81
516.801	918.81
517.016	960.81
517.232	1010.81
517.448	1044.81
517.664	1079.81
517.879	1065.81
518.095	1079.81
518.311	1058.81
518.527	987.81
518.742	960.81
518.958	905.81
519.173	914.81
519.389	888.81
519.605	864.81
519.82	842.81
520.036	833.81
520.251	809.81
520.467	793.81
520.682	761.81
520.898	794.81
521.113	768.81
521.329	752.81
521.544	785.81
521.76	749.81
521.975	731.81
522.19	748.81
522.406	715.81
522.621	734.81
522.836	721.81
523.052	728.81
523.267	727.81
523.482	683.81
523.698	692.81
523.913	706.81
524.128	714.81
524.343	717.81
524.559	726.81
524.774	690.81
524.989	729.81
525.204	707.81
525.419	704.81
525.634	723.81
525.849	714.81
526.064	708.81
526.28	691.81
526.495	685.81
526.71	701.81
526.925	694.81
527.14	674.81
527.355	670.81
527.57	672.81
527.785	689.81
527.999	690.81
528.214	716.81
528.429	687.81
528.644	694.81
528.859	725.81
529.074	713.81
529.289	713.81
529.503	701.81
529.718	714.81
529.933	679.81
530.148	717.81
530.363	688.81
530.577	673.81
530.792	676.81
531.007	708.81
531.221	678.81
531.436	685.81
531.651	692.81
531.865	696.81
532.08	709.81
532.295	689.81
532.509	655.81
532.724	690.81
532.938	692.81
533.153	688.81
533.367	683.81
533.582	711.81
533.796	693.81
534.011	670.81
534.225	698.81
534.44	698.81
534.654	661.81
534.868	680.81
535.083	679.81
535.297	691.81
535.511	692.81
535.726	641.81
535.94	658.81
536.154	658.81
536.369	641.81
536.583	661.81
536.797	640.81
537.011	637.81
537.225	652.81
537.44	669.81
537.654	629.81
537.868	645.81
538.082	645.81
538.296	631.81
538.51	639.81
538.724	631.81
538.938	615.81
539.153	644.81
539.367	636.81
539.581	619.81
539.795	633.81
540.009	608.81
540.222	642.81
540.436	626.81
540.65	644.81
540.864	611.81
541.078	628.81
541.292	649.81
541.506	631.81
541.72	616.81
541.934	614.81
542.147	625.81
542.361	650.81
542.575	619.81
542.789	612.81
543.002	628.81
543.216	618.81
543.43	588.81
543.644	628.81
543.857	604.81
544.071	609.81
544.285	624.81
544.498	638.81
544.712	634.81
544.925	622.81
545.139	638.81
545.352	664.81
545.566	630.81
545.779	632.81
545.993	633.81
546.206	658.81
546.42	635.81
546.633	634.81
546.847	648.81
547.06	629.81
547.274	624.81
547.487	643.81
547.7	668.81
547.914	655.81
548.127	656.81
548.34	653.81
548.554	650.81
548.767	650.81
548.98	668.81
549.193	649.81
549.407	626.81
549.62	648.81
549.833	661.81
550.046	636.81
550.259	622.81
550.473	627.81
550.686	636.81
550.899	636.81
551.112	600.81
551.325	619.81
551.538	618.81
551.751	628.81
551.964	638.81
552.177	655.81
552.39	642.81
552.603	652.81
552.816	668.81
553.029	672.81
553.242	696.81
553.455	709.81
553.667	704.81
553.88	706.81
554.093	711.81
554.306	655.81
554.519	637.81
554.732	646.81
554.944	604.81
555.157	619.81
555.37	596.81
555.583	588.81
555.795	576.81
556.008	568.81
556.221	573.81
556.433	548.81
556.646	562.81
556.859	550.81
557.071	555.81
557.284	575.81
557.496	571.81
557.709	523.81
557.921	530.81
558.134	526.81
558.346	545.81
558.559	541.81
558.771	536.81
558.984	531.81
559.196	519.81
559.409	539.81
559.621	531.81
559.833	510.81
560.046	510.81
560.258	533.81
560.47	538.81
560.683	534.81
560.895	507.81
561.107	514.81
561.32	528.81
561.532	520.81
561.744	538.81
561.956	536.81
562.168	535.81
562.381	544.81
562.593	527.81
562.805	542.81
563.017	529.81
563.229	535.81
563.441	521.81
563.653	555.81
563.865	532.81
564.077	515.81
564.289	540.81
564.501	564.81
564.713	584.81
564.925	582.81
565.137	582.81
565.349	575.81
565.561	581.81
565.773	605.81
565.985	640.81
566.197	690.81
566.408	711.81
566.62	787.81
566.832	838.81
567.044	891.81
567.255	878.81
567.467	889.81
567.679	904.81
567.891	991.81
568.102	1022.81
568.314	946.81
568.526	852.81
568.737	780.81
568.949	716.81
569.161	656.81
569.372	611.81
569.584	602.81
569.795	577.81
570.007	550.81
570.218	559.81
570.43	533.81
570.641	560.81
570.853	535.81
571.064	539.81
571.276	561.81
571.487	532.81
571.698	501.81
571.91	471.81
572.121	507.81
572.333	473.81
572.544	479.81
572.755	461.81
572.966	454.81
573.178	448.81
573.389	428.81
573.6	436.81
573.811	436.81
574.023	440.81
574.234	446.81
574.445	437.81
574.656	448.81
574.867	424.81
575.078	435.81
575.289	444.81
575.501	440.81
575.712	409.81
575.923	425.81
576.134	413.81
576.345	402.81
576.556	407.81
576.767	414.81
576.978	418.81
577.188	404.81
577.399	394.81
577.61	381.81
577.821	404.81
578.032	400.81
578.243	378.81
578.454	390.81
578.665	385.81
578.875	386.81
579.086	382.81
579.297	402.81
579.508	378.81
579.718	387.81
579.929	374.81
580.14	394.81
580.35	391.81
580.561	367.81
580.772	374.81
580.982	370.81
581.193	371.81
581.403	370.81
581.614	380.81
581.825	376.81
582.035	377.81
582.246	365.81
582.456	380.81
582.667	349.81
582.877	341.81
583.087	355.81
583.298	342.81
583.508	362.81
583.719	353.81
583.929	355.81
584.139	349.81
584.35	364.81
584.56	344.81
584.77	349.81
584.981	347.81
585.191	372.81
585.401	352.81
585.611	357.81
585.821	351.81
586.032	368.81
586.242	346.81
586.452	352.81
586.662	345.81
586.872	363.81
587.082	353.81
587.292	336.81
587.502	357.81
587.713	355.81
587.923	375.81
588.133	368.81
588.343	362.81
588.553	360.81
588.762	351.81
588.972	352.81
589.182	370.81
589.392	358.81
589.602	349.81
589.812	351.81
590.022	353.81
590.232	341.81
590.441	344.81
590.651	344.81
590.861	360.81
591.071	356.81
591.281	356.81
591.49	361.81
591.7	369.81
591.91	370.81
592.119	394.81
592.329	391.81
592.539	382.81
592.748	394.81
592.958	430.81
593.167	430.81
593.377	444.81
593.587	436.81
593.796	456.81
594.006	458.81
594.215	451.81
594.424	440.81
594.634	444.81
594.843	417.81
595.053	398.81
595.262	397.81
595.472	371.81
595.681	359.81
595.89	366.81
596.1	342.81
596.309	346.81
596.518	332.81
596.727	337.81
596.937	315.81
597.146	311.81
597.355	336.81
597.564	311.81
597.774	317.81
597.983	296.81
598.192	320.81
598.401	307.81
598.61	299.81
598.819	313.81
599.028	310.81
599.237	297.81
599.446	317.81
599.655	300.81
599.864	296.81
600.073	307.81
600.282	286.81
600.491	289.81
600.7	312.81
600.909	292.81
601.118	295.81
601.327	286.81
601.536	283.81
601.745	270.81
601.953	310.81
602.162	299.81
602.371	281.81
602.58	299.81
602.789	287.81
602.997	292.81
603.206	292.81
603.415	300.81
603.623	282.81
603.832	286.81
604.041	265.81
604.249	297.81
604.458	294.81
604.666	282.81
604.875	294.81
605.084	274.81
605.292	277.81
605.501	271.81
605.709	274.81
605.918	270.81
606.126	275.81
606.334	282.81
606.543	284.81
606.751	258.81
606.96	277.81
607.168	270.81
607.376	276.81
607.585	276.81
607.793	283.81
608.001	293.81
608.21	274.81
608.418	281.81
608.626	270.81
608.834	279.81
609.043	264.81
609.251	254.81
609.459	269.81
609.667	260.81
609.875	270.81
610.083	264.81
610.291	276.81
610.499	284.81
610.707	273.81
610.916	259.81
611.124	264.81
611.332	255.81
611.54	273.81
611.748	266.81
611.955	257.81
612.163	261.81
612.371	250.81
612.579	257.81
612.787	253.81
612.995	268.81
613.203	275.81
613.411	271.81
613.618	271.81
613.826	257.81
614.034	249.81
614.242	260.81
614.449	271.81
614.657	259.81
614.865	263.81
615.072	268.81
615.28	266.81
615.488	264.81
615.695	227.81
615.903	260.81
616.111	269.81
616.318	274.81
616.526	238.81
616.733	247.81
616.941	273.81
617.148	269.81
617.356	263.81
617.563	270.81
617.771	279.81
617.978	257.81
618.185	258.81
618.393	270.81
618.6	235.81
618.807	272.81
619.015	258.81
619.222	258.81
619.429	256.81
619.637	265.81
619.844	253.81
620.051	239.81
620.258	244.81
620.466	244.81
620.673	229.81
620.88	248.81
621.087	240.81
621.294	229.81
621.501	233.81
621.708	234.81
621.915	225.81
622.122	243.81
622.329	243.81
622.536	259.81
622.743	225.81
622.95	232.81
623.157	245.81
623.364	233.81
623.571	239.81
623.778	242.81
623.985	233.81
624.192	227.81
624.399	225.81
624.606	242.81
624.812	234.81
625.019	228.81
625.226	226.81
625.433	209.81
625.639	197.81
625.846	218.81
626.053	220.81
626.259	212.81
626.466	224.81
626.673	215.81
626.879	215.81
627.086	222.81
627.293	220.81
627.499	217.81
627.706	215.81
627.912	220.81
628.119	229.81
628.325	216.81
628.532	228.81
628.738	197.81
628.945	213.81
629.151	218.81
629.357	203.81
629.564	214.81
629.77	218.81
629.976	214.81
630.183	200.81
630.389	205.81
630.595	198.81
630.802	207.81
631.008	209.81
631.214	213.81
631.42	202.81
631.627	209.81
631.833	205.81
632.039	214.81
632.245	213.81
632.451	185.81
632.657	194.81
632.863	206.81
633.069	198.81
633.275	203.81
633.481	195.81
633.688	203.81
633.893	211.81
634.099	169.81
634.305	201.81
634.511	188.81
634.717	209.81
634.923	186.81
635.129	200.81
635.335	193.81
635.541	193.81
635.747	189.81
635.952	176.81
636.158	192.81
636.364	188.81
636.57	205.81
636.775	200.81
636.981	178.81
637.187	201.81
637.392	204.81
637.598	179.81
637.804	192.81
638.009	200.81
638.215	188.81
638.421	180.81
638.626	178.81
638.832	173.81
639.037	192.81
639.243	186.81
639.448	172.81
639.654	188.81
639.859	190.81
640.065	174.81
640.27	178.81
640.475	164.81
640.681	162.81
640.886	193.81
641.091	174.81
641.297	208.81
641.502	164.81
641.707	202.81
641.913	156.81
642.118	187.81
642.323	177.81
642.528	192.81
642.733	173.81
642.939	164.81
643.144	176.81
643.349	189.81
643.554	167.81
643.759	170.81
643.964	151.81
644.169	168.81
644.374	176.81
644.579	190.81
644.784	190.81
644.989	170.81
645.194	167.81
645.399	168.81
645.604	171.81
645.809	180.81
646.014	173.81
646.219	169.81
646.423	166.81
646.628	182.81
646.833	163.81
647.038	173.81
647.243	189.81
647.447	186.81
647.652	205.81
647.857	189.81
648.062	184.81
648.266	192.81
648.471	186.81
648.676	198.81
648.88	175.81
649.085	176.81
649.289	184.81
649.494	170.81
649.698	149.81
649.903	150.81
650.107	173.81
650.312	184.81
650.516	163.81
650.721	169.81
650.925	168.81
651.13	148.81
651.334	158.81
651.539	148.81
651.743	163.81
651.947	141.81
652.152	155.81
652.356	168.81
652.56	149.81
652.764	147.81
652.969	149.81
653.173	158.81
653.377	144.81
653.581	125.81
653.785	145.81
653.99	133.81
654.194	136.81
654.398	138.81
654.602	147.81
654.806	109.81
655.01	143.81
655.214	134.81
655.418	129.81
655.622	132.81
655.826	141.81
656.03	128.81
656.234	145.81
656.438	143.81
656.642	129.81
656.846	128.81
657.049	128.81
657.253	126.81
657.457	116.81
657.661	117.81
657.865	117.81
658.068	130.81
658.272	118.81
658.476	119.81
658.68	98.81
658.883	107.81
659.087	107.81
659.291	105.81
659.494	109.81
659.698	103.81
659.901	89.81
660.105	97.81
660.309	97.81
660.512	106.81
660.716	88.81
660.919	75.81
661.123	98.81
661.326	84.81
661.53	101.81
661.733	89.81
661.936	82.81
662.14	93.81
662.343	80.81
662.546	78.81
662.75	88.81
662.953	86.81
663.156	78.81
663.36	97.81
663.563	76.81
663.766	89.81
663.969	85.81
664.173	77.81
664.376	77.81
664.579	84.81
664.782	74.81
664.985	77.81
665.188	90.81
665.391	84.81
665.594	73.81
665.797	88.81
666	72.81
666.203	81.81
666.406	92.81
666.609	88.81
666.812	65.81
667.015	80.81
667.218	88.81
667.421	84.81
667.624	99.81
667.827	90.81
668.03	83.81
668.232	87.81
668.435	90.81
668.638	80.81
668.841	97.81
669.043	82.81
669.246	101.81
669.449	84.81
669.651	78.81
669.854	74.81
670.057	82.81
670.259	84.81
670.462	83.81
670.665	82.81
670.867	91.81
671.07	90.81
671.272	80.81
671.475	85.81
671.677	86.81
671.88	75.81
672.082	78.81
672.284	79.81
672.487	65.81
672.689	93.81
672.892	77.81
