Data from NiCl2@0.125M.TitratingCurve.Agarose3%dH2O.NegLispCup.LampEnergy10.LIBS07252019_HRD10591_18-27-31-578.txt Node
Date: Thu Jul 25 18:27:31 EDT 2019
User: cochatt
Spectrometer: HR+D1059
Trigger mode: 1
Integration Time (sec): 1.000000E-1
Scans to average: 1
Electric dark correction enabled: true
Nonlinearity correction enabled: false
Boxcar width: 0
XAxis mode: Wavelengths
Number of Pixels in Spectrum: 2048
>>>>>Begin Spectral Data<<<<<
223.165	-9.94
223.4	-9.94
223.635	-9.94
223.869	-15.94
224.104	-31.94
224.338	-16.94
224.573	-19.94
224.808	-0.94
225.042	-11.94
225.277	-6.94
225.511	-15.94
225.746	4.06
225.98	12.06
226.215	25.06
226.449	24.06
226.683	13.06
226.918	16.06
227.152	36.06
227.387	21.06
227.621	35.06
227.856	53.06
228.09	49.06
228.324	52.06
228.559	54.06
228.793	76.06
229.027	89.06
229.262	96.06
229.496	102.06
229.73	96.06
229.964	113.06
230.199	127.06
230.433	100.06
230.667	102.06
230.901	118.06
231.136	114.06
231.37	125.06
231.604	136.06
231.838	121.06
232.072	125.06
232.306	135.06
232.541	124.06
232.775	122.06
233.009	126.06
233.243	126.06
233.477	124.06
233.711	130.06
233.945	120.06
234.179	128.06
234.413	138.06
234.647	117.06
234.881	141.06
235.115	121.06
235.349	126.06
235.583	131.06
235.817	132.06
236.051	112.06
236.285	125.06
236.519	138.06
236.753	128.06
236.987	126.06
237.221	125.06
237.455	146.06
237.689	131.06
237.922	138.06
238.156	136.06
238.39	129.06
238.624	134.06
238.858	146.06
239.091	153.06
239.325	143.06
239.559	148.06
239.793	138.06
240.027	147.06
240.26	149.06
240.494	148.06
240.728	140.06
240.961	147.06
241.195	158.06
241.429	159.06
241.662	158.06
241.896	162.06
242.13	154.06
242.363	172.06
242.597	162.06
242.83	152.06
243.064	160.06
243.298	161.06
243.531	152.06
243.765	162.06
243.998	166.06
244.232	180.06
244.465	174.06
244.699	179.06
244.932	178.06
245.166	188.06
245.399	166.06
245.633	177.06
245.866	170.06
246.099	172.06
246.333	181.06
246.566	180.06
246.8	188.06
247.033	175.06
247.266	177.06
247.5	170.06
247.733	187.06
247.966	200.06
248.2	187.06
248.433	194.06
248.666	180.06
248.899	188.06
249.133	203.06
249.366	200.06
249.599	190.06
249.832	205.06
250.066	197.06
250.299	215.06
250.532	203.06
250.765	192.06
250.998	198.06
251.231	186.06
251.465	209.06
251.698	206.06
251.931	204.06
252.164	205.06
252.397	210.06
252.63	218.06
252.863	213.06
253.096	198.06
253.329	212.06
253.562	225.06
253.795	212.06
254.028	213.06
254.261	227.06
254.494	223.06
254.727	224.06
254.96	228.06
255.193	222.06
255.426	230.06
255.659	226.06
255.892	237.06
256.124	244.06
256.357	232.06
256.59	222.06
256.823	240.06
257.056	227.06
257.289	229.06
257.521	234.06
257.754	220.06
257.987	246.06
258.22	252.06
258.452	236.06
258.685	226.06
258.918	224.06
259.151	237.06
259.383	244.06
259.616	240.06
259.849	230.06
260.081	230.06
260.314	268.06
260.547	250.06
260.779	250.06
261.012	256.06
261.244	264.06
261.477	235.06
261.71	251.06
261.942	246.06
262.175	258.06
262.407	264.06
262.64	240.06
262.872	270.06
263.105	266.06
263.337	268.06
263.57	256.06
263.802	294.06
264.035	251.06
264.267	257.06
264.499	251.06
264.732	272.06
264.964	284.06
265.197	266.06
265.429	282.06
265.661	258.06
265.894	265.06
266.126	279.06
266.358	278.06
266.591	282.06
266.823	273.06
267.055	269.06
267.287	294.06
267.52	289.06
267.752	277.06
267.984	289.06
268.216	271.06
268.448	290.06
268.681	271.06
268.913	281.06
269.145	296.06
269.377	297.06
269.609	312.06
269.841	270.06
270.073	280.06
270.306	266.06
270.538	305.06
270.77	304.06
271.002	319.06
271.234	306.06
271.466	308.06
271.698	293.06
271.93	303.06
272.162	309.06
272.394	310.06
272.626	309.06
272.858	304.06
273.09	301.06
273.322	317.06
273.553	288.06
273.785	287.06
274.017	294.06
274.249	314.06
274.481	300.06
274.713	323.06
274.945	338.06
275.176	318.06
275.408	324.06
275.64	321.06
275.872	308.06
276.104	341.06
276.335	340.06
276.567	355.06
276.799	335.06
277.031	338.06
277.262	329.06
277.494	329.06
277.726	342.06
277.957	333.06
278.189	356.06
278.421	332.06
278.652	329.06
278.884	348.06
279.115	366.06
279.347	354.06
279.579	357.06
279.81	350.06
280.042	349.06
280.273	337.06
280.505	343.06
280.736	337.06
280.968	346.06
281.199	342.06
281.431	352.06
281.662	368.06
281.894	359.06
282.125	352.06
282.356	372.06
282.588	362.06
282.819	362.06
283.051	364.06
283.282	354.06
283.513	377.06
283.745	380.06
283.976	365.06
284.207	368.06
284.439	378.06
284.67	376.06
284.901	389.06
285.132	375.06
285.364	372.06
285.595	384.06
285.826	388.06
286.057	361.06
286.288	380.06
286.52	386.06
286.751	382.06
286.982	372.06
287.213	408.06
287.444	374.06
287.675	388.06
287.906	387.06
288.138	386.06
288.369	400.06
288.6	399.06
288.831	380.06
289.062	396.06
289.293	396.06
289.524	373.06
289.755	394.06
289.986	389.06
290.217	398.06
290.448	389.06
290.679	398.06
290.91	379.06
291.141	416.06
291.371	405.06
291.602	397.06
291.833	413.06
292.064	386.06
292.295	405.06
292.526	409.06
292.757	405.06
292.987	416.06
293.218	388.06
293.449	408.06
293.68	412.06
293.91	419.06
294.141	399.06
294.372	396.06
294.603	399.06
294.833	400.06
295.064	406.06
295.295	394.06
295.525	424.06
295.756	408.06
295.987	420.06
296.217	414.06
296.448	420.06
296.679	420.06
296.909	422.06
297.14	419.06
297.37	447.06
297.601	435.06
297.831	436.06
298.062	435.06
298.292	433.06
298.523	448.06
298.753	454.06
298.984	435.06
299.214	440.06
299.445	420.06
299.675	436.06
299.905	440.06
300.136	424.06
300.366	438.06
300.597	448.06
300.827	444.06
301.057	458.06
301.288	454.06
301.518	471.06
301.748	473.06
301.979	467.06
302.209	449.06
302.439	454.06
302.669	451.06
302.9	464.06
303.13	460.06
303.36	456.06
303.59	457.06
303.82	451.06
304.051	452.06
304.281	486.06
304.511	466.06
304.741	472.06
304.971	461.06
305.201	461.06
305.431	460.06
305.661	453.06
305.891	457.06
306.121	475.06
306.352	450.06
306.582	456.06
306.812	439.06
307.042	460.06
307.272	448.06
307.502	441.06
307.731	452.06
307.961	446.06
308.191	449.06
308.421	441.06
308.651	452.06
308.881	438.06
309.111	449.06
309.341	444.06
309.571	447.06
309.8	460.06
310.03	461.06
310.26	463.06
310.49	474.06
310.72	459.06
310.949	456.06
311.179	446.06
311.409	455.06
311.639	463.06
311.868	454.06
312.098	474.06
312.328	479.06
312.557	452.06
312.787	468.06
313.017	468.06
313.246	467.06
313.476	480.06
313.706	494.06
313.935	480.06
314.165	500.06
314.394	478.06
314.624	489.06
314.853	486.06
315.083	488.06
315.312	505.06
315.542	509.06
315.771	472.06
316.001	463.06
316.23	469.06
316.46	489.06
316.689	488.06
316.919	462.06
317.148	457.06
317.377	468.06
317.607	486.06
317.836	458.06
318.065	472.06
318.295	486.06
318.524	463.06
318.753	446.06
318.983	459.06
319.212	466.06
319.441	476.06
319.67	481.06
319.9	469.06
320.129	478.06
320.358	481.06
320.587	477.06
320.816	468.06
321.046	459.06
321.275	471.06
321.504	473.06
321.733	480.06
321.962	473.06
322.191	497.06
322.42	487.06
322.649	494.06
322.878	478.06
323.108	467.06
323.337	480.06
323.566	506.06
323.795	498.06
324.024	489.06
324.253	491.06
324.482	505.06
324.71	488.06
324.939	508.06
325.168	500.06
325.397	500.06
325.626	507.06
325.855	506.06
326.084	530.06
326.313	517.06
326.542	542.06
326.77	528.06
326.999	522.06
327.228	530.06
327.457	533.06
327.686	502.06
327.914	523.06
328.143	502.06
328.372	516.06
328.6	526.06
328.829	512.06
329.058	505.06
329.287	520.06
329.515	528.06
329.744	520.06
329.972	548.06
330.201	529.06
330.43	520.06
330.658	526.06
330.887	553.06
331.115	538.06
331.344	563.06
331.572	550.06
331.801	544.06
332.03	573.06
332.258	586.06
332.486	584.06
332.715	614.06
332.943	603.06
333.172	627.06
333.4	653.06
333.629	661.06
333.857	662.06
334.085	670.06
334.314	675.06
334.542	671.06
334.771	676.06
334.999	645.06
335.227	633.06
335.455	633.06
335.684	645.06
335.912	624.06
336.14	629.06
336.369	630.06
336.597	628.06
336.825	601.06
337.053	627.06
337.281	617.06
337.51	599.06
337.738	606.06
337.966	606.06
338.194	589.06
338.422	568.06
338.65	566.06
338.878	568.06
339.106	584.06
339.334	578.06
339.562	573.06
339.79	536.06
340.018	544.06
340.246	547.06
340.474	548.06
340.702	543.06
340.93	553.06
341.158	569.06
341.386	547.06
341.614	559.06
341.842	542.06
342.07	534.06
342.298	548.06
342.526	543.06
342.754	542.06
342.981	536.06
343.209	543.06
343.437	599.06
343.665	598.06
343.893	621.06
344.12	653.06
344.348	640.06
344.576	621.06
344.804	605.06
345.031	586.06
345.259	587.06
345.487	561.06
345.714	557.06
345.942	537.06
346.17	537.06
346.397	569.06
346.625	547.06
346.853	545.06
347.08	524.06
347.308	544.06
347.535	550.06
347.763	547.06
347.99	548.06
348.218	553.06
348.445	514.06
348.673	520.06
348.9	523.06
349.128	530.06
349.355	528.06
349.583	515.06
349.81	532.06
350.037	498.06
350.265	510.06
350.492	510.06
350.72	513.06
350.947	552.06
351.174	530.06
351.402	530.06
351.629	499.06
351.856	507.06
352.083	498.06
352.311	507.06
352.538	523.06
352.765	527.06
352.992	514.06
353.22	504.06
353.447	492.06
353.674	505.06
353.901	484.06
354.128	514.06
354.355	509.06
354.583	485.06
354.81	505.06
355.037	509.06
355.264	527.06
355.491	504.06
355.718	512.06
355.945	523.06
356.172	523.06
356.399	513.06
356.626	522.06
356.853	529.06
357.08	525.06
357.307	504.06
357.534	523.06
357.761	519.06
357.988	524.06
358.215	529.06
358.441	516.06
358.668	509.06
358.895	513.06
359.122	524.06
359.349	523.06
359.576	521.06
359.802	535.06
360.029	523.06
360.256	520.06
360.483	502.06
360.709	523.06
360.936	526.06
361.163	500.06
361.39	512.06
361.616	500.06
361.843	502.06
362.07	510.06
362.296	530.06
362.523	530.06
362.749	512.06
362.976	501.06
363.203	516.06
363.429	511.06
363.656	513.06
363.882	524.06
364.109	514.06
364.335	498.06
364.562	507.06
364.788	522.06
365.015	522.06
365.241	487.06
365.468	493.06
365.694	521.06
365.92	544.06
366.147	514.06
366.373	522.06
366.599	523.06
366.826	487.06
367.052	529.06
367.278	523.06
367.505	523.06
367.731	517.06
367.957	529.06
368.184	520.06
368.41	505.06
368.636	516.06
368.862	528.06
369.089	533.06
369.315	514.06
369.541	526.06
369.767	549.06
369.993	540.06
370.219	513.06
370.445	541.06
370.672	552.06
370.898	521.06
371.124	549.06
371.35	549.06
371.576	555.06
371.802	548.06
372.028	538.06
372.254	550.06
372.48	585.06
372.706	578.06
372.932	576.06
373.158	558.06
373.384	567.06
373.61	561.06
373.835	547.06
374.061	541.06
374.287	534.06
374.513	593.06
374.739	596.06
374.965	609.06
375.191	603.06
375.416	615.06
375.642	590.06
375.868	586.06
376.094	583.06
376.319	575.06
376.545	569.06
376.771	546.06
376.997	554.06
377.222	561.06
377.448	556.06
377.674	552.06
377.899	548.06
378.125	552.06
378.35	540.06
378.576	535.06
378.802	558.06
379.027	534.06
379.253	535.06
379.478	546.06
379.704	544.06
379.929	546.06
380.155	542.06
380.38	562.06
380.606	546.06
380.831	527.06
381.057	559.06
381.282	587.06
381.507	553.06
381.733	555.06
381.958	584.06
382.184	584.06
382.409	567.06
382.634	571.06
382.86	586.06
383.085	580.06
383.31	582.06
383.535	616.06
383.761	604.06
383.986	614.06
384.211	610.06
384.436	619.06
384.662	654.06
384.887	662.06
385.112	610.06
385.337	698.06
385.562	665.06
385.787	679.06
386.013	642.06
386.238	645.06
386.463	690.06
386.688	667.06
386.913	674.06
387.138	660.06
387.363	669.06
387.588	666.06
387.813	643.06
388.038	668.06
388.263	662.06
388.488	677.06
388.713	666.06
388.938	649.06
389.163	632.06
389.387	678.06
389.612	646.06
389.837	638.06
390.062	658.06
390.287	649.06
390.512	653.06
390.736	671.06
390.961	686.06
391.186	672.06
391.411	698.06
391.636	697.06
391.86	698.06
392.085	727.06
392.31	728.06
392.534	729.06
392.759	718.06
392.984	704.06
393.208	699.06
393.433	682.06
393.658	708.06
393.882	686.06
394.107	712.06
394.331	726.06
394.556	710.06
394.78	710.06
395.005	716.06
395.229	701.06
395.454	691.06
395.678	724.06
395.903	740.06
396.127	740.06
396.352	713.06
396.576	712.06
396.801	723.06
397.025	751.06
397.249	754.06
397.474	749.06
397.698	736.06
397.922	754.06
398.147	747.06
398.371	788.06
398.595	793.06
398.82	822.06
399.044	855.06
399.268	948.06
399.492	1010.06
399.717	1138.06
399.941	1170.06
400.165	1129.06
400.389	994.06
400.613	916.06
400.837	882.06
401.062	844.06
401.286	860.06
401.51	853.06
401.734	824.06
401.958	834.06
402.182	822.06
402.406	828.06
402.63	825.06
402.854	857.06
403.078	856.06
403.302	852.06
403.526	893.06
403.75	910.06
403.974	901.06
404.198	915.06
404.422	916.06
404.645	924.06
404.869	912.06
405.093	933.06
405.317	925.06
405.541	895.06
405.765	925.06
405.988	904.06
406.212	900.06
406.436	924.06
406.66	925.06
406.883	910.06
407.107	988.06
407.331	1026.06
407.555	1050.06
407.778	1051.06
408.002	1013.06
408.226	995.06
408.449	966.06
408.673	976.06
408.896	929.06
409.12	931.06
409.344	946.06
409.567	930.06
409.791	898.06
410.014	893.06
410.238	913.06
410.461	899.06
410.685	903.06
410.908	906.06
411.132	856.06
411.355	855.06
411.578	861.06
411.802	843.06
412.025	858.06
412.249	886.06
412.472	884.06
412.695	833.06
412.919	840.06
413.142	847.06
413.365	825.06
413.589	825.06
413.812	819.06
414.035	829.06
414.258	805.06
414.482	823.06
414.705	838.06
414.928	829.06
415.151	812.06
415.374	839.06
415.597	822.06
415.821	824.06
416.044	822.06
416.267	826.06
416.49	836.06
416.713	774.06
416.936	820.06
417.159	804.06
417.382	813.06
417.605	800.06
417.828	830.06
418.051	852.06
418.274	827.06
418.497	831.06
418.72	871.06
418.943	834.06
419.166	858.06
419.389	977.06
419.611	954.06
419.834	883.06
420.057	873.06
420.28	832.06
420.503	828.06
420.726	819.06
420.948	816.06
421.171	831.06
421.394	791.06
421.617	781.06
421.839	826.06
422.062	848.06
422.285	803.06
422.507	843.06
422.73	829.06
422.953	808.06
423.175	841.06
423.398	859.06
423.621	830.06
423.843	843.06
424.066	832.06
424.288	818.06
424.511	851.06
424.733	850.06
424.956	828.06
425.178	805.06
425.401	834.06
425.623	828.06
425.846	805.06
426.068	801.06
426.291	781.06
426.513	807.06
426.735	792.06
426.958	823.06
427.18	785.06
427.402	757.06
427.625	789.06
427.847	768.06
428.069	739.06
428.292	768.06
428.514	736.06
428.736	745.06
428.958	773.06
429.181	752.06
429.403	756.06
429.625	731.06
429.847	739.06
430.069	731.06
430.292	733.06
430.514	715.06
430.736	731.06
430.958	740.06
431.18	742.06
431.402	733.06
431.624	728.06
431.846	738.06
432.068	755.06
432.29	738.06
432.512	747.06
432.734	748.06
432.956	762.06
433.178	748.06
433.4	759.06
433.622	736.06
433.844	753.06
434.066	767.06
434.287	766.06
434.509	771.06
434.731	822.06
434.953	828.06
435.175	835.06
435.397	840.06
435.618	776.06
435.84	781.06
436.062	755.06
436.284	754.06
436.505	760.06
436.727	768.06
436.949	739.06
437.17	719.06
437.392	742.06
437.614	727.06
437.835	739.06
438.057	714.06
438.278	738.06
438.5	724.06
438.721	729.06
438.943	764.06
439.165	720.06
439.386	724.06
439.608	744.06
439.829	732.06
440.05	748.06
440.272	776.06
440.493	770.06
440.715	772.06
440.936	760.06
441.158	791.06
441.379	815.06
441.6	811.06
441.822	844.06
442.043	879.06
442.264	842.06
442.486	836.06
442.707	845.06
442.928	800.06
443.149	821.06
443.371	828.06
443.592	851.06
443.813	824.06
444.034	837.06
444.255	854.06
444.476	908.06
444.698	934.06
444.919	941.06
445.14	1076.06
445.361	966.06
445.582	852.06
445.803	840.06
446.024	820.06
446.245	800.06
446.466	792.06
446.687	740.06
446.908	772.06
447.129	741.06
447.35	749.06
447.571	734.06
447.792	737.06
448.013	719.06
448.234	736.06
448.455	694.06
448.675	715.06
448.896	713.06
449.117	713.06
449.338	699.06
449.559	706.06
449.779	702.06
450	666.06
450.221	704.06
450.442	715.06
450.662	708.06
450.883	699.06
451.104	683.06
451.324	725.06
451.545	713.06
451.766	708.06
451.986	702.06
452.207	692.06
452.428	682.06
452.648	678.06
452.869	696.06
453.089	674.06
453.31	667.06
453.53	650.06
453.751	678.06
453.971	668.06
454.192	673.06
454.412	632.06
454.633	665.06
454.853	625.06
455.073	636.06
455.294	642.06
455.514	645.06
455.734	638.06
455.955	642.06
456.175	642.06
456.395	657.06
456.616	640.06
456.836	646.06
457.056	639.06
457.276	664.06
457.497	655.06
457.717	654.06
457.937	688.06
458.157	658.06
458.377	684.06
458.598	673.06
458.818	711.06
459.038	706.06
459.258	746.06
459.478	747.06
459.698	774.06
459.918	780.06
460.138	813.06
460.358	860.06
460.578	881.06
460.798	869.06
461.018	887.06
461.238	888.06
461.458	893.06
461.678	850.06
461.898	886.06
462.118	916.06
462.338	914.06
462.558	926.06
462.777	957.06
462.997	1054.06
463.217	1136.06
463.437	1134.06
463.657	1059.06
463.876	1020.06
464.096	1017.06
464.316	1001.06
464.536	980.06
464.755	964.06
464.975	941.06
465.195	925.06
465.414	870.06
465.634	818.06
465.854	801.06
466.073	786.06
466.293	749.06
466.512	734.06
466.732	717.06
466.951	750.06
467.171	756.06
467.391	733.06
467.61	734.06
467.829	740.06
468.049	708.06
468.268	727.06
468.488	712.06
468.707	697.06
468.927	722.06
469.146	709.06
469.365	724.06
469.585	732.06
469.804	746.06
470.023	734.06
470.243	728.06
470.462	777.06
470.681	774.06
470.901	764.06
471.12	738.06
471.339	719.06
471.558	718.06
471.777	725.06
471.997	709.06
472.216	726.06
472.435	684.06
472.654	693.06
472.873	674.06
473.092	682.06
473.311	693.06
473.53	696.06
473.749	690.06
473.968	676.06
474.187	690.06
474.406	695.06
474.625	686.06
474.844	708.06
475.063	690.06
475.282	692.06
475.501	700.06
475.72	697.06
475.939	708.06
476.158	693.06
476.377	712.06
476.596	720.06
476.814	735.06
477.033	732.06
477.252	742.06
477.471	744.06
477.69	790.06
477.908	804.06
478.127	825.06
478.346	788.06
478.564	828.06
478.783	836.06
479.002	857.06
479.22	854.06
479.439	865.06
479.658	850.06
479.876	859.06
480.095	847.06
480.313	880.06
480.532	900.06
480.751	899.06
480.969	857.06
481.188	824.06
481.406	830.06
481.624	809.06
481.843	813.06
482.061	783.06
482.28	800.06
482.498	804.06
482.717	779.06
482.935	790.06
483.153	828.06
483.372	807.06
483.59	802.06
483.808	821.06
484.027	782.06
484.245	809.06
484.463	828.06
484.681	837.06
484.9	808.06
485.118	810.06
485.336	833.06
485.554	822.06
485.772	827.06
485.99	828.06
486.209	818.06
486.427	833.06
486.645	843.06
486.863	822.06
487.081	837.06
487.299	828.06
487.517	839.06
487.735	836.06
487.953	839.06
488.171	817.06
488.389	827.06
488.607	822.06
488.825	812.06
489.043	811.06
489.261	786.06
489.479	812.06
489.696	832.06
489.914	792.06
490.132	819.06
490.35	832.06
490.568	853.06
490.786	856.06
491.003	838.06
491.221	836.06
491.439	857.06
491.657	840.06
491.874	819.06
492.092	853.06
492.31	861.06
492.527	882.06
492.745	865.06
492.963	856.06
493.18	871.06
493.398	873.06
493.615	877.06
493.833	862.06
494.05	883.06
494.268	902.06
494.485	903.06
494.703	892.06
494.92	880.06
495.138	917.06
495.355	896.06
495.573	884.06
495.79	872.06
496.008	884.06
496.225	906.06
496.442	934.06
496.66	950.06
496.877	920.06
497.094	933.06
497.312	952.06
497.529	965.06
497.746	993.06
497.963	1021.06
498.181	1052.06
498.398	1113.06
498.615	1180.06
498.832	1226.06
499.049	1277.06
499.267	1386.06
499.484	1490.06
499.701	1619.06
499.918	1807.06
500.135	1942.06
500.352	2178.06
500.569	2265.06
500.786	2224.06
501.003	2106.06
501.22	2016.06
501.437	1786.06
501.654	1621.06
501.871	1542.06
502.088	1381.06
502.305	1323.06
502.522	1233.06
502.739	1223.06
502.956	1112.06
503.172	1056.06
503.389	1046.06
503.606	1043.06
503.823	996.06
504.04	997.06
504.256	996.06
504.473	1037.06
504.69	1034.06
504.907	1015.06
505.123	934.06
505.34	899.06
505.557	886.06
505.773	849.06
505.99	838.06
506.207	827.06
506.423	832.06
506.64	798.06
506.856	794.06
507.073	779.06
507.289	788.06
507.506	770.06
507.722	772.06
507.939	764.06
508.155	759.06
508.372	747.06
508.588	759.06
508.805	744.06
509.021	710.06
509.238	729.06
509.454	725.06
509.67	716.06
509.887	732.06
510.103	709.06
510.319	707.06
510.536	698.06
510.752	708.06
510.968	707.06
511.184	723.06
511.401	697.06
511.617	673.06
511.833	689.06
512.049	700.06
512.265	698.06
512.481	703.06
512.698	689.06
512.914	697.06
513.13	710.06
513.346	706.06
513.562	705.06
513.778	678.06
513.994	683.06
514.21	724.06
514.426	717.06
514.642	737.06
514.858	720.06
515.074	707.06
515.29	742.06
515.506	741.06
515.721	741.06
515.937	743.06
516.153	761.06
516.369	774.06
516.585	795.06
516.801	795.06
517.016	853.06
517.232	875.06
517.448	894.06
517.664	921.06
517.879	913.06
518.095	932.06
518.311	919.06
518.527	866.06
518.742	852.06
518.958	820.06
519.173	802.06
519.389	780.06
519.605	769.06
519.82	739.06
520.036	733.06
520.251	709.06
520.467	698.06
520.682	728.06
520.898	693.06
521.113	689.06
521.329	704.06
521.544	695.06
521.76	655.06
521.975	666.06
522.19	665.06
522.406	688.06
522.621	680.06
522.836	669.06
523.052	666.06
523.267	666.06
523.482	659.06
523.698	674.06
523.913	652.06
524.128	649.06
524.343	633.06
524.559	672.06
524.774	638.06
524.989	662.06
525.204	635.06
525.419	624.06
525.634	634.06
525.849	644.06
526.064	637.06
526.28	646.06
526.495	647.06
526.71	653.06
526.925	628.06
527.14	630.06
527.355	611.06
527.57	622.06
527.785	634.06
527.999	635.06
528.214	600.06
528.429	651.06
528.644	644.06
528.859	621.06
529.074	640.06
529.289	643.06
529.503	658.06
529.718	636.06
529.933	618.06
530.148	610.06
530.363	616.06
530.577	626.06
530.792	631.06
531.007	608.06
531.221	635.06
531.436	618.06
531.651	636.06
531.865	634.06
532.08	616.06
532.295	638.06
532.509	620.06
532.724	627.06
532.938	620.06
533.153	632.06
533.367	648.06
533.582	610.06
533.796	628.06
534.011	642.06
534.225	600.06
534.44	602.06
534.654	608.06
534.868	638.06
535.083	621.06
535.297	602.06
535.511	603.06
535.726	609.06
535.94	585.06
536.154	590.06
536.369	581.06
536.583	592.06
536.797	594.06
537.011	614.06
537.225	601.06
537.44	588.06
537.654	602.06
537.868	597.06
538.082	572.06
538.296	589.06
538.51	576.06
538.724	599.06
538.938	566.06
539.153	580.06
539.367	584.06
539.581	594.06
539.795	557.06
540.009	570.06
540.222	568.06
540.436	558.06
540.65	566.06
540.864	593.06
541.078	569.06
541.292	566.06
541.506	569.06
541.72	593.06
541.934	569.06
542.147	578.06
542.361	581.06
542.575	593.06
542.789	555.06
543.002	563.06
543.216	562.06
543.43	556.06
543.644	565.06
543.857	581.06
544.071	543.06
544.285	563.06
544.498	589.06
544.712	606.06
544.925	574.06
545.139	581.06
545.352	597.06
545.566	588.06
545.779	594.06
545.993	605.06
546.206	582.06
546.42	575.06
546.633	594.06
546.847	602.06
547.06	598.06
547.274	586.06
547.487	587.06
547.7	599.06
547.914	579.06
548.127	593.06
548.34	589.06
548.554	602.06
548.767	588.06
548.98	597.06
549.193	604.06
549.407	597.06
549.62	597.06
549.833	591.06
550.046	601.06
550.259	581.06
550.473	582.06
550.686	576.06
550.899	576.06
551.112	598.06
551.325	571.06
551.538	587.06
551.751	565.06
551.964	580.06
552.177	577.06
552.39	603.06
552.603	595.06
552.816	600.06
553.029	638.06
553.242	632.06
553.455	621.06
553.667	642.06
553.88	632.06
554.093	608.06
554.306	598.06
554.519	566.06
554.732	569.06
554.944	578.06
555.157	592.06
555.37	528.06
555.583	555.06
555.795	550.06
556.008	526.06
556.221	527.06
556.433	528.06
556.646	541.06
556.859	521.06
557.071	520.06
557.284	514.06
557.496	501.06
557.709	475.06
557.921	489.06
558.134	491.06
558.346	502.06
558.559	519.06
558.771	480.06
558.984	502.06
559.196	475.06
559.409	489.06
559.621	489.06
559.833	494.06
560.046	501.06
560.258	491.06
560.47	460.06
560.683	472.06
560.895	478.06
561.107	487.06
561.32	481.06
561.532	486.06
561.744	466.06
561.956	496.06
562.168	502.06
562.381	485.06
562.593	488.06
562.805	487.06
563.017	490.06
563.229	514.06
563.441	520.06
563.653	514.06
563.865	505.06
564.077	515.06
564.289	532.06
564.501	513.06
564.713	522.06
564.925	549.06
565.137	566.06
565.349	546.06
565.561	572.06
565.773	571.06
565.985	617.06
566.197	622.06
566.408	653.06
566.62	702.06
566.832	742.06
567.044	760.06
567.255	755.06
567.467	785.06
567.679	768.06
567.891	845.06
568.102	871.06
568.314	822.06
568.526	744.06
568.737	679.06
568.949	638.06
569.161	613.06
569.372	597.06
569.584	534.06
569.795	539.06
570.007	519.06
570.218	502.06
570.43	510.06
570.641	506.06
570.853	488.06
571.064	514.06
571.276	509.06
571.487	487.06
571.698	480.06
571.91	455.06
572.121	465.06
572.333	429.06
572.544	434.06
572.755	428.06
572.966	440.06
573.178	436.06
573.389	406.06
573.6	406.06
573.811	408.06
574.023	414.06
574.234	412.06
574.445	403.06
574.656	415.06
574.867	426.06
575.078	412.06
575.289	399.06
575.501	418.06
575.712	395.06
575.923	372.06
576.134	391.06
576.345	386.06
576.556	385.06
576.767	394.06
576.978	373.06
577.188	362.06
577.399	380.06
577.61	390.06
577.821	377.06
578.032	361.06
578.243	377.06
578.454	386.06
578.665	381.06
578.875	366.06
579.086	351.06
579.297	372.06
579.508	376.06
579.718	360.06
579.929	360.06
580.14	357.06
580.35	345.06
580.561	366.06
580.772	378.06
580.982	345.06
581.193	361.06
581.403	376.06
581.614	365.06
581.825	355.06
582.035	367.06
582.246	342.06
582.456	356.06
582.667	336.06
582.877	344.06
583.087	347.06
583.298	331.06
583.508	350.06
583.719	345.06
583.929	344.06
584.139	328.06
584.35	348.06
584.56	335.06
584.77	322.06
584.981	325.06
585.191	319.06
585.401	341.06
585.611	323.06
585.821	325.06
586.032	324.06
586.242	338.06
586.452	334.06
586.662	323.06
586.872	365.06
587.082	346.06
587.292	322.06
587.502	329.06
587.713	309.06
587.923	322.06
588.133	332.06
588.343	350.06
588.553	339.06
588.762	335.06
588.972	330.06
589.182	349.06
589.392	352.06
589.602	327.06
589.812	334.06
590.022	339.06
590.232	342.06
590.441	344.06
590.651	351.06
590.861	333.06
591.071	334.06
591.281	352.06
591.49	373.06
591.7	346.06
591.91	366.06
592.119	348.06
592.329	340.06
592.539	363.06
592.748	392.06
592.958	378.06
593.167	381.06
593.377	398.06
593.587	398.06
593.796	402.06
594.006	374.06
594.215	392.06
594.424	397.06
594.634	373.06
594.843	388.06
595.053	353.06
595.262	364.06
595.472	365.06
595.681	344.06
595.89	336.06
596.1	342.06
596.309	344.06
596.518	325.06
596.727	328.06
596.937	315.06
597.146	312.06
597.355	291.06
597.564	312.06
597.774	296.06
597.983	293.06
598.192	298.06
598.401	302.06
598.61	306.06
598.819	308.06
599.028	302.06
599.237	298.06
599.446	296.06
599.655	291.06
599.864	272.06
600.073	292.06
600.282	294.06
600.491	297.06
600.7	287.06
600.909	301.06
601.118	290.06
601.327	294.06
601.536	278.06
601.745	278.06
601.953	284.06
602.162	278.06
602.371	295.06
602.58	274.06
602.789	287.06
602.997	294.06
603.206	296.06
603.415	274.06
603.623	278.06
603.832	283.06
604.041	270.06
604.249	268.06
604.458	270.06
604.666	267.06
604.875	275.06
605.084	266.06
605.292	270.06
605.501	260.06
605.709	274.06
605.918	266.06
606.126	272.06
606.334	256.06
606.543	276.06
606.751	259.06
606.96	262.06
607.168	267.06
607.376	259.06
607.585	259.06
607.793	267.06
608.001	266.06
608.21	261.06
608.418	248.06
608.626	264.06
608.834	268.06
609.043	241.06
609.251	256.06
609.459	270.06
609.667	266.06
609.875	247.06
610.083	260.06
610.291	263.06
610.499	274.06
610.707	260.06
610.916	260.06
611.124	253.06
611.332	264.06
611.54	264.06
611.748	239.06
611.955	248.06
612.163	252.06
612.371	244.06
612.579	251.06
612.787	250.06
612.995	243.06
613.203	257.06
613.411	270.06
613.618	248.06
613.826	267.06
614.034	250.06
614.242	254.06
614.449	241.06
614.657	234.06
614.865	240.06
615.072	236.06
615.28	252.06
615.488	229.06
615.695	248.06
615.903	268.06
616.111	269.06
616.318	225.06
616.526	260.06
616.733	260.06
616.941	254.06
617.148	267.06
617.356	240.06
617.563	232.06
617.771	260.06
617.978	248.06
618.185	233.06
618.393	240.06
618.6	268.06
618.807	247.06
619.015	256.06
619.222	226.06
619.429	238.06
619.637	237.06
619.844	244.06
620.051	226.06
620.258	238.06
620.466	240.06
620.673	240.06
620.88	231.06
621.087	220.06
621.294	226.06
621.501	243.06
621.708	245.06
621.915	236.06
622.122	242.06
622.329	240.06
622.536	235.06
622.743	223.06
622.95	211.06
623.157	219.06
623.364	227.06
623.571	223.06
623.778	226.06
623.985	230.06
624.192	217.06
624.399	228.06
624.606	241.06
624.812	238.06
625.019	216.06
625.226	230.06
625.433	209.06
625.639	217.06
625.846	215.06
626.053	212.06
626.259	206.06
626.466	212.06
626.673	219.06
626.879	219.06
627.086	210.06
627.293	222.06
627.499	218.06
627.706	220.06
627.912	218.06
628.119	206.06
628.325	218.06
628.532	205.06
628.738	198.06
628.945	202.06
629.151	224.06
629.357	203.06
629.564	218.06
629.77	228.06
629.976	206.06
630.183	187.06
630.389	209.06
630.595	201.06
630.802	205.06
631.008	222.06
631.214	210.06
631.42	206.06
631.627	216.06
631.833	212.06
632.039	220.06
632.245	203.06
632.451	183.06
632.657	212.06
632.863	197.06
633.069	198.06
633.275	205.06
633.481	185.06
633.688	185.06
633.893	205.06
634.099	193.06
634.305	188.06
634.511	184.06
634.717	194.06
634.923	178.06
635.129	179.06
635.335	189.06
635.541	188.06
635.747	192.06
635.952	172.06
636.158	186.06
636.364	197.06
636.57	188.06
636.775	206.06
636.981	193.06
637.187	197.06
637.392	183.06
637.598	184.06
637.804	198.06
638.009	199.06
638.215	200.06
638.421	179.06
638.626	169.06
638.832	187.06
639.037	199.06
639.243	189.06
639.448	182.06
639.654	186.06
639.859	173.06
640.065	177.06
640.27	194.06
640.475	176.06
640.681	186.06
640.886	182.06
641.091	184.06
641.297	204.06
641.502	189.06
641.707	194.06
641.913	179.06
642.118	187.06
642.323	192.06
642.528	184.06
642.733	178.06
642.939	173.06
643.144	169.06
643.349	170.06
643.554	174.06
643.759	163.06
643.964	178.06
644.169	156.06
644.374	161.06
644.579	163.06
644.784	177.06
644.989	177.06
645.194	187.06
645.399	167.06
645.604	181.06
645.809	174.06
646.014	185.06
646.219	176.06
646.423	175.06
646.628	181.06
646.833	174.06
647.038	168.06
647.243	177.06
647.447	185.06
647.652	194.06
647.857	172.06
648.062	190.06
648.266	178.06
648.471	204.06
648.676	193.06
648.88	190.06
649.085	187.06
649.289	181.06
649.494	179.06
649.698	171.06
649.903	178.06
650.107	166.06
650.312	177.06
650.516	173.06
650.721	168.06
650.925	167.06
651.13	155.06
651.334	169.06
651.539	164.06
651.743	185.06
651.947	146.06
652.152	152.06
652.356	143.06
652.56	147.06
652.764	164.06
652.969	164.06
653.173	158.06
653.377	157.06
653.581	158.06
653.785	164.06
653.99	157.06
654.194	143.06
654.398	163.06
654.602	137.06
654.806	149.06
655.01	145.06
655.214	135.06
655.418	146.06
655.622	157.06
655.826	155.06
656.03	137.06
656.234	156.06
656.438	132.06
656.642	127.06
656.846	135.06
657.049	140.06
657.253	128.06
657.457	140.06
657.661	132.06
657.865	125.06
658.068	122.06
658.272	112.06
658.476	97.06
658.68	116.06
658.883	116.06
659.087	113.06
659.291	106.06
659.494	102.06
659.698	100.06
659.901	99.06
660.105	101.06
660.309	115.06
660.512	92.06
660.716	101.06
660.919	99.06
661.123	97.06
661.326	87.06
661.53	84.06
661.733	91.06
661.936	100.06
662.14	69.06
662.343	90.06
662.546	76.06
662.75	90.06
662.953	84.06
663.156	78.06
663.36	78.06
663.563	71.06
663.766	78.06
663.969	88.06
664.173	82.06
664.376	90.06
664.579	78.06
664.782	94.06
664.985	88.06
665.188	82.06
665.391	82.06
665.594	84.06
665.797	83.06
666	88.06
666.203	84.06
666.406	81.06
666.609	98.06
666.812	78.06
667.015	74.06
667.218	81.06
667.421	81.06
667.624	85.06
667.827	85.06
668.03	75.06
668.232	73.06
668.435	72.06
668.638	77.06
668.841	75.06
669.043	85.06
669.246	86.06
669.449	88.06
669.651	84.06
669.854	89.06
670.057	76.06
670.259	83.06
670.462	87.06
670.665	77.06
670.867	85.06
671.07	78.06
671.272	73.06
671.475	75.06
671.677	86.06
671.88	87.06
672.082	90.06
672.284	88.06
672.487	99.06
672.689	75.06
672.892	85.06
