Data from NiCl2@0.0625M.TitratingCurve.Agarose3%dH2O.NegLispCup.LampEnergy10.LIBS07252019_HRD10591_18-33-51-577.txt Node
Date: Thu Jul 25 18:33:51 EDT 2019
User: cochatt
Spectrometer: HR+D1059
Trigger mode: 1
Integration Time (sec): 1.000000E-1
Scans to average: 1
Electric dark correction enabled: true
Nonlinearity correction enabled: false
Boxcar width: 0
XAxis mode: Wavelengths
Number of Pixels in Spectrum: 2048
>>>>>Begin Spectral Data<<<<<
223.165	-16.38
223.4	-16.38
223.635	-16.38
223.869	-5.38
224.104	-11.38
224.338	-26.38
224.573	-5.38
224.808	-24.38
225.042	-14.38
225.277	-16.38
225.511	-8.38
225.746	9.62
225.98	13.62
226.215	13.62
226.449	13.62
226.683	22.62
226.918	32.62
227.152	22.62
227.387	30.62
227.621	34.62
227.856	42.62
228.09	47.62
228.324	46.62
228.559	59.62
228.793	78.62
229.027	127.62
229.262	162.62
229.496	153.62
229.73	164.62
229.964	175.62
230.199	178.62
230.433	201.62
230.667	188.62
230.901	188.62
231.136	192.62
231.37	191.62
231.604	196.62
231.838	197.62
232.072	211.62
232.306	215.62
232.541	204.62
232.775	210.62
233.009	212.62
233.243	209.62
233.477	214.62
233.711	226.62
233.945	216.62
234.179	223.62
234.413	220.62
234.647	222.62
234.881	217.62
235.115	230.62
235.349	241.62
235.583	218.62
235.817	215.62
236.051	219.62
236.285	234.62
236.519	238.62
236.753	230.62
236.987	236.62
237.221	241.62
237.455	257.62
237.689	239.62
237.922	238.62
238.156	237.62
238.39	230.62
238.624	222.62
238.858	258.62
239.091	255.62
239.325	271.62
239.559	273.62
239.793	273.62
240.027	281.62
240.26	272.62
240.494	288.62
240.728	275.62
240.961	283.62
241.195	287.62
241.429	295.62
241.662	284.62
241.896	307.62
242.13	299.62
242.363	304.62
242.597	299.62
242.83	304.62
243.064	313.62
243.298	331.62
243.531	327.62
243.765	338.62
243.998	326.62
244.232	345.62
244.465	331.62
244.699	350.62
244.932	332.62
245.166	352.62
245.399	367.62
245.633	354.62
245.866	326.62
246.099	353.62
246.333	359.62
246.566	370.62
246.8	359.62
247.033	382.62
247.266	370.62
247.5	368.62
247.733	377.62
247.966	375.62
248.2	375.62
248.433	402.62
248.666	399.62
248.899	387.62
249.133	388.62
249.366	405.62
249.599	380.62
249.832	392.62
250.066	405.62
250.299	403.62
250.532	392.62
250.765	402.62
250.998	421.62
251.231	438.62
251.465	427.62
251.698	448.62
251.931	443.62
252.164	438.62
252.397	447.62
252.63	444.62
252.863	439.62
253.096	440.62
253.329	476.62
253.562	449.62
253.795	458.62
254.028	448.62
254.261	433.62
254.494	466.62
254.727	454.62
254.96	466.62
255.193	487.62
255.426	460.62
255.659	450.62
255.892	497.62
256.124	479.62
256.357	481.62
256.59	510.62
256.823	486.62
257.056	482.62
257.289	500.62
257.521	494.62
257.754	502.62
257.987	507.62
258.22	522.62
258.452	522.62
258.685	513.62
258.918	504.62
259.151	538.62
259.383	535.62
259.616	525.62
259.849	539.62
260.081	544.62
260.314	525.62
260.547	535.62
260.779	539.62
261.012	545.62
261.244	550.62
261.477	540.62
261.71	551.62
261.942	566.62
262.175	550.62
262.407	553.62
262.64	553.62
262.872	575.62
263.105	570.62
263.337	572.62
263.57	575.62
263.802	583.62
264.035	599.62
264.267	595.62
264.499	602.62
264.732	580.62
264.964	597.62
265.197	588.62
265.429	611.62
265.661	587.62
265.894	622.62
266.126	580.62
266.358	606.62
266.591	615.62
266.823	623.62
267.055	617.62
267.287	634.62
267.52	640.62
267.752	632.62
267.984	631.62
268.216	660.62
268.448	648.62
268.681	658.62
268.913	634.62
269.145	640.62
269.377	644.62
269.609	656.62
269.841	655.62
270.073	662.62
270.306	650.62
270.538	658.62
270.77	657.62
271.002	670.62
271.234	652.62
271.466	673.62
271.698	648.62
271.93	674.62
272.162	699.62
272.394	708.62
272.626	680.62
272.858	694.62
273.09	679.62
273.322	712.62
273.553	707.62
273.785	709.62
274.017	695.62
274.249	714.62
274.481	704.62
274.713	698.62
274.945	727.62
275.176	744.62
275.408	735.62
275.64	728.62
275.872	731.62
276.104	755.62
276.335	732.62
276.567	728.62
276.799	743.62
277.031	748.62
277.262	756.62
277.494	745.62
277.726	739.62
277.957	742.62
278.189	758.62
278.421	754.62
278.652	746.62
278.884	773.62
279.115	759.62
279.347	796.62
279.579	786.62
279.81	804.62
280.042	794.62
280.273	779.62
280.505	801.62
280.736	811.62
280.968	810.62
281.199	796.62
281.431	796.62
281.662	803.62
281.894	832.62
282.125	820.62
282.356	822.62
282.588	841.62
282.819	847.62
283.051	852.62
283.282	834.62
283.513	848.62
283.745	851.62
283.976	856.62
284.207	839.62
284.439	869.62
284.67	855.62
284.901	861.62
285.132	872.62
285.364	882.62
285.595	838.62
285.826	857.62
286.057	861.62
286.288	852.62
286.52	887.62
286.751	868.62
286.982	866.62
287.213	879.62
287.444	894.62
287.675	907.62
287.906	895.62
288.138	918.62
288.369	896.62
288.6	914.62
288.831	887.62
289.062	884.62
289.293	922.62
289.524	924.62
289.755	898.62
289.986	914.62
290.217	916.62
290.448	928.62
290.679	955.62
290.91	948.62
291.141	919.62
291.371	915.62
291.602	951.62
291.833	933.62
292.064	943.62
292.295	908.62
292.526	919.62
292.757	914.62
292.987	920.62
293.218	925.62
293.449	955.62
293.68	934.62
293.91	918.62
294.141	943.62
294.372	924.62
294.603	947.62
294.833	972.62
295.064	930.62
295.295	936.62
295.525	955.62
295.756	923.62
295.987	952.62
296.217	941.62
296.448	960.62
296.679	962.62
296.909	958.62
297.14	979.62
297.37	993.62
297.601	982.62
297.831	999.62
298.062	987.62
298.292	1013.62
298.523	1022.62
298.753	1045.62
298.984	997.62
299.214	1002.62
299.445	1036.62
299.675	1010.62
299.905	1008.62
300.136	997.62
300.366	994.62
300.597	1035.62
300.827	1023.62
301.057	1033.62
301.288	1036.62
301.518	1042.62
301.748	1074.62
301.979	1100.62
302.209	1077.62
302.439	1040.62
302.669	1037.62
302.9	1066.62
303.13	1042.62
303.36	1068.62
303.59	1042.62
303.82	1035.62
304.051	1076.62
304.281	1060.62
304.511	1054.62
304.741	1055.62
304.971	1050.62
305.201	1062.62
305.431	1070.62
305.661	1057.62
305.891	1052.62
306.121	1018.62
306.352	1063.62
306.582	1057.62
306.812	1082.62
307.042	1035.62
307.272	1053.62
307.502	1031.62
307.731	1042.62
307.961	1038.62
308.191	1060.62
308.421	1054.62
308.651	1052.62
308.881	1027.62
309.111	1030.62
309.341	1024.62
309.571	1056.62
309.8	1063.62
310.03	1050.62
310.26	1065.62
310.49	1057.62
310.72	1070.62
310.949	1044.62
311.179	1052.62
311.409	1075.62
311.639	1124.62
311.868	1102.62
312.098	1070.62
312.328	1070.62
312.557	1095.62
312.787	1121.62
313.017	1112.62
313.246	1093.62
313.476	1122.62
313.706	1149.62
313.935	1159.62
314.165	1146.62
314.394	1120.62
314.624	1141.62
314.853	1146.62
315.083	1172.62
315.312	1152.62
315.542	1156.62
315.771	1102.62
316.001	1140.62
316.23	1117.62
316.46	1108.62
316.689	1138.62
316.919	1144.62
317.148	1125.62
317.377	1136.62
317.607	1120.62
317.836	1127.62
318.065	1113.62
318.295	1128.62
318.524	1118.62
318.753	1107.62
318.983	1114.62
319.212	1139.62
319.441	1126.62
319.67	1126.62
319.9	1112.62
320.129	1112.62
320.358	1119.62
320.587	1128.62
320.816	1143.62
321.046	1136.62
321.275	1168.62
321.504	1153.62
321.733	1134.62
321.962	1140.62
322.191	1154.62
322.42	1146.62
322.649	1145.62
322.878	1157.62
323.108	1166.62
323.337	1145.62
323.566	1150.62
323.795	1176.62
324.024	1184.62
324.253	1168.62
324.482	1153.62
324.71	1171.62
324.939	1174.62
325.168	1199.62
325.397	1174.62
325.626	1185.62
325.855	1219.62
326.084	1212.62
326.313	1244.62
326.542	1208.62
326.77	1254.62
326.999	1217.62
327.228	1227.62
327.457	1241.62
327.686	1215.62
327.914	1216.62
328.143	1179.62
328.372	1238.62
328.6	1225.62
328.829	1225.62
329.058	1256.62
329.287	1230.62
329.515	1249.62
329.744	1235.62
329.972	1253.62
330.201	1290.62
330.43	1304.62
330.658	1273.62
330.887	1283.62
331.115	1270.62
331.344	1288.62
331.572	1337.62
331.801	1319.62
332.03	1321.62
332.258	1349.62
332.486	1396.62
332.715	1418.62
332.943	1426.62
333.172	1483.62
333.4	1511.62
333.629	1536.62
333.857	1543.62
334.085	1567.62
334.314	1591.62
334.542	1576.62
334.771	1578.62
334.999	1558.62
335.227	1515.62
335.455	1482.62
335.684	1501.62
335.912	1497.62
336.14	1490.62
336.369	1522.62
336.597	1485.62
336.825	1500.62
337.053	1460.62
337.281	1444.62
337.51	1434.62
337.738	1418.62
337.966	1354.62
338.194	1377.62
338.422	1366.62
338.65	1355.62
338.878	1349.62
339.106	1359.62
339.334	1360.62
339.562	1337.62
339.79	1342.62
340.018	1319.62
340.246	1287.62
340.474	1320.62
340.702	1296.62
340.93	1303.62
341.158	1304.62
341.386	1288.62
341.614	1323.62
341.842	1290.62
342.07	1292.62
342.298	1285.62
342.526	1282.62
342.754	1296.62
342.981	1296.62
343.209	1297.62
343.437	1339.62
343.665	1431.62
343.893	1507.62
344.12	1543.62
344.348	1534.62
344.576	1425.62
344.804	1394.62
345.031	1335.62
345.259	1322.62
345.487	1313.62
345.714	1273.62
345.942	1238.62
346.17	1290.62
346.397	1273.62
346.625	1259.62
346.853	1220.62
347.08	1235.62
347.308	1268.62
347.535	1250.62
347.763	1227.62
347.99	1249.62
348.218	1255.62
348.445	1212.62
348.673	1233.62
348.9	1229.62
349.128	1220.62
349.355	1239.62
349.583	1238.62
349.81	1219.62
350.037	1194.62
350.265	1169.62
350.492	1191.62
350.72	1204.62
350.947	1234.62
351.174	1219.62
351.402	1192.62
351.629	1207.62
351.856	1204.62
352.083	1203.62
352.311	1187.62
352.538	1190.62
352.765	1204.62
352.992	1170.62
353.22	1211.62
353.447	1178.62
353.674	1195.62
353.901	1176.62
354.128	1180.62
354.355	1194.62
354.583	1188.62
354.81	1180.62
355.037	1216.62
355.264	1195.62
355.491	1196.62
355.718	1192.62
355.945	1183.62
356.172	1224.62
356.399	1217.62
356.626	1208.62
356.853	1219.62
357.08	1210.62
357.307	1219.62
357.534	1215.62
357.761	1186.62
357.988	1202.62
358.215	1209.62
358.441	1232.62
358.668	1155.62
358.895	1206.62
359.122	1170.62
359.349	1222.62
359.576	1200.62
359.802	1211.62
360.029	1236.62
360.256	1182.62
360.483	1178.62
360.709	1210.62
360.936	1214.62
361.163	1216.62
361.39	1213.62
361.616	1190.62
361.843	1213.62
362.07	1232.62
362.296	1190.62
362.523	1200.62
362.749	1216.62
362.976	1205.62
363.203	1216.62
363.429	1217.62
363.656	1204.62
363.882	1194.62
364.109	1240.62
364.335	1176.62
364.562	1207.62
364.788	1207.62
365.015	1199.62
365.241	1216.62
365.468	1172.62
365.694	1198.62
365.92	1205.62
366.147	1211.62
366.373	1235.62
366.599	1235.62
366.826	1183.62
367.052	1224.62
367.278	1193.62
367.505	1193.62
367.731	1217.62
367.957	1210.62
368.184	1214.62
368.41	1202.62
368.636	1234.62
368.862	1259.62
369.089	1224.62
369.315	1243.62
369.541	1222.62
369.767	1218.62
369.993	1250.62
370.219	1247.62
370.445	1269.62
370.672	1303.62
370.898	1275.62
371.124	1258.62
371.35	1305.62
371.576	1305.62
371.802	1287.62
372.028	1274.62
372.254	1302.62
372.48	1331.62
372.706	1333.62
372.932	1362.62
373.158	1333.62
373.384	1346.62
373.61	1312.62
373.835	1323.62
374.061	1274.62
374.287	1316.62
374.513	1331.62
374.739	1378.62
374.965	1393.62
375.191	1410.62
375.416	1376.62
375.642	1404.62
375.868	1355.62
376.094	1339.62
376.319	1321.62
376.545	1327.62
376.771	1324.62
376.997	1328.62
377.222	1311.62
377.448	1299.62
377.674	1310.62
377.899	1278.62
378.125	1265.62
378.35	1271.62
378.576	1335.62
378.802	1300.62
379.027	1300.62
379.253	1264.62
379.478	1298.62
379.704	1295.62
379.929	1315.62
380.155	1289.62
380.38	1247.62
380.606	1295.62
380.831	1288.62
381.057	1289.62
381.282	1306.62
381.507	1290.62
381.733	1333.62
381.958	1300.62
382.184	1342.62
382.409	1358.62
382.634	1365.62
382.86	1338.62
383.085	1378.62
383.31	1394.62
383.535	1419.62
383.761	1414.62
383.986	1452.62
384.211	1433.62
384.436	1446.62
384.662	1486.62
384.887	1512.62
385.112	1493.62
385.337	1533.62
385.562	1511.62
385.787	1543.62
386.013	1563.62
386.238	1573.62
386.463	1569.62
386.688	1566.62
386.913	1549.62
387.138	1569.62
387.363	1538.62
387.588	1497.62
387.813	1544.62
388.038	1543.62
388.263	1502.62
388.488	1542.62
388.713	1557.62
388.938	1501.62
389.163	1510.62
389.387	1531.62
389.612	1545.62
389.837	1536.62
390.062	1515.62
390.287	1556.62
390.512	1527.62
390.736	1536.62
390.961	1558.62
391.186	1580.62
391.411	1645.62
391.636	1641.62
391.86	1688.62
392.085	1716.62
392.31	1716.62
392.534	1698.62
392.759	1659.62
392.984	1615.62
393.208	1632.62
393.433	1648.62
393.658	1649.62
393.882	1605.62
394.107	1618.62
394.331	1586.62
394.556	1619.62
394.78	1687.62
395.005	1630.62
395.229	1687.62
395.454	1708.62
395.678	1742.62
395.903	1743.62
396.127	1690.62
396.352	1714.62
396.576	1625.62
396.801	1637.62
397.025	1692.62
397.249	1718.62
397.474	1739.62
397.698	1706.62
397.922	1718.62
398.147	1708.62
398.371	1748.62
398.595	1823.62
398.82	1896.62
399.044	1984.62
399.268	2138.62
399.492	2377.62
399.717	2625.62
399.941	2602.62
400.165	2448.62
400.389	2230.62
400.613	2131.62
400.837	2013.62
401.062	1968.62
401.286	1926.62
401.51	1912.62
401.734	1895.62
401.958	1909.62
402.182	1944.62
402.406	1920.62
402.63	1950.62
402.854	1916.62
403.078	1988.62
403.302	2014.62
403.526	2059.62
403.75	2024.62
403.974	2102.62
404.198	2079.62
404.422	2098.62
404.645	2094.62
404.869	2064.62
405.093	2067.62
405.317	2114.62
405.541	2024.62
405.765	2069.62
405.988	2091.62
406.212	2070.62
406.436	2071.62
406.66	2125.62
406.883	2114.62
407.107	2239.62
407.331	2356.62
407.555	2453.62
407.778	2392.62
408.002	2301.62
408.226	2307.62
408.449	2250.62
408.673	2194.62
408.896	2145.62
409.12	2143.62
409.344	2172.62
409.567	2124.62
409.791	2120.62
410.014	2138.62
410.238	2111.62
410.461	2119.62
410.685	2086.62
410.908	2054.62
411.132	2075.62
411.355	2001.62
411.578	2020.62
411.802	2019.62
412.025	2024.62
412.249	2058.62
412.472	2035.62
412.695	1950.62
412.919	1915.62
413.142	1899.62
413.365	1968.62
413.589	1908.62
413.812	1935.62
414.035	1881.62
414.258	1922.62
414.482	1902.62
414.705	1961.62
414.928	1896.62
415.151	1895.62
415.374	1890.62
415.597	1883.62
415.821	1848.62
416.044	1872.62
416.267	1847.62
416.49	1841.62
416.713	1858.62
416.936	1825.62
417.159	1842.62
417.382	1835.62
417.605	1782.62
417.828	1831.62
418.051	1805.62
418.274	1854.62
418.497	1826.62
418.72	1862.62
418.943	1889.62
419.166	2006.62
419.389	2093.62
419.611	2114.62
419.834	2020.62
420.057	1928.62
420.28	1866.62
420.503	1838.62
420.726	1784.62
420.948	1815.62
421.171	1815.62
421.394	1828.62
421.617	1816.62
421.839	1850.62
422.062	1852.62
422.285	1824.62
422.507	1854.62
422.73	1857.62
422.953	1823.62
423.175	1892.62
423.398	1885.62
423.621	1858.62
423.843	1886.62
424.066	1882.62
424.288	1874.62
424.511	1861.62
424.733	1851.62
424.956	1850.62
425.178	1850.62
425.401	1862.62
425.623	1830.62
425.846	1805.62
426.068	1809.62
426.291	1765.62
426.513	1750.62
426.735	1734.62
426.958	1752.62
427.18	1655.62
427.402	1744.62
427.625	1761.62
427.847	1673.62
428.069	1660.62
428.292	1697.62
428.514	1682.62
428.736	1662.62
428.958	1729.62
429.181	1674.62
429.403	1653.62
429.625	1648.62
429.847	1629.62
430.069	1638.62
430.292	1664.62
430.514	1636.62
430.736	1660.62
430.958	1674.62
431.18	1690.62
431.402	1708.62
431.624	1664.62
431.846	1719.62
432.068	1700.62
432.29	1702.62
432.512	1665.62
432.734	1686.62
432.956	1667.62
433.178	1682.62
433.4	1730.62
433.622	1732.62
433.844	1716.62
434.066	1715.62
434.287	1762.62
434.509	1785.62
434.731	1859.62
434.953	1868.62
435.175	1862.62
435.397	1818.62
435.618	1785.62
435.84	1743.62
436.062	1696.62
436.284	1674.62
436.505	1670.62
436.727	1709.62
436.949	1690.62
437.17	1694.62
437.392	1665.62
437.614	1649.62
437.835	1594.62
438.057	1610.62
438.278	1594.62
438.5	1577.62
438.721	1602.62
438.943	1621.62
439.165	1568.62
439.386	1624.62
439.608	1655.62
439.829	1631.62
440.05	1680.62
440.272	1631.62
440.493	1665.62
440.715	1676.62
440.936	1696.62
441.158	1700.62
441.379	1704.62
441.6	1822.62
441.822	1826.62
442.043	1828.62
442.264	1803.62
442.486	1774.62
442.707	1790.62
442.928	1768.62
443.149	1775.62
443.371	1729.62
443.592	1774.62
443.813	1833.62
444.034	1814.62
444.255	1851.62
444.476	1935.62
444.698	1984.62
444.919	2061.62
445.14	2142.62
445.361	1952.62
445.582	1807.62
445.803	1790.62
446.024	1700.62
446.245	1722.62
446.466	1702.62
446.687	1662.62
446.908	1652.62
447.129	1624.62
447.35	1586.62
447.571	1548.62
447.792	1572.62
448.013	1540.62
448.234	1524.62
448.455	1505.62
448.675	1510.62
448.896	1487.62
449.117	1491.62
449.338	1483.62
449.559	1480.62
449.779	1513.62
450	1478.62
450.221	1478.62
450.442	1483.62
450.662	1468.62
450.883	1490.62
451.104	1484.62
451.324	1496.62
451.545	1511.62
451.766	1506.62
451.986	1465.62
452.207	1494.62
452.428	1476.62
452.648	1448.62
452.869	1425.62
453.089	1439.62
453.31	1439.62
453.53	1429.62
453.751	1434.62
453.971	1449.62
454.192	1471.62
454.412	1446.62
454.633	1400.62
454.853	1416.62
455.073	1412.62
455.294	1389.62
455.514	1410.62
455.734	1390.62
455.955	1393.62
456.175	1376.62
456.395	1417.62
456.616	1378.62
456.836	1408.62
457.056	1438.62
457.276	1381.62
457.497	1430.62
457.717	1426.62
457.937	1433.62
458.157	1442.62
458.377	1463.62
458.598	1499.62
458.818	1523.62
459.038	1567.62
459.258	1591.62
459.478	1672.62
459.698	1632.62
459.918	1707.62
460.138	1719.62
460.358	1826.62
460.578	1822.62
460.798	1873.62
461.018	1906.62
461.238	1895.62
461.458	1863.62
461.678	1858.62
461.898	1895.62
462.118	1888.62
462.338	1964.62
462.558	1987.62
462.777	2094.62
462.997	2199.62
463.217	2345.62
463.437	2374.62
463.657	2230.62
463.876	2158.62
464.096	2144.62
464.316	2153.62
464.536	2135.62
464.755	2083.62
464.975	2016.62
465.195	1908.62
465.414	1881.62
465.634	1756.62
465.854	1672.62
466.073	1689.62
466.293	1695.62
466.512	1603.62
466.732	1587.62
466.951	1605.62
467.171	1576.62
467.391	1554.62
467.61	1551.62
467.829	1577.62
468.049	1548.62
468.268	1536.62
468.488	1503.62
468.707	1512.62
468.927	1531.62
469.146	1507.62
469.365	1542.62
469.585	1538.62
469.804	1530.62
470.023	1592.62
470.243	1613.62
470.462	1606.62
470.681	1575.62
470.901	1607.62
471.12	1569.62
471.339	1564.62
471.558	1584.62
471.777	1562.62
471.997	1526.62
472.216	1505.62
472.435	1544.62
472.654	1532.62
472.873	1483.62
473.092	1485.62
473.311	1487.62
473.53	1498.62
473.749	1506.62
473.968	1487.62
474.187	1529.62
474.406	1508.62
474.625	1544.62
474.844	1512.62
475.063	1516.62
475.282	1517.62
475.501	1549.62
475.72	1583.62
475.939	1570.62
476.158	1575.62
476.377	1580.62
476.596	1625.62
476.814	1643.62
477.033	1604.62
477.252	1642.62
477.471	1660.62
477.69	1703.62
477.908	1718.62
478.127	1807.62
478.346	1799.62
478.564	1816.62
478.783	1866.62
479.002	1872.62
479.22	1881.62
479.439	1868.62
479.658	1886.62
479.876	1890.62
480.095	1898.62
480.313	1992.62
480.532	1998.62
480.751	2011.62
480.969	1997.62
481.188	1949.62
481.406	1890.62
481.624	1862.62
481.843	1857.62
482.061	1877.62
482.28	1833.62
482.498	1809.62
482.717	1825.62
482.935	1890.62
483.153	1872.62
483.372	1900.62
483.59	1907.62
483.808	1888.62
484.027	1896.62
484.245	1913.62
484.463	1924.62
484.681	1968.62
484.9	1961.62
485.118	2006.62
485.336	2027.62
485.554	2033.62
485.772	2035.62
485.99	2049.62
486.209	2058.62
486.427	2038.62
486.645	2007.62
486.863	2054.62
487.081	1996.62
487.299	2032.62
487.517	2002.62
487.735	1956.62
487.953	1984.62
488.171	2006.62
488.389	1971.62
488.607	1989.62
488.825	1899.62
489.043	1943.62
489.261	1932.62
489.479	1941.62
489.696	1929.62
489.914	1907.62
490.132	1951.62
490.35	1917.62
490.568	1912.62
490.786	1927.62
491.003	1918.62
491.221	1954.62
491.439	1903.62
491.657	1911.62
491.874	1932.62
492.092	1925.62
492.31	1900.62
492.527	1968.62
492.745	1890.62
492.963	1912.62
493.18	1893.62
493.398	1894.62
493.615	1921.62
493.833	1925.62
494.05	1901.62
494.268	1938.62
494.485	1914.62
494.703	1931.62
494.92	1942.62
495.138	1910.62
495.355	1938.62
495.573	1956.62
495.79	1947.62
496.008	1976.62
496.225	1972.62
496.442	2006.62
496.66	2014.62
496.877	2043.62
497.094	2109.62
497.312	2128.62
497.529	2127.62
497.746	2155.62
497.963	2208.62
498.181	2288.62
498.398	2405.62
498.615	2518.62
498.832	2662.62
499.049	2827.62
499.267	3053.62
499.484	3287.62
499.701	3535.62
499.918	3785.62
500.135	4208.62
500.352	4610.62
500.569	4712.62
500.786	4718.62
501.003	4486.62
501.22	4119.62
501.437	3796.62
501.654	3408.62
501.871	3171.62
502.088	2984.62
502.305	2834.62
502.522	2674.62
502.739	2550.62
502.956	2463.62
503.172	2350.62
503.389	2209.62
503.606	2200.62
503.823	2161.62
504.04	2166.62
504.256	2159.62
504.473	2173.62
504.69	2135.62
504.907	2120.62
505.123	2044.62
505.34	1962.62
505.557	1842.62
505.773	1851.62
505.99	1808.62
506.207	1751.62
506.423	1738.62
506.64	1759.62
506.856	1699.62
507.073	1682.62
507.289	1694.62
507.506	1674.62
507.722	1658.62
507.939	1684.62
508.155	1632.62
508.372	1624.62
508.588	1600.62
508.805	1574.62
509.021	1557.62
509.238	1585.62
509.454	1539.62
509.67	1550.62
509.887	1552.62
510.103	1518.62
510.319	1524.62
510.536	1513.62
510.752	1484.62
510.968	1538.62
511.184	1516.62
511.401	1534.62
511.617	1529.62
511.833	1523.62
512.049	1452.62
512.265	1524.62
512.481	1489.62
512.698	1490.62
512.914	1495.62
513.13	1503.62
513.346	1474.62
513.562	1473.62
513.778	1486.62
513.994	1476.62
514.21	1506.62
514.426	1520.62
514.642	1530.62
514.858	1515.62
515.074	1563.62
515.29	1587.62
515.506	1542.62
515.721	1598.62
515.937	1631.62
516.153	1617.62
516.369	1637.62
516.585	1714.62
516.801	1719.62
517.016	1818.62
517.232	1868.62
517.448	1922.62
517.664	1907.62
517.879	1955.62
518.095	1948.62
518.311	1903.62
518.527	1844.62
518.742	1792.62
518.958	1755.62
519.173	1738.62
519.389	1698.62
519.605	1646.62
519.82	1582.62
520.036	1587.62
520.251	1554.62
520.467	1519.62
520.682	1514.62
520.898	1488.62
521.113	1451.62
521.329	1472.62
521.544	1428.62
521.76	1448.62
521.975	1419.62
522.19	1442.62
522.406	1440.62
522.621	1418.62
522.836	1393.62
523.052	1406.62
523.267	1379.62
523.482	1351.62
523.698	1382.62
523.913	1339.62
524.128	1366.62
524.343	1336.62
524.559	1373.62
524.774	1322.62
524.989	1355.62
525.204	1332.62
525.419	1340.62
525.634	1353.62
525.849	1338.62
526.064	1354.62
526.28	1291.62
526.495	1333.62
526.71	1335.62
526.925	1297.62
527.14	1329.62
527.355	1311.62
527.57	1306.62
527.785	1363.62
527.999	1351.62
528.214	1339.62
528.429	1335.62
528.644	1293.62
528.859	1311.62
529.074	1312.62
529.289	1322.62
529.503	1297.62
529.718	1316.62
529.933	1306.62
530.148	1315.62
530.363	1292.62
530.577	1324.62
530.792	1310.62
531.007	1315.62
531.221	1306.62
531.436	1313.62
531.651	1314.62
531.865	1329.62
532.08	1305.62
532.295	1304.62
532.509	1298.62
532.724	1320.62
532.938	1354.62
533.153	1321.62
533.367	1311.62
533.582	1294.62
533.796	1304.62
534.011	1324.62
534.225	1300.62
534.44	1288.62
534.654	1291.62
534.868	1281.62
535.083	1280.62
535.297	1259.62
535.511	1227.62
535.726	1273.62
535.94	1294.62
536.154	1251.62
536.369	1206.62
536.583	1206.62
536.797	1236.62
537.011	1252.62
537.225	1197.62
537.44	1222.62
537.654	1234.62
537.868	1242.62
538.082	1216.62
538.296	1187.62
538.51	1170.62
538.724	1210.62
538.938	1172.62
539.153	1210.62
539.367	1183.62
539.581	1202.62
539.795	1146.62
540.009	1178.62
540.222	1164.62
540.436	1180.62
540.65	1156.62
540.864	1169.62
541.078	1150.62
541.292	1191.62
541.506	1162.62
541.72	1175.62
541.934	1144.62
542.147	1159.62
542.361	1162.62
542.575	1147.62
542.789	1140.62
543.002	1155.62
543.216	1152.62
543.43	1151.62
543.644	1128.62
543.857	1146.62
544.071	1144.62
544.285	1132.62
544.498	1160.62
544.712	1147.62
544.925	1177.62
545.139	1169.62
545.352	1150.62
545.566	1162.62
545.779	1172.62
545.993	1198.62
546.206	1175.62
546.42	1174.62
546.633	1162.62
546.847	1174.62
547.06	1159.62
547.274	1169.62
547.487	1170.62
547.7	1146.62
547.914	1154.62
548.127	1179.62
548.34	1178.62
548.554	1190.62
548.767	1189.62
548.98	1178.62
549.193	1176.62
549.407	1149.62
549.62	1202.62
549.833	1215.62
550.046	1167.62
550.259	1188.62
550.473	1152.62
550.686	1154.62
550.899	1159.62
551.112	1166.62
551.325	1166.62
551.538	1152.62
551.751	1152.62
551.964	1182.62
552.177	1207.62
552.39	1186.62
552.603	1188.62
552.816	1224.62
553.029	1250.62
553.242	1222.62
553.455	1250.62
553.667	1266.62
553.88	1206.62
554.093	1202.62
554.306	1193.62
554.519	1154.62
554.732	1144.62
554.944	1123.62
555.157	1110.62
555.37	1107.62
555.583	1090.62
555.795	1076.62
556.008	1055.62
556.221	1055.62
556.433	1055.62
556.646	1028.62
556.859	1009.62
557.071	1040.62
557.284	1050.62
557.496	1010.62
557.709	1012.62
557.921	1027.62
558.134	973.62
558.346	974.62
558.559	972.62
558.771	967.62
558.984	982.62
559.196	964.62
559.409	982.62
559.621	977.62
559.833	967.62
560.046	956.62
560.258	974.62
560.47	975.62
560.683	976.62
560.895	987.62
561.107	950.62
561.32	980.62
561.532	954.62
561.744	962.62
561.956	919.62
562.168	992.62
562.381	998.62
562.593	968.62
562.805	948.62
563.017	951.62
563.229	956.62
563.441	987.62
563.653	974.62
563.865	983.62
564.077	992.62
564.289	989.62
564.501	1028.62
564.713	1012.62
564.925	1030.62
565.137	1066.62
565.349	1079.62
565.561	1103.62
565.773	1103.62
565.985	1186.62
566.197	1229.62
566.408	1280.62
566.62	1343.62
566.832	1448.62
567.044	1506.62
567.255	1501.62
567.467	1556.62
567.679	1603.62
567.891	1696.62
568.102	1656.62
568.314	1594.62
568.526	1451.62
568.737	1373.62
568.949	1298.62
569.161	1226.62
569.372	1129.62
569.584	1052.62
569.795	1061.62
570.007	1035.62
570.218	1031.62
570.43	998.62
570.641	970.62
570.853	971.62
571.064	991.62
571.276	972.62
571.487	907.62
571.698	914.62
571.91	881.62
572.121	896.62
572.333	891.62
572.544	834.62
572.755	817.62
572.966	835.62
573.178	824.62
573.389	818.62
573.6	801.62
573.811	793.62
574.023	809.62
574.234	793.62
574.445	796.62
574.656	758.62
574.867	779.62
575.078	790.62
575.289	770.62
575.501	778.62
575.712	756.62
575.923	759.62
576.134	735.62
576.345	742.62
576.556	727.62
576.767	749.62
576.978	741.62
577.188	738.62
577.399	737.62
577.61	718.62
577.821	711.62
578.032	713.62
578.243	691.62
578.454	728.62
578.665	711.62
578.875	698.62
579.086	687.62
579.297	670.62
579.508	682.62
579.718	697.62
579.929	709.62
580.14	677.62
580.35	663.62
580.561	665.62
580.772	681.62
580.982	677.62
581.193	643.62
581.403	675.62
581.614	688.62
581.825	670.62
582.035	658.62
582.246	648.62
582.456	654.62
582.667	670.62
582.877	663.62
583.087	643.62
583.298	679.62
583.508	670.62
583.719	665.62
583.929	655.62
584.139	664.62
584.35	638.62
584.56	672.62
584.77	642.62
584.981	620.62
585.191	625.62
585.401	638.62
585.611	643.62
585.821	652.62
586.032	632.62
586.242	635.62
586.452	646.62
586.662	618.62
586.872	627.62
587.082	622.62
587.292	634.62
587.502	633.62
587.713	634.62
587.923	611.62
588.133	626.62
588.343	631.62
588.553	602.62
588.762	611.62
588.972	606.62
589.182	660.62
589.392	617.62
589.602	627.62
589.812	626.62
590.022	631.62
590.232	616.62
590.441	622.62
590.651	647.62
590.861	659.62
591.071	628.62
591.281	635.62
591.49	665.62
591.7	671.62
591.91	692.62
592.119	663.62
592.329	646.62
592.539	708.62
592.748	723.62
592.958	717.62
593.167	725.62
593.377	726.62
593.587	744.62
593.796	722.62
594.006	758.62
594.215	751.62
594.424	758.62
594.634	723.62
594.843	734.62
595.053	705.62
595.262	650.62
595.472	648.62
595.681	633.62
595.89	648.62
596.1	640.62
596.309	602.62
596.518	586.62
596.727	607.62
596.937	597.62
597.146	572.62
597.355	565.62
597.564	539.62
597.774	559.62
597.983	531.62
598.192	550.62
598.401	550.62
598.61	532.62
598.819	545.62
599.028	532.62
599.237	554.62
599.446	539.62
599.655	536.62
599.864	533.62
600.073	527.62
600.282	502.62
600.491	521.62
600.7	514.62
600.909	518.62
601.118	524.62
601.327	505.62
601.536	512.62
601.745	498.62
601.953	504.62
602.162	529.62
602.371	497.62
602.58	487.62
602.789	486.62
602.997	486.62
603.206	488.62
603.415	479.62
603.623	492.62
603.832	475.62
604.041	489.62
604.249	487.62
604.458	483.62
604.666	474.62
604.875	489.62
605.084	482.62
605.292	452.62
605.501	474.62
605.709	472.62
605.918	475.62
606.126	480.62
606.334	466.62
606.543	490.62
606.751	481.62
606.96	438.62
607.168	458.62
607.376	455.62
607.585	441.62
607.793	462.62
608.001	468.62
608.21	452.62
608.418	436.62
608.626	436.62
608.834	461.62
609.043	470.62
609.251	452.62
609.459	472.62
609.667	466.62
609.875	466.62
610.083	455.62
610.291	462.62
610.499	456.62
610.707	455.62
610.916	442.62
611.124	455.62
611.332	440.62
611.54	458.62
611.748	441.62
611.955	449.62
612.163	432.62
612.371	444.62
612.579	424.62
612.787	448.62
612.995	414.62
613.203	424.62
613.411	454.62
613.618	441.62
613.826	446.62
614.034	426.62
614.242	444.62
614.449	440.62
614.657	432.62
614.865	426.62
615.072	434.62
615.28	420.62
615.488	430.62
615.695	432.62
615.903	423.62
616.111	447.62
616.318	441.62
616.526	442.62
616.733	453.62
616.941	439.62
617.148	449.62
617.356	457.62
617.563	446.62
617.771	423.62
617.978	423.62
618.185	427.62
618.393	432.62
618.6	436.62
618.807	433.62
619.015	414.62
619.222	422.62
619.429	418.62
619.637	404.62
619.844	438.62
620.051	427.62
620.258	404.62
620.466	392.62
620.673	410.62
620.88	404.62
621.087	405.62
621.294	404.62
621.501	411.62
621.708	382.62
621.915	410.62
622.122	395.62
622.329	410.62
622.536	408.62
622.743	393.62
622.95	374.62
623.157	406.62
623.364	368.62
623.571	370.62
623.778	372.62
623.985	395.62
624.192	387.62
624.399	389.62
624.606	375.62
624.812	406.62
625.019	386.62
625.226	371.62
625.433	372.62
625.639	400.62
625.846	370.62
626.053	367.62
626.259	361.62
626.466	376.62
626.673	376.62
626.879	362.62
627.086	372.62
627.293	368.62
627.499	376.62
627.706	385.62
627.912	384.62
628.119	363.62
628.325	365.62
628.532	340.62
628.738	362.62
628.945	339.62
629.151	355.62
629.357	345.62
629.564	363.62
629.77	338.62
629.976	338.62
630.183	322.62
630.389	337.62
630.595	327.62
630.802	350.62
631.008	344.62
631.214	335.62
631.42	348.62
631.627	332.62
631.833	326.62
632.039	338.62
632.245	322.62
632.451	326.62
632.657	334.62
632.863	321.62
633.069	331.62
633.275	320.62
633.481	304.62
633.688	310.62
633.893	319.62
634.099	313.62
634.305	324.62
634.511	317.62
634.717	318.62
634.923	307.62
635.129	313.62
635.335	319.62
635.541	325.62
635.747	333.62
635.952	304.62
636.158	299.62
636.364	307.62
636.57	316.62
636.775	315.62
636.981	306.62
637.187	319.62
637.392	305.62
637.598	290.62
637.804	298.62
638.009	299.62
638.215	290.62
638.421	297.62
638.626	308.62
638.832	305.62
639.037	292.62
639.243	295.62
639.448	311.62
639.654	286.62
639.859	287.62
640.065	290.62
640.27	289.62
640.475	287.62
640.681	307.62
640.886	297.62
641.091	308.62
641.297	303.62
641.502	302.62
641.707	287.62
641.913	289.62
642.118	295.62
642.323	273.62
642.528	297.62
642.733	277.62
642.939	280.62
643.144	279.62
643.349	292.62
643.554	308.62
643.759	278.62
643.964	293.62
644.169	292.62
644.374	284.62
644.579	303.62
644.784	284.62
644.989	293.62
645.194	278.62
645.399	286.62
645.604	293.62
645.809	296.62
646.014	320.62
646.219	290.62
646.423	277.62
646.628	299.62
646.833	297.62
647.038	298.62
647.243	304.62
647.447	308.62
647.652	314.62
647.857	296.62
648.062	306.62
648.266	314.62
648.471	333.62
648.676	316.62
648.88	328.62
649.085	315.62
649.289	298.62
649.494	304.62
649.698	302.62
649.903	308.62
650.107	299.62
650.312	306.62
650.516	322.62
650.721	298.62
650.925	312.62
651.13	305.62
651.334	319.62
651.539	295.62
651.743	299.62
651.947	308.62
652.152	289.62
652.356	304.62
652.56	289.62
652.764	285.62
652.969	285.62
653.173	286.62
653.377	275.62
653.581	276.62
653.785	288.62
653.99	284.62
654.194	303.62
654.398	292.62
654.602	294.62
654.806	306.62
655.01	326.62
655.214	307.62
655.418	314.62
655.622	350.62
655.826	336.62
656.03	368.62
656.234	400.62
656.438	440.62
656.642	433.62
656.846	413.62
657.049	372.62
657.253	345.62
657.457	304.62
657.661	251.62
657.865	250.62
658.068	249.62
658.272	201.62
658.476	187.62
658.68	195.62
658.883	190.62
659.087	162.62
659.291	151.62
659.494	176.62
659.698	139.62
659.901	141.62
660.105	148.62
660.309	137.62
660.512	125.62
660.716	129.62
660.919	111.62
661.123	113.62
661.326	124.62
661.53	110.62
661.733	112.62
661.936	103.62
662.14	86.62
662.343	106.62
662.546	90.62
662.75	88.62
662.953	91.62
663.156	96.62
663.36	93.62
663.563	75.62
663.766	73.62
663.969	84.62
664.173	80.62
664.376	91.62
664.579	81.62
664.782	102.62
664.985	85.62
665.188	80.62
665.391	74.62
665.594	94.62
665.797	91.62
666	55.62
666.203	69.62
666.406	83.62
666.609	90.62
666.812	83.62
667.015	98.62
667.218	71.62
667.421	90.62
667.624	78.62
667.827	86.62
668.03	97.62
668.232	86.62
668.435	88.62
668.638	76.62
668.841	88.62
669.043	88.62
669.246	66.62
669.449	91.62
669.651	74.62
669.854	79.62
670.057	95.62
670.259	75.62
670.462	86.62
670.665	86.62
670.867	71.62
671.07	97.62
671.272	87.62
671.475	88.62
671.677	97.62
671.88	86.62
672.082	76.62
672.284	74.62
672.487	89.62
672.689	75.62
672.892	90.62
