Data from NiCl2@0.5M.TitratingCurve.Agarose3%dH2O.NegLispCup.LampEnergy10.LIBS07252019_HRD10591_18-18-59-571.txt Node
Date: Thu Jul 25 18:18:59 EDT 2019
User: cochatt
Spectrometer: HR+D1059
Trigger mode: 1
Integration Time (sec): 1.000000E-1
Scans to average: 1
Electric dark correction enabled: true
Nonlinearity correction enabled: false
Boxcar width: 0
XAxis mode: Wavelengths
Number of Pixels in Spectrum: 2048
>>>>>Begin Spectral Data<<<<<
223.165	-12.25
223.4	-12.25
223.635	-12.25
223.869	-14.25
224.104	-24.25
224.338	-17.25
224.573	0.75
224.808	-23.25
225.042	-9.25
225.277	-10.25
225.511	-10.25
225.746	-0.25
225.98	4.75
226.215	25.75
226.449	3.75
226.683	24.75
226.918	29.75
227.152	31.75
227.387	43.75
227.621	33.75
227.856	29.75
228.09	34.75
228.324	49.75
228.559	54.75
228.793	83.75
229.027	136.75
229.262	149.75
229.496	164.75
229.73	152.75
229.964	158.75
230.199	183.75
230.433	184.75
230.667	197.75
230.901	182.75
231.136	183.75
231.37	194.75
231.604	194.75
231.838	196.75
232.072	189.75
232.306	209.75
232.541	202.75
232.775	207.75
233.009	208.75
233.243	196.75
233.477	181.75
233.711	193.75
233.945	192.75
234.179	203.75
234.413	204.75
234.647	193.75
234.881	197.75
235.115	202.75
235.349	190.75
235.583	203.75
235.817	217.75
236.051	201.75
236.285	225.75
236.519	222.75
236.753	212.75
236.987	215.75
237.221	209.75
237.455	222.75
237.689	225.75
237.922	230.75
238.156	233.75
238.39	227.75
238.624	235.75
238.858	241.75
239.091	237.75
239.325	251.75
239.559	247.75
239.793	260.75
240.027	251.75
240.26	262.75
240.494	278.75
240.728	275.75
240.961	289.75
241.195	244.75
241.429	262.75
241.662	269.75
241.896	290.75
242.13	273.75
242.363	283.75
242.597	288.75
242.83	277.75
243.064	281.75
243.298	281.75
243.531	314.75
243.765	316.75
243.998	303.75
244.232	298.75
244.465	301.75
244.699	317.75
244.932	320.75
245.166	300.75
245.399	327.75
245.633	335.75
245.866	318.75
246.099	324.75
246.333	344.75
246.566	311.75
246.8	324.75
247.033	340.75
247.266	323.75
247.5	333.75
247.733	337.75
247.966	325.75
248.2	355.75
248.433	359.75
248.666	346.75
248.899	344.75
249.133	347.75
249.366	366.75
249.599	375.75
249.832	355.75
250.066	359.75
250.299	383.75
250.532	383.75
250.765	376.75
250.998	406.75
251.231	385.75
251.465	395.75
251.698	411.75
251.931	384.75
252.164	402.75
252.397	388.75
252.63	436.75
252.863	413.75
253.096	408.75
253.329	411.75
253.562	410.75
253.795	434.75
254.028	443.75
254.261	426.75
254.494	441.75
254.727	446.75
254.96	429.75
255.193	443.75
255.426	437.75
255.659	437.75
255.892	439.75
256.124	458.75
256.357	441.75
256.59	449.75
256.823	466.75
257.056	441.75
257.289	474.75
257.521	461.75
257.754	465.75
257.987	456.75
258.22	498.75
258.452	461.75
258.685	493.75
258.918	476.75
259.151	473.75
259.383	471.75
259.616	449.75
259.849	479.75
260.081	486.75
260.314	464.75
260.547	491.75
260.779	490.75
261.012	505.75
261.244	495.75
261.477	494.75
261.71	500.75
261.942	520.75
262.175	514.75
262.407	518.75
262.64	485.75
262.872	520.75
263.105	511.75
263.337	535.75
263.57	537.75
263.802	542.75
264.035	525.75
264.267	536.75
264.499	545.75
264.732	531.75
264.964	532.75
265.197	538.75
265.429	555.75
265.661	537.75
265.894	562.75
266.126	548.75
266.358	551.75
266.591	555.75
266.823	559.75
267.055	559.75
267.287	569.75
267.52	581.75
267.752	564.75
267.984	599.75
268.216	598.75
268.448	599.75
268.681	598.75
268.913	580.75
269.145	579.75
269.377	607.75
269.609	601.75
269.841	587.75
270.073	580.75
270.306	573.75
270.538	602.75
270.77	595.75
271.002	583.75
271.234	598.75
271.466	609.75
271.698	635.75
271.93	636.75
272.162	615.75
272.394	648.75
272.626	635.75
272.858	675.75
273.09	634.75
273.322	642.75
273.553	629.75
273.785	641.75
274.017	641.75
274.249	640.75
274.481	662.75
274.713	646.75
274.945	639.75
275.176	643.75
275.408	666.75
275.64	649.75
275.872	661.75
276.104	689.75
276.335	704.75
276.567	676.75
276.799	730.75
277.031	681.75
277.262	685.75
277.494	689.75
277.726	690.75
277.957	690.75
278.189	700.75
278.421	691.75
278.652	693.75
278.884	696.75
279.115	699.75
279.347	706.75
279.579	728.75
279.81	703.75
280.042	741.75
280.273	706.75
280.505	726.75
280.736	717.75
280.968	750.75
281.199	723.75
281.431	734.75
281.662	736.75
281.894	739.75
282.125	720.75
282.356	790.75
282.588	753.75
282.819	766.75
283.051	758.75
283.282	754.75
283.513	757.75
283.745	769.75
283.976	764.75
284.207	794.75
284.439	753.75
284.67	799.75
284.901	795.75
285.132	808.75
285.364	770.75
285.595	816.75
285.826	798.75
286.057	790.75
286.288	779.75
286.52	805.75
286.751	822.75
286.982	832.75
287.213	811.75
287.444	817.75
287.675	811.75
287.906	827.75
288.138	851.75
288.369	838.75
288.6	854.75
288.831	835.75
289.062	856.75
289.293	829.75
289.524	835.75
289.755	854.75
289.986	843.75
290.217	871.75
290.448	834.75
290.679	861.75
290.91	844.75
291.141	839.75
291.371	857.75
291.602	841.75
291.833	828.75
292.064	866.75
292.295	863.75
292.526	859.75
292.757	857.75
292.987	866.75
293.218	853.75
293.449	853.75
293.68	885.75
293.91	859.75
294.141	859.75
294.372	864.75
294.603	859.75
294.833	874.75
295.064	871.75
295.295	886.75
295.525	863.75
295.756	897.75
295.987	857.75
296.217	869.75
296.448	902.75
296.679	883.75
296.909	905.75
297.14	907.75
297.37	898.75
297.601	901.75
297.831	921.75
298.062	921.75
298.292	943.75
298.523	937.75
298.753	965.75
298.984	933.75
299.214	966.75
299.445	942.75
299.675	942.75
299.905	943.75
300.136	978.75
300.366	980.75
300.597	1026.75
300.827	986.75
301.057	968.75
301.288	1017.75
301.518	1012.75
301.748	977.75
301.979	1024.75
302.209	995.75
302.439	994.75
302.669	992.75
302.9	1009.75
303.13	951.75
303.36	987.75
303.59	997.75
303.82	980.75
304.051	997.75
304.281	989.75
304.511	995.75
304.741	1019.75
304.971	996.75
305.201	1017.75
305.431	1052.75
305.661	1019.75
305.891	1015.75
306.121	983.75
306.352	983.75
306.582	995.75
306.812	990.75
307.042	997.75
307.272	986.75
307.502	992.75
307.731	941.75
307.961	979.75
308.191	948.75
308.421	1000.75
308.651	970.75
308.881	977.75
309.111	957.75
309.341	962.75
309.571	964.75
309.8	1012.75
310.03	1010.75
310.26	1029.75
310.49	1054.75
310.72	1024.75
310.949	998.75
311.179	1008.75
311.409	1005.75
311.639	994.75
311.868	1001.75
312.098	1020.75
312.328	1048.75
312.557	1015.75
312.787	1015.75
313.017	1037.75
313.246	1044.75
313.476	1061.75
313.706	1062.75
313.935	1089.75
314.165	1044.75
314.394	1035.75
314.624	1079.75
314.853	1055.75
315.083	1042.75
315.312	1042.75
315.542	1065.75
315.771	1055.75
316.001	1065.75
316.23	1058.75
316.46	1027.75
316.689	1054.75
316.919	1045.75
317.148	1050.75
317.377	1081.75
317.607	1049.75
317.836	1003.75
318.065	1056.75
318.295	1045.75
318.524	1051.75
318.753	1053.75
318.983	1030.75
319.212	1042.75
319.441	1036.75
319.67	1048.75
319.9	1045.75
320.129	1037.75
320.358	1050.75
320.587	1075.75
320.816	1047.75
321.046	1049.75
321.275	1064.75
321.504	1038.75
321.733	1071.75
321.962	1063.75
322.191	1090.75
322.42	1071.75
322.649	1077.75
322.878	1102.75
323.108	1116.75
323.337	1119.75
323.566	1135.75
323.795	1074.75
324.024	1097.75
324.253	1094.75
324.482	1098.75
324.71	1067.75
324.939	1136.75
325.168	1110.75
325.397	1112.75
325.626	1090.75
325.855	1110.75
326.084	1143.75
326.313	1122.75
326.542	1157.75
326.77	1148.75
326.999	1135.75
327.228	1153.75
327.457	1161.75
327.686	1135.75
327.914	1150.75
328.143	1170.75
328.372	1155.75
328.6	1155.75
328.829	1178.75
329.058	1135.75
329.287	1140.75
329.515	1152.75
329.744	1181.75
329.972	1191.75
330.201	1191.75
330.43	1209.75
330.658	1173.75
330.887	1158.75
331.115	1198.75
331.344	1215.75
331.572	1234.75
331.801	1291.75
332.03	1285.75
332.258	1281.75
332.486	1290.75
332.715	1325.75
332.943	1371.75
333.172	1425.75
333.4	1465.75
333.629	1490.75
333.857	1473.75
334.085	1494.75
334.314	1477.75
334.542	1448.75
334.771	1454.75
334.999	1417.75
335.227	1409.75
335.455	1426.75
335.684	1411.75
335.912	1419.75
336.14	1385.75
336.369	1427.75
336.597	1413.75
336.825	1453.75
337.053	1432.75
337.281	1389.75
337.51	1397.75
337.738	1386.75
337.966	1345.75
338.194	1325.75
338.422	1337.75
338.65	1284.75
338.878	1251.75
339.106	1293.75
339.334	1328.75
339.562	1283.75
339.79	1250.75
340.018	1217.75
340.246	1209.75
340.474	1209.75
340.702	1225.75
340.93	1238.75
341.158	1259.75
341.386	1272.75
341.614	1347.75
341.842	1310.75
342.07	1224.75
342.298	1219.75
342.526	1218.75
342.754	1194.75
342.981	1171.75
343.209	1214.75
343.437	1325.75
343.665	1379.75
343.893	1453.75
344.12	1499.75
344.348	1418.75
344.576	1403.75
344.804	1365.75
345.031	1304.75
345.259	1278.75
345.487	1253.75
345.714	1222.75
345.942	1290.75
346.17	1303.75
346.397	1262.75
346.625	1199.75
346.853	1159.75
347.08	1174.75
347.308	1187.75
347.535	1209.75
347.763	1141.75
347.99	1126.75
348.218	1151.75
348.445	1143.75
348.673	1163.75
348.9	1148.75
349.128	1175.75
349.355	1193.75
349.583	1209.75
349.81	1157.75
350.037	1124.75
350.265	1145.75
350.492	1111.75
350.72	1125.75
350.947	1128.75
351.174	1173.75
351.402	1188.75
351.629	1205.75
351.856	1186.75
352.083	1135.75
352.311	1151.75
352.538	1154.75
352.765	1201.75
352.992	1117.75
353.22	1120.75
353.447	1080.75
353.674	1099.75
353.901	1094.75
354.128	1077.75
354.355	1078.75
354.583	1099.75
354.81	1102.75
355.037	1110.75
355.264	1100.75
355.491	1097.75
355.718	1066.75
355.945	1096.75
356.172	1097.75
356.399	1113.75
356.626	1142.75
356.853	1199.75
357.08	1145.75
357.307	1145.75
357.534	1120.75
357.761	1127.75
357.988	1106.75
358.215	1105.75
358.441	1080.75
358.668	1071.75
358.895	1083.75
359.122	1089.75
359.349	1092.75
359.576	1115.75
359.802	1105.75
360.029	1119.75
360.256	1091.75
360.483	1143.75
360.709	1088.75
360.936	1113.75
361.163	1133.75
361.39	1134.75
361.616	1133.75
361.843	1141.75
362.07	1189.75
362.296	1204.75
362.523	1115.75
362.749	1125.75
362.976	1126.75
363.203	1096.75
363.429	1061.75
363.656	1064.75
363.882	1091.75
364.109	1082.75
364.335	1043.75
364.562	1081.75
364.788	1099.75
365.015	1086.75
365.241	1080.75
365.468	1082.75
365.694	1089.75
365.92	1077.75
366.147	1063.75
366.373	1076.75
366.599	1103.75
366.826	1074.75
367.052	1100.75
367.278	1105.75
367.505	1089.75
367.731	1075.75
367.957	1109.75
368.184	1115.75
368.41	1099.75
368.636	1103.75
368.862	1093.75
369.089	1108.75
369.315	1098.75
369.541	1109.75
369.767	1084.75
369.993	1107.75
370.219	1113.75
370.445	1155.75
370.672	1135.75
370.898	1122.75
371.124	1155.75
371.35	1157.75
371.576	1160.75
371.802	1168.75
372.028	1166.75
372.254	1163.75
372.48	1185.75
372.706	1200.75
372.932	1162.75
373.158	1206.75
373.384	1171.75
373.61	1172.75
373.835	1170.75
374.061	1180.75
374.287	1213.75
374.513	1215.75
374.739	1236.75
374.965	1246.75
375.191	1278.75
375.416	1286.75
375.642	1231.75
375.868	1270.75
376.094	1199.75
376.319	1211.75
376.545	1182.75
376.771	1135.75
376.997	1141.75
377.222	1127.75
377.448	1132.75
377.674	1143.75
377.899	1149.75
378.125	1141.75
378.35	1154.75
378.576	1134.75
378.802	1156.75
379.027	1138.75
379.253	1137.75
379.478	1112.75
379.704	1113.75
379.929	1145.75
380.155	1119.75
380.38	1119.75
380.606	1132.75
380.831	1178.75
381.057	1167.75
381.282	1135.75
381.507	1163.75
381.733	1164.75
381.958	1151.75
382.184	1185.75
382.409	1183.75
382.634	1168.75
382.86	1210.75
383.085	1226.75
383.31	1216.75
383.535	1265.75
383.761	1223.75
383.986	1239.75
384.211	1294.75
384.436	1305.75
384.662	1345.75
384.887	1391.75
385.112	1322.75
385.337	1340.75
385.562	1374.75
385.787	1384.75
386.013	1427.75
386.238	1362.75
386.463	1384.75
386.688	1397.75
386.913	1379.75
387.138	1388.75
387.363	1365.75
387.588	1351.75
387.813	1362.75
388.038	1329.75
388.263	1338.75
388.488	1362.75
388.713	1350.75
388.938	1363.75
389.163	1343.75
389.387	1329.75
389.612	1350.75
389.837	1354.75
390.062	1329.75
390.287	1378.75
390.512	1345.75
390.736	1341.75
390.961	1387.75
391.186	1405.75
391.411	1423.75
391.636	1497.75
391.86	1505.75
392.085	1520.75
392.31	1553.75
392.534	1517.75
392.759	1462.75
392.984	1469.75
393.208	1429.75
393.433	1453.75
393.658	1485.75
393.882	1458.75
394.107	1491.75
394.331	1423.75
394.556	1459.75
394.78	1477.75
395.005	1487.75
395.229	1476.75
395.454	1474.75
395.678	1555.75
395.903	1520.75
396.127	1530.75
396.352	1496.75
396.576	1461.75
396.801	1473.75
397.025	1497.75
397.249	1499.75
397.474	1550.75
397.698	1577.75
397.922	1546.75
398.147	1538.75
398.371	1623.75
398.595	1653.75
398.82	1701.75
399.044	1858.75
399.268	1973.75
399.492	2217.75
399.717	2449.75
399.941	2474.75
400.165	2255.75
400.389	2101.75
400.613	1931.75
400.837	1849.75
401.062	1793.75
401.286	1749.75
401.51	1793.75
401.734	1701.75
401.958	1749.75
402.182	1749.75
402.406	1745.75
402.63	1722.75
402.854	1810.75
403.078	1823.75
403.302	1870.75
403.526	1867.75
403.75	1862.75
403.974	1928.75
404.198	1893.75
404.422	1896.75
404.645	1899.75
404.869	1870.75
405.093	1893.75
405.317	1870.75
405.541	1873.75
405.765	1839.75
405.988	1859.75
406.212	1875.75
406.436	1891.75
406.66	1939.75
406.883	1964.75
407.107	2069.75
407.331	2073.75
407.555	2140.75
407.778	2171.75
408.002	2131.75
408.226	2084.75
408.449	2055.75
408.673	2014.75
408.896	1930.75
409.12	1912.75
409.344	1955.75
409.567	1920.75
409.791	1948.75
410.014	1912.75
410.238	1863.75
410.461	1889.75
410.685	1867.75
410.908	1831.75
411.132	1784.75
411.355	1780.75
411.578	1833.75
411.802	1767.75
412.025	1785.75
412.249	1861.75
412.472	1806.75
412.695	1764.75
412.919	1739.75
413.142	1749.75
413.365	1727.75
413.589	1771.75
413.812	1737.75
414.035	1731.75
414.258	1722.75
414.482	1737.75
414.705	1754.75
414.928	1733.75
415.151	1726.75
415.374	1723.75
415.597	1717.75
415.821	1695.75
416.044	1647.75
416.267	1670.75
416.49	1684.75
416.713	1649.75
416.936	1709.75
417.159	1681.75
417.382	1657.75
417.605	1665.75
417.828	1691.75
418.051	1699.75
418.274	1658.75
418.497	1671.75
418.72	1729.75
418.943	1732.75
419.166	1847.75
419.389	1943.75
419.611	1908.75
419.834	1814.75
420.057	1769.75
420.28	1689.75
420.503	1663.75
420.726	1669.75
420.948	1675.75
421.171	1702.75
421.394	1671.75
421.617	1695.75
421.839	1708.75
422.062	1688.75
422.285	1703.75
422.507	1715.75
422.73	1743.75
422.953	1758.75
423.175	1755.75
423.398	1728.75
423.621	1715.75
423.843	1775.75
424.066	1764.75
424.288	1737.75
424.511	1756.75
424.733	1754.75
424.956	1722.75
425.178	1700.75
425.401	1733.75
425.623	1711.75
425.846	1641.75
426.068	1657.75
426.291	1646.75
426.513	1607.75
426.735	1599.75
426.958	1611.75
427.18	1567.75
427.402	1605.75
427.625	1595.75
427.847	1548.75
428.069	1573.75
428.292	1563.75
428.514	1522.75
428.736	1520.75
428.958	1562.75
429.181	1518.75
429.403	1483.75
429.625	1529.75
429.847	1507.75
430.069	1522.75
430.292	1509.75
430.514	1461.75
430.736	1517.75
430.958	1527.75
431.18	1533.75
431.402	1565.75
431.624	1586.75
431.846	1579.75
432.068	1563.75
432.29	1585.75
432.512	1550.75
432.734	1599.75
432.956	1537.75
433.178	1577.75
433.4	1563.75
433.622	1603.75
433.844	1593.75
434.066	1638.75
434.287	1591.75
434.509	1625.75
434.731	1679.75
434.953	1745.75
435.175	1733.75
435.397	1709.75
435.618	1635.75
435.84	1601.75
436.062	1556.75
436.284	1600.75
436.505	1526.75
436.727	1567.75
436.949	1543.75
437.17	1555.75
437.392	1561.75
437.614	1520.75
437.835	1467.75
438.057	1524.75
438.278	1489.75
438.5	1489.75
438.721	1506.75
438.943	1532.75
439.165	1469.75
439.386	1491.75
439.608	1578.75
439.829	1538.75
440.05	1570.75
440.272	1587.75
440.493	1571.75
440.715	1592.75
440.936	1609.75
441.158	1625.75
441.379	1648.75
441.6	1733.75
441.822	1712.75
442.043	1765.75
442.264	1720.75
442.486	1717.75
442.707	1695.75
442.928	1712.75
443.149	1671.75
443.371	1713.75
443.592	1746.75
443.813	1766.75
444.034	1766.75
444.255	1801.75
444.476	1872.75
444.698	1962.75
444.919	2014.75
445.14	2061.75
445.361	1881.75
445.582	1811.75
445.803	1724.75
446.024	1645.75
446.245	1654.75
446.466	1638.75
446.687	1583.75
446.908	1567.75
447.129	1544.75
447.35	1549.75
447.571	1516.75
447.792	1468.75
448.013	1487.75
448.234	1448.75
448.455	1425.75
448.675	1442.75
448.896	1413.75
449.117	1448.75
449.338	1423.75
449.559	1411.75
449.779	1374.75
450	1423.75
450.221	1413.75
450.442	1441.75
450.662	1441.75
450.883	1485.75
451.104	1471.75
451.324	1435.75
451.545	1448.75
451.766	1441.75
451.986	1433.75
452.207	1428.75
452.428	1419.75
452.648	1425.75
452.869	1392.75
453.089	1401.75
453.31	1405.75
453.53	1372.75
453.751	1402.75
453.971	1359.75
454.192	1396.75
454.412	1350.75
454.633	1373.75
454.853	1377.75
455.073	1345.75
455.294	1345.75
455.514	1365.75
455.734	1337.75
455.955	1321.75
456.175	1348.75
456.395	1329.75
456.616	1337.75
456.836	1341.75
457.056	1337.75
457.276	1326.75
457.497	1368.75
457.717	1352.75
457.937	1376.75
458.157	1397.75
458.377	1419.75
458.598	1445.75
458.818	1449.75
459.038	1503.75
459.258	1497.75
459.478	1583.75
459.698	1632.75
459.918	1661.75
460.138	1723.75
460.358	1794.75
460.578	1871.75
460.798	1880.75
461.018	1860.75
461.238	1843.75
461.458	1815.75
461.678	1797.75
461.898	1879.75
462.118	1865.75
462.338	1968.75
462.558	1995.75
462.777	2112.75
462.997	2247.75
463.217	2397.75
463.437	2387.75
463.657	2219.75
463.876	2133.75
464.096	2175.75
464.316	2117.75
464.536	2134.75
464.755	2063.75
464.975	2013.75
465.195	1885.75
465.414	1819.75
465.634	1711.75
465.854	1674.75
466.073	1632.75
466.293	1573.75
466.512	1569.75
466.732	1549.75
466.951	1547.75
467.171	1502.75
467.391	1540.75
467.61	1551.75
467.829	1495.75
468.049	1481.75
468.268	1503.75
468.488	1478.75
468.707	1486.75
468.927	1461.75
469.146	1471.75
469.365	1502.75
469.585	1517.75
469.804	1501.75
470.023	1551.75
470.243	1589.75
470.462	1554.75
470.681	1580.75
470.901	1598.75
471.12	1557.75
471.339	1566.75
471.558	1549.75
471.777	1561.75
471.997	1509.75
472.216	1482.75
472.435	1477.75
472.654	1491.75
472.873	1419.75
473.092	1455.75
473.311	1447.75
473.53	1471.75
473.749	1410.75
473.968	1414.75
474.187	1433.75
474.406	1441.75
474.625	1453.75
474.844	1427.75
475.063	1464.75
475.282	1459.75
475.501	1461.75
475.72	1487.75
475.939	1462.75
476.158	1482.75
476.377	1487.75
476.596	1499.75
476.814	1553.75
477.033	1557.75
477.252	1575.75
477.471	1609.75
477.69	1677.75
477.908	1688.75
478.127	1718.75
478.346	1727.75
478.564	1758.75
478.783	1799.75
479.002	1827.75
479.22	1807.75
479.439	1821.75
479.658	1784.75
479.876	1826.75
480.095	1830.75
480.313	1854.75
480.532	1931.75
480.751	1925.75
480.969	1874.75
481.188	1799.75
481.406	1748.75
481.624	1750.75
481.843	1728.75
482.061	1718.75
482.28	1684.75
482.498	1680.75
482.717	1688.75
482.935	1683.75
483.153	1678.75
483.372	1722.75
483.59	1744.75
483.808	1715.75
484.027	1693.75
484.245	1709.75
484.463	1725.75
484.681	1743.75
484.9	1723.75
485.118	1749.75
485.336	1743.75
485.554	1746.75
485.772	1800.75
485.99	1719.75
486.209	1799.75
486.427	1746.75
486.645	1819.75
486.863	1797.75
487.081	1758.75
487.299	1769.75
487.517	1808.75
487.735	1779.75
487.953	1807.75
488.171	1797.75
488.389	1715.75
488.607	1773.75
488.825	1748.75
489.043	1769.75
489.261	1729.75
489.479	1778.75
489.696	1765.75
489.914	1754.75
490.132	1770.75
490.35	1791.75
490.568	1791.75
490.786	1777.75
491.003	1795.75
491.221	1789.75
491.439	1834.75
491.657	1808.75
491.874	1781.75
492.092	1828.75
492.31	1832.75
492.527	1808.75
492.745	1814.75
492.963	1800.75
493.18	1856.75
493.398	1836.75
493.615	1843.75
493.833	1885.75
494.05	1844.75
494.268	1905.75
494.485	1866.75
494.703	1881.75
494.92	1880.75
495.138	1886.75
495.355	1879.75
495.573	1895.75
495.79	1925.75
496.008	1965.75
496.225	1957.75
496.442	1972.75
496.66	1988.75
496.877	1994.75
497.094	2013.75
497.312	2067.75
497.529	2074.75
497.746	2161.75
497.963	2219.75
498.181	2335.75
498.398	2435.75
498.615	2581.75
498.832	2706.75
499.049	2866.75
499.267	3079.75
499.484	3339.75
499.701	3617.75
499.918	3975.75
500.135	4348.75
500.352	4909.75
500.569	5047.75
500.786	4930.75
501.003	4693.75
501.22	4314.75
501.437	3930.75
501.654	3526.75
501.871	3267.75
502.088	3046.75
502.305	2792.75
502.522	2707.75
502.739	2571.75
502.956	2459.75
503.172	2333.75
503.389	2257.75
503.606	2233.75
503.823	2208.75
504.04	2154.75
504.256	2182.75
504.473	2190.75
504.69	2193.75
504.907	2183.75
505.123	2007.75
505.34	1929.75
505.557	1863.75
505.773	1827.75
505.99	1807.75
506.207	1741.75
506.423	1743.75
506.64	1715.75
506.856	1695.75
507.073	1665.75
507.289	1675.75
507.506	1644.75
507.722	1639.75
507.939	1630.75
508.155	1658.75
508.372	1617.75
508.588	1569.75
508.805	1650.75
509.021	1545.75
509.238	1510.75
509.454	1529.75
509.67	1547.75
509.887	1538.75
510.103	1502.75
510.319	1490.75
510.536	1457.75
510.752	1475.75
510.968	1449.75
511.184	1489.75
511.401	1496.75
511.617	1502.75
511.833	1472.75
512.049	1466.75
512.265	1463.75
512.481	1458.75
512.698	1458.75
512.914	1482.75
513.13	1422.75
513.346	1489.75
513.562	1463.75
513.778	1479.75
513.994	1512.75
514.21	1496.75
514.426	1488.75
514.642	1511.75
514.858	1528.75
515.074	1555.75
515.29	1544.75
515.506	1568.75
515.721	1562.75
515.937	1590.75
516.153	1642.75
516.369	1672.75
516.585	1707.75
516.801	1713.75
517.016	1754.75
517.232	1877.75
517.448	1945.75
517.664	1940.75
517.879	2018.75
518.095	1991.75
518.311	1958.75
518.527	1854.75
518.742	1820.75
518.958	1775.75
519.173	1702.75
519.389	1668.75
519.605	1614.75
519.82	1577.75
520.036	1571.75
520.251	1527.75
520.467	1485.75
520.682	1481.75
520.898	1497.75
521.113	1419.75
521.329	1439.75
521.544	1440.75
521.76	1449.75
521.975	1423.75
522.19	1393.75
522.406	1394.75
522.621	1376.75
522.836	1374.75
523.052	1367.75
523.267	1356.75
523.482	1348.75
523.698	1339.75
523.913	1354.75
524.128	1335.75
524.343	1345.75
524.559	1366.75
524.774	1343.75
524.989	1339.75
525.204	1329.75
525.419	1327.75
525.634	1309.75
525.849	1347.75
526.064	1330.75
526.28	1304.75
526.495	1337.75
526.71	1323.75
526.925	1280.75
527.14	1314.75
527.355	1305.75
527.57	1275.75
527.785	1323.75
527.999	1294.75
528.214	1313.75
528.429	1319.75
528.644	1305.75
528.859	1333.75
529.074	1296.75
529.289	1305.75
529.503	1315.75
529.718	1292.75
529.933	1302.75
530.148	1273.75
530.363	1288.75
530.577	1275.75
530.792	1297.75
531.007	1305.75
531.221	1314.75
531.436	1285.75
531.651	1281.75
531.865	1304.75
532.08	1295.75
532.295	1292.75
532.509	1267.75
532.724	1290.75
532.938	1301.75
533.153	1302.75
533.367	1283.75
533.582	1284.75
533.796	1284.75
534.011	1273.75
534.225	1250.75
534.44	1276.75
534.654	1285.75
534.868	1289.75
535.083	1248.75
535.297	1236.75
535.511	1224.75
535.726	1226.75
535.94	1237.75
536.154	1214.75
536.369	1222.75
536.583	1199.75
536.797	1156.75
537.011	1197.75
537.225	1195.75
537.44	1222.75
537.654	1176.75
537.868	1191.75
538.082	1185.75
538.296	1190.75
538.51	1187.75
538.724	1187.75
538.938	1195.75
539.153	1159.75
539.367	1198.75
539.581	1143.75
539.795	1148.75
540.009	1165.75
540.222	1161.75
540.436	1169.75
540.65	1164.75
540.864	1141.75
541.078	1171.75
541.292	1163.75
541.506	1173.75
541.72	1143.75
541.934	1180.75
542.147	1202.75
542.361	1177.75
542.575	1163.75
542.789	1146.75
543.002	1128.75
543.216	1167.75
543.43	1145.75
543.644	1125.75
543.857	1149.75
544.071	1181.75
544.285	1185.75
544.498	1183.75
544.712	1167.75
544.925	1174.75
545.139	1199.75
545.352	1205.75
545.566	1221.75
545.779	1189.75
545.993	1184.75
546.206	1219.75
546.42	1181.75
546.633	1213.75
546.847	1159.75
547.06	1161.75
547.274	1201.75
547.487	1190.75
547.7	1181.75
547.914	1225.75
548.127	1223.75
548.34	1200.75
548.554	1197.75
548.767	1193.75
548.98	1201.75
549.193	1163.75
549.407	1194.75
549.62	1191.75
549.833	1246.75
550.046	1217.75
550.259	1172.75
550.473	1187.75
550.686	1158.75
550.899	1143.75
551.112	1157.75
551.325	1170.75
551.538	1144.75
551.751	1110.75
551.964	1162.75
552.177	1184.75
552.39	1203.75
552.603	1205.75
552.816	1266.75
553.029	1250.75
553.242	1233.75
553.455	1263.75
553.667	1289.75
553.88	1248.75
554.093	1222.75
554.306	1189.75
554.519	1173.75
554.732	1167.75
554.944	1121.75
555.157	1116.75
555.37	1102.75
555.583	1097.75
555.795	1079.75
556.008	1049.75
556.221	1051.75
556.433	1061.75
556.646	1037.75
556.859	1021.75
557.071	1007.75
557.284	999.75
557.496	999.75
557.709	984.75
557.921	999.75
558.134	997.75
558.346	975.75
558.559	983.75
558.771	995.75
558.984	992.75
559.196	975.75
559.409	962.75
559.621	991.75
559.833	958.75
560.046	970.75
560.258	969.75
560.47	961.75
560.683	983.75
560.895	953.75
561.107	970.75
561.32	966.75
561.532	968.75
561.744	958.75
561.956	990.75
562.168	960.75
562.381	948.75
562.593	970.75
562.805	959.75
563.017	978.75
563.229	943.75
563.441	982.75
563.653	1000.75
563.865	984.75
564.077	1016.75
564.289	1005.75
564.501	1026.75
564.713	1058.75
564.925	1041.75
565.137	1077.75
565.349	1103.75
565.561	1115.75
565.773	1171.75
565.985	1217.75
566.197	1256.75
566.408	1335.75
566.62	1399.75
566.832	1495.75
567.044	1546.75
567.255	1543.75
567.467	1563.75
567.679	1622.75
567.891	1718.75
568.102	1709.75
568.314	1659.75
568.526	1498.75
568.737	1377.75
568.949	1277.75
569.161	1210.75
569.372	1142.75
569.584	1072.75
569.795	1065.75
570.007	1050.75
570.218	1026.75
570.43	998.75
570.641	1008.75
570.853	957.75
571.064	985.75
571.276	1014.75
571.487	917.75
571.698	893.75
571.91	879.75
572.121	894.75
572.333	857.75
572.544	838.75
572.755	831.75
572.966	837.75
573.178	820.75
573.389	810.75
573.6	791.75
573.811	789.75
574.023	777.75
574.234	773.75
574.445	795.75
574.656	774.75
574.867	759.75
575.078	751.75
575.289	770.75
575.501	773.75
575.712	758.75
575.923	718.75
576.134	704.75
576.345	741.75
576.556	718.75
576.767	705.75
576.978	718.75
577.188	765.75
577.399	728.75
577.61	705.75
577.821	727.75
578.032	713.75
578.243	696.75
578.454	707.75
578.665	723.75
578.875	686.75
579.086	673.75
579.297	687.75
579.508	685.75
579.718	663.75
579.929	664.75
580.14	657.75
580.35	648.75
580.561	665.75
580.772	679.75
580.982	678.75
581.193	675.75
581.403	672.75
581.614	644.75
581.825	662.75
582.035	644.75
582.246	666.75
582.456	639.75
582.667	650.75
582.877	619.75
583.087	613.75
583.298	638.75
583.508	621.75
583.719	631.75
583.929	621.75
584.139	639.75
584.35	635.75
584.56	643.75
584.77	622.75
584.981	625.75
585.191	635.75
585.401	605.75
585.611	629.75
585.821	616.75
586.032	632.75
586.242	622.75
586.452	627.75
586.662	631.75
586.872	619.75
587.082	643.75
587.292	616.75
587.502	606.75
587.713	600.75
587.923	611.75
588.133	597.75
588.343	618.75
588.553	620.75
588.762	605.75
588.972	647.75
589.182	823.75
589.392	774.75
589.602	640.75
589.812	782.75
590.022	701.75
590.232	634.75
590.441	606.75
590.651	628.75
590.861	639.75
591.071	621.75
591.281	624.75
591.49	629.75
591.7	637.75
591.91	647.75
592.119	656.75
592.329	661.75
592.539	672.75
592.748	694.75
592.958	730.75
593.167	721.75
593.377	727.75
593.587	726.75
593.796	761.75
594.006	760.75
594.215	749.75
594.424	773.75
594.634	737.75
594.843	707.75
595.053	712.75
595.262	651.75
595.472	644.75
595.681	633.75
595.89	624.75
596.1	602.75
596.309	610.75
596.518	581.75
596.727	579.75
596.937	573.75
597.146	584.75
597.355	561.75
597.564	569.75
597.774	537.75
597.983	526.75
598.192	522.75
598.401	526.75
598.61	555.75
598.819	521.75
599.028	520.75
599.237	536.75
599.446	527.75
599.655	502.75
599.864	510.75
600.073	516.75
600.282	509.75
600.491	497.75
600.7	518.75
600.909	532.75
601.118	495.75
601.327	498.75
601.536	482.75
601.745	496.75
601.953	489.75
602.162	477.75
602.371	480.75
602.58	501.75
602.789	478.75
602.997	466.75
603.206	476.75
603.415	471.75
603.623	462.75
603.832	466.75
604.041	465.75
604.249	475.75
604.458	455.75
604.666	461.75
604.875	477.75
605.084	470.75
605.292	466.75
605.501	464.75
605.709	464.75
605.918	470.75
606.126	439.75
606.334	481.75
606.543	454.75
606.751	442.75
606.96	458.75
607.168	437.75
607.376	445.75
607.585	439.75
607.793	454.75
608.001	465.75
608.21	449.75
608.418	451.75
608.626	449.75
608.834	434.75
609.043	431.75
609.251	439.75
609.459	438.75
609.667	433.75
609.875	454.75
610.083	465.75
610.291	436.75
610.499	440.75
610.707	438.75
610.916	444.75
611.124	454.75
611.332	416.75
611.54	437.75
611.748	415.75
611.955	411.75
612.163	444.75
612.371	432.75
612.579	436.75
612.787	427.75
612.995	417.75
613.203	440.75
613.411	424.75
613.618	418.75
613.826	418.75
614.034	431.75
614.242	403.75
614.449	421.75
614.657	421.75
614.865	407.75
615.072	413.75
615.28	413.75
615.488	410.75
615.695	408.75
615.903	427.75
616.111	411.75
616.318	436.75
616.526	421.75
616.733	418.75
616.941	426.75
617.148	438.75
617.356	420.75
617.563	435.75
617.771	413.75
617.978	393.75
618.185	414.75
618.393	406.75
618.6	430.75
618.807	416.75
619.015	408.75
619.222	403.75
619.429	413.75
619.637	403.75
619.844	393.75
620.051	389.75
620.258	392.75
620.466	393.75
620.673	376.75
620.88	377.75
621.087	394.75
621.294	379.75
621.501	383.75
621.708	371.75
621.915	401.75
622.122	393.75
622.329	363.75
622.536	369.75
622.743	375.75
622.95	381.75
623.157	353.75
623.364	379.75
623.571	379.75
623.778	386.75
623.985	388.75
624.192	354.75
624.399	360.75
624.606	373.75
624.812	362.75
625.019	373.75
625.226	376.75
625.433	366.75
625.639	358.75
625.846	356.75
626.053	342.75
626.259	330.75
626.466	341.75
626.673	331.75
626.879	333.75
627.086	352.75
627.293	342.75
627.499	348.75
627.706	351.75
627.912	344.75
628.119	337.75
628.325	354.75
628.532	323.75
628.738	344.75
628.945	339.75
629.151	330.75
629.357	335.75
629.564	320.75
629.77	331.75
629.976	314.75
630.183	324.75
630.389	324.75
630.595	321.75
630.802	305.75
631.008	325.75
631.214	337.75
631.42	324.75
631.627	319.75
631.833	310.75
632.039	311.75
632.245	318.75
632.451	304.75
632.657	310.75
632.863	307.75
633.069	297.75
633.275	331.75
633.481	304.75
633.688	297.75
633.893	312.75
634.099	318.75
634.305	283.75
634.511	281.75
634.717	284.75
634.923	312.75
635.129	299.75
635.335	293.75
635.541	288.75
635.747	289.75
635.952	279.75
636.158	290.75
636.364	306.75
636.57	297.75
636.775	317.75
636.981	293.75
637.187	287.75
637.392	289.75
637.598	281.75
637.804	281.75
638.009	291.75
638.215	293.75
638.421	286.75
638.626	298.75
638.832	290.75
639.037	278.75
639.243	265.75
639.448	284.75
639.654	269.75
639.859	264.75
640.065	280.75
640.27	271.75
640.475	276.75
640.681	282.75
640.886	270.75
641.091	262.75
641.297	262.75
641.502	272.75
641.707	266.75
641.913	290.75
642.118	280.75
642.323	268.75
642.528	275.75
642.733	264.75
642.939	266.75
643.144	277.75
643.349	269.75
643.554	255.75
643.759	273.75
643.964	260.75
644.169	277.75
644.374	258.75
644.579	260.75
644.784	271.75
644.989	266.75
645.194	241.75
645.399	264.75
645.604	251.75
645.809	272.75
646.014	271.75
646.219	267.75
646.423	276.75
646.628	271.75
646.833	258.75
647.038	260.75
647.243	274.75
647.447	264.75
647.652	283.75
647.857	279.75
648.062	282.75
648.266	267.75
648.471	266.75
648.676	282.75
648.88	279.75
649.085	253.75
649.289	291.75
649.494	255.75
649.698	261.75
649.903	259.75
650.107	268.75
650.312	271.75
650.516	256.75
650.721	219.75
650.925	241.75
651.13	223.75
651.334	247.75
651.539	244.75
651.743	247.75
651.947	228.75
652.152	223.75
652.356	211.75
652.56	234.75
652.764	216.75
652.969	212.75
653.173	217.75
653.377	220.75
653.581	202.75
653.785	205.75
653.99	212.75
654.194	200.75
654.398	212.75
654.602	203.75
654.806	216.75
655.01	213.75
655.214	199.75
655.418	195.75
655.622	191.75
655.826	205.75
656.03	188.75
656.234	225.75
656.438	199.75
656.642	208.75
656.846	208.75
657.049	193.75
657.253	197.75
657.457	176.75
657.661	173.75
657.865	164.75
658.068	153.75
658.272	139.75
658.476	151.75
658.68	137.75
658.883	152.75
659.087	129.75
659.291	127.75
659.494	134.75
659.698	111.75
659.901	115.75
660.105	97.75
660.309	109.75
660.512	117.75
660.716	116.75
660.919	104.75
661.123	105.75
661.326	97.75
661.53	88.75
661.733	102.75
661.936	77.75
662.14	99.75
662.343	99.75
662.546	104.75
662.75	89.75
662.953	87.75
663.156	78.75
663.36	86.75
663.563	79.75
663.766	75.75
663.969	89.75
664.173	83.75
664.376	82.75
664.579	93.75
664.782	94.75
664.985	94.75
665.188	71.75
665.391	79.75
665.594	87.75
665.797	84.75
666	89.75
666.203	81.75
666.406	75.75
666.609	71.75
666.812	83.75
667.015	85.75
667.218	89.75
667.421	83.75
667.624	83.75
667.827	81.75
668.03	70.75
668.232	69.75
668.435	70.75
668.638	80.75
668.841	80.75
669.043	84.75
669.246	79.75
669.449	75.75
669.651	74.75
669.854	85.75
670.057	81.75
670.259	85.75
670.462	79.75
670.665	72.75
670.867	80.75
671.07	87.75
671.272	70.75
671.475	78.75
671.677	65.75
671.88	78.75
672.082	71.75
672.284	77.75
672.487	63.75
672.689	77.75
672.892	75.75
