Data from NiCl2@0.5M.TitratingCurve.Agarose3%dH2O.NegLispCup.LampEnergy10.LIBS07252019_HRD10591_18-20-01-572.txt Node
Date: Thu Jul 25 18:20:01 EDT 2019
User: cochatt
Spectrometer: HR+D1059
Trigger mode: 1
Integration Time (sec): 1.000000E-1
Scans to average: 1
Electric dark correction enabled: true
Nonlinearity correction enabled: false
Boxcar width: 0
XAxis mode: Wavelengths
Number of Pixels in Spectrum: 2048
>>>>>Begin Spectral Data<<<<<
223.165	-19.75
223.4	-19.75
223.635	-19.75
223.869	-20.75
224.104	-18.75
224.338	-4.75
224.573	-12.75
224.808	-4.75
225.042	-12.75
225.277	-16.75
225.511	-15.75
225.746	1.25
225.98	5.25
226.215	10.25
226.449	21.25
226.683	29.25
226.918	28.25
227.152	31.25
227.387	36.25
227.621	35.25
227.856	45.25
228.09	56.25
228.324	47.25
228.559	53.25
228.793	73.25
229.027	88.25
229.262	96.25
229.496	80.25
229.73	94.25
229.964	107.25
230.199	103.25
230.433	112.25
230.667	108.25
230.901	102.25
231.136	115.25
231.37	109.25
231.604	124.25
231.838	118.25
232.072	129.25
232.306	147.25
232.541	131.25
232.775	120.25
233.009	107.25
233.243	117.25
233.477	113.25
233.711	119.25
233.945	123.25
234.179	105.25
234.413	137.25
234.647	110.25
234.881	120.25
235.115	131.25
235.349	123.25
235.583	107.25
235.817	114.25
236.051	117.25
236.285	119.25
236.519	122.25
236.753	119.25
236.987	131.25
237.221	117.25
237.455	105.25
237.689	125.25
237.922	118.25
238.156	144.25
238.39	133.25
238.624	125.25
238.858	129.25
239.091	127.25
239.325	121.25
239.559	130.25
239.793	138.25
240.027	148.25
240.26	145.25
240.494	128.25
240.728	139.25
240.961	145.25
241.195	143.25
241.429	124.25
241.662	148.25
241.896	151.25
242.13	142.25
242.363	140.25
242.597	133.25
242.83	163.25
243.064	151.25
243.298	148.25
243.531	144.25
243.765	161.25
243.998	153.25
244.232	155.25
244.465	142.25
244.699	163.25
244.932	156.25
245.166	154.25
245.399	171.25
245.633	156.25
245.866	155.25
246.099	147.25
246.333	152.25
246.566	147.25
246.8	147.25
247.033	167.25
247.266	160.25
247.5	167.25
247.733	157.25
247.966	163.25
248.2	161.25
248.433	163.25
248.666	168.25
248.899	179.25
249.133	163.25
249.366	167.25
249.599	167.25
249.832	172.25
250.066	193.25
250.299	171.25
250.532	177.25
250.765	190.25
250.998	184.25
251.231	181.25
251.465	180.25
251.698	180.25
251.931	203.25
252.164	175.25
252.397	189.25
252.63	193.25
252.863	199.25
253.096	177.25
253.329	199.25
253.562	193.25
253.795	193.25
254.028	196.25
254.261	208.25
254.494	205.25
254.727	191.25
254.96	205.25
255.193	194.25
255.426	200.25
255.659	200.25
255.892	203.25
256.124	181.25
256.357	214.25
256.59	189.25
256.823	196.25
257.056	209.25
257.289	199.25
257.521	211.25
257.754	204.25
257.987	215.25
258.22	221.25
258.452	229.25
258.685	212.25
258.918	224.25
259.151	217.25
259.383	210.25
259.616	222.25
259.849	205.25
260.081	212.25
260.314	205.25
260.547	218.25
260.779	224.25
261.012	223.25
261.244	227.25
261.477	226.25
261.71	217.25
261.942	217.25
262.175	221.25
262.407	211.25
262.64	220.25
262.872	224.25
263.105	240.25
263.337	232.25
263.57	222.25
263.802	233.25
264.035	242.25
264.267	221.25
264.499	224.25
264.732	225.25
264.964	239.25
265.197	259.25
265.429	251.25
265.661	223.25
265.894	255.25
266.126	259.25
266.358	252.25
266.591	232.25
266.823	239.25
267.055	239.25
267.287	262.25
267.52	252.25
267.752	251.25
267.984	250.25
268.216	258.25
268.448	256.25
268.681	248.25
268.913	245.25
269.145	255.25
269.377	248.25
269.609	261.25
269.841	264.25
270.073	241.25
270.306	247.25
270.538	252.25
270.77	268.25
271.002	256.25
271.234	249.25
271.466	258.25
271.698	275.25
271.93	272.25
272.162	262.25
272.394	257.25
272.626	273.25
272.858	247.25
273.09	276.25
273.322	278.25
273.553	267.25
273.785	275.25
274.017	285.25
274.249	290.25
274.481	269.25
274.713	281.25
274.945	273.25
275.176	276.25
275.408	273.25
275.64	289.25
275.872	299.25
276.104	297.25
276.335	293.25
276.567	263.25
276.799	282.25
277.031	303.25
277.262	290.25
277.494	305.25
277.726	289.25
277.957	288.25
278.189	304.25
278.421	287.25
278.652	283.25
278.884	307.25
279.115	282.25
279.347	303.25
279.579	295.25
279.81	310.25
280.042	316.25
280.273	314.25
280.505	317.25
280.736	324.25
280.968	320.25
281.199	287.25
281.431	298.25
281.662	327.25
281.894	333.25
282.125	309.25
282.356	319.25
282.588	327.25
282.819	315.25
283.051	344.25
283.282	315.25
283.513	335.25
283.745	304.25
283.976	328.25
284.207	330.25
284.439	333.25
284.67	327.25
284.901	332.25
285.132	332.25
285.364	320.25
285.595	319.25
285.826	333.25
286.057	338.25
286.288	332.25
286.52	321.25
286.751	342.25
286.982	344.25
287.213	341.25
287.444	322.25
287.675	339.25
287.906	331.25
288.138	332.25
288.369	352.25
288.6	347.25
288.831	354.25
289.062	324.25
289.293	352.25
289.524	330.25
289.755	343.25
289.986	356.25
290.217	363.25
290.448	364.25
290.679	372.25
290.91	364.25
291.141	341.25
291.371	339.25
291.602	337.25
291.833	365.25
292.064	375.25
292.295	347.25
292.526	343.25
292.757	369.25
292.987	364.25
293.218	364.25
293.449	349.25
293.68	371.25
293.91	352.25
294.141	361.25
294.372	361.25
294.603	376.25
294.833	361.25
295.064	367.25
295.295	353.25
295.525	360.25
295.756	375.25
295.987	385.25
296.217	379.25
296.448	384.25
296.679	364.25
296.909	367.25
297.14	369.25
297.37	386.25
297.601	395.25
297.831	401.25
298.062	400.25
298.292	386.25
298.523	401.25
298.753	420.25
298.984	432.25
299.214	385.25
299.445	387.25
299.675	413.25
299.905	414.25
300.136	398.25
300.366	410.25
300.597	421.25
300.827	418.25
301.057	408.25
301.288	424.25
301.518	426.25
301.748	412.25
301.979	420.25
302.209	410.25
302.439	422.25
302.669	421.25
302.9	419.25
303.13	406.25
303.36	418.25
303.59	405.25
303.82	422.25
304.051	421.25
304.281	439.25
304.511	427.25
304.741	424.25
304.971	423.25
305.201	427.25
305.431	434.25
305.661	437.25
305.891	420.25
306.121	427.25
306.352	412.25
306.582	399.25
306.812	413.25
307.042	423.25
307.272	423.25
307.502	426.25
307.731	404.25
307.961	407.25
308.191	403.25
308.421	408.25
308.651	423.25
308.881	418.25
309.111	407.25
309.341	412.25
309.571	406.25
309.8	431.25
310.03	407.25
310.26	436.25
310.49	441.25
310.72	423.25
310.949	443.25
311.179	407.25
311.409	420.25
311.639	435.25
311.868	403.25
312.098	419.25
312.328	448.25
312.557	441.25
312.787	421.25
313.017	448.25
313.246	462.25
313.476	431.25
313.706	466.25
313.935	462.25
314.165	450.25
314.394	452.25
314.624	450.25
314.853	465.25
315.083	448.25
315.312	446.25
315.542	440.25
315.771	444.25
316.001	436.25
316.23	432.25
316.46	451.25
316.689	436.25
316.919	443.25
317.148	437.25
317.377	442.25
317.607	441.25
317.836	439.25
318.065	428.25
318.295	458.25
318.524	440.25
318.753	465.25
318.983	449.25
319.212	432.25
319.441	441.25
319.67	470.25
319.9	463.25
320.129	457.25
320.358	455.25
320.587	438.25
320.816	445.25
321.046	480.25
321.275	456.25
321.504	463.25
321.733	441.25
321.962	470.25
322.191	463.25
322.42	461.25
322.649	456.25
322.878	470.25
323.108	457.25
323.337	476.25
323.566	468.25
323.795	470.25
324.024	474.25
324.253	466.25
324.482	443.25
324.71	460.25
324.939	468.25
325.168	475.25
325.397	478.25
325.626	469.25
325.855	479.25
326.084	480.25
326.313	497.25
326.542	492.25
326.77	489.25
326.999	456.25
327.228	463.25
327.457	498.25
327.686	485.25
327.914	488.25
328.143	487.25
328.372	482.25
328.6	510.25
328.829	477.25
329.058	493.25
329.287	481.25
329.515	505.25
329.744	482.25
329.972	512.25
330.201	509.25
330.43	508.25
330.658	500.25
330.887	488.25
331.115	522.25
331.344	521.25
331.572	500.25
331.801	520.25
332.03	531.25
332.258	533.25
332.486	517.25
332.715	549.25
332.943	577.25
333.172	574.25
333.4	578.25
333.629	581.25
333.857	615.25
334.085	610.25
334.314	602.25
334.542	609.25
334.771	603.25
334.999	586.25
335.227	610.25
335.455	602.25
335.684	589.25
335.912	580.25
336.14	605.25
336.369	599.25
336.597	589.25
336.825	615.25
337.053	594.25
337.281	617.25
337.51	587.25
337.738	559.25
337.966	544.25
338.194	542.25
338.422	543.25
338.65	516.25
338.878	572.25
339.106	550.25
339.334	554.25
339.562	528.25
339.79	516.25
340.018	519.25
340.246	527.25
340.474	498.25
340.702	488.25
340.93	511.25
341.158	530.25
341.386	527.25
341.614	552.25
341.842	540.25
342.07	533.25
342.298	520.25
342.526	521.25
342.754	528.25
342.981	523.25
343.209	537.25
343.437	540.25
343.665	558.25
343.893	589.25
344.12	573.25
344.348	584.25
344.576	560.25
344.804	551.25
345.031	552.25
345.259	528.25
345.487	535.25
345.714	530.25
345.942	525.25
346.17	547.25
346.397	539.25
346.625	526.25
346.853	492.25
347.08	513.25
347.308	497.25
347.535	500.25
347.763	503.25
347.99	490.25
348.218	499.25
348.445	502.25
348.673	500.25
348.9	509.25
349.128	501.25
349.355	515.25
349.583	525.25
349.81	496.25
350.037	469.25
350.265	468.25
350.492	489.25
350.72	466.25
350.947	463.25
351.174	486.25
351.402	490.25
351.629	499.25
351.856	511.25
352.083	506.25
352.311	492.25
352.538	521.25
352.765	519.25
352.992	480.25
353.22	460.25
353.447	479.25
353.674	466.25
353.901	456.25
354.128	464.25
354.355	468.25
354.583	458.25
354.81	465.25
355.037	466.25
355.264	474.25
355.491	454.25
355.718	459.25
355.945	468.25
356.172	459.25
356.399	460.25
356.626	490.25
356.853	513.25
357.08	478.25
357.307	487.25
357.534	481.25
357.761	453.25
357.988	472.25
358.215	458.25
358.441	463.25
358.668	492.25
358.895	473.25
359.122	451.25
359.349	467.25
359.576	455.25
359.802	461.25
360.029	480.25
360.256	449.25
360.483	475.25
360.709	473.25
360.936	479.25
361.163	484.25
361.39	481.25
361.616	487.25
361.843	488.25
362.07	509.25
362.296	464.25
362.523	462.25
362.749	440.25
362.976	461.25
363.203	460.25
363.429	451.25
363.656	465.25
363.882	446.25
364.109	446.25
364.335	442.25
364.562	448.25
364.788	448.25
365.015	459.25
365.241	459.25
365.468	466.25
365.694	455.25
365.92	450.25
366.147	444.25
366.373	449.25
366.599	463.25
366.826	450.25
367.052	443.25
367.278	447.25
367.505	470.25
367.731	467.25
367.957	456.25
368.184	454.25
368.41	463.25
368.636	472.25
368.862	463.25
369.089	449.25
369.315	464.25
369.541	484.25
369.767	470.25
369.993	447.25
370.219	467.25
370.445	468.25
370.672	482.25
370.898	452.25
371.124	459.25
371.35	451.25
371.576	466.25
371.802	478.25
372.028	486.25
372.254	478.25
372.48	459.25
372.706	500.25
372.932	499.25
373.158	495.25
373.384	488.25
373.61	482.25
373.835	480.25
374.061	467.25
374.287	460.25
374.513	483.25
374.739	503.25
374.965	503.25
375.191	507.25
375.416	492.25
375.642	474.25
375.868	502.25
376.094	491.25
376.319	485.25
376.545	457.25
376.771	481.25
376.997	453.25
377.222	458.25
377.448	464.25
377.674	468.25
377.899	476.25
378.125	451.25
378.35	464.25
378.576	450.25
378.802	450.25
379.027	460.25
379.253	454.25
379.478	451.25
379.704	440.25
379.929	433.25
380.155	476.25
380.38	437.25
380.606	471.25
380.831	468.25
381.057	463.25
381.282	473.25
381.507	465.25
381.733	467.25
381.958	482.25
382.184	458.25
382.409	450.25
382.634	470.25
382.86	472.25
383.085	496.25
383.31	481.25
383.535	499.25
383.761	460.25
383.986	495.25
384.211	515.25
384.436	512.25
384.662	524.25
384.887	527.25
385.112	521.25
385.337	525.25
385.562	521.25
385.787	540.25
386.013	530.25
386.238	524.25
386.463	531.25
386.688	527.25
386.913	541.25
387.138	559.25
387.363	539.25
387.588	517.25
387.813	533.25
388.038	515.25
388.263	523.25
388.488	526.25
388.713	521.25
388.938	515.25
389.163	501.25
389.387	529.25
389.612	519.25
389.837	514.25
390.062	541.25
390.287	543.25
390.512	517.25
390.736	519.25
390.961	526.25
391.186	531.25
391.411	547.25
391.636	571.25
391.86	552.25
392.085	558.25
392.31	602.25
392.534	586.25
392.759	582.25
392.984	561.25
393.208	564.25
393.433	525.25
393.658	559.25
393.882	530.25
394.107	556.25
394.331	566.25
394.556	563.25
394.78	579.25
395.005	579.25
395.229	548.25
395.454	565.25
395.678	581.25
395.903	571.25
396.127	552.25
396.352	583.25
396.576	547.25
396.801	601.25
397.025	573.25
397.249	594.25
397.474	595.25
397.698	591.25
397.922	571.25
398.147	585.25
398.371	612.25
398.595	643.25
398.82	634.25
399.044	676.25
399.268	716.25
399.492	830.25
399.717	871.25
399.941	860.25
400.165	782.25
400.389	785.25
400.613	698.25
400.837	688.25
401.062	691.25
401.286	664.25
401.51	659.25
401.734	644.25
401.958	635.25
402.182	661.25
402.406	681.25
402.63	672.25
402.854	694.25
403.078	677.25
403.302	689.25
403.526	700.25
403.75	701.25
403.974	720.25
404.198	679.25
404.422	711.25
404.645	730.25
404.869	689.25
405.093	729.25
405.317	690.25
405.541	695.25
405.765	714.25
405.988	701.25
406.212	715.25
406.436	678.25
406.66	739.25
406.883	712.25
407.107	774.25
407.331	791.25
407.555	816.25
407.778	799.25
408.002	815.25
408.226	808.25
408.449	757.25
408.673	744.25
408.896	737.25
409.12	767.25
409.344	735.25
409.567	751.25
409.791	733.25
410.014	727.25
410.238	713.25
410.461	717.25
410.685	721.25
410.908	715.25
411.132	712.25
411.355	689.25
411.578	679.25
411.802	669.25
412.025	709.25
412.249	721.25
412.472	699.25
412.695	678.25
412.919	675.25
413.142	685.25
413.365	667.25
413.589	696.25
413.812	652.25
414.035	660.25
414.258	673.25
414.482	676.25
414.705	690.25
414.928	691.25
415.151	688.25
415.374	670.25
415.597	662.25
415.821	668.25
416.044	680.25
416.267	648.25
416.49	668.25
416.713	666.25
416.936	666.25
417.159	664.25
417.382	633.25
417.605	662.25
417.828	675.25
418.051	677.25
418.274	679.25
418.497	665.25
418.72	687.25
418.943	684.25
419.166	740.25
419.389	754.25
419.611	755.25
419.834	721.25
420.057	715.25
420.28	687.25
420.503	657.25
420.726	661.25
420.948	652.25
421.171	686.25
421.394	685.25
421.617	672.25
421.839	689.25
422.062	689.25
422.285	687.25
422.507	665.25
422.73	684.25
422.953	693.25
423.175	695.25
423.398	707.25
423.621	680.25
423.843	695.25
424.066	698.25
424.288	718.25
424.511	700.25
424.733	729.25
424.956	673.25
425.178	670.25
425.401	692.25
425.623	677.25
425.846	682.25
426.068	690.25
426.291	693.25
426.513	669.25
426.735	667.25
426.958	681.25
427.18	654.25
427.402	665.25
427.625	650.25
427.847	659.25
428.069	649.25
428.292	626.25
428.514	629.25
428.736	639.25
428.958	646.25
429.181	646.25
429.403	630.25
429.625	630.25
429.847	634.25
430.069	642.25
430.292	650.25
430.514	629.25
430.736	641.25
430.958	610.25
431.18	635.25
431.402	646.25
431.624	636.25
431.846	650.25
432.068	668.25
432.29	664.25
432.512	642.25
432.734	646.25
432.956	643.25
433.178	637.25
433.4	668.25
433.622	692.25
433.844	678.25
434.066	673.25
434.287	663.25
434.509	671.25
434.731	701.25
434.953	720.25
435.175	721.25
435.397	713.25
435.618	713.25
435.84	685.25
436.062	685.25
436.284	652.25
436.505	655.25
436.727	687.25
436.949	691.25
437.17	639.25
437.392	668.25
437.614	645.25
437.835	625.25
438.057	655.25
438.278	623.25
438.5	635.25
438.721	648.25
438.943	625.25
439.165	643.25
439.386	663.25
439.608	634.25
439.829	667.25
440.05	656.25
440.272	669.25
440.493	684.25
440.715	705.25
440.936	701.25
441.158	704.25
441.379	709.25
441.6	720.25
441.822	731.25
442.043	737.25
442.264	701.25
442.486	682.25
442.707	721.25
442.928	728.25
443.149	704.25
443.371	735.25
443.592	714.25
443.813	725.25
444.034	730.25
444.255	749.25
444.476	774.25
444.698	801.25
444.919	825.25
445.14	907.25
445.361	809.25
445.582	771.25
445.803	696.25
446.024	714.25
446.245	719.25
446.466	707.25
446.687	678.25
446.908	710.25
447.129	647.25
447.35	668.25
447.571	662.25
447.792	641.25
448.013	646.25
448.234	648.25
448.455	639.25
448.675	637.25
448.896	637.25
449.117	623.25
449.338	641.25
449.559	640.25
449.779	627.25
450	591.25
450.221	609.25
450.442	625.25
450.662	639.25
450.883	619.25
451.104	652.25
451.324	639.25
451.545	627.25
451.766	613.25
451.986	639.25
452.207	608.25
452.428	612.25
452.648	604.25
452.869	600.25
453.089	616.25
453.31	616.25
453.53	614.25
453.751	584.25
453.971	619.25
454.192	607.25
454.412	584.25
454.633	598.25
454.853	611.25
455.073	599.25
455.294	615.25
455.514	603.25
455.734	621.25
455.955	594.25
456.175	592.25
456.395	588.25
456.616	578.25
456.836	594.25
457.056	595.25
457.276	600.25
457.497	594.25
457.717	591.25
457.937	612.25
458.157	606.25
458.377	618.25
458.598	648.25
458.818	627.25
459.038	650.25
459.258	659.25
459.478	670.25
459.698	716.25
459.918	738.25
460.138	739.25
460.358	769.25
460.578	763.25
460.798	777.25
461.018	788.25
461.238	776.25
461.458	774.25
461.678	767.25
461.898	781.25
462.118	795.25
462.338	835.25
462.558	838.25
462.777	870.25
462.997	914.25
463.217	963.25
463.437	956.25
463.657	924.25
463.876	888.25
464.096	847.25
464.316	871.25
464.536	850.25
464.755	834.25
464.975	800.25
465.195	785.25
465.414	780.25
465.634	739.25
465.854	687.25
466.073	716.25
466.293	701.25
466.512	691.25
466.732	684.25
466.951	676.25
467.171	665.25
467.391	648.25
467.61	677.25
467.829	669.25
468.049	678.25
468.268	662.25
468.488	645.25
468.707	658.25
468.927	665.25
469.146	642.25
469.365	684.25
469.585	676.25
469.804	657.25
470.023	663.25
470.243	673.25
470.462	690.25
470.681	682.25
470.901	681.25
471.12	710.25
471.339	696.25
471.558	657.25
471.777	671.25
471.997	654.25
472.216	671.25
472.435	639.25
472.654	635.25
472.873	633.25
473.092	644.25
473.311	641.25
473.53	659.25
473.749	659.25
473.968	659.25
474.187	668.25
474.406	636.25
474.625	648.25
474.844	650.25
475.063	661.25
475.282	653.25
475.501	661.25
475.72	659.25
475.939	642.25
476.158	654.25
476.377	665.25
476.596	694.25
476.814	693.25
477.033	678.25
477.252	715.25
477.471	729.25
477.69	701.25
477.908	757.25
478.127	743.25
478.346	730.25
478.564	763.25
478.783	777.25
479.002	801.25
479.22	796.25
479.439	801.25
479.658	780.25
479.876	779.25
480.095	817.25
480.313	827.25
480.532	825.25
480.751	807.25
480.969	800.25
481.188	767.25
481.406	781.25
481.624	762.25
481.843	730.25
482.061	743.25
482.28	744.25
482.498	739.25
482.717	745.25
482.935	756.25
483.153	765.25
483.372	758.25
483.59	770.25
483.808	732.25
484.027	743.25
484.245	761.25
484.463	738.25
484.681	777.25
484.9	773.25
485.118	772.25
485.336	764.25
485.554	796.25
485.772	772.25
485.99	774.25
486.209	775.25
486.427	775.25
486.645	807.25
486.863	787.25
487.081	803.25
487.299	781.25
487.517	766.25
487.735	787.25
487.953	802.25
488.171	785.25
488.389	789.25
488.607	769.25
488.825	744.25
489.043	777.25
489.261	777.25
489.479	781.25
489.696	761.25
489.914	752.25
490.132	771.25
490.35	774.25
490.568	787.25
490.786	805.25
491.003	792.25
491.221	828.25
491.439	820.25
491.657	793.25
491.874	826.25
492.092	819.25
492.31	813.25
492.527	837.25
492.745	841.25
492.963	813.25
493.18	819.25
493.398	823.25
493.615	822.25
493.833	808.25
494.05	840.25
494.268	836.25
494.485	852.25
494.703	842.25
494.92	839.25
495.138	846.25
495.355	842.25
495.573	852.25
495.79	838.25
496.008	847.25
496.225	847.25
496.442	893.25
496.66	872.25
496.877	861.25
497.094	912.25
497.312	913.25
497.529	887.25
497.746	931.25
497.963	964.25
498.181	998.25
498.398	1010.25
498.615	1055.25
498.832	1100.25
499.049	1183.25
499.267	1245.25
499.484	1329.25
499.701	1461.25
499.918	1545.25
500.135	1713.25
500.352	1833.25
500.569	1904.25
500.786	1911.25
501.003	1771.25
501.22	1657.25
501.437	1491.25
501.654	1388.25
501.871	1296.25
502.088	1244.25
502.305	1192.25
502.522	1175.25
502.739	1084.25
502.956	1043.25
503.172	993.25
503.389	950.25
503.606	976.25
503.823	940.25
504.04	914.25
504.256	918.25
504.473	917.25
504.69	936.25
504.907	895.25
505.123	867.25
505.34	849.25
505.557	810.25
505.773	826.25
505.99	797.25
506.207	781.25
506.423	773.25
506.64	757.25
506.856	760.25
507.073	749.25
507.289	736.25
507.506	715.25
507.722	702.25
507.939	705.25
508.155	731.25
508.372	727.25
508.588	720.25
508.805	717.25
509.021	689.25
509.238	691.25
509.454	690.25
509.67	696.25
509.887	676.25
510.103	691.25
510.319	700.25
510.536	688.25
510.752	656.25
510.968	668.25
511.184	666.25
511.401	639.25
511.617	673.25
511.833	650.25
512.049	664.25
512.265	659.25
512.481	651.25
512.698	659.25
512.914	665.25
513.13	643.25
513.346	674.25
513.562	678.25
513.778	661.25
513.994	687.25
514.21	662.25
514.426	673.25
514.642	679.25
514.858	687.25
515.074	667.25
515.29	689.25
515.506	696.25
515.721	712.25
515.937	716.25
516.153	719.25
516.369	751.25
516.585	717.25
516.801	755.25
517.016	772.25
517.232	774.25
517.448	803.25
517.664	821.25
517.879	841.25
518.095	853.25
518.311	825.25
518.527	796.25
518.742	778.25
518.958	788.25
519.173	751.25
519.389	736.25
519.605	705.25
519.82	703.25
520.036	688.25
520.251	684.25
520.467	669.25
520.682	655.25
520.898	649.25
521.113	660.25
521.329	669.25
521.544	623.25
521.76	631.25
521.975	641.25
522.19	632.25
522.406	619.25
522.621	638.25
522.836	597.25
523.052	617.25
523.267	643.25
523.482	617.25
523.698	608.25
523.913	615.25
524.128	634.25
524.343	615.25
524.559	604.25
524.774	616.25
524.989	601.25
525.204	608.25
525.419	596.25
525.634	601.25
525.849	601.25
526.064	617.25
526.28	591.25
526.495	574.25
526.71	602.25
526.925	598.25
527.14	592.25
527.355	596.25
527.57	563.25
527.785	590.25
527.999	581.25
528.214	579.25
528.429	595.25
528.644	617.25
528.859	597.25
529.074	623.25
529.289	604.25
529.503	607.25
529.718	589.25
529.933	585.25
530.148	590.25
530.363	576.25
530.577	586.25
530.792	577.25
531.007	582.25
531.221	584.25
531.436	574.25
531.651	576.25
531.865	587.25
532.08	582.25
532.295	582.25
532.509	593.25
532.724	574.25
532.938	589.25
533.153	586.25
533.367	601.25
533.582	583.25
533.796	560.25
534.011	588.25
534.225	572.25
534.44	556.25
534.654	573.25
534.868	605.25
535.083	574.25
535.297	559.25
535.511	584.25
535.726	575.25
535.94	587.25
536.154	559.25
536.369	545.25
536.583	554.25
536.797	563.25
537.011	560.25
537.225	568.25
537.44	564.25
537.654	564.25
537.868	538.25
538.082	555.25
538.296	542.25
538.51	569.25
538.724	561.25
538.938	551.25
539.153	571.25
539.367	555.25
539.581	548.25
539.795	539.25
540.009	519.25
540.222	533.25
540.436	565.25
540.65	531.25
540.864	546.25
541.078	535.25
541.292	513.25
541.506	525.25
541.72	552.25
541.934	528.25
542.147	571.25
542.361	527.25
542.575	535.25
542.789	548.25
543.002	527.25
543.216	511.25
543.43	553.25
543.644	522.25
543.857	536.25
544.071	550.25
544.285	569.25
544.498	569.25
544.712	534.25
544.925	567.25
545.139	533.25
545.352	543.25
545.566	543.25
545.779	558.25
545.993	565.25
546.206	567.25
546.42	568.25
546.633	540.25
546.847	564.25
547.06	545.25
547.274	537.25
547.487	552.25
547.7	565.25
547.914	566.25
548.127	563.25
548.34	554.25
548.554	577.25
548.767	565.25
548.98	538.25
549.193	557.25
549.407	552.25
549.62	556.25
549.833	565.25
550.046	549.25
550.259	547.25
550.473	522.25
550.686	521.25
550.899	551.25
551.112	552.25
551.325	540.25
551.538	546.25
551.751	513.25
551.964	545.25
552.177	527.25
552.39	519.25
552.603	541.25
552.816	539.25
553.029	586.25
553.242	583.25
553.455	580.25
553.667	589.25
553.88	566.25
554.093	556.25
554.306	555.25
554.519	544.25
554.732	509.25
554.944	523.25
555.157	511.25
555.37	497.25
555.583	512.25
555.795	504.25
556.008	509.25
556.221	484.25
556.433	502.25
556.646	479.25
556.859	495.25
557.071	477.25
557.284	479.25
557.496	467.25
557.709	480.25
557.921	477.25
558.134	468.25
558.346	471.25
558.559	443.25
558.771	474.25
558.984	483.25
559.196	458.25
559.409	441.25
559.621	479.25
559.833	455.25
560.046	469.25
560.258	468.25
560.47	455.25
560.683	477.25
560.895	468.25
561.107	469.25
561.32	451.25
561.532	431.25
561.744	483.25
561.956	449.25
562.168	469.25
562.381	427.25
562.593	476.25
562.805	455.25
563.017	469.25
563.229	448.25
563.441	465.25
563.653	467.25
563.865	453.25
564.077	463.25
564.289	475.25
564.501	491.25
564.713	488.25
564.925	478.25
565.137	487.25
565.349	516.25
565.561	508.25
565.773	520.25
565.985	548.25
566.197	561.25
566.408	578.25
566.62	605.25
566.832	647.25
567.044	641.25
567.255	638.25
567.467	663.25
567.679	667.25
567.891	710.25
568.102	711.25
568.314	674.25
568.526	631.25
568.737	584.25
568.949	549.25
569.161	540.25
569.372	491.25
569.584	492.25
569.795	487.25
570.007	470.25
570.218	466.25
570.43	453.25
570.641	451.25
570.853	438.25
571.064	433.25
571.276	454.25
571.487	421.25
571.698	427.25
571.91	431.25
572.121	414.25
572.333	393.25
572.544	409.25
572.755	386.25
572.966	401.25
573.178	395.25
573.389	396.25
573.6	390.25
573.811	397.25
574.023	381.25
574.234	395.25
574.445	394.25
574.656	378.25
574.867	373.25
575.078	383.25
575.289	369.25
575.501	387.25
575.712	360.25
575.923	359.25
576.134	360.25
576.345	375.25
576.556	353.25
576.767	356.25
576.978	338.25
577.188	361.25
577.399	342.25
577.61	358.25
577.821	339.25
578.032	351.25
578.243	345.25
578.454	335.25
578.665	338.25
578.875	343.25
579.086	325.25
579.297	333.25
579.508	335.25
579.718	337.25
579.929	322.25
580.14	331.25
580.35	335.25
580.561	322.25
580.772	322.25
580.982	312.25
581.193	329.25
581.403	316.25
581.614	329.25
581.825	323.25
582.035	317.25
582.246	324.25
582.456	315.25
582.667	326.25
582.877	348.25
583.087	328.25
583.298	318.25
583.508	315.25
583.719	325.25
583.929	313.25
584.139	303.25
584.35	325.25
584.56	314.25
584.77	323.25
584.981	305.25
585.191	340.25
585.401	307.25
585.611	312.25
585.821	309.25
586.032	312.25
586.242	314.25
586.452	314.25
586.662	287.25
586.872	307.25
587.082	306.25
587.292	297.25
587.502	306.25
587.713	317.25
587.923	300.25
588.133	289.25
588.343	318.25
588.553	288.25
588.762	315.25
588.972	297.25
589.182	358.25
589.392	344.25
589.602	322.25
589.812	341.25
590.022	328.25
590.232	292.25
590.441	296.25
590.651	298.25
590.861	308.25
591.071	303.25
591.281	308.25
591.49	307.25
591.7	315.25
591.91	309.25
592.119	311.25
592.329	319.25
592.539	352.25
592.748	340.25
592.958	320.25
593.167	316.25
593.377	348.25
593.587	344.25
593.796	327.25
594.006	341.25
594.215	335.25
594.424	333.25
594.634	364.25
594.843	341.25
595.053	330.25
595.262	317.25
595.472	296.25
595.681	292.25
595.89	325.25
596.1	295.25
596.309	289.25
596.518	281.25
596.727	287.25
596.937	284.25
597.146	274.25
597.355	277.25
597.564	276.25
597.774	271.25
597.983	259.25
598.192	279.25
598.401	255.25
598.61	272.25
598.819	256.25
599.028	262.25
599.237	259.25
599.446	251.25
599.655	262.25
599.864	243.25
600.073	255.25
600.282	253.25
600.491	250.25
600.7	264.25
600.909	261.25
601.118	273.25
601.327	257.25
601.536	236.25
601.745	266.25
601.953	252.25
602.162	255.25
602.371	256.25
602.58	250.25
602.789	255.25
602.997	241.25
603.206	224.25
603.415	247.25
603.623	251.25
603.832	239.25
604.041	244.25
604.249	247.25
604.458	247.25
604.666	234.25
604.875	232.25
605.084	235.25
605.292	241.25
605.501	255.25
605.709	234.25
605.918	239.25
606.126	245.25
606.334	256.25
606.543	239.25
606.751	242.25
606.96	253.25
607.168	236.25
607.376	236.25
607.585	243.25
607.793	237.25
608.001	240.25
608.21	235.25
608.418	242.25
608.626	229.25
608.834	219.25
609.043	221.25
609.251	249.25
609.459	213.25
609.667	225.25
609.875	229.25
610.083	240.25
610.291	208.25
610.499	233.25
610.707	225.25
610.916	248.25
611.124	213.25
611.332	216.25
611.54	239.25
611.748	228.25
611.955	225.25
612.163	243.25
612.371	220.25
612.579	236.25
612.787	228.25
612.995	226.25
613.203	230.25
613.411	210.25
613.618	219.25
613.826	230.25
614.034	216.25
614.242	256.25
614.449	220.25
614.657	227.25
614.865	235.25
615.072	225.25
615.28	209.25
615.488	230.25
615.695	225.25
615.903	210.25
616.111	224.25
616.318	229.25
616.526	212.25
616.733	232.25
616.941	226.25
617.148	215.25
617.356	220.25
617.563	229.25
617.771	219.25
617.978	238.25
618.185	211.25
618.393	224.25
618.6	209.25
618.807	219.25
619.015	231.25
619.222	222.25
619.429	202.25
619.637	209.25
619.844	217.25
620.051	208.25
620.258	211.25
620.466	204.25
620.673	213.25
620.88	191.25
621.087	213.25
621.294	198.25
621.501	200.25
621.708	194.25
621.915	208.25
622.122	226.25
622.329	219.25
622.536	212.25
622.743	213.25
622.95	209.25
623.157	195.25
623.364	195.25
623.571	210.25
623.778	207.25
623.985	205.25
624.192	199.25
624.399	187.25
624.606	203.25
624.812	206.25
625.019	198.25
625.226	195.25
625.433	181.25
625.639	186.25
625.846	191.25
626.053	188.25
626.259	207.25
626.466	195.25
626.673	203.25
626.879	187.25
627.086	178.25
627.293	191.25
627.499	184.25
627.706	188.25
627.912	200.25
628.119	193.25
628.325	192.25
628.532	171.25
628.738	188.25
628.945	186.25
629.151	183.25
629.357	199.25
629.564	189.25
629.77	187.25
629.976	192.25
630.183	191.25
630.389	194.25
630.595	199.25
630.802	179.25
631.008	184.25
631.214	191.25
631.42	185.25
631.627	189.25
631.833	181.25
632.039	175.25
632.245	155.25
632.451	177.25
632.657	166.25
632.863	173.25
633.069	185.25
633.275	185.25
633.481	167.25
633.688	170.25
633.893	162.25
634.099	167.25
634.305	173.25
634.511	178.25
634.717	175.25
634.923	158.25
635.129	170.25
635.335	164.25
635.541	164.25
635.747	170.25
635.952	168.25
636.158	154.25
636.364	159.25
636.57	166.25
636.775	160.25
636.981	188.25
637.187	164.25
637.392	164.25
637.598	170.25
637.804	173.25
638.009	160.25
638.215	162.25
638.421	164.25
638.626	197.25
638.832	166.25
639.037	165.25
639.243	168.25
639.448	181.25
639.654	166.25
639.859	164.25
640.065	153.25
640.27	151.25
640.475	165.25
640.681	161.25
640.886	164.25
641.091	154.25
641.297	165.25
641.502	147.25
641.707	162.25
641.913	157.25
642.118	159.25
642.323	165.25
642.528	163.25
642.733	154.25
642.939	160.25
643.144	158.25
643.349	153.25
643.554	173.25
643.759	168.25
643.964	156.25
644.169	177.25
644.374	151.25
644.579	147.25
644.784	149.25
644.989	155.25
645.194	153.25
645.399	164.25
645.604	155.25
645.809	158.25
646.014	174.25
646.219	167.25
646.423	172.25
646.628	163.25
646.833	169.25
647.038	161.25
647.243	154.25
647.447	163.25
647.652	149.25
647.857	172.25
648.062	164.25
648.266	164.25
648.471	176.25
648.676	170.25
648.88	162.25
649.085	156.25
649.289	154.25
649.494	157.25
649.698	158.25
649.903	157.25
650.107	151.25
650.312	177.25
650.516	142.25
650.721	153.25
650.925	153.25
651.13	159.25
651.334	147.25
651.539	150.25
651.743	157.25
651.947	139.25
652.152	153.25
652.356	140.25
652.56	145.25
652.764	139.25
652.969	131.25
653.173	139.25
653.377	124.25
653.581	140.25
653.785	138.25
653.99	136.25
654.194	140.25
654.398	147.25
654.602	138.25
654.806	135.25
655.01	121.25
655.214	120.25
655.418	123.25
655.622	116.25
655.826	131.25
656.03	118.25
656.234	137.25
656.438	129.25
656.642	132.25
656.846	131.25
657.049	114.25
657.253	130.25
657.457	122.25
657.661	124.25
657.865	116.25
658.068	106.25
658.272	120.25
658.476	120.25
658.68	88.25
658.883	99.25
659.087	97.25
659.291	104.25
659.494	98.25
659.698	101.25
659.901	90.25
660.105	86.25
660.309	90.25
660.512	88.25
660.716	93.25
660.919	85.25
661.123	85.25
661.326	76.25
661.53	88.25
661.733	86.25
661.936	99.25
662.14	92.25
662.343	82.25
662.546	91.25
662.75	78.25
662.953	95.25
663.156	71.25
663.36	81.25
663.563	87.25
663.766	79.25
663.969	82.25
664.173	73.25
664.376	72.25
664.579	80.25
664.782	69.25
664.985	85.25
665.188	92.25
665.391	88.25
665.594	78.25
665.797	80.25
666	80.25
666.203	66.25
666.406	77.25
666.609	73.25
666.812	87.25
667.015	93.25
667.218	89.25
667.421	70.25
667.624	92.25
667.827	79.25
668.03	80.25
668.232	79.25
668.435	83.25
668.638	77.25
668.841	73.25
669.043	88.25
669.246	82.25
669.449	88.25
669.651	82.25
669.854	69.25
670.057	88.25
670.259	61.25
670.462	73.25
670.665	71.25
670.867	75.25
671.07	67.25
671.272	79.25
671.475	75.25
671.677	74.25
671.88	74.25
672.082	90.25
672.284	85.25
672.487	88.25
672.689	81.25
672.892	74.25
