Data from NiCl2@0.0625M.TitratingCurve.Agarose3%dH2O.NegLispCup.LampEnergy10.LIBS07252019_HRD10591_18-33-16-576.txt Node
Date: Thu Jul 25 18:33:16 EDT 2019
User: cochatt
Spectrometer: HR+D1059
Trigger mode: 1
Integration Time (sec): 1.000000E-1
Scans to average: 1
Electric dark correction enabled: true
Nonlinearity correction enabled: false
Boxcar width: 0
XAxis mode: Wavelengths
Number of Pixels in Spectrum: 2048
>>>>>Begin Spectral Data<<<<<
223.165	-19.06
223.4	-19.06
223.635	-19.06
223.869	-16.06
224.104	-15.06
224.338	-28.06
224.573	-7.06
224.808	-10.06
225.042	-12.06
225.277	-7.06
225.511	10.94
225.746	-5.06
225.98	2.94
226.215	5.94
226.449	18.94
226.683	20.94
226.918	26.94
227.152	32.94
227.387	38.94
227.621	47.94
227.856	49.94
228.09	37.94
228.324	54.94
228.559	51.94
228.793	81.94
229.027	155.94
229.262	146.94
229.496	159.94
229.73	169.94
229.964	176.94
230.199	188.94
230.433	184.94
230.667	184.94
230.901	199.94
231.136	199.94
231.37	181.94
231.604	191.94
231.838	203.94
232.072	207.94
232.306	201.94
232.541	207.94
232.775	212.94
233.009	217.94
233.243	218.94
233.477	230.94
233.711	215.94
233.945	222.94
234.179	239.94
234.413	229.94
234.647	219.94
234.881	216.94
235.115	242.94
235.349	244.94
235.583	225.94
235.817	218.94
236.051	228.94
236.285	239.94
236.519	235.94
236.753	246.94
236.987	246.94
237.221	233.94
237.455	259.94
237.689	262.94
237.922	262.94
238.156	267.94
238.39	269.94
238.624	253.94
238.858	277.94
239.091	271.94
239.325	288.94
239.559	265.94
239.793	255.94
240.027	287.94
240.26	289.94
240.494	282.94
240.728	295.94
240.961	291.94
241.195	304.94
241.429	300.94
241.662	324.94
241.896	303.94
242.13	314.94
242.363	307.94
242.597	326.94
242.83	303.94
243.064	320.94
243.298	340.94
243.531	333.94
243.765	325.94
243.998	367.94
244.232	361.94
244.465	344.94
244.699	343.94
244.932	354.94
245.166	365.94
245.399	372.94
245.633	367.94
245.866	354.94
246.099	363.94
246.333	363.94
246.566	361.94
246.8	373.94
247.033	337.94
247.266	380.94
247.5	389.94
247.733	371.94
247.966	406.94
248.2	420.94
248.433	415.94
248.666	410.94
248.899	414.94
249.133	411.94
249.366	433.94
249.599	419.94
249.832	434.94
250.066	410.94
250.299	418.94
250.532	429.94
250.765	442.94
250.998	450.94
251.231	442.94
251.465	436.94
251.698	450.94
251.931	470.94
252.164	470.94
252.397	453.94
252.63	449.94
252.863	436.94
253.096	476.94
253.329	474.94
253.562	461.94
253.795	489.94
254.028	495.94
254.261	494.94
254.494	487.94
254.727	478.94
254.96	468.94
255.193	503.94
255.426	495.94
255.659	485.94
255.892	490.94
256.124	503.94
256.357	508.94
256.59	512.94
256.823	519.94
257.056	505.94
257.289	499.94
257.521	522.94
257.754	526.94
257.987	529.94
258.22	523.94
258.452	535.94
258.685	546.94
258.918	525.94
259.151	530.94
259.383	539.94
259.616	541.94
259.849	538.94
260.081	575.94
260.314	574.94
260.547	556.94
260.779	560.94
261.012	566.94
261.244	576.94
261.477	587.94
261.71	570.94
261.942	591.94
262.175	580.94
262.407	600.94
262.64	571.94
262.872	571.94
263.105	609.94
263.337	606.94
263.57	586.94
263.802	613.94
264.035	595.94
264.267	620.94
264.499	623.94
264.732	619.94
264.964	599.94
265.197	611.94
265.429	622.94
265.661	626.94
265.894	619.94
266.126	616.94
266.358	633.94
266.591	630.94
266.823	631.94
267.055	638.94
267.287	664.94
267.52	640.94
267.752	665.94
267.984	657.94
268.216	655.94
268.448	669.94
268.681	633.94
268.913	663.94
269.145	665.94
269.377	679.94
269.609	670.94
269.841	663.94
270.073	660.94
270.306	674.94
270.538	677.94
270.77	676.94
271.002	662.94
271.234	690.94
271.466	683.94
271.698	692.94
271.93	710.94
272.162	701.94
272.394	701.94
272.626	707.94
272.858	713.94
273.09	738.94
273.322	713.94
273.553	710.94
273.785	737.94
274.017	725.94
274.249	738.94
274.481	754.94
274.713	750.94
274.945	758.94
275.176	747.94
275.408	763.94
275.64	755.94
275.872	774.94
276.104	774.94
276.335	723.94
276.567	764.94
276.799	753.94
277.031	780.94
277.262	777.94
277.494	766.94
277.726	788.94
277.957	772.94
278.189	786.94
278.421	788.94
278.652	792.94
278.884	784.94
279.115	808.94
279.347	792.94
279.579	800.94
279.81	835.94
280.042	837.94
280.273	830.94
280.505	827.94
280.736	814.94
280.968	841.94
281.199	846.94
281.431	828.94
281.662	852.94
281.894	849.94
282.125	843.94
282.356	844.94
282.588	814.94
282.819	855.94
283.051	863.94
283.282	840.94
283.513	872.94
283.745	894.94
283.976	887.94
284.207	905.94
284.439	897.94
284.67	908.94
284.901	894.94
285.132	881.94
285.364	878.94
285.595	892.94
285.826	927.94
286.057	908.94
286.288	890.94
286.52	933.94
286.751	934.94
286.982	937.94
287.213	914.94
287.444	920.94
287.675	935.94
287.906	894.94
288.138	964.94
288.369	951.94
288.6	951.94
288.831	917.94
289.062	921.94
289.293	970.94
289.524	934.94
289.755	931.94
289.986	939.94
290.217	952.94
290.448	955.94
290.679	971.94
290.91	958.94
291.141	958.94
291.371	970.94
291.602	975.94
291.833	978.94
292.064	967.94
292.295	959.94
292.526	962.94
292.757	976.94
292.987	974.94
293.218	937.94
293.449	960.94
293.68	972.94
293.91	970.94
294.141	981.94
294.372	964.94
294.603	966.94
294.833	975.94
295.064	988.94
295.295	988.94
295.525	965.94
295.756	985.94
295.987	978.94
296.217	999.94
296.448	1006.94
296.679	992.94
296.909	1000.94
297.14	1000.94
297.37	1016.94
297.601	1047.94
297.831	1044.94
298.062	1036.94
298.292	1044.94
298.523	1060.94
298.753	1044.94
298.984	1046.94
299.214	1056.94
299.445	1066.94
299.675	1029.94
299.905	1040.94
300.136	1052.94
300.366	1087.94
300.597	1095.94
300.827	1084.94
301.057	1080.94
301.288	1143.94
301.518	1089.94
301.748	1083.94
301.979	1105.94
302.209	1122.94
302.439	1091.94
302.669	1107.94
302.9	1093.94
303.13	1134.94
303.36	1092.94
303.59	1082.94
303.82	1081.94
304.051	1099.94
304.281	1107.94
304.511	1084.94
304.741	1114.94
304.971	1123.94
305.201	1107.94
305.431	1127.94
305.661	1128.94
305.891	1109.94
306.121	1107.94
306.352	1095.94
306.582	1058.94
306.812	1051.94
307.042	1094.94
307.272	1086.94
307.502	1086.94
307.731	1079.94
307.961	1088.94
308.191	1075.94
308.421	1085.94
308.651	1087.94
308.881	1099.94
309.111	1098.94
309.341	1058.94
309.571	1088.94
309.8	1084.94
310.03	1091.94
310.26	1141.94
310.49	1115.94
310.72	1079.94
310.949	1087.94
311.179	1113.94
311.409	1098.94
311.639	1121.94
311.868	1100.94
312.098	1149.94
312.328	1154.94
312.557	1150.94
312.787	1120.94
313.017	1164.94
313.246	1172.94
313.476	1155.94
313.706	1184.94
313.935	1163.94
314.165	1158.94
314.394	1190.94
314.624	1215.94
314.853	1140.94
315.083	1183.94
315.312	1202.94
315.542	1192.94
315.771	1179.94
316.001	1152.94
316.23	1164.94
316.46	1166.94
316.689	1204.94
316.919	1130.94
317.148	1178.94
317.377	1136.94
317.607	1159.94
317.836	1165.94
318.065	1143.94
318.295	1176.94
318.524	1172.94
318.753	1159.94
318.983	1164.94
319.212	1138.94
319.441	1140.94
319.67	1161.94
319.9	1174.94
320.129	1152.94
320.358	1200.94
320.587	1189.94
320.816	1162.94
321.046	1178.94
321.275	1164.94
321.504	1176.94
321.733	1153.94
321.962	1196.94
322.191	1178.94
322.42	1148.94
322.649	1173.94
322.878	1189.94
323.108	1174.94
323.337	1202.94
323.566	1194.94
323.795	1207.94
324.024	1184.94
324.253	1240.94
324.482	1231.94
324.71	1205.94
324.939	1193.94
325.168	1211.94
325.397	1199.94
325.626	1207.94
325.855	1246.94
326.084	1280.94
326.313	1284.94
326.542	1271.94
326.77	1299.94
326.999	1258.94
327.228	1223.94
327.457	1255.94
327.686	1263.94
327.914	1243.94
328.143	1264.94
328.372	1280.94
328.6	1284.94
328.829	1279.94
329.058	1290.94
329.287	1285.94
329.515	1305.94
329.744	1263.94
329.972	1297.94
330.201	1319.94
330.43	1299.94
330.658	1293.94
330.887	1329.94
331.115	1332.94
331.344	1348.94
331.572	1358.94
331.801	1364.94
332.03	1393.94
332.258	1381.94
332.486	1436.94
332.715	1472.94
332.943	1546.94
333.172	1564.94
333.4	1571.94
333.629	1606.94
333.857	1673.94
334.085	1660.94
334.314	1632.94
334.542	1636.94
334.771	1636.94
334.999	1628.94
335.227	1622.94
335.455	1650.94
335.684	1613.94
335.912	1595.94
336.14	1550.94
336.369	1558.94
336.597	1576.94
336.825	1508.94
337.053	1508.94
337.281	1527.94
337.51	1457.94
337.738	1466.94
337.966	1458.94
338.194	1429.94
338.422	1392.94
338.65	1408.94
338.878	1375.94
339.106	1384.94
339.334	1402.94
339.562	1382.94
339.79	1343.94
340.018	1366.94
340.246	1312.94
340.474	1327.94
340.702	1356.94
340.93	1347.94
341.158	1354.94
341.386	1376.94
341.614	1318.94
341.842	1329.94
342.07	1362.94
342.298	1334.94
342.526	1318.94
342.754	1375.94
342.981	1326.94
343.209	1316.94
343.437	1393.94
343.665	1447.94
343.893	1562.94
344.12	1593.94
344.348	1559.94
344.576	1495.94
344.804	1470.94
345.031	1377.94
345.259	1393.94
345.487	1386.94
345.714	1323.94
345.942	1289.94
346.17	1320.94
346.397	1298.94
346.625	1302.94
346.853	1278.94
347.08	1282.94
347.308	1304.94
347.535	1284.94
347.763	1299.94
347.99	1278.94
348.218	1261.94
348.445	1279.94
348.673	1254.94
348.9	1272.94
349.128	1287.94
349.355	1224.94
349.583	1249.94
349.81	1235.94
350.037	1266.94
350.265	1244.94
350.492	1248.94
350.72	1240.94
350.947	1209.94
351.174	1253.94
351.402	1198.94
351.629	1228.94
351.856	1223.94
352.083	1231.94
352.311	1187.94
352.538	1208.94
352.765	1247.94
352.992	1216.94
353.22	1220.94
353.447	1233.94
353.674	1209.94
353.901	1244.94
354.128	1243.94
354.355	1236.94
354.583	1266.94
354.81	1241.94
355.037	1247.94
355.264	1227.94
355.491	1246.94
355.718	1254.94
355.945	1244.94
356.172	1242.94
356.399	1236.94
356.626	1262.94
356.853	1269.94
357.08	1222.94
357.307	1257.94
357.534	1284.94
357.761	1243.94
357.988	1255.94
358.215	1244.94
358.441	1269.94
358.668	1273.94
358.895	1262.94
359.122	1211.94
359.349	1207.94
359.576	1242.94
359.802	1243.94
360.029	1234.94
360.256	1234.94
360.483	1247.94
360.709	1256.94
360.936	1221.94
361.163	1217.94
361.39	1227.94
361.616	1227.94
361.843	1259.94
362.07	1244.94
362.296	1235.94
362.523	1227.94
362.749	1247.94
362.976	1241.94
363.203	1253.94
363.429	1250.94
363.656	1228.94
363.882	1243.94
364.109	1229.94
364.335	1238.94
364.562	1252.94
364.788	1242.94
365.015	1238.94
365.241	1249.94
365.468	1237.94
365.694	1213.94
365.92	1198.94
366.147	1242.94
366.373	1242.94
366.599	1258.94
366.826	1247.94
367.052	1216.94
367.278	1239.94
367.505	1230.94
367.731	1264.94
367.957	1259.94
368.184	1231.94
368.41	1268.94
368.636	1272.94
368.862	1254.94
369.089	1248.94
369.315	1275.94
369.541	1283.94
369.767	1313.94
369.993	1286.94
370.219	1328.94
370.445	1320.94
370.672	1298.94
370.898	1326.94
371.124	1305.94
371.35	1365.94
371.576	1345.94
371.802	1329.94
372.028	1334.94
372.254	1336.94
372.48	1331.94
372.706	1390.94
372.932	1392.94
373.158	1393.94
373.384	1369.94
373.61	1335.94
373.835	1370.94
374.061	1342.94
374.287	1392.94
374.513	1374.94
374.739	1428.94
374.965	1458.94
375.191	1478.94
375.416	1480.94
375.642	1420.94
375.868	1466.94
376.094	1402.94
376.319	1411.94
376.545	1386.94
376.771	1375.94
376.997	1327.94
377.222	1331.94
377.448	1332.94
377.674	1350.94
377.899	1311.94
378.125	1341.94
378.35	1339.94
378.576	1369.94
378.802	1319.94
379.027	1368.94
379.253	1349.94
379.478	1312.94
379.704	1326.94
379.929	1328.94
380.155	1355.94
380.38	1307.94
380.606	1366.94
380.831	1330.94
381.057	1352.94
381.282	1350.94
381.507	1329.94
381.733	1375.94
381.958	1348.94
382.184	1382.94
382.409	1426.94
382.634	1390.94
382.86	1385.94
383.085	1440.94
383.31	1443.94
383.535	1470.94
383.761	1465.94
383.986	1486.94
384.211	1506.94
384.436	1518.94
384.662	1545.94
384.887	1571.94
385.112	1602.94
385.337	1620.94
385.562	1608.94
385.787	1577.94
386.013	1621.94
386.238	1635.94
386.463	1670.94
386.688	1656.94
386.913	1620.94
387.138	1593.94
387.363	1611.94
387.588	1577.94
387.813	1563.94
388.038	1618.94
388.263	1628.94
388.488	1631.94
388.713	1655.94
388.938	1640.94
389.163	1607.94
389.387	1611.94
389.612	1575.94
389.837	1609.94
390.062	1601.94
390.287	1610.94
390.512	1585.94
390.736	1617.94
390.961	1633.94
391.186	1636.94
391.411	1715.94
391.636	1760.94
391.86	1784.94
392.085	1796.94
392.31	1815.94
392.534	1760.94
392.759	1740.94
392.984	1732.94
393.208	1723.94
393.433	1746.94
393.658	1771.94
393.882	1698.94
394.107	1711.94
394.331	1702.94
394.556	1702.94
394.78	1725.94
395.005	1729.94
395.229	1714.94
395.454	1767.94
395.678	1778.94
395.903	1764.94
396.127	1779.94
396.352	1733.94
396.576	1734.94
396.801	1734.94
397.025	1799.94
397.249	1806.94
397.474	1834.94
397.698	1832.94
397.922	1827.94
398.147	1819.94
398.371	1846.94
398.595	1952.94
398.82	2002.94
399.044	2169.94
399.268	2328.94
399.492	2622.94
399.717	2803.94
399.941	2818.94
400.165	2611.94
400.389	2372.94
400.613	2261.94
400.837	2169.94
401.062	2012.94
401.286	2030.94
401.51	2047.94
401.734	2009.94
401.958	2014.94
402.182	2004.94
402.406	2023.94
402.63	2092.94
402.854	2090.94
403.078	2135.94
403.302	2155.94
403.526	2179.94
403.75	2191.94
403.974	2205.94
404.198	2194.94
404.422	2208.94
404.645	2178.94
404.869	2144.94
405.093	2190.94
405.317	2197.94
405.541	2176.94
405.765	2214.94
405.988	2185.94
406.212	2202.94
406.436	2174.94
406.66	2242.94
406.883	2261.94
407.107	2398.94
407.331	2479.94
407.555	2555.94
407.778	2560.94
408.002	2506.94
408.226	2432.94
408.449	2399.94
408.673	2289.94
408.896	2270.94
409.12	2254.94
409.344	2279.94
409.567	2248.94
409.791	2225.94
410.014	2239.94
410.238	2165.94
410.461	2249.94
410.685	2192.94
410.908	2139.94
411.132	2128.94
411.355	2073.94
411.578	2047.94
411.802	2105.94
412.025	2070.94
412.249	2145.94
412.472	2128.94
412.695	2088.94
412.919	2037.94
413.142	2074.94
413.365	2031.94
413.589	2002.94
413.812	1979.94
414.035	1991.94
414.258	2011.94
414.482	2024.94
414.705	2032.94
414.928	2022.94
415.151	2062.94
415.374	2019.94
415.597	2018.94
415.821	1994.94
416.044	1914.94
416.267	1951.94
416.49	1911.94
416.713	1931.94
416.936	1957.94
417.159	1921.94
417.382	1915.94
417.605	1905.94
417.828	1932.94
418.051	1976.94
418.274	1942.94
418.497	1937.94
418.72	2016.94
418.943	1994.94
419.166	2121.94
419.389	2256.94
419.611	2178.94
419.834	2090.94
420.057	2023.94
420.28	1968.94
420.503	1912.94
420.726	1948.94
420.948	1905.94
421.171	1939.94
421.394	1930.94
421.617	1934.94
421.839	1910.94
422.062	1971.94
422.285	1905.94
422.507	1988.94
422.73	1967.94
422.953	1981.94
423.175	1976.94
423.398	2035.94
423.621	1961.94
423.843	2005.94
424.066	2001.94
424.288	2025.94
424.511	1977.94
424.733	1996.94
424.956	1951.94
425.178	1928.94
425.401	1946.94
425.623	1923.94
425.846	1892.94
426.068	1895.94
426.291	1925.94
426.513	1852.94
426.735	1844.94
426.958	1849.94
427.18	1793.94
427.402	1788.94
427.625	1815.94
427.847	1784.94
428.069	1740.94
428.292	1780.94
428.514	1741.94
428.736	1728.94
428.958	1750.94
429.181	1756.94
429.403	1703.94
429.625	1731.94
429.847	1710.94
430.069	1681.94
430.292	1721.94
430.514	1714.94
430.736	1756.94
430.958	1738.94
431.18	1755.94
431.402	1750.94
431.624	1726.94
431.846	1760.94
432.068	1763.94
432.29	1816.94
432.512	1765.94
432.734	1766.94
432.956	1735.94
433.178	1792.94
433.4	1753.94
433.622	1800.94
433.844	1829.94
434.066	1817.94
434.287	1845.94
434.509	1876.94
434.731	1918.94
434.953	1950.94
435.175	1936.94
435.397	1939.94
435.618	1835.94
435.84	1849.94
436.062	1791.94
436.284	1769.94
436.505	1774.94
436.727	1792.94
436.949	1762.94
437.17	1736.94
437.392	1743.94
437.614	1710.94
437.835	1657.94
438.057	1676.94
438.278	1689.94
438.5	1669.94
438.721	1651.94
438.943	1739.94
439.165	1658.94
439.386	1700.94
439.608	1697.94
439.829	1728.94
440.05	1743.94
440.272	1706.94
440.493	1721.94
440.715	1781.94
440.936	1756.94
441.158	1808.94
441.379	1815.94
441.6	1883.94
441.822	1885.94
442.043	1946.94
442.264	1879.94
442.486	1854.94
442.707	1911.94
442.928	1857.94
443.149	1879.94
443.371	1858.94
443.592	1935.94
443.813	1886.94
444.034	1931.94
444.255	1998.94
444.476	2026.94
444.698	2153.94
444.919	2180.94
445.14	2225.94
445.361	2061.94
445.582	1989.94
445.803	1905.94
446.024	1816.94
446.245	1799.94
446.466	1802.94
446.687	1756.94
446.908	1726.94
447.129	1720.94
447.35	1676.94
447.571	1643.94
447.792	1643.94
448.013	1612.94
448.234	1597.94
448.455	1627.94
448.675	1600.94
448.896	1603.94
449.117	1543.94
449.338	1564.94
449.559	1548.94
449.779	1560.94
450	1555.94
450.221	1562.94
450.442	1540.94
450.662	1570.94
450.883	1567.94
451.104	1611.94
451.324	1563.94
451.545	1584.94
451.766	1570.94
451.986	1545.94
452.207	1536.94
452.428	1543.94
452.648	1535.94
452.869	1507.94
453.089	1488.94
453.31	1493.94
453.53	1527.94
453.751	1505.94
453.971	1504.94
454.192	1511.94
454.412	1487.94
454.633	1486.94
454.853	1475.94
455.073	1485.94
455.294	1475.94
455.514	1484.94
455.734	1473.94
455.955	1451.94
456.175	1490.94
456.395	1472.94
456.616	1475.94
456.836	1446.94
457.056	1446.94
457.276	1426.94
457.497	1465.94
457.717	1477.94
457.937	1491.94
458.157	1526.94
458.377	1515.94
458.598	1542.94
458.818	1596.94
459.038	1611.94
459.258	1669.94
459.478	1719.94
459.698	1780.94
459.918	1782.94
460.138	1881.94
460.358	1966.94
460.578	1995.94
460.798	1991.94
461.018	2008.94
461.238	1968.94
461.458	1964.94
461.678	1985.94
461.898	2000.94
462.118	2002.94
462.338	2129.94
462.558	2145.94
462.777	2247.94
462.997	2424.94
463.217	2501.94
463.437	2517.94
463.657	2382.94
463.876	2281.94
464.096	2295.94
464.316	2302.94
464.536	2293.94
464.755	2205.94
464.975	2139.94
465.195	2068.94
465.414	1980.94
465.634	1826.94
465.854	1786.94
466.073	1780.94
466.293	1743.94
466.512	1715.94
466.732	1679.94
466.951	1692.94
467.171	1646.94
467.391	1653.94
467.61	1664.94
467.829	1616.94
468.049	1624.94
468.268	1610.94
468.488	1627.94
468.707	1615.94
468.927	1558.94
469.146	1577.94
469.365	1598.94
469.585	1636.94
469.804	1633.94
470.023	1664.94
470.243	1659.94
470.462	1703.94
470.681	1713.94
470.901	1691.94
471.12	1695.94
471.339	1644.94
471.558	1608.94
471.777	1606.94
471.997	1588.94
472.216	1623.94
472.435	1608.94
472.654	1582.94
472.873	1556.94
473.092	1588.94
473.311	1564.94
473.53	1548.94
473.749	1536.94
473.968	1545.94
474.187	1527.94
474.406	1545.94
474.625	1562.94
474.844	1545.94
475.063	1585.94
475.282	1592.94
475.501	1616.94
475.72	1613.94
475.939	1634.94
476.158	1648.94
476.377	1664.94
476.596	1681.94
476.814	1642.94
477.033	1647.94
477.252	1701.94
477.471	1745.94
477.69	1788.94
477.908	1818.94
478.127	1853.94
478.346	1918.94
478.564	1933.94
478.783	1922.94
479.002	1971.94
479.22	1981.94
479.439	2005.94
479.658	1947.94
479.876	1999.94
480.095	2004.94
480.313	2095.94
480.532	2089.94
480.751	2088.94
480.969	2069.94
481.188	1972.94
481.406	1997.94
481.624	1957.94
481.843	1940.94
482.061	1911.94
482.28	1876.94
482.498	1898.94
482.717	1911.94
482.935	1918.94
483.153	1901.94
483.372	1933.94
483.59	1935.94
483.808	1924.94
484.027	1936.94
484.245	1978.94
484.463	1982.94
484.681	2023.94
484.9	2004.94
485.118	2051.94
485.336	2039.94
485.554	2099.94
485.772	2153.94
485.99	2087.94
486.209	2083.94
486.427	2090.94
486.645	2075.94
486.863	2073.94
487.081	2080.94
487.299	2039.94
487.517	2010.94
487.735	2036.94
487.953	2076.94
488.171	2008.94
488.389	1998.94
488.607	2015.94
488.825	2017.94
489.043	2007.94
489.261	1958.94
489.479	1998.94
489.696	2000.94
489.914	1951.94
490.132	1983.94
490.35	2000.94
490.568	1986.94
490.786	2009.94
491.003	1987.94
491.221	1968.94
491.439	2008.94
491.657	1983.94
491.874	1966.94
492.092	1931.94
492.31	1965.94
492.527	1976.94
492.745	1962.94
492.963	1999.94
493.18	2022.94
493.398	1994.94
493.615	1973.94
493.833	2044.94
494.05	1995.94
494.268	1995.94
494.485	1995.94
494.703	1994.94
494.92	2032.94
495.138	2035.94
495.355	1997.94
495.573	2026.94
495.79	2061.94
496.008	2081.94
496.225	2102.94
496.442	2128.94
496.66	2132.94
496.877	2160.94
497.094	2153.94
497.312	2206.94
497.529	2267.94
497.746	2286.94
497.963	2363.94
498.181	2442.94
498.398	2596.94
498.615	2677.94
498.832	2839.94
499.049	3058.94
499.267	3239.94
499.484	3529.94
499.701	3842.94
499.918	4133.94
500.135	4618.94
500.352	4988.94
500.569	5247.94
500.786	5196.94
501.003	4900.94
501.22	4490.94
501.437	4142.94
501.654	3693.94
501.871	3410.94
502.088	3176.94
502.305	2985.94
502.522	2857.94
502.739	2758.94
502.956	2632.94
503.172	2511.94
503.389	2374.94
503.606	2346.94
503.823	2279.94
504.04	2295.94
504.256	2266.94
504.473	2310.94
504.69	2331.94
504.907	2234.94
505.123	2157.94
505.34	2059.94
505.557	2002.94
505.773	1918.94
505.99	1894.94
506.207	1851.94
506.423	1812.94
506.64	1801.94
506.856	1778.94
507.073	1796.94
507.289	1769.94
507.506	1755.94
507.722	1729.94
507.939	1728.94
508.155	1704.94
508.372	1650.94
508.588	1654.94
508.805	1679.94
509.021	1643.94
509.238	1656.94
509.454	1618.94
509.67	1586.94
509.887	1614.94
510.103	1583.94
510.319	1578.94
510.536	1560.94
510.752	1602.94
510.968	1548.94
511.184	1562.94
511.401	1586.94
511.617	1571.94
511.833	1557.94
512.049	1572.94
512.265	1561.94
512.481	1562.94
512.698	1548.94
512.914	1566.94
513.13	1619.94
513.346	1535.94
513.562	1557.94
513.778	1608.94
513.994	1563.94
514.21	1560.94
514.426	1571.94
514.642	1595.94
514.858	1586.94
515.074	1606.94
515.29	1657.94
515.506	1635.94
515.721	1718.94
515.937	1702.94
516.153	1712.94
516.369	1729.94
516.585	1796.94
516.801	1865.94
517.016	1850.94
517.232	1977.94
517.448	2045.94
517.664	2085.94
517.879	2098.94
518.095	2095.94
518.311	2044.94
518.527	2009.94
518.742	1978.94
518.958	1880.94
519.173	1826.94
519.389	1775.94
519.605	1716.94
519.82	1678.94
520.036	1647.94
520.251	1632.94
520.467	1607.94
520.682	1595.94
520.898	1566.94
521.113	1535.94
521.329	1540.94
521.544	1540.94
521.76	1482.94
521.975	1483.94
522.19	1541.94
522.406	1501.94
522.621	1478.94
522.836	1476.94
523.052	1455.94
523.267	1488.94
523.482	1485.94
523.698	1438.94
523.913	1427.94
524.128	1460.94
524.343	1440.94
524.559	1410.94
524.774	1439.94
524.989	1438.94
525.204	1404.94
525.419	1429.94
525.634	1396.94
525.849	1394.94
526.064	1410.94
526.28	1394.94
526.495	1393.94
526.71	1399.94
526.925	1394.94
527.14	1395.94
527.355	1360.94
527.57	1395.94
527.785	1374.94
527.999	1367.94
528.214	1387.94
528.429	1416.94
528.644	1420.94
528.859	1383.94
529.074	1382.94
529.289	1367.94
529.503	1391.94
529.718	1360.94
529.933	1382.94
530.148	1392.94
530.363	1360.94
530.577	1361.94
530.792	1367.94
531.007	1357.94
531.221	1387.94
531.436	1353.94
531.651	1387.94
531.865	1391.94
532.08	1381.94
532.295	1340.94
532.509	1398.94
532.724	1362.94
532.938	1339.94
533.153	1426.94
533.367	1346.94
533.582	1370.94
533.796	1360.94
534.011	1366.94
534.225	1366.94
534.44	1346.94
534.654	1351.94
534.868	1336.94
535.083	1338.94
535.297	1334.94
535.511	1305.94
535.726	1310.94
535.94	1322.94
536.154	1297.94
536.369	1283.94
536.583	1282.94
536.797	1273.94
537.011	1294.94
537.225	1256.94
537.44	1285.94
537.654	1267.94
537.868	1232.94
538.082	1259.94
538.296	1274.94
538.51	1243.94
538.724	1248.94
538.938	1262.94
539.153	1221.94
539.367	1238.94
539.581	1239.94
539.795	1241.94
540.009	1222.94
540.222	1224.94
540.436	1245.94
540.65	1235.94
540.864	1231.94
541.078	1223.94
541.292	1208.94
541.506	1216.94
541.72	1213.94
541.934	1222.94
542.147	1221.94
542.361	1224.94
542.575	1213.94
542.789	1191.94
543.002	1197.94
543.216	1200.94
543.43	1183.94
543.644	1164.94
543.857	1178.94
544.071	1209.94
544.285	1216.94
544.498	1232.94
544.712	1211.94
544.925	1184.94
545.139	1230.94
545.352	1188.94
545.566	1226.94
545.779	1238.94
545.993	1257.94
546.206	1257.94
546.42	1227.94
546.633	1266.94
546.847	1196.94
547.06	1202.94
547.274	1221.94
547.487	1214.94
547.7	1209.94
547.914	1209.94
548.127	1224.94
548.34	1238.94
548.554	1241.94
548.767	1214.94
548.98	1230.94
549.193	1240.94
549.407	1287.94
549.62	1262.94
549.833	1257.94
550.046	1272.94
550.259	1269.94
550.473	1242.94
550.686	1220.94
550.899	1261.94
551.112	1200.94
551.325	1233.94
551.538	1178.94
551.751	1208.94
551.964	1227.94
552.177	1254.94
552.39	1210.94
552.603	1249.94
552.816	1299.94
553.029	1345.94
553.242	1319.94
553.455	1321.94
553.667	1310.94
553.88	1320.94
554.093	1287.94
554.306	1260.94
554.519	1271.94
554.732	1209.94
554.944	1198.94
555.157	1168.94
555.37	1166.94
555.583	1147.94
555.795	1138.94
556.008	1123.94
556.221	1094.94
556.433	1096.94
556.646	1095.94
556.859	1058.94
557.071	1031.94
557.284	1067.94
557.496	1048.94
557.709	1052.94
557.921	1050.94
558.134	1049.94
558.346	1078.94
558.559	1047.94
558.771	1065.94
558.984	1036.94
559.196	1031.94
559.409	999.94
559.621	1028.94
559.833	1008.94
560.046	1017.94
560.258	1016.94
560.47	1019.94
560.683	1018.94
560.895	985.94
561.107	1020.94
561.32	1003.94
561.532	988.94
561.744	1022.94
561.956	988.94
562.168	980.94
562.381	1031.94
562.593	1015.94
562.805	1039.94
563.017	1036.94
563.229	1039.94
563.441	1043.94
563.653	1032.94
563.865	1046.94
564.077	1049.94
564.289	1061.94
564.501	1072.94
564.713	1044.94
564.925	1103.94
565.137	1136.94
565.349	1124.94
565.561	1182.94
565.773	1222.94
565.985	1252.94
566.197	1312.94
566.408	1377.94
566.62	1466.94
566.832	1568.94
567.044	1583.94
567.255	1627.94
567.467	1583.94
567.679	1706.94
567.891	1790.94
568.102	1767.94
568.314	1727.94
568.526	1627.94
568.737	1496.94
568.949	1379.94
569.161	1258.94
569.372	1186.94
569.584	1131.94
569.795	1115.94
570.007	1109.94
570.218	1076.94
570.43	1067.94
570.641	1015.94
570.853	1062.94
571.064	1051.94
571.276	1035.94
571.487	1008.94
571.698	994.94
571.91	950.94
572.121	912.94
572.333	897.94
572.544	886.94
572.755	896.94
572.966	851.94
573.178	865.94
573.389	841.94
573.6	849.94
573.811	832.94
574.023	825.94
574.234	839.94
574.445	801.94
574.656	798.94
574.867	796.94
575.078	794.94
575.289	823.94
575.501	793.94
575.712	774.94
575.923	794.94
576.134	787.94
576.345	822.94
576.556	765.94
576.767	780.94
576.978	795.94
577.188	771.94
577.399	758.94
577.61	767.94
577.821	770.94
578.032	732.94
578.243	747.94
578.454	744.94
578.665	733.94
578.875	740.94
579.086	716.94
579.297	737.94
579.508	710.94
579.718	745.94
579.929	727.94
580.14	707.94
580.35	727.94
580.561	717.94
580.772	673.94
580.982	699.94
581.193	694.94
581.403	704.94
581.614	703.94
581.825	699.94
582.035	678.94
582.246	679.94
582.456	709.94
582.667	699.94
582.877	664.94
583.087	676.94
583.298	652.94
583.508	695.94
583.719	684.94
583.929	658.94
584.139	692.94
584.35	662.94
584.56	646.94
584.77	649.94
584.981	665.94
585.191	658.94
585.401	675.94
585.611	640.94
585.821	678.94
586.032	657.94
586.242	671.94
586.452	673.94
586.662	650.94
586.872	655.94
587.082	654.94
587.292	642.94
587.502	661.94
587.713	638.94
587.923	662.94
588.133	672.94
588.343	653.94
588.553	642.94
588.762	646.94
588.972	648.94
589.182	673.94
589.392	631.94
589.602	663.94
589.812	672.94
590.022	648.94
590.232	652.94
590.441	670.94
590.651	676.94
590.861	662.94
591.071	653.94
591.281	665.94
591.49	675.94
591.7	684.94
591.91	692.94
592.119	692.94
592.329	716.94
592.539	727.94
592.748	739.94
592.958	770.94
593.167	773.94
593.377	800.94
593.587	796.94
593.796	788.94
594.006	767.94
594.215	819.94
594.424	788.94
594.634	775.94
594.843	771.94
595.053	740.94
595.262	713.94
595.472	699.94
595.681	686.94
595.89	658.94
596.1	640.94
596.309	631.94
596.518	627.94
596.727	624.94
596.937	607.94
597.146	624.94
597.355	603.94
597.564	569.94
597.774	586.94
597.983	565.94
598.192	562.94
598.401	583.94
598.61	576.94
598.819	578.94
599.028	551.94
599.237	546.94
599.446	547.94
599.655	555.94
599.864	550.94
600.073	526.94
600.282	530.94
600.491	548.94
600.7	544.94
600.909	527.94
601.118	527.94
601.327	540.94
601.536	516.94
601.745	503.94
601.953	538.94
602.162	534.94
602.371	548.94
602.58	497.94
602.789	497.94
602.997	531.94
603.206	512.94
603.415	495.94
603.623	505.94
603.832	503.94
604.041	496.94
604.249	517.94
604.458	522.94
604.666	499.94
604.875	496.94
605.084	475.94
605.292	502.94
605.501	490.94
605.709	488.94
605.918	492.94
606.126	504.94
606.334	467.94
606.543	481.94
606.751	487.94
606.96	495.94
607.168	483.94
607.376	464.94
607.585	468.94
607.793	469.94
608.001	496.94
608.21	491.94
608.418	471.94
608.626	456.94
608.834	492.94
609.043	483.94
609.251	474.94
609.459	484.94
609.667	452.94
609.875	467.94
610.083	463.94
610.291	459.94
610.499	459.94
610.707	470.94
610.916	459.94
611.124	452.94
611.332	470.94
611.54	468.94
611.748	456.94
611.955	451.94
612.163	452.94
612.371	452.94
612.579	453.94
612.787	453.94
612.995	464.94
613.203	452.94
613.411	463.94
613.618	456.94
613.826	458.94
614.034	454.94
614.242	435.94
614.449	438.94
614.657	433.94
614.865	451.94
615.072	455.94
615.28	437.94
615.488	440.94
615.695	463.94
615.903	445.94
616.111	438.94
616.318	461.94
616.526	470.94
616.733	463.94
616.941	452.94
617.148	441.94
617.356	428.94
617.563	457.94
617.771	435.94
617.978	440.94
618.185	468.94
618.393	450.94
618.6	455.94
618.807	436.94
619.015	461.94
619.222	450.94
619.429	448.94
619.637	433.94
619.844	406.94
620.051	426.94
620.258	426.94
620.466	402.94
620.673	424.94
620.88	423.94
621.087	415.94
621.294	417.94
621.501	412.94
621.708	420.94
621.915	407.94
622.122	406.94
622.329	391.94
622.536	420.94
622.743	416.94
622.95	401.94
623.157	400.94
623.364	395.94
623.571	393.94
623.778	400.94
623.985	398.94
624.192	406.94
624.399	409.94
624.606	394.94
624.812	366.94
625.019	371.94
625.226	384.94
625.433	380.94
625.639	385.94
625.846	370.94
626.053	374.94
626.259	381.94
626.466	376.94
626.673	397.94
626.879	366.94
627.086	378.94
627.293	356.94
627.499	358.94
627.706	362.94
627.912	357.94
628.119	367.94
628.325	368.94
628.532	374.94
628.738	389.94
628.945	368.94
629.151	378.94
629.357	344.94
629.564	357.94
629.77	361.94
629.976	353.94
630.183	358.94
630.389	328.94
630.595	356.94
630.802	338.94
631.008	345.94
631.214	341.94
631.42	339.94
631.627	349.94
631.833	365.94
632.039	349.94
632.245	339.94
632.451	343.94
632.657	356.94
632.863	332.94
633.069	331.94
633.275	341.94
633.481	328.94
633.688	327.94
633.893	340.94
634.099	346.94
634.305	333.94
634.511	332.94
634.717	309.94
634.923	316.94
635.129	325.94
635.335	330.94
635.541	328.94
635.747	327.94
635.952	312.94
636.158	321.94
636.364	305.94
636.57	311.94
636.775	329.94
636.981	331.94
637.187	331.94
637.392	302.94
637.598	299.94
637.804	322.94
638.009	310.94
638.215	314.94
638.421	303.94
638.626	305.94
638.832	303.94
639.037	298.94
639.243	293.94
639.448	304.94
639.654	314.94
639.859	312.94
640.065	281.94
640.27	295.94
640.475	288.94
640.681	300.94
640.886	298.94
641.091	298.94
641.297	302.94
641.502	323.94
641.707	286.94
641.913	294.94
642.118	296.94
642.323	316.94
642.528	294.94
642.733	290.94
642.939	307.94
643.144	288.94
643.349	289.94
643.554	288.94
643.759	290.94
643.964	296.94
644.169	287.94
644.374	309.94
644.579	299.94
644.784	298.94
644.989	292.94
645.194	296.94
645.399	283.94
645.604	302.94
645.809	325.94
646.014	313.94
646.219	307.94
646.423	299.94
646.628	300.94
646.833	310.94
647.038	293.94
647.243	299.94
647.447	298.94
647.652	307.94
647.857	303.94
648.062	324.94
648.266	315.94
648.471	331.94
648.676	318.94
648.88	323.94
649.085	302.94
649.289	319.94
649.494	304.94
649.698	299.94
649.903	299.94
650.107	296.94
650.312	295.94
650.516	307.94
650.721	291.94
650.925	273.94
651.13	290.94
651.334	287.94
651.539	303.94
651.743	295.94
651.947	282.94
652.152	277.94
652.356	279.94
652.56	275.94
652.764	288.94
652.969	282.94
653.173	278.94
653.377	273.94
653.581	276.94
653.785	274.94
653.99	269.94
654.194	260.94
654.398	278.94
654.602	282.94
654.806	283.94
655.01	298.94
655.214	292.94
655.418	313.94
655.622	315.94
655.826	332.94
656.03	344.94
656.234	362.94
656.438	385.94
656.642	405.94
656.846	373.94
657.049	338.94
657.253	289.94
657.457	283.94
657.661	260.94
657.865	258.94
658.068	218.94
658.272	194.94
658.476	194.94
658.68	172.94
658.883	182.94
659.087	150.94
659.291	153.94
659.494	144.94
659.698	122.94
659.901	127.94
660.105	134.94
660.309	130.94
660.512	115.94
660.716	123.94
660.919	103.94
661.123	110.94
661.326	100.94
661.53	92.94
661.733	95.94
661.936	94.94
662.14	98.94
662.343	96.94
662.546	79.94
662.75	103.94
662.953	89.94
663.156	74.94
663.36	86.94
663.563	85.94
663.766	81.94
663.969	91.94
664.173	94.94
664.376	80.94
664.579	78.94
664.782	78.94
664.985	82.94
665.188	84.94
665.391	90.94
665.594	82.94
665.797	81.94
666	78.94
666.203	74.94
666.406	81.94
666.609	92.94
666.812	89.94
667.015	74.94
667.218	83.94
667.421	82.94
667.624	83.94
667.827	83.94
668.03	87.94
668.232	79.94
668.435	75.94
668.638	82.94
668.841	85.94
669.043	85.94
669.246	91.94
669.449	91.94
669.651	77.94
669.854	86.94
670.057	87.94
670.259	86.94
670.462	89.94
670.665	85.94
670.867	71.94
671.07	83.94
671.272	87.94
671.475	77.94
671.677	80.94
671.88	68.94
672.082	79.94
672.284	78.94
672.487	87.94
672.689	62.94
672.892	80.94
