Data from NiCl2@0.125M.TitratingCurve.Agarose3%dH2O.NegLispCup.LampEnergy10.LIBS07252019_HRD10591_18-27-37-574.txt Node
Date: Thu Jul 25 18:27:37 EDT 2019
User: cochatt
Spectrometer: HR+D1059
Trigger mode: 1
Integration Time (sec): 1.000000E-1
Scans to average: 1
Electric dark correction enabled: true
Nonlinearity correction enabled: false
Boxcar width: 0
XAxis mode: Wavelengths
Number of Pixels in Spectrum: 2048
>>>>>Begin Spectral Data<<<<<
223.165	-5.44
223.4	-5.44
223.635	-5.44
223.869	-33.44
224.104	-25.44
224.338	-17.44
224.573	-7.44
224.808	-8.44
225.042	-3.44
225.277	-2.44
225.511	-12.44
225.746	-4.44
225.98	4.56
226.215	12.56
226.449	31.56
226.683	7.56
226.918	32.56
227.152	31.56
227.387	29.56
227.621	37.56
227.856	56.56
228.09	37.56
228.324	47.56
228.559	58.56
228.793	75.56
229.027	99.56
229.262	116.56
229.496	104.56
229.73	116.56
229.964	118.56
230.199	146.56
230.433	140.56
230.667	141.56
230.901	156.56
231.136	140.56
231.37	142.56
231.604	135.56
231.838	147.56
232.072	145.56
232.306	165.56
232.541	162.56
232.775	151.56
233.009	150.56
233.243	167.56
233.477	156.56
233.711	137.56
233.945	158.56
234.179	142.56
234.413	151.56
234.647	168.56
234.881	155.56
235.115	152.56
235.349	167.56
235.583	162.56
235.817	155.56
236.051	169.56
236.285	176.56
236.519	164.56
236.753	158.56
236.987	165.56
237.221	182.56
237.455	177.56
237.689	176.56
237.922	174.56
238.156	160.56
238.39	185.56
238.624	187.56
238.858	196.56
239.091	188.56
239.325	179.56
239.559	200.56
239.793	193.56
240.027	178.56
240.26	192.56
240.494	210.56
240.728	211.56
240.961	211.56
241.195	193.56
241.429	202.56
241.662	216.56
241.896	216.56
242.13	198.56
242.363	195.56
242.597	224.56
242.83	226.56
243.064	219.56
243.298	222.56
243.531	227.56
243.765	229.56
243.998	236.56
244.232	219.56
244.465	224.56
244.699	233.56
244.932	238.56
245.166	240.56
245.399	246.56
245.633	236.56
245.866	245.56
246.099	240.56
246.333	231.56
246.566	240.56
246.8	257.56
247.033	244.56
247.266	258.56
247.5	249.56
247.733	256.56
247.966	262.56
248.2	268.56
248.433	262.56
248.666	259.56
248.899	265.56
249.133	267.56
249.366	268.56
249.599	269.56
249.832	283.56
250.066	300.56
250.299	274.56
250.532	276.56
250.765	275.56
250.998	287.56
251.231	300.56
251.465	312.56
251.698	281.56
251.931	295.56
252.164	294.56
252.397	311.56
252.63	298.56
252.863	306.56
253.096	307.56
253.329	314.56
253.562	306.56
253.795	318.56
254.028	296.56
254.261	312.56
254.494	310.56
254.727	309.56
254.96	299.56
255.193	315.56
255.426	309.56
255.659	327.56
255.892	327.56
256.124	323.56
256.357	319.56
256.59	319.56
256.823	326.56
257.056	324.56
257.289	331.56
257.521	340.56
257.754	339.56
257.987	348.56
258.22	353.56
258.452	336.56
258.685	338.56
258.918	340.56
259.151	351.56
259.383	350.56
259.616	348.56
259.849	381.56
260.081	370.56
260.314	356.56
260.547	345.56
260.779	346.56
261.012	348.56
261.244	357.56
261.477	359.56
261.71	382.56
261.942	351.56
262.175	378.56
262.407	380.56
262.64	375.56
262.872	363.56
263.105	388.56
263.337	396.56
263.57	388.56
263.802	407.56
264.035	397.56
264.267	401.56
264.499	382.56
264.732	381.56
264.964	408.56
265.197	374.56
265.429	388.56
265.661	390.56
265.894	382.56
266.126	396.56
266.358	397.56
266.591	406.56
266.823	413.56
267.055	414.56
267.287	424.56
267.52	422.56
267.752	412.56
267.984	426.56
268.216	396.56
268.448	410.56
268.681	420.56
268.913	404.56
269.145	404.56
269.377	436.56
269.609	432.56
269.841	440.56
270.073	431.56
270.306	424.56
270.538	407.56
270.77	430.56
271.002	445.56
271.234	443.56
271.466	422.56
271.698	439.56
271.93	468.56
272.162	442.56
272.394	434.56
272.626	441.56
272.858	441.56
273.09	440.56
273.322	455.56
273.553	456.56
273.785	442.56
274.017	466.56
274.249	455.56
274.481	461.56
274.713	453.56
274.945	474.56
275.176	463.56
275.408	454.56
275.64	470.56
275.872	471.56
276.104	498.56
276.335	474.56
276.567	478.56
276.799	490.56
277.031	502.56
277.262	469.56
277.494	504.56
277.726	471.56
277.957	480.56
278.189	507.56
278.421	481.56
278.652	506.56
278.884	486.56
279.115	501.56
279.347	496.56
279.579	493.56
279.81	502.56
280.042	519.56
280.273	516.56
280.505	549.56
280.736	514.56
280.968	502.56
281.199	514.56
281.431	523.56
281.662	499.56
281.894	534.56
282.125	542.56
282.356	517.56
282.588	525.56
282.819	553.56
283.051	550.56
283.282	543.56
283.513	538.56
283.745	537.56
283.976	553.56
284.207	556.56
284.439	558.56
284.67	558.56
284.901	539.56
285.132	559.56
285.364	540.56
285.595	570.56
285.826	530.56
286.057	561.56
286.288	575.56
286.52	553.56
286.751	569.56
286.982	570.56
287.213	581.56
287.444	598.56
287.675	576.56
287.906	599.56
288.138	592.56
288.369	593.56
288.6	584.56
288.831	578.56
289.062	597.56
289.293	561.56
289.524	598.56
289.755	589.56
289.986	580.56
290.217	594.56
290.448	587.56
290.679	604.56
290.91	595.56
291.141	596.56
291.371	602.56
291.602	602.56
291.833	594.56
292.064	611.56
292.295	599.56
292.526	607.56
292.757	593.56
292.987	602.56
293.218	585.56
293.449	605.56
293.68	612.56
293.91	580.56
294.141	602.56
294.372	596.56
294.603	606.56
294.833	624.56
295.064	627.56
295.295	598.56
295.525	614.56
295.756	600.56
295.987	633.56
296.217	610.56
296.448	628.56
296.679	640.56
296.909	622.56
297.14	660.56
297.37	648.56
297.601	660.56
297.831	655.56
298.062	647.56
298.292	659.56
298.523	684.56
298.753	687.56
298.984	647.56
299.214	651.56
299.445	647.56
299.675	649.56
299.905	659.56
300.136	642.56
300.366	656.56
300.597	670.56
300.827	686.56
301.057	690.56
301.288	689.56
301.518	677.56
301.748	705.56
301.979	694.56
302.209	704.56
302.439	687.56
302.669	708.56
302.9	690.56
303.13	673.56
303.36	689.56
303.59	677.56
303.82	690.56
304.051	703.56
304.281	652.56
304.511	679.56
304.741	679.56
304.971	687.56
305.201	712.56
305.431	659.56
305.661	679.56
305.891	686.56
306.121	686.56
306.352	706.56
306.582	680.56
306.812	644.56
307.042	666.56
307.272	686.56
307.502	680.56
307.731	649.56
307.961	662.56
308.191	656.56
308.421	666.56
308.651	685.56
308.881	683.56
309.111	662.56
309.341	662.56
309.571	673.56
309.8	670.56
310.03	676.56
310.26	674.56
310.49	677.56
310.72	691.56
310.949	652.56
311.179	708.56
311.409	675.56
311.639	687.56
311.868	689.56
312.098	692.56
312.328	686.56
312.557	730.56
312.787	692.56
313.017	705.56
313.246	731.56
313.476	716.56
313.706	733.56
313.935	714.56
314.165	756.56
314.394	705.56
314.624	728.56
314.853	699.56
315.083	732.56
315.312	719.56
315.542	729.56
315.771	712.56
316.001	710.56
316.23	702.56
316.46	666.56
316.689	725.56
316.919	730.56
317.148	692.56
317.377	703.56
317.607	688.56
317.836	708.56
318.065	710.56
318.295	707.56
318.524	699.56
318.753	678.56
318.983	710.56
319.212	690.56
319.441	696.56
319.67	700.56
319.9	719.56
320.129	714.56
320.358	706.56
320.587	674.56
320.816	713.56
321.046	711.56
321.275	714.56
321.504	727.56
321.733	704.56
321.962	709.56
322.191	722.56
322.42	731.56
322.649	719.56
322.878	725.56
323.108	710.56
323.337	720.56
323.566	727.56
323.795	738.56
324.024	733.56
324.253	740.56
324.482	725.56
324.71	704.56
324.939	722.56
325.168	738.56
325.397	731.56
325.626	731.56
325.855	760.56
326.084	752.56
326.313	789.56
326.542	758.56
326.77	801.56
326.999	761.56
327.228	775.56
327.457	772.56
327.686	776.56
327.914	758.56
328.143	792.56
328.372	778.56
328.6	743.56
328.829	782.56
329.058	772.56
329.287	750.56
329.515	753.56
329.744	794.56
329.972	805.56
330.201	799.56
330.43	788.56
330.658	799.56
330.887	809.56
331.115	807.56
331.344	822.56
331.572	836.56
331.801	850.56
332.03	866.56
332.258	875.56
332.486	909.56
332.715	922.56
332.943	942.56
333.172	975.56
333.4	1046.56
333.629	1058.56
333.857	1072.56
334.085	1049.56
334.314	1033.56
334.542	991.56
334.771	1008.56
334.999	978.56
335.227	985.56
335.455	963.56
335.684	983.56
335.912	927.56
336.14	971.56
336.369	950.56
336.597	921.56
336.825	922.56
337.053	937.56
337.281	928.56
337.51	907.56
337.738	894.56
337.966	847.56
338.194	870.56
338.422	859.56
338.65	850.56
338.878	854.56
339.106	831.56
339.334	844.56
339.562	842.56
339.79	807.56
340.018	791.56
340.246	826.56
340.474	818.56
340.702	804.56
340.93	803.56
341.158	811.56
341.386	821.56
341.614	784.56
341.842	795.56
342.07	791.56
342.298	788.56
342.526	779.56
342.754	814.56
342.981	813.56
343.209	823.56
343.437	870.56
343.665	918.56
343.893	968.56
344.12	1035.56
344.348	990.56
344.576	896.56
344.804	897.56
345.031	837.56
345.259	827.56
345.487	801.56
345.714	818.56
345.942	784.56
346.17	804.56
346.397	818.56
346.625	770.56
346.853	765.56
347.08	787.56
347.308	797.56
347.535	770.56
347.763	796.56
347.99	802.56
348.218	784.56
348.445	794.56
348.673	776.56
348.9	760.56
349.128	758.56
349.355	786.56
349.583	768.56
349.81	780.56
350.037	744.56
350.265	749.56
350.492	732.56
350.72	753.56
350.947	748.56
351.174	772.56
351.402	742.56
351.629	750.56
351.856	742.56
352.083	729.56
352.311	730.56
352.538	729.56
352.765	756.56
352.992	742.56
353.22	737.56
353.447	732.56
353.674	720.56
353.901	758.56
354.128	772.56
354.355	720.56
354.583	722.56
354.81	746.56
355.037	741.56
355.264	763.56
355.491	784.56
355.718	736.56
355.945	732.56
356.172	751.56
356.399	747.56
356.626	752.56
356.853	742.56
357.08	762.56
357.307	777.56
357.534	753.56
357.761	745.56
357.988	763.56
358.215	764.56
358.441	755.56
358.668	746.56
358.895	748.56
359.122	764.56
359.349	755.56
359.576	740.56
359.802	758.56
360.029	718.56
360.256	770.56
360.483	740.56
360.709	736.56
360.936	753.56
361.163	742.56
361.39	768.56
361.616	783.56
361.843	752.56
362.07	721.56
362.296	753.56
362.523	739.56
362.749	748.56
362.976	767.56
363.203	762.56
363.429	716.56
363.656	760.56
363.882	737.56
364.109	770.56
364.335	732.56
364.562	728.56
364.788	739.56
365.015	745.56
365.241	722.56
365.468	731.56
365.694	747.56
365.92	788.56
366.147	742.56
366.373	739.56
366.599	736.56
366.826	747.56
367.052	733.56
367.278	754.56
367.505	743.56
367.731	748.56
367.957	781.56
368.184	745.56
368.41	756.56
368.636	750.56
368.862	759.56
369.089	774.56
369.315	784.56
369.541	772.56
369.767	779.56
369.993	779.56
370.219	784.56
370.445	789.56
370.672	796.56
370.898	804.56
371.124	818.56
371.35	796.56
371.576	786.56
371.802	804.56
372.028	809.56
372.254	838.56
372.48	836.56
372.706	861.56
372.932	852.56
373.158	890.56
373.384	847.56
373.61	801.56
373.835	822.56
374.061	843.56
374.287	857.56
374.513	836.56
374.739	844.56
374.965	871.56
375.191	918.56
375.416	890.56
375.642	862.56
375.868	868.56
376.094	854.56
376.319	854.56
376.545	854.56
376.771	834.56
376.997	822.56
377.222	826.56
377.448	827.56
377.674	804.56
377.899	838.56
378.125	807.56
378.35	826.56
378.576	787.56
378.802	810.56
379.027	820.56
379.253	820.56
379.478	823.56
379.704	786.56
379.929	794.56
380.155	796.56
380.38	787.56
380.606	826.56
380.831	788.56
381.057	807.56
381.282	818.56
381.507	814.56
381.733	825.56
381.958	834.56
382.184	851.56
382.409	822.56
382.634	855.56
382.86	824.56
383.085	887.56
383.31	878.56
383.535	893.56
383.761	904.56
383.986	935.56
384.211	929.56
384.436	962.56
384.662	963.56
384.887	963.56
385.112	966.56
385.337	967.56
385.562	1018.56
385.787	961.56
386.013	1009.56
386.238	1010.56
386.463	982.56
386.688	975.56
386.913	962.56
387.138	964.56
387.363	938.56
387.588	952.56
387.813	964.56
388.038	981.56
388.263	952.56
388.488	955.56
388.713	983.56
388.938	969.56
389.163	951.56
389.387	955.56
389.612	934.56
389.837	975.56
390.062	960.56
390.287	970.56
390.512	981.56
390.736	978.56
390.961	983.56
391.186	993.56
391.411	997.56
391.636	1045.56
391.86	1096.56
392.085	1111.56
392.31	1113.56
392.534	1083.56
392.759	1042.56
392.984	1078.56
393.208	1045.56
393.433	1044.56
393.658	1026.56
393.882	1046.56
394.107	1058.56
394.331	1051.56
394.556	1041.56
394.78	1049.56
395.005	1091.56
395.229	1063.56
395.454	1096.56
395.678	1145.56
395.903	1115.56
396.127	1072.56
396.352	1067.56
396.576	1056.56
396.801	1044.56
397.025	1073.56
397.249	1064.56
397.474	1108.56
397.698	1099.56
397.922	1137.56
398.147	1095.56
398.371	1107.56
398.595	1179.56
398.82	1207.56
399.044	1278.56
399.268	1423.56
399.492	1633.56
399.717	1846.56
399.941	1924.56
400.165	1641.56
400.389	1530.56
400.613	1363.56
400.837	1332.56
401.062	1266.56
401.286	1245.56
401.51	1244.56
401.734	1262.56
401.958	1218.56
402.182	1223.56
402.406	1256.56
402.63	1262.56
402.854	1301.56
403.078	1343.56
403.302	1404.56
403.526	1420.56
403.75	1384.56
403.974	1414.56
404.198	1439.56
404.422	1434.56
404.645	1448.56
404.869	1415.56
405.093	1439.56
405.317	1355.56
405.541	1362.56
405.765	1323.56
405.988	1387.56
406.212	1365.56
406.436	1359.56
406.66	1411.56
406.883	1427.56
407.107	1500.56
407.331	1590.56
407.555	1641.56
407.778	1602.56
408.002	1530.56
408.226	1518.56
408.449	1509.56
408.673	1425.56
408.896	1421.56
409.12	1410.56
409.344	1403.56
409.567	1413.56
409.791	1424.56
410.014	1377.56
410.238	1361.56
410.461	1344.56
410.685	1379.56
410.908	1332.56
411.132	1312.56
411.355	1239.56
411.578	1278.56
411.802	1291.56
412.025	1297.56
412.249	1338.56
412.472	1352.56
412.695	1271.56
412.919	1262.56
413.142	1244.56
413.365	1210.56
413.589	1232.56
413.812	1199.56
414.035	1245.56
414.258	1223.56
414.482	1225.56
414.705	1267.56
414.928	1257.56
415.151	1266.56
415.374	1214.56
415.597	1219.56
415.821	1195.56
416.044	1222.56
416.267	1162.56
416.49	1196.56
416.713	1182.56
416.936	1219.56
417.159	1227.56
417.382	1222.56
417.605	1194.56
417.828	1222.56
418.051	1210.56
418.274	1250.56
418.497	1218.56
418.72	1272.56
418.943	1271.56
419.166	1336.56
419.389	1375.56
419.611	1406.56
419.834	1342.56
420.057	1310.56
420.28	1251.56
420.503	1212.56
420.726	1204.56
420.948	1174.56
421.171	1219.56
421.394	1215.56
421.617	1208.56
421.839	1227.56
422.062	1227.56
422.285	1236.56
422.507	1265.56
422.73	1280.56
422.953	1288.56
423.175	1263.56
423.398	1263.56
423.621	1281.56
423.843	1346.56
424.066	1289.56
424.288	1322.56
424.511	1285.56
424.733	1295.56
424.956	1249.56
425.178	1214.56
425.401	1194.56
425.623	1236.56
425.846	1185.56
426.068	1198.56
426.291	1184.56
426.513	1155.56
426.735	1156.56
426.958	1137.56
427.18	1137.56
427.402	1112.56
427.625	1130.56
427.847	1106.56
428.069	1125.56
428.292	1120.56
428.514	1088.56
428.736	1064.56
428.958	1094.56
429.181	1042.56
429.403	1058.56
429.625	1075.56
429.847	1046.56
430.069	1062.56
430.292	1079.56
430.514	1030.56
430.736	1063.56
430.958	1107.56
431.18	1080.56
431.402	1072.56
431.624	1065.56
431.846	1099.56
432.068	1093.56
432.29	1083.56
432.512	1093.56
432.734	1098.56
432.956	1085.56
433.178	1104.56
433.4	1083.56
433.622	1080.56
433.844	1098.56
434.066	1093.56
434.287	1107.56
434.509	1129.56
434.731	1214.56
434.953	1235.56
435.175	1251.56
435.397	1215.56
435.618	1155.56
435.84	1125.56
436.062	1123.56
436.284	1097.56
436.505	1086.56
436.727	1068.56
436.949	1072.56
437.17	1074.56
437.392	1059.56
437.614	1052.56
437.835	1071.56
438.057	1032.56
438.278	1033.56
438.5	1071.56
438.721	1035.56
438.943	1022.56
439.165	1032.56
439.386	1050.56
439.608	1097.56
439.829	1093.56
440.05	1115.56
440.272	1094.56
440.493	1113.56
440.715	1115.56
440.936	1130.56
441.158	1145.56
441.379	1180.56
441.6	1215.56
441.822	1243.56
442.043	1269.56
442.264	1230.56
442.486	1191.56
442.707	1211.56
442.928	1206.56
443.149	1216.56
443.371	1162.56
443.592	1226.56
443.813	1247.56
444.034	1273.56
444.255	1283.56
444.476	1312.56
444.698	1383.56
444.919	1481.56
445.14	1570.56
445.361	1402.56
445.582	1297.56
445.803	1199.56
446.024	1170.56
446.245	1140.56
446.466	1129.56
446.687	1100.56
446.908	1108.56
447.129	1094.56
447.35	1043.56
447.571	1040.56
447.792	1039.56
448.013	1049.56
448.234	1040.56
448.455	1006.56
448.675	1024.56
448.896	1001.56
449.117	1014.56
449.338	978.56
449.559	1022.56
449.779	963.56
450	1008.56
450.221	1010.56
450.442	1028.56
450.662	1015.56
450.883	993.56
451.104	1023.56
451.324	1057.56
451.545	1026.56
451.766	1037.56
451.986	987.56
452.207	983.56
452.428	1018.56
452.648	1002.56
452.869	982.56
453.089	938.56
453.31	976.56
453.53	980.56
453.751	946.56
453.971	959.56
454.192	966.56
454.412	943.56
454.633	955.56
454.853	936.56
455.073	951.56
455.294	935.56
455.514	934.56
455.734	927.56
455.955	894.56
456.175	942.56
456.395	937.56
456.616	920.56
456.836	883.56
457.056	938.56
457.276	935.56
457.497	950.56
457.717	936.56
457.937	958.56
458.157	970.56
458.377	956.56
458.598	975.56
458.818	1010.56
459.038	1033.56
459.258	1077.56
459.478	1094.56
459.698	1121.56
459.918	1134.56
460.138	1219.56
460.358	1223.56
460.578	1271.56
460.798	1272.56
461.018	1323.56
461.238	1289.56
461.458	1281.56
461.678	1300.56
461.898	1290.56
462.118	1314.56
462.338	1374.56
462.558	1387.56
462.777	1410.56
462.997	1615.56
463.217	1712.56
463.437	1694.56
463.657	1577.56
463.876	1509.56
464.096	1503.56
464.316	1483.56
464.536	1530.56
464.755	1441.56
464.975	1417.56
465.195	1336.56
465.414	1244.56
465.634	1147.56
465.854	1150.56
466.073	1125.56
466.293	1116.56
466.512	1078.56
466.732	1052.56
466.951	1039.56
467.171	1026.56
467.391	1035.56
467.61	1065.56
467.829	1032.56
468.049	1030.56
468.268	1001.56
468.488	982.56
468.707	988.56
468.927	1000.56
469.146	978.56
469.365	1025.56
469.585	1000.56
469.804	1030.56
470.023	1078.56
470.243	1104.56
470.462	1093.56
470.681	1087.56
470.901	1108.56
471.12	1072.56
471.339	1046.56
471.558	1011.56
471.777	1013.56
471.997	1010.56
472.216	998.56
472.435	970.56
472.654	968.56
472.873	987.56
473.092	971.56
473.311	974.56
473.53	972.56
473.749	968.56
473.968	964.56
474.187	944.56
474.406	945.56
474.625	959.56
474.844	972.56
475.063	976.56
475.282	991.56
475.501	984.56
475.72	966.56
475.939	979.56
476.158	981.56
476.377	993.56
476.596	1002.56
476.814	1031.56
477.033	1037.56
477.252	1057.56
477.471	1063.56
477.69	1088.56
477.908	1120.56
478.127	1152.56
478.346	1140.56
478.564	1162.56
478.783	1182.56
479.002	1213.56
479.22	1220.56
479.439	1219.56
479.658	1172.56
479.876	1189.56
480.095	1233.56
480.313	1289.56
480.532	1302.56
480.751	1302.56
480.969	1229.56
481.188	1180.56
481.406	1165.56
481.624	1118.56
481.843	1141.56
482.061	1110.56
482.28	1118.56
482.498	1105.56
482.717	1114.56
482.935	1083.56
483.153	1107.56
483.372	1113.56
483.59	1119.56
483.808	1110.56
484.027	1099.56
484.245	1106.56
484.463	1126.56
484.681	1132.56
484.9	1118.56
485.118	1145.56
485.336	1140.56
485.554	1130.56
485.772	1159.56
485.99	1158.56
486.209	1186.56
486.427	1198.56
486.645	1194.56
486.863	1196.56
487.081	1148.56
487.299	1123.56
487.517	1121.56
487.735	1161.56
487.953	1167.56
488.171	1149.56
488.389	1126.56
488.607	1119.56
488.825	1145.56
489.043	1126.56
489.261	1135.56
489.479	1134.56
489.696	1142.56
489.914	1143.56
490.132	1141.56
490.35	1153.56
490.568	1146.56
490.786	1159.56
491.003	1154.56
491.221	1184.56
491.439	1168.56
491.657	1146.56
491.874	1180.56
492.092	1172.56
492.31	1185.56
492.527	1180.56
492.745	1200.56
492.963	1177.56
493.18	1208.56
493.398	1177.56
493.615	1172.56
493.833	1190.56
494.05	1220.56
494.268	1199.56
494.485	1239.56
494.703	1239.56
494.92	1226.56
495.138	1205.56
495.355	1204.56
495.573	1227.56
495.79	1263.56
496.008	1234.56
496.225	1247.56
496.442	1249.56
496.66	1306.56
496.877	1298.56
497.094	1287.56
497.312	1332.56
497.529	1363.56
497.746	1382.56
497.963	1430.56
498.181	1527.56
498.398	1540.56
498.615	1624.56
498.832	1760.56
499.049	1826.56
499.267	2038.56
499.484	2238.56
499.701	2470.56
499.918	2751.56
500.135	3115.56
500.352	3525.56
500.569	3702.56
500.786	3684.56
501.003	3431.56
501.22	3106.56
501.437	2754.56
501.654	2340.56
501.871	2194.56
502.088	2013.56
502.305	1836.56
502.522	1751.56
502.739	1700.56
502.956	1628.56
503.172	1530.56
503.389	1504.56
503.606	1436.56
503.823	1408.56
504.04	1370.56
504.256	1420.56
504.473	1442.56
504.69	1475.56
504.907	1466.56
505.123	1342.56
505.34	1268.56
505.557	1236.56
505.773	1206.56
505.99	1154.56
506.207	1136.56
506.423	1111.56
506.64	1116.56
506.856	1095.56
507.073	1092.56
507.289	1060.56
507.506	1099.56
507.722	1097.56
507.939	1066.56
508.155	1042.56
508.372	1019.56
508.588	1014.56
508.805	1033.56
509.021	1006.56
509.238	1010.56
509.454	980.56
509.67	1018.56
509.887	1023.56
510.103	996.56
510.319	954.56
510.536	963.56
510.752	986.56
510.968	980.56
511.184	983.56
511.401	969.56
511.617	982.56
511.833	971.56
512.049	983.56
512.265	962.56
512.481	966.56
512.698	978.56
512.914	977.56
513.13	972.56
513.346	989.56
513.562	984.56
513.778	1011.56
513.994	1000.56
514.21	1006.56
514.426	974.56
514.642	972.56
514.858	1008.56
515.074	999.56
515.29	1018.56
515.506	1024.56
515.721	1046.56
515.937	1043.56
516.153	1055.56
516.369	1100.56
516.585	1106.56
516.801	1154.56
517.016	1212.56
517.232	1276.56
517.448	1332.56
517.664	1382.56
517.879	1362.56
518.095	1377.56
518.311	1359.56
518.527	1266.56
518.742	1210.56
518.958	1191.56
519.173	1156.56
519.389	1112.56
519.605	1076.56
519.82	1041.56
520.036	1031.56
520.251	1024.56
520.467	996.56
520.682	1012.56
520.898	987.56
521.113	962.56
521.329	970.56
521.544	945.56
521.76	921.56
521.975	922.56
522.19	922.56
522.406	926.56
522.621	927.56
522.836	912.56
523.052	926.56
523.267	906.56
523.482	900.56
523.698	919.56
523.913	909.56
524.128	907.56
524.343	938.56
524.559	903.56
524.774	882.56
524.989	896.56
525.204	869.56
525.419	898.56
525.634	898.56
525.849	892.56
526.064	883.56
526.28	891.56
526.495	887.56
526.71	872.56
526.925	893.56
527.14	904.56
527.355	891.56
527.57	888.56
527.785	881.56
527.999	863.56
528.214	887.56
528.429	894.56
528.644	872.56
528.859	881.56
529.074	912.56
529.289	886.56
529.503	903.56
529.718	862.56
529.933	862.56
530.148	850.56
530.363	885.56
530.577	861.56
530.792	880.56
531.007	850.56
531.221	854.56
531.436	863.56
531.651	872.56
531.865	874.56
532.08	864.56
532.295	882.56
532.509	856.56
532.724	856.56
532.938	856.56
533.153	885.56
533.367	868.56
533.582	890.56
533.796	870.56
534.011	886.56
534.225	868.56
534.44	868.56
534.654	863.56
534.868	862.56
535.083	870.56
535.297	862.56
535.511	873.56
535.726	832.56
535.94	844.56
536.154	834.56
536.369	838.56
536.583	824.56
536.797	835.56
537.011	833.56
537.225	810.56
537.44	807.56
537.654	843.56
537.868	814.56
538.082	770.56
538.296	808.56
538.51	785.56
538.724	802.56
538.938	790.56
539.153	807.56
539.367	782.56
539.581	803.56
539.795	762.56
540.009	766.56
540.222	778.56
540.436	767.56
540.65	794.56
540.864	768.56
541.078	805.56
541.292	788.56
541.506	796.56
541.72	801.56
541.934	793.56
542.147	794.56
542.361	772.56
542.575	765.56
542.789	772.56
543.002	767.56
543.216	775.56
543.43	767.56
543.644	784.56
543.857	786.56
544.071	772.56
544.285	783.56
544.498	788.56
544.712	788.56
544.925	792.56
545.139	808.56
545.352	784.56
545.566	831.56
545.779	814.56
545.993	828.56
546.206	819.56
546.42	805.56
546.633	810.56
546.847	776.56
547.06	790.56
547.274	804.56
547.487	814.56
547.7	815.56
547.914	819.56
548.127	844.56
548.34	816.56
548.554	786.56
548.767	801.56
548.98	812.56
549.193	814.56
549.407	814.56
549.62	830.56
549.833	843.56
550.046	851.56
550.259	814.56
550.473	801.56
550.686	823.56
550.899	790.56
551.112	772.56
551.325	778.56
551.538	788.56
551.751	788.56
551.964	766.56
552.177	816.56
552.39	828.56
552.603	818.56
552.816	848.56
553.029	865.56
553.242	895.56
553.455	882.56
553.667	913.56
553.88	858.56
554.093	863.56
554.306	863.56
554.519	823.56
554.732	809.56
554.944	781.56
555.157	772.56
555.37	759.56
555.583	730.56
555.795	752.56
556.008	730.56
556.221	724.56
556.433	709.56
556.646	728.56
556.859	718.56
557.071	716.56
557.284	682.56
557.496	704.56
557.709	686.56
557.921	710.56
558.134	687.56
558.346	674.56
558.559	685.56
558.771	683.56
558.984	689.56
559.196	672.56
559.409	674.56
559.621	687.56
559.833	644.56
560.046	655.56
560.258	656.56
560.47	648.56
560.683	669.56
560.895	666.56
561.107	679.56
561.32	661.56
561.532	686.56
561.744	629.56
561.956	655.56
562.168	647.56
562.381	666.56
562.593	666.56
562.805	679.56
563.017	650.56
563.229	666.56
563.441	671.56
563.653	683.56
563.865	696.56
564.077	668.56
564.289	680.56
564.501	700.56
564.713	727.56
564.925	725.56
565.137	742.56
565.349	753.56
565.561	764.56
565.773	782.56
565.985	833.56
566.197	859.56
566.408	936.56
566.62	1032.56
566.832	1079.56
567.044	1098.56
567.255	1082.56
567.467	1140.56
567.679	1177.56
567.891	1291.56
568.102	1314.56
568.314	1232.56
568.526	1106.56
568.737	1009.56
568.949	909.56
569.161	819.56
569.372	802.56
569.584	752.56
569.795	718.56
570.007	708.56
570.218	690.56
570.43	653.56
570.641	688.56
570.853	694.56
571.064	691.56
571.276	688.56
571.487	662.56
571.698	656.56
571.91	643.56
572.121	610.56
572.333	590.56
572.544	600.56
572.755	576.56
572.966	587.56
573.178	585.56
573.389	566.56
573.6	569.56
573.811	538.56
574.023	565.56
574.234	544.56
574.445	547.56
574.656	524.56
574.867	539.56
575.078	549.56
575.289	563.56
575.501	540.56
575.712	542.56
575.923	512.56
576.134	535.56
576.345	528.56
576.556	520.56
576.767	522.56
576.978	518.56
577.188	514.56
577.399	499.56
577.61	512.56
577.821	483.56
578.032	506.56
578.243	514.56
578.454	487.56
578.665	508.56
578.875	485.56
579.086	459.56
579.297	492.56
579.508	472.56
579.718	489.56
579.929	492.56
580.14	489.56
580.35	457.56
580.561	472.56
580.772	463.56
580.982	465.56
581.193	475.56
581.403	459.56
581.614	464.56
581.825	452.56
582.035	456.56
582.246	467.56
582.456	473.56
582.667	454.56
582.877	439.56
583.087	473.56
583.298	463.56
583.508	459.56
583.719	454.56
583.929	449.56
584.139	450.56
584.35	432.56
584.56	457.56
584.77	447.56
584.981	442.56
585.191	432.56
585.401	439.56
585.611	458.56
585.821	432.56
586.032	440.56
586.242	442.56
586.452	435.56
586.662	427.56
586.872	422.56
587.082	442.56
587.292	448.56
587.502	448.56
587.713	454.56
587.923	414.56
588.133	434.56
588.343	443.56
588.553	430.56
588.762	418.56
588.972	427.56
589.182	444.56
589.392	440.56
589.602	438.56
589.812	449.56
590.022	439.56
590.232	431.56
590.441	431.56
590.651	454.56
590.861	457.56
591.071	443.56
591.281	442.56
591.49	442.56
591.7	465.56
591.91	467.56
592.119	483.56
592.329	497.56
592.539	499.56
592.748	499.56
592.958	536.56
593.167	536.56
593.377	554.56
593.587	554.56
593.796	560.56
594.006	566.56
594.215	574.56
594.424	553.56
594.634	562.56
594.843	551.56
595.053	503.56
595.262	506.56
595.472	475.56
595.681	443.56
595.89	446.56
596.1	434.56
596.309	431.56
596.518	447.56
596.727	428.56
596.937	426.56
597.146	412.56
597.355	415.56
597.564	396.56
597.774	401.56
597.983	377.56
598.192	382.56
598.401	389.56
598.61	394.56
598.819	374.56
599.028	389.56
599.237	373.56
599.446	377.56
599.655	371.56
599.864	374.56
600.073	356.56
600.282	367.56
600.491	370.56
600.7	368.56
600.909	372.56
601.118	364.56
601.327	365.56
601.536	370.56
601.745	369.56
601.953	359.56
602.162	354.56
602.371	356.56
602.58	358.56
602.789	338.56
602.997	341.56
603.206	347.56
603.415	351.56
603.623	352.56
603.832	356.56
604.041	350.56
604.249	349.56
604.458	341.56
604.666	346.56
604.875	344.56
605.084	360.56
605.292	332.56
605.501	335.56
605.709	326.56
605.918	337.56
606.126	322.56
606.334	332.56
606.543	323.56
606.751	326.56
606.96	359.56
607.168	333.56
607.376	332.56
607.585	344.56
607.793	342.56
608.001	342.56
608.21	315.56
608.418	328.56
608.626	328.56
608.834	328.56
609.043	330.56
609.251	314.56
609.459	318.56
609.667	325.56
609.875	331.56
610.083	323.56
610.291	312.56
610.499	326.56
610.707	324.56
610.916	354.56
611.124	311.56
611.332	311.56
611.54	317.56
611.748	304.56
611.955	321.56
612.163	330.56
612.371	319.56
612.579	312.56
612.787	308.56
612.995	306.56
613.203	331.56
613.411	332.56
613.618	322.56
613.826	307.56
614.034	316.56
614.242	322.56
614.449	298.56
614.657	306.56
614.865	319.56
615.072	318.56
615.28	304.56
615.488	315.56
615.695	315.56
615.903	311.56
616.111	321.56
616.318	317.56
616.526	286.56
616.733	318.56
616.941	306.56
617.148	329.56
617.356	327.56
617.563	314.56
617.771	305.56
617.978	306.56
618.185	326.56
618.393	322.56
618.6	327.56
618.807	326.56
619.015	327.56
619.222	311.56
619.429	307.56
619.637	329.56
619.844	310.56
620.051	294.56
620.258	302.56
620.466	295.56
620.673	296.56
620.88	290.56
621.087	298.56
621.294	284.56
621.501	305.56
621.708	289.56
621.915	289.56
622.122	268.56
622.329	287.56
622.536	294.56
622.743	287.56
622.95	286.56
623.157	286.56
623.364	280.56
623.571	280.56
623.778	293.56
623.985	278.56
624.192	289.56
624.399	274.56
624.606	264.56
624.812	263.56
625.019	267.56
625.226	277.56
625.433	282.56
625.639	265.56
625.846	286.56
626.053	278.56
626.259	283.56
626.466	286.56
626.673	286.56
626.879	240.56
627.086	263.56
627.293	272.56
627.499	271.56
627.706	268.56
627.912	261.56
628.119	279.56
628.325	251.56
628.532	266.56
628.738	262.56
628.945	274.56
629.151	245.56
629.357	259.56
629.564	264.56
629.77	230.56
629.976	258.56
630.183	244.56
630.389	256.56
630.595	241.56
630.802	253.56
631.008	243.56
631.214	246.56
631.42	246.56
631.627	236.56
631.833	231.56
632.039	238.56
632.245	232.56
632.451	236.56
632.657	238.56
632.863	244.56
633.069	232.56
633.275	246.56
633.481	240.56
633.688	226.56
633.893	224.56
634.099	223.56
634.305	230.56
634.511	210.56
634.717	226.56
634.923	222.56
635.129	236.56
635.335	218.56
635.541	229.56
635.747	213.56
635.952	217.56
636.158	234.56
636.364	220.56
636.57	211.56
636.775	239.56
636.981	223.56
637.187	240.56
637.392	235.56
637.598	230.56
637.804	218.56
638.009	216.56
638.215	228.56
638.421	225.56
638.626	240.56
638.832	223.56
639.037	214.56
639.243	231.56
639.448	207.56
639.654	226.56
639.859	215.56
640.065	219.56
640.27	216.56
640.475	226.56
640.681	210.56
640.886	199.56
641.091	211.56
641.297	212.56
641.502	202.56
641.707	197.56
641.913	202.56
642.118	213.56
642.323	218.56
642.528	209.56
642.733	175.56
642.939	215.56
643.144	221.56
643.349	192.56
643.554	207.56
643.759	218.56
643.964	192.56
644.169	202.56
644.374	193.56
644.579	202.56
644.784	197.56
644.989	185.56
645.194	207.56
645.399	197.56
645.604	182.56
645.809	197.56
646.014	203.56
646.219	190.56
646.423	192.56
646.628	210.56
646.833	183.56
647.038	213.56
647.243	221.56
647.447	214.56
647.652	227.56
647.857	217.56
648.062	215.56
648.266	213.56
648.471	207.56
648.676	211.56
648.88	217.56
649.085	198.56
649.289	197.56
649.494	204.56
649.698	210.56
649.903	196.56
650.107	195.56
650.312	208.56
650.516	177.56
650.721	179.56
650.925	191.56
651.13	179.56
651.334	175.56
651.539	177.56
651.743	182.56
651.947	179.56
652.152	178.56
652.356	175.56
652.56	167.56
652.764	164.56
652.969	163.56
653.173	169.56
653.377	166.56
653.581	167.56
653.785	156.56
653.99	174.56
654.194	141.56
654.398	141.56
654.602	168.56
654.806	164.56
655.01	143.56
655.214	139.56
655.418	133.56
655.622	124.56
655.826	138.56
656.03	133.56
656.234	144.56
656.438	147.56
656.642	142.56
656.846	152.56
657.049	142.56
657.253	136.56
657.457	132.56
657.661	116.56
657.865	119.56
658.068	132.56
658.272	117.56
658.476	117.56
658.68	102.56
658.883	102.56
659.087	115.56
659.291	101.56
659.494	113.56
659.698	104.56
659.901	114.56
660.105	87.56
660.309	86.56
660.512	102.56
660.716	110.56
660.919	100.56
661.123	104.56
661.326	90.56
661.53	70.56
661.733	90.56
661.936	84.56
662.14	81.56
662.343	105.56
662.546	89.56
662.75	91.56
662.953	80.56
663.156	84.56
663.36	68.56
663.563	90.56
663.766	86.56
663.969	77.56
664.173	88.56
664.376	67.56
664.579	70.56
664.782	80.56
664.985	77.56
665.188	82.56
665.391	84.56
665.594	72.56
665.797	90.56
666	83.56
666.203	88.56
666.406	75.56
666.609	82.56
666.812	70.56
667.015	82.56
667.218	85.56
667.421	82.56
667.624	83.56
667.827	88.56
668.03	82.56
668.232	76.56
668.435	78.56
668.638	85.56
668.841	79.56
669.043	76.56
669.246	72.56
669.449	69.56
669.651	87.56
669.854	83.56
670.057	73.56
670.259	68.56
670.462	75.56
670.665	84.56
670.867	74.56
671.07	73.56
671.272	80.56
671.475	86.56
671.677	80.56
671.88	83.56
672.082	84.56
672.284	82.56
672.487	66.56
672.689	76.56
672.892	76.56
