Data from NiCl2@0.125M.TitratingCurve.Agarose3%dH2O.NegLispCup.LampEnergy10.LIBS07252019_HRD10591_18-29-31-575.txt Node
Date: Thu Jul 25 18:29:31 EDT 2019
User: cochatt
Spectrometer: HR+D1059
Trigger mode: 1
Integration Time (sec): 1.000000E-1
Scans to average: 1
Electric dark correction enabled: true
Nonlinearity correction enabled: false
Boxcar width: 0
XAxis mode: Wavelengths
Number of Pixels in Spectrum: 2048
>>>>>Begin Spectral Data<<<<<
223.165	-9.44
223.4	-9.44
223.635	-9.44
223.869	-28.44
224.104	2.56
224.338	-20.44
224.573	-22.44
224.808	-15.44
225.042	-12.44
225.277	2.56
225.511	-6.44
225.746	-0.44
225.98	14.56
226.215	4.56
226.449	24.56
226.683	26.56
226.918	21.56
227.152	18.56
227.387	18.56
227.621	43.56
227.856	31.56
228.09	44.56
228.324	50.56
228.559	41.56
228.793	58.56
229.027	103.56
229.262	108.56
229.496	130.56
229.73	124.56
229.964	123.56
230.199	109.56
230.433	130.56
230.667	126.56
230.901	127.56
231.136	152.56
231.37	126.56
231.604	150.56
231.838	140.56
232.072	144.56
232.306	142.56
232.541	136.56
232.775	149.56
233.009	139.56
233.243	156.56
233.477	141.56
233.711	138.56
233.945	154.56
234.179	146.56
234.413	177.56
234.647	140.56
234.881	160.56
235.115	167.56
235.349	139.56
235.583	155.56
235.817	149.56
236.051	152.56
236.285	154.56
236.519	148.56
236.753	165.56
236.987	160.56
237.221	167.56
237.455	164.56
237.689	168.56
237.922	156.56
238.156	168.56
238.39	168.56
238.624	176.56
238.858	168.56
239.091	169.56
239.325	173.56
239.559	166.56
239.793	167.56
240.027	175.56
240.26	184.56
240.494	182.56
240.728	182.56
240.961	191.56
241.195	187.56
241.429	184.56
241.662	206.56
241.896	179.56
242.13	188.56
242.363	193.56
242.597	201.56
242.83	195.56
243.064	188.56
243.298	209.56
243.531	210.56
243.765	206.56
243.998	206.56
244.232	218.56
244.465	218.56
244.699	208.56
244.932	216.56
245.166	225.56
245.399	221.56
245.633	213.56
245.866	209.56
246.099	218.56
246.333	228.56
246.566	231.56
246.8	224.56
247.033	209.56
247.266	220.56
247.5	223.56
247.733	234.56
247.966	234.56
248.2	250.56
248.433	226.56
248.666	229.56
248.899	248.56
249.133	228.56
249.366	232.56
249.599	258.56
249.832	243.56
250.066	256.56
250.299	266.56
250.532	242.56
250.765	228.56
250.998	264.56
251.231	258.56
251.465	270.56
251.698	252.56
251.931	281.56
252.164	251.56
252.397	282.56
252.63	269.56
252.863	271.56
253.096	255.56
253.329	278.56
253.562	282.56
253.795	269.56
254.028	277.56
254.261	295.56
254.494	271.56
254.727	279.56
254.96	267.56
255.193	270.56
255.426	281.56
255.659	287.56
255.892	289.56
256.124	277.56
256.357	289.56
256.59	281.56
256.823	282.56
257.056	290.56
257.289	290.56
257.521	306.56
257.754	290.56
257.987	299.56
258.22	314.56
258.452	314.56
258.685	292.56
258.918	318.56
259.151	308.56
259.383	304.56
259.616	290.56
259.849	320.56
260.081	317.56
260.314	302.56
260.547	305.56
260.779	308.56
261.012	299.56
261.244	319.56
261.477	324.56
261.71	344.56
261.942	331.56
262.175	329.56
262.407	322.56
262.64	330.56
262.872	340.56
263.105	331.56
263.337	333.56
263.57	338.56
263.802	340.56
264.035	345.56
264.267	337.56
264.499	351.56
264.732	358.56
264.964	357.56
265.197	360.56
265.429	341.56
265.661	358.56
265.894	371.56
266.126	352.56
266.358	347.56
266.591	348.56
266.823	356.56
267.055	357.56
267.287	354.56
267.52	356.56
267.752	375.56
267.984	351.56
268.216	372.56
268.448	370.56
268.681	365.56
268.913	357.56
269.145	386.56
269.377	338.56
269.609	374.56
269.841	370.56
270.073	365.56
270.306	370.56
270.538	357.56
270.77	380.56
271.002	364.56
271.234	382.56
271.466	380.56
271.698	371.56
271.93	385.56
272.162	399.56
272.394	374.56
272.626	372.56
272.858	378.56
273.09	388.56
273.322	374.56
273.553	386.56
273.785	378.56
274.017	407.56
274.249	395.56
274.481	407.56
274.713	398.56
274.945	401.56
275.176	405.56
275.408	406.56
275.64	399.56
275.872	397.56
276.104	396.56
276.335	397.56
276.567	422.56
276.799	420.56
277.031	415.56
277.262	446.56
277.494	392.56
277.726	421.56
277.957	415.56
278.189	434.56
278.421	434.56
278.652	446.56
278.884	427.56
279.115	450.56
279.347	444.56
279.579	423.56
279.81	424.56
280.042	465.56
280.273	416.56
280.505	448.56
280.736	436.56
280.968	443.56
281.199	446.56
281.431	462.56
281.662	461.56
281.894	440.56
282.125	459.56
282.356	463.56
282.588	462.56
282.819	464.56
283.051	456.56
283.282	468.56
283.513	471.56
283.745	452.56
283.976	461.56
284.207	458.56
284.439	468.56
284.67	479.56
284.901	467.56
285.132	463.56
285.364	471.56
285.595	476.56
285.826	482.56
286.057	481.56
286.288	467.56
286.52	459.56
286.751	489.56
286.982	496.56
287.213	480.56
287.444	513.56
287.675	482.56
287.906	515.56
288.138	508.56
288.369	498.56
288.6	517.56
288.831	513.56
289.062	528.56
289.293	493.56
289.524	500.56
289.755	513.56
289.986	482.56
290.217	500.56
290.448	519.56
290.679	523.56
290.91	517.56
291.141	511.56
291.371	497.56
291.602	508.56
291.833	503.56
292.064	516.56
292.295	512.56
292.526	528.56
292.757	518.56
292.987	509.56
293.218	514.56
293.449	516.56
293.68	528.56
293.91	514.56
294.141	513.56
294.372	526.56
294.603	503.56
294.833	536.56
295.064	522.56
295.295	529.56
295.525	522.56
295.756	533.56
295.987	525.56
296.217	521.56
296.448	540.56
296.679	541.56
296.909	533.56
297.14	541.56
297.37	574.56
297.601	576.56
297.831	546.56
298.062	556.56
298.292	582.56
298.523	584.56
298.753	591.56
298.984	576.56
299.214	555.56
299.445	577.56
299.675	575.56
299.905	569.56
300.136	588.56
300.366	572.56
300.597	585.56
300.827	579.56
301.057	590.56
301.288	615.56
301.518	586.56
301.748	574.56
301.979	608.56
302.209	596.56
302.439	574.56
302.669	590.56
302.9	580.56
303.13	565.56
303.36	598.56
303.59	576.56
303.82	587.56
304.051	577.56
304.281	586.56
304.511	591.56
304.741	581.56
304.971	566.56
305.201	596.56
305.431	571.56
305.661	579.56
305.891	585.56
306.121	558.56
306.352	570.56
306.582	570.56
306.812	558.56
307.042	582.56
307.272	558.56
307.502	566.56
307.731	550.56
307.961	545.56
308.191	566.56
308.421	572.56
308.651	590.56
308.881	569.56
309.111	560.56
309.341	533.56
309.571	553.56
309.8	565.56
310.03	566.56
310.26	568.56
310.49	585.56
310.72	566.56
310.949	565.56
311.179	580.56
311.409	573.56
311.639	574.56
311.868	579.56
312.098	598.56
312.328	605.56
312.557	583.56
312.787	595.56
313.017	608.56
313.246	606.56
313.476	593.56
313.706	616.56
313.935	598.56
314.165	609.56
314.394	614.56
314.624	623.56
314.853	594.56
315.083	585.56
315.312	636.56
315.542	584.56
315.771	585.56
316.001	594.56
316.23	578.56
316.46	550.56
316.689	571.56
316.919	558.56
317.148	575.56
317.377	578.56
317.607	562.56
317.836	576.56
318.065	589.56
318.295	576.56
318.524	603.56
318.753	591.56
318.983	569.56
319.212	586.56
319.441	591.56
319.67	602.56
319.9	604.56
320.129	587.56
320.358	584.56
320.587	576.56
320.816	609.56
321.046	592.56
321.275	604.56
321.504	594.56
321.733	590.56
321.962	608.56
322.191	582.56
322.42	588.56
322.649	599.56
322.878	615.56
323.108	583.56
323.337	592.56
323.566	597.56
323.795	609.56
324.024	627.56
324.253	600.56
324.482	617.56
324.71	604.56
324.939	605.56
325.168	588.56
325.397	592.56
325.626	610.56
325.855	634.56
326.084	641.56
326.313	657.56
326.542	662.56
326.77	668.56
326.999	634.56
327.228	634.56
327.457	636.56
327.686	635.56
327.914	651.56
328.143	624.56
328.372	627.56
328.6	649.56
328.829	666.56
329.058	638.56
329.287	642.56
329.515	630.56
329.744	653.56
329.972	640.56
330.201	635.56
330.43	631.56
330.658	658.56
330.887	666.56
331.115	645.56
331.344	666.56
331.572	685.56
331.801	698.56
332.03	705.56
332.258	721.56
332.486	756.56
332.715	765.56
332.943	785.56
333.172	864.56
333.4	868.56
333.629	883.56
333.857	881.56
334.085	883.56
334.314	869.56
334.542	829.56
334.771	848.56
334.999	804.56
335.227	837.56
335.455	843.56
335.684	787.56
335.912	760.56
336.14	774.56
336.369	778.56
336.597	787.56
336.825	791.56
337.053	791.56
337.281	760.56
337.51	732.56
337.738	723.56
337.966	721.56
338.194	718.56
338.422	714.56
338.65	661.56
338.878	685.56
339.106	684.56
339.334	711.56
339.562	695.56
339.79	673.56
340.018	661.56
340.246	651.56
340.474	666.56
340.702	678.56
340.93	681.56
341.158	667.56
341.386	670.56
341.614	688.56
341.842	674.56
342.07	657.56
342.298	663.56
342.526	640.56
342.754	650.56
342.981	679.56
343.209	684.56
343.437	723.56
343.665	774.56
343.893	843.56
344.12	842.56
344.348	809.56
344.576	748.56
344.804	722.56
345.031	700.56
345.259	688.56
345.487	689.56
345.714	663.56
345.942	667.56
346.17	665.56
346.397	646.56
346.625	664.56
346.853	661.56
347.08	681.56
347.308	676.56
347.535	682.56
347.763	678.56
347.99	701.56
348.218	670.56
348.445	687.56
348.673	656.56
348.9	641.56
349.128	660.56
349.355	649.56
349.583	652.56
349.81	618.56
350.037	630.56
350.265	608.56
350.492	634.56
350.72	649.56
350.947	585.56
351.174	626.56
351.402	627.56
351.629	604.56
351.856	606.56
352.083	609.56
352.311	603.56
352.538	603.56
352.765	616.56
352.992	615.56
353.22	618.56
353.447	616.56
353.674	615.56
353.901	611.56
354.128	606.56
354.355	608.56
354.583	606.56
354.81	627.56
355.037	650.56
355.264	605.56
355.491	626.56
355.718	626.56
355.945	645.56
356.172	630.56
356.399	653.56
356.626	643.56
356.853	625.56
357.08	631.56
357.307	637.56
357.534	627.56
357.761	606.56
357.988	630.56
358.215	608.56
358.441	618.56
358.668	599.56
358.895	626.56
359.122	626.56
359.349	641.56
359.576	658.56
359.802	626.56
360.029	628.56
360.256	627.56
360.483	614.56
360.709	612.56
360.936	630.56
361.163	630.56
361.39	619.56
361.616	613.56
361.843	578.56
362.07	628.56
362.296	619.56
362.523	611.56
362.749	619.56
362.976	618.56
363.203	633.56
363.429	602.56
363.656	630.56
363.882	622.56
364.109	610.56
364.335	625.56
364.562	628.56
364.788	609.56
365.015	615.56
365.241	620.56
365.468	611.56
365.694	630.56
365.92	626.56
366.147	616.56
366.373	626.56
366.599	641.56
366.826	595.56
367.052	624.56
367.278	606.56
367.505	618.56
367.731	618.56
367.957	635.56
368.184	621.56
368.41	628.56
368.636	631.56
368.862	618.56
369.089	624.56
369.315	628.56
369.541	630.56
369.767	657.56
369.993	668.56
370.219	636.56
370.445	670.56
370.672	674.56
370.898	692.56
371.124	690.56
371.35	685.56
371.576	663.56
371.802	669.56
372.028	673.56
372.254	668.56
372.48	678.56
372.706	706.56
372.932	716.56
373.158	701.56
373.384	670.56
373.61	676.56
373.835	693.56
374.061	672.56
374.287	681.56
374.513	688.56
374.739	723.56
374.965	739.56
375.191	762.56
375.416	758.56
375.642	743.56
375.868	729.56
376.094	717.56
376.319	695.56
376.545	710.56
376.771	694.56
376.997	676.56
377.222	683.56
377.448	706.56
377.674	700.56
377.899	676.56
378.125	670.56
378.35	670.56
378.576	661.56
378.802	664.56
379.027	666.56
379.253	670.56
379.478	667.56
379.704	664.56
379.929	699.56
380.155	677.56
380.38	689.56
380.606	672.56
380.831	648.56
381.057	668.56
381.282	674.56
381.507	694.56
381.733	721.56
381.958	702.56
382.184	697.56
382.409	697.56
382.634	707.56
382.86	713.56
383.085	704.56
383.31	742.56
383.535	767.56
383.761	777.56
383.986	788.56
384.211	774.56
384.436	780.56
384.662	826.56
384.887	845.56
385.112	809.56
385.337	821.56
385.562	824.56
385.787	813.56
386.013	845.56
386.238	834.56
386.463	830.56
386.688	826.56
386.913	787.56
387.138	803.56
387.363	828.56
387.588	800.56
387.813	796.56
388.038	795.56
388.263	829.56
388.488	809.56
388.713	804.56
388.938	786.56
389.163	789.56
389.387	794.56
389.612	784.56
389.837	819.56
390.062	790.56
390.287	790.56
390.512	780.56
390.736	779.56
390.961	810.56
391.186	836.56
391.411	872.56
391.636	861.56
391.86	907.56
392.085	941.56
392.31	939.56
392.534	915.56
392.759	869.56
392.984	877.56
393.208	846.56
393.433	861.56
393.658	866.56
393.882	892.56
394.107	869.56
394.331	876.56
394.556	865.56
394.78	894.56
395.005	861.56
395.229	882.56
395.454	902.56
395.678	921.56
395.903	912.56
396.127	912.56
396.352	876.56
396.576	858.56
396.801	858.56
397.025	852.56
397.249	858.56
397.474	914.56
397.698	922.56
397.922	886.56
398.147	889.56
398.371	916.56
398.595	952.56
398.82	1009.56
399.044	1053.56
399.268	1162.56
399.492	1363.56
399.717	1620.56
399.941	1592.56
400.165	1418.56
400.389	1252.56
400.613	1160.56
400.837	1059.56
401.062	1045.56
401.286	1035.56
401.51	1018.56
401.734	1031.56
401.958	1014.56
402.182	1053.56
402.406	1058.56
402.63	1091.56
402.854	1116.56
403.078	1127.56
403.302	1167.56
403.526	1190.56
403.75	1203.56
403.974	1242.56
404.198	1228.56
404.422	1226.56
404.645	1207.56
404.869	1201.56
405.093	1191.56
405.317	1170.56
405.541	1152.56
405.765	1138.56
405.988	1141.56
406.212	1144.56
406.436	1136.56
406.66	1142.56
406.883	1165.56
407.107	1234.56
407.331	1313.56
407.555	1350.56
407.778	1378.56
408.002	1317.56
408.226	1248.56
408.449	1240.56
408.673	1205.56
408.896	1192.56
409.12	1198.56
409.344	1182.56
409.567	1167.56
409.791	1213.56
410.014	1204.56
410.238	1170.56
410.461	1176.56
410.685	1160.56
410.908	1142.56
411.132	1086.56
411.355	1056.56
411.578	1061.56
411.802	1050.56
412.025	1076.56
412.249	1087.56
412.472	1090.56
412.695	1035.56
412.919	1019.56
413.142	1029.56
413.365	993.56
413.589	1017.56
413.812	1010.56
414.035	1019.56
414.258	1033.56
414.482	980.56
414.705	1049.56
414.928	1007.56
415.151	1022.56
415.374	1004.56
415.597	1042.56
415.821	989.56
416.044	1011.56
416.267	1034.56
416.49	1037.56
416.713	1009.56
416.936	996.56
417.159	1030.56
417.382	1021.56
417.605	1004.56
417.828	1006.56
418.051	1061.56
418.274	1017.56
418.497	1005.56
418.72	1027.56
418.943	1063.56
419.166	1123.56
419.389	1164.56
419.611	1176.56
419.834	1102.56
420.057	1101.56
420.28	1046.56
420.503	1010.56
420.726	1027.56
420.948	1020.56
421.171	1001.56
421.394	1016.56
421.617	1032.56
421.839	1038.56
422.062	1031.56
422.285	1013.56
422.507	1042.56
422.73	1070.56
422.953	1067.56
423.175	1085.56
423.398	1076.56
423.621	1106.56
423.843	1122.56
424.066	1081.56
424.288	1089.56
424.511	1129.56
424.733	1087.56
424.956	1082.56
425.178	1061.56
425.401	1029.56
425.623	1013.56
425.846	1005.56
426.068	1020.56
426.291	996.56
426.513	985.56
426.735	987.56
426.958	965.56
427.18	910.56
427.402	940.56
427.625	957.56
427.847	924.56
428.069	905.56
428.292	916.56
428.514	910.56
428.736	870.56
428.958	913.56
429.181	882.56
429.403	895.56
429.625	895.56
429.847	874.56
430.069	891.56
430.292	900.56
430.514	897.56
430.736	882.56
430.958	887.56
431.18	885.56
431.402	882.56
431.624	886.56
431.846	906.56
432.068	895.56
432.29	924.56
432.512	923.56
432.734	926.56
432.956	899.56
433.178	907.56
433.4	916.56
433.622	911.56
433.844	896.56
434.066	950.56
434.287	917.56
434.509	956.56
434.731	999.56
434.953	1027.56
435.175	1049.56
435.397	1042.56
435.618	975.56
435.84	950.56
436.062	921.56
436.284	920.56
436.505	908.56
436.727	937.56
436.949	932.56
437.17	891.56
437.392	883.56
437.614	885.56
437.835	873.56
438.057	880.56
438.278	886.56
438.5	885.56
438.721	905.56
438.943	887.56
439.165	886.56
439.386	894.56
439.608	901.56
439.829	916.56
440.05	940.56
440.272	928.56
440.493	899.56
440.715	916.56
440.936	952.56
441.158	978.56
441.379	1035.56
441.6	1081.56
441.822	1090.56
442.043	1107.56
442.264	1018.56
442.486	1002.56
442.707	1027.56
442.928	1017.56
443.149	1029.56
443.371	1034.56
443.592	1048.56
443.813	1037.56
444.034	1074.56
444.255	1093.56
444.476	1146.56
444.698	1244.56
444.919	1289.56
445.14	1373.56
445.361	1198.56
445.582	1117.56
445.803	1013.56
446.024	984.56
446.245	973.56
446.466	964.56
446.687	928.56
446.908	945.56
447.129	975.56
447.35	931.56
447.571	893.56
447.792	872.56
448.013	861.56
448.234	888.56
448.455	844.56
448.675	862.56
448.896	880.56
449.117	824.56
449.338	855.56
449.559	840.56
449.779	864.56
450	822.56
450.221	853.56
450.442	849.56
450.662	880.56
450.883	884.56
451.104	919.56
451.324	890.56
451.545	889.56
451.766	912.56
451.986	876.56
452.207	869.56
452.428	854.56
452.648	839.56
452.869	830.56
453.089	860.56
453.31	848.56
453.53	842.56
453.751	851.56
453.971	845.56
454.192	837.56
454.412	806.56
454.633	818.56
454.853	823.56
455.073	805.56
455.294	814.56
455.514	783.56
455.734	814.56
455.955	774.56
456.175	816.56
456.395	799.56
456.616	808.56
456.836	797.56
457.056	812.56
457.276	788.56
457.497	826.56
457.717	802.56
457.937	833.56
458.157	800.56
458.377	814.56
458.598	851.56
458.818	865.56
459.038	877.56
459.258	895.56
459.478	973.56
459.698	952.56
459.918	994.56
460.138	1021.56
460.358	1064.56
460.578	1136.56
460.798	1113.56
461.018	1132.56
461.238	1086.56
461.458	1122.56
461.678	1096.56
461.898	1082.56
462.118	1048.56
462.338	1170.56
462.558	1234.56
462.777	1246.56
462.997	1372.56
463.217	1486.56
463.437	1574.56
463.657	1393.56
463.876	1325.56
464.096	1294.56
464.316	1325.56
464.536	1334.56
464.755	1269.56
464.975	1224.56
465.195	1152.56
465.414	1058.56
465.634	987.56
465.854	960.56
466.073	920.56
466.293	942.56
466.512	884.56
466.732	913.56
466.951	904.56
467.171	874.56
467.391	933.56
467.61	898.56
467.829	896.56
468.049	862.56
468.268	858.56
468.488	871.56
468.707	855.56
468.927	841.56
469.146	833.56
469.365	852.56
469.585	870.56
469.804	891.56
470.023	913.56
470.243	917.56
470.462	948.56
470.681	944.56
470.901	935.56
471.12	894.56
471.339	915.56
471.558	875.56
471.777	860.56
471.997	863.56
472.216	853.56
472.435	842.56
472.654	829.56
472.873	838.56
473.092	795.56
473.311	817.56
473.53	833.56
473.749	812.56
473.968	812.56
474.187	804.56
474.406	814.56
474.625	806.56
474.844	815.56
475.063	804.56
475.282	816.56
475.501	832.56
475.72	825.56
475.939	825.56
476.158	844.56
476.377	855.56
476.596	831.56
476.814	879.56
477.033	884.56
477.252	882.56
477.471	908.56
477.69	893.56
477.908	964.56
478.127	974.56
478.346	1002.56
478.564	1025.56
478.783	1021.56
479.002	1032.56
479.22	1057.56
479.439	1042.56
479.658	1030.56
479.876	1042.56
480.095	1024.56
480.313	1064.56
480.532	1125.56
480.751	1116.56
480.969	1076.56
481.188	999.56
481.406	982.56
481.624	963.56
481.843	946.56
482.061	948.56
482.28	922.56
482.498	922.56
482.717	934.56
482.935	939.56
483.153	931.56
483.372	910.56
483.59	942.56
483.808	939.56
484.027	918.56
484.245	928.56
484.463	940.56
484.681	935.56
484.9	970.56
485.118	975.56
485.336	978.56
485.554	986.56
485.772	1011.56
485.99	1005.56
486.209	1032.56
486.427	1024.56
486.645	1036.56
486.863	992.56
487.081	1007.56
487.299	980.56
487.517	974.56
487.735	990.56
487.953	1004.56
488.171	971.56
488.389	980.56
488.607	957.56
488.825	948.56
489.043	966.56
489.261	958.56
489.479	964.56
489.696	970.56
489.914	972.56
490.132	972.56
490.35	998.56
490.568	961.56
490.786	979.56
491.003	981.56
491.221	997.56
491.439	989.56
491.657	981.56
491.874	982.56
492.092	1002.56
492.31	989.56
492.527	1031.56
492.745	990.56
492.963	1010.56
493.18	981.56
493.398	1036.56
493.615	1042.56
493.833	1000.56
494.05	1003.56
494.268	1056.56
494.485	1032.56
494.703	1056.56
494.92	1028.56
495.138	1039.56
495.355	1033.56
495.573	1012.56
495.79	1028.56
496.008	1048.56
496.225	1056.56
496.442	1037.56
496.66	1064.56
496.877	1090.56
497.094	1094.56
497.312	1138.56
497.529	1143.56
497.746	1166.56
497.963	1202.56
498.181	1233.56
498.398	1286.56
498.615	1350.56
498.832	1465.56
499.049	1574.56
499.267	1731.56
499.484	1908.56
499.701	2100.56
499.918	2339.56
500.135	2713.56
500.352	3132.56
500.569	3384.56
500.786	3332.56
501.003	3064.56
501.22	2708.56
501.437	2350.56
501.654	2036.56
501.871	1836.56
502.088	1692.56
502.305	1572.56
502.522	1537.56
502.739	1422.56
502.956	1357.56
503.172	1301.56
503.389	1244.56
503.606	1227.56
503.823	1187.56
504.04	1185.56
504.256	1181.56
504.473	1211.56
504.69	1270.56
504.907	1233.56
505.123	1167.56
505.34	1107.56
505.557	1042.56
505.773	1013.56
505.99	983.56
506.207	975.56
506.423	934.56
506.64	944.56
506.856	937.56
507.073	941.56
507.289	918.56
507.506	929.56
507.722	957.56
507.939	902.56
508.155	906.56
508.372	892.56
508.588	870.56
508.805	878.56
509.021	887.56
509.238	859.56
509.454	867.56
509.67	861.56
509.887	860.56
510.103	843.56
510.319	830.56
510.536	852.56
510.752	826.56
510.968	866.56
511.184	860.56
511.401	841.56
511.617	842.56
511.833	820.56
512.049	856.56
512.265	809.56
512.481	851.56
512.698	834.56
512.914	862.56
513.13	838.56
513.346	851.56
513.562	818.56
513.778	836.56
513.994	851.56
514.21	850.56
514.426	852.56
514.642	865.56
514.858	865.56
515.074	875.56
515.29	868.56
515.506	874.56
515.721	870.56
515.937	888.56
516.153	900.56
516.369	921.56
516.585	985.56
516.801	1000.56
517.016	1021.56
517.232	1075.56
517.448	1130.56
517.664	1190.56
517.879	1211.56
518.095	1220.56
518.311	1201.56
518.527	1093.56
518.742	1086.56
518.958	1021.56
519.173	971.56
519.389	940.56
519.605	952.56
519.82	898.56
520.036	896.56
520.251	840.56
520.467	827.56
520.682	872.56
520.898	836.56
521.113	844.56
521.329	834.56
521.544	832.56
521.76	819.56
521.975	825.56
522.19	810.56
522.406	819.56
522.621	829.56
522.836	797.56
523.052	796.56
523.267	797.56
523.482	771.56
523.698	829.56
523.913	798.56
524.128	799.56
524.343	767.56
524.559	806.56
524.774	770.56
524.989	780.56
525.204	789.56
525.419	772.56
525.634	774.56
525.849	796.56
526.064	758.56
526.28	760.56
526.495	767.56
526.71	778.56
526.925	761.56
527.14	752.56
527.355	768.56
527.57	777.56
527.785	773.56
527.999	765.56
528.214	766.56
528.429	777.56
528.644	753.56
528.859	768.56
529.074	773.56
529.289	748.56
529.503	746.56
529.718	761.56
529.933	740.56
530.148	740.56
530.363	770.56
530.577	764.56
530.792	778.56
531.007	746.56
531.221	769.56
531.436	770.56
531.651	762.56
531.865	752.56
532.08	783.56
532.295	744.56
532.509	770.56
532.724	774.56
532.938	758.56
533.153	757.56
533.367	758.56
533.582	771.56
533.796	744.56
534.011	739.56
534.225	760.56
534.44	752.56
534.654	764.56
534.868	742.56
535.083	726.56
535.297	731.56
535.511	742.56
535.726	713.56
535.94	727.56
536.154	743.56
536.369	713.56
536.583	722.56
536.797	707.56
537.011	715.56
537.225	709.56
537.44	710.56
537.654	691.56
537.868	697.56
538.082	696.56
538.296	703.56
538.51	702.56
538.724	706.56
538.938	689.56
539.153	654.56
539.367	699.56
539.581	689.56
539.795	688.56
540.009	663.56
540.222	684.56
540.436	685.56
540.65	698.56
540.864	684.56
541.078	673.56
541.292	694.56
541.506	694.56
541.72	687.56
541.934	680.56
542.147	693.56
542.361	698.56
542.575	673.56
542.789	657.56
543.002	647.56
543.216	672.56
543.43	675.56
543.644	672.56
543.857	672.56
544.071	665.56
544.285	704.56
544.498	660.56
544.712	694.56
544.925	694.56
545.139	671.56
545.352	689.56
545.566	720.56
545.779	711.56
545.993	707.56
546.206	711.56
546.42	672.56
546.633	696.56
546.847	721.56
547.06	705.56
547.274	683.56
547.487	695.56
547.7	695.56
547.914	688.56
548.127	718.56
548.34	718.56
548.554	713.56
548.767	714.56
548.98	685.56
549.193	696.56
549.407	712.56
549.62	716.56
549.833	722.56
550.046	735.56
550.259	721.56
550.473	702.56
550.686	690.56
550.899	675.56
551.112	672.56
551.325	687.56
551.538	673.56
551.751	685.56
551.964	688.56
552.177	702.56
552.39	722.56
552.603	726.56
552.816	743.56
553.029	766.56
553.242	760.56
553.455	764.56
553.667	777.56
553.88	772.56
554.093	739.56
554.306	731.56
554.519	725.56
554.732	723.56
554.944	681.56
555.157	645.56
555.37	668.56
555.583	672.56
555.795	640.56
556.008	645.56
556.221	642.56
556.433	613.56
556.646	606.56
556.859	615.56
557.071	583.56
557.284	618.56
557.496	602.56
557.709	606.56
557.921	591.56
558.134	614.56
558.346	599.56
558.559	604.56
558.771	584.56
558.984	590.56
559.196	593.56
559.409	589.56
559.621	592.56
559.833	592.56
560.046	593.56
560.258	573.56
560.47	562.56
560.683	575.56
560.895	561.56
561.107	570.56
561.32	568.56
561.532	571.56
561.744	594.56
561.956	574.56
562.168	563.56
562.381	584.56
562.593	594.56
562.805	582.56
563.017	579.56
563.229	562.56
563.441	570.56
563.653	557.56
563.865	605.56
564.077	580.56
564.289	578.56
564.501	611.56
564.713	616.56
564.925	620.56
565.137	659.56
565.349	644.56
565.561	665.56
565.773	655.56
565.985	688.56
566.197	749.56
566.408	830.56
566.62	867.56
566.832	960.56
567.044	964.56
567.255	992.56
567.467	990.56
567.679	1064.56
567.891	1160.56
568.102	1184.56
568.314	1125.56
568.526	1007.56
568.737	894.56
568.949	815.56
569.161	743.56
569.372	714.56
569.584	645.56
569.795	635.56
570.007	624.56
570.218	616.56
570.43	620.56
570.641	590.56
570.853	603.56
571.064	625.56
571.276	618.56
571.487	624.56
571.698	595.56
571.91	540.56
572.121	554.56
572.333	525.56
572.544	525.56
572.755	525.56
572.966	510.56
573.178	514.56
573.389	484.56
573.6	495.56
573.811	484.56
574.023	466.56
574.234	463.56
574.445	487.56
574.656	477.56
574.867	487.56
575.078	485.56
575.289	479.56
575.501	466.56
575.712	470.56
575.923	473.56
576.134	471.56
576.345	445.56
576.556	466.56
576.767	458.56
576.978	447.56
577.188	430.56
577.399	465.56
577.61	446.56
577.821	448.56
578.032	437.56
578.243	438.56
578.454	442.56
578.665	451.56
578.875	428.56
579.086	471.56
579.297	429.56
579.508	434.56
579.718	428.56
579.929	423.56
580.14	419.56
580.35	418.56
580.561	442.56
580.772	416.56
580.982	435.56
581.193	432.56
581.403	421.56
581.614	390.56
581.825	413.56
582.035	412.56
582.246	408.56
582.456	413.56
582.667	401.56
582.877	405.56
583.087	405.56
583.298	424.56
583.508	408.56
583.719	425.56
583.929	419.56
584.139	405.56
584.35	390.56
584.56	373.56
584.77	393.56
584.981	409.56
585.191	414.56
585.401	403.56
585.611	403.56
585.821	396.56
586.032	400.56
586.242	381.56
586.452	384.56
586.662	396.56
586.872	387.56
587.082	393.56
587.292	394.56
587.502	412.56
587.713	392.56
587.923	368.56
588.133	400.56
588.343	390.56
588.553	398.56
588.762	386.56
588.972	422.56
589.182	379.56
589.392	391.56
589.602	392.56
589.812	408.56
590.022	393.56
590.232	394.56
590.441	388.56
590.651	419.56
590.861	410.56
591.071	390.56
591.281	405.56
591.49	409.56
591.7	412.56
591.91	409.56
592.119	409.56
592.329	442.56
592.539	434.56
592.748	467.56
592.958	476.56
593.167	492.56
593.377	506.56
593.587	523.56
593.796	493.56
594.006	521.56
594.215	508.56
594.424	536.56
594.634	527.56
594.843	481.56
595.053	451.56
595.262	435.56
595.472	441.56
595.681	413.56
595.89	398.56
596.1	394.56
596.309	397.56
596.518	379.56
596.727	363.56
596.937	351.56
597.146	371.56
597.355	380.56
597.564	368.56
597.774	358.56
597.983	356.56
598.192	346.56
598.401	347.56
598.61	376.56
598.819	355.56
599.028	346.56
599.237	324.56
599.446	330.56
599.655	332.56
599.864	337.56
600.073	327.56
600.282	338.56
600.491	330.56
600.7	331.56
600.909	338.56
601.118	335.56
601.327	317.56
601.536	336.56
601.745	333.56
601.953	316.56
602.162	326.56
602.371	318.56
602.58	308.56
602.789	317.56
602.997	320.56
603.206	328.56
603.415	312.56
603.623	300.56
603.832	305.56
604.041	318.56
604.249	307.56
604.458	315.56
604.666	328.56
604.875	317.56
605.084	322.56
605.292	301.56
605.501	293.56
605.709	311.56
605.918	320.56
606.126	314.56
606.334	285.56
606.543	322.56
606.751	312.56
606.96	305.56
607.168	299.56
607.376	320.56
607.585	295.56
607.793	287.56
608.001	299.56
608.21	299.56
608.418	318.56
608.626	305.56
608.834	285.56
609.043	319.56
609.251	313.56
609.459	310.56
609.667	298.56
609.875	312.56
610.083	301.56
610.291	295.56
610.499	298.56
610.707	298.56
610.916	275.56
611.124	302.56
611.332	288.56
611.54	305.56
611.748	284.56
611.955	283.56
612.163	304.56
612.371	285.56
612.579	308.56
612.787	307.56
612.995	288.56
613.203	284.56
613.411	287.56
613.618	294.56
613.826	289.56
614.034	298.56
614.242	277.56
614.449	291.56
614.657	283.56
614.865	275.56
615.072	301.56
615.28	288.56
615.488	269.56
615.695	280.56
615.903	282.56
616.111	309.56
616.318	289.56
616.526	288.56
616.733	274.56
616.941	285.56
617.148	292.56
617.356	278.56
617.563	303.56
617.771	286.56
617.978	278.56
618.185	292.56
618.393	290.56
618.6	294.56
618.807	297.56
619.015	285.56
619.222	280.56
619.429	264.56
619.637	292.56
619.844	283.56
620.051	285.56
620.258	282.56
620.466	277.56
620.673	274.56
620.88	275.56
621.087	253.56
621.294	274.56
621.501	270.56
621.708	287.56
621.915	271.56
622.122	283.56
622.329	256.56
622.536	262.56
622.743	264.56
622.95	274.56
623.157	246.56
623.364	263.56
623.571	266.56
623.778	248.56
623.985	260.56
624.192	267.56
624.399	277.56
624.606	278.56
624.812	255.56
625.019	259.56
625.226	270.56
625.433	258.56
625.639	251.56
625.846	235.56
626.053	232.56
626.259	255.56
626.466	254.56
626.673	241.56
626.879	237.56
627.086	244.56
627.293	236.56
627.499	248.56
627.706	241.56
627.912	230.56
628.119	238.56
628.325	235.56
628.532	218.56
628.738	237.56
628.945	238.56
629.151	250.56
629.357	254.56
629.564	231.56
629.77	228.56
629.976	243.56
630.183	222.56
630.389	221.56
630.595	228.56
630.802	215.56
631.008	223.56
631.214	215.56
631.42	236.56
631.627	224.56
631.833	224.56
632.039	220.56
632.245	224.56
632.451	234.56
632.657	233.56
632.863	227.56
633.069	225.56
633.275	225.56
633.481	228.56
633.688	210.56
633.893	211.56
634.099	215.56
634.305	202.56
634.511	209.56
634.717	227.56
634.923	220.56
635.129	208.56
635.335	221.56
635.541	207.56
635.747	218.56
635.952	202.56
636.158	228.56
636.364	205.56
636.57	224.56
636.775	221.56
636.981	210.56
637.187	223.56
637.392	210.56
637.598	206.56
637.804	215.56
638.009	197.56
638.215	212.56
638.421	188.56
638.626	197.56
638.832	211.56
639.037	210.56
639.243	208.56
639.448	191.56
639.654	183.56
639.859	216.56
640.065	194.56
640.27	207.56
640.475	187.56
640.681	199.56
640.886	197.56
641.091	198.56
641.297	200.56
641.502	203.56
641.707	200.56
641.913	180.56
642.118	181.56
642.323	205.56
642.528	202.56
642.733	187.56
642.939	174.56
643.144	195.56
643.349	200.56
643.554	206.56
643.759	196.56
643.964	200.56
644.169	187.56
644.374	191.56
644.579	176.56
644.784	196.56
644.989	178.56
645.194	208.56
645.399	166.56
645.604	176.56
645.809	189.56
646.014	192.56
646.219	199.56
646.423	186.56
646.628	195.56
646.833	188.56
647.038	199.56
647.243	176.56
647.447	190.56
647.652	188.56
647.857	190.56
648.062	197.56
648.266	199.56
648.471	199.56
648.676	214.56
648.88	204.56
649.085	200.56
649.289	184.56
649.494	176.56
649.698	188.56
649.903	186.56
650.107	176.56
650.312	187.56
650.516	184.56
650.721	195.56
650.925	166.56
651.13	181.56
651.334	182.56
651.539	172.56
651.743	166.56
651.947	146.56
652.152	162.56
652.356	156.56
652.56	161.56
652.764	159.56
652.969	155.56
653.173	162.56
653.377	152.56
653.581	135.56
653.785	137.56
653.99	141.56
654.194	135.56
654.398	150.56
654.602	147.56
654.806	134.56
655.01	136.56
655.214	145.56
655.418	134.56
655.622	132.56
655.826	138.56
656.03	142.56
656.234	121.56
656.438	138.56
656.642	126.56
656.846	109.56
657.049	132.56
657.253	132.56
657.457	122.56
657.661	109.56
657.865	122.56
658.068	113.56
658.272	122.56
658.476	112.56
658.68	116.56
658.883	117.56
659.087	95.56
659.291	96.56
659.494	99.56
659.698	97.56
659.901	96.56
660.105	107.56
660.309	113.56
660.512	106.56
660.716	100.56
660.919	107.56
661.123	95.56
661.326	97.56
661.53	98.56
661.733	80.56
661.936	92.56
662.14	92.56
662.343	80.56
662.546	86.56
662.75	77.56
662.953	88.56
663.156	86.56
663.36	82.56
663.563	88.56
663.766	98.56
663.969	93.56
664.173	87.56
664.376	89.56
664.579	82.56
664.782	84.56
664.985	76.56
665.188	83.56
665.391	77.56
665.594	85.56
665.797	89.56
666	72.56
666.203	88.56
666.406	81.56
666.609	71.56
666.812	85.56
667.015	72.56
667.218	83.56
667.421	72.56
667.624	71.56
667.827	91.56
668.03	89.56
668.232	86.56
668.435	85.56
668.638	95.56
668.841	87.56
669.043	94.56
669.246	90.56
669.449	70.56
669.651	89.56
669.854	80.56
670.057	73.56
670.259	78.56
670.462	89.56
670.665	82.56
670.867	76.56
671.07	77.56
671.272	90.56
671.475	76.56
671.677	77.56
671.88	92.56
672.082	84.56
672.284	88.56
672.487	87.56
672.689	86.56
672.892	88.56
