Data from NiCl2@0.0625M.TitratingCurve.Agarose3%dH2O.NegLispCup.LampEnergy10.LIBS07252019_HRD10591_18-32-52-576.txt Node
Date: Thu Jul 25 18:32:52 EDT 2019
User: cochatt
Spectrometer: HR+D1059
Trigger mode: 1
Integration Time (sec): 1.000000E-1
Scans to average: 1
Electric dark correction enabled: true
Nonlinearity correction enabled: false
Boxcar width: 0
XAxis mode: Wavelengths
Number of Pixels in Spectrum: 2048
>>>>>Begin Spectral Data<<<<<
223.165	-9.94
223.4	-9.94
223.635	-9.94
223.869	-9.94
224.104	-28.94
224.338	-8.94
224.573	-22.94
224.808	-3.94
225.042	-13.94
225.277	-7.94
225.511	-3.94
225.746	8.06
225.98	16.06
226.215	14.06
226.449	16.06
226.683	18.06
226.918	14.06
227.152	24.06
227.387	36.06
227.621	40.06
227.856	40.06
228.09	52.06
228.324	56.06
228.559	53.06
228.793	79.06
229.027	169.06
229.262	167.06
229.496	163.06
229.73	168.06
229.964	191.06
230.199	204.06
230.433	186.06
230.667	198.06
230.901	199.06
231.136	183.06
231.37	215.06
231.604	202.06
231.838	216.06
232.072	218.06
232.306	208.06
232.541	215.06
232.775	208.06
233.009	232.06
233.243	219.06
233.477	215.06
233.711	231.06
233.945	226.06
234.179	222.06
234.413	230.06
234.647	231.06
234.881	228.06
235.115	232.06
235.349	237.06
235.583	236.06
235.817	213.06
236.051	244.06
236.285	248.06
236.519	239.06
236.753	243.06
236.987	252.06
237.221	265.06
237.455	264.06
237.689	268.06
237.922	249.06
238.156	277.06
238.39	263.06
238.624	276.06
238.858	284.06
239.091	274.06
239.325	288.06
239.559	273.06
239.793	272.06
240.027	278.06
240.26	290.06
240.494	294.06
240.728	287.06
240.961	300.06
241.195	310.06
241.429	307.06
241.662	303.06
241.896	309.06
242.13	317.06
242.363	327.06
242.597	306.06
242.83	314.06
243.064	314.06
243.298	337.06
243.531	358.06
243.765	335.06
243.998	343.06
244.232	341.06
244.465	359.06
244.699	343.06
244.932	359.06
245.166	375.06
245.399	362.06
245.633	356.06
245.866	365.06
246.099	359.06
246.333	379.06
246.566	372.06
246.8	396.06
247.033	389.06
247.266	381.06
247.5	388.06
247.733	377.06
247.966	418.06
248.2	423.06
248.433	414.06
248.666	417.06
248.899	403.06
249.133	398.06
249.366	424.06
249.599	431.06
249.832	418.06
250.066	434.06
250.299	448.06
250.532	433.06
250.765	442.06
250.998	450.06
251.231	455.06
251.465	454.06
251.698	469.06
251.931	472.06
252.164	452.06
252.397	464.06
252.63	468.06
252.863	474.06
253.096	460.06
253.329	462.06
253.562	472.06
253.795	476.06
254.028	481.06
254.261	514.06
254.494	475.06
254.727	483.06
254.96	493.06
255.193	516.06
255.426	504.06
255.659	486.06
255.892	501.06
256.124	536.06
256.357	513.06
256.59	518.06
256.823	518.06
257.056	533.06
257.289	521.06
257.521	540.06
257.754	527.06
257.987	550.06
258.22	547.06
258.452	520.06
258.685	537.06
258.918	565.06
259.151	529.06
259.383	549.06
259.616	570.06
259.849	554.06
260.081	571.06
260.314	583.06
260.547	562.06
260.779	556.06
261.012	589.06
261.244	575.06
261.477	575.06
261.71	566.06
261.942	581.06
262.175	584.06
262.407	584.06
262.64	584.06
262.872	605.06
263.105	585.06
263.337	587.06
263.57	591.06
263.802	586.06
264.035	606.06
264.267	590.06
264.499	625.06
264.732	620.06
264.964	608.06
265.197	628.06
265.429	626.06
265.661	617.06
265.894	637.06
266.126	601.06
266.358	615.06
266.591	641.06
266.823	644.06
267.055	643.06
267.287	650.06
267.52	653.06
267.752	645.06
267.984	646.06
268.216	662.06
268.448	658.06
268.681	684.06
268.913	691.06
269.145	686.06
269.377	686.06
269.609	679.06
269.841	690.06
270.073	660.06
270.306	681.06
270.538	676.06
270.77	707.06
271.002	681.06
271.234	691.06
271.466	725.06
271.698	690.06
271.93	716.06
272.162	688.06
272.394	720.06
272.626	712.06
272.858	713.06
273.09	718.06
273.322	737.06
273.553	741.06
273.785	704.06
274.017	728.06
274.249	755.06
274.481	742.06
274.713	761.06
274.945	765.06
275.176	758.06
275.408	779.06
275.64	801.06
275.872	759.06
276.104	774.06
276.335	747.06
276.567	770.06
276.799	763.06
277.031	776.06
277.262	785.06
277.494	785.06
277.726	789.06
277.957	803.06
278.189	808.06
278.421	816.06
278.652	813.06
278.884	805.06
279.115	820.06
279.347	832.06
279.579	830.06
279.81	829.06
280.042	838.06
280.273	824.06
280.505	839.06
280.736	825.06
280.968	828.06
281.199	826.06
281.431	851.06
281.662	871.06
281.894	848.06
282.125	847.06
282.356	853.06
282.588	882.06
282.819	867.06
283.051	875.06
283.282	859.06
283.513	876.06
283.745	888.06
283.976	907.06
284.207	879.06
284.439	902.06
284.67	902.06
284.901	882.06
285.132	890.06
285.364	870.06
285.595	893.06
285.826	892.06
286.057	923.06
286.288	883.06
286.52	899.06
286.751	915.06
286.982	922.06
287.213	930.06
287.444	958.06
287.675	944.06
287.906	967.06
288.138	948.06
288.369	911.06
288.6	945.06
288.831	938.06
289.062	943.06
289.293	931.06
289.524	946.06
289.755	948.06
289.986	955.06
290.217	964.06
290.448	963.06
290.679	966.06
290.91	967.06
291.141	969.06
291.371	948.06
291.602	981.06
291.833	992.06
292.064	983.06
292.295	989.06
292.526	932.06
292.757	975.06
292.987	975.06
293.218	996.06
293.449	980.06
293.68	1005.06
293.91	981.06
294.141	987.06
294.372	948.06
294.603	984.06
294.833	1013.06
295.064	974.06
295.295	954.06
295.525	976.06
295.756	998.06
295.987	981.06
296.217	990.06
296.448	1017.06
296.679	1000.06
296.909	992.06
297.14	985.06
297.37	1004.06
297.601	1037.06
297.831	1033.06
298.062	1025.06
298.292	1047.06
298.523	1044.06
298.753	1067.06
298.984	1032.06
299.214	1034.06
299.445	1022.06
299.675	1055.06
299.905	1063.06
300.136	1059.06
300.366	1062.06
300.597	1058.06
300.827	1084.06
301.057	1066.06
301.288	1090.06
301.518	1099.06
301.748	1101.06
301.979	1111.06
302.209	1130.06
302.439	1116.06
302.669	1115.06
302.9	1120.06
303.13	1117.06
303.36	1132.06
303.59	1127.06
303.82	1114.06
304.051	1085.06
304.281	1117.06
304.511	1113.06
304.741	1112.06
304.971	1085.06
305.201	1108.06
305.431	1129.06
305.661	1101.06
305.891	1090.06
306.121	1119.06
306.352	1113.06
306.582	1098.06
306.812	1071.06
307.042	1110.06
307.272	1065.06
307.502	1120.06
307.731	1103.06
307.961	1082.06
308.191	1090.06
308.421	1077.06
308.651	1108.06
308.881	1101.06
309.111	1086.06
309.341	1118.06
309.571	1150.06
309.8	1131.06
310.03	1119.06
310.26	1106.06
310.49	1112.06
310.72	1115.06
310.949	1111.06
311.179	1101.06
311.409	1122.06
311.639	1131.06
311.868	1119.06
312.098	1122.06
312.328	1142.06
312.557	1178.06
312.787	1122.06
313.017	1126.06
313.246	1173.06
313.476	1172.06
313.706	1182.06
313.935	1170.06
314.165	1164.06
314.394	1168.06
314.624	1195.06
314.853	1184.06
315.083	1176.06
315.312	1195.06
315.542	1183.06
315.771	1188.06
316.001	1185.06
316.23	1138.06
316.46	1171.06
316.689	1176.06
316.919	1194.06
317.148	1172.06
317.377	1203.06
317.607	1155.06
317.836	1151.06
318.065	1159.06
318.295	1182.06
318.524	1164.06
318.753	1146.06
318.983	1182.06
319.212	1161.06
319.441	1181.06
319.67	1161.06
319.9	1150.06
320.129	1177.06
320.358	1168.06
320.587	1163.06
320.816	1181.06
321.046	1208.06
321.275	1171.06
321.504	1178.06
321.733	1179.06
321.962	1197.06
322.191	1202.06
322.42	1194.06
322.649	1184.06
322.878	1188.06
323.108	1170.06
323.337	1195.06
323.566	1205.06
323.795	1238.06
324.024	1239.06
324.253	1189.06
324.482	1219.06
324.71	1205.06
324.939	1190.06
325.168	1209.06
325.397	1256.06
325.626	1234.06
325.855	1220.06
326.084	1306.06
326.313	1281.06
326.542	1285.06
326.77	1287.06
326.999	1269.06
327.228	1273.06
327.457	1242.06
327.686	1259.06
327.914	1271.06
328.143	1284.06
328.372	1291.06
328.6	1274.06
328.829	1290.06
329.058	1296.06
329.287	1245.06
329.515	1245.06
329.744	1287.06
329.972	1311.06
330.201	1312.06
330.43	1331.06
330.658	1298.06
330.887	1341.06
331.115	1320.06
331.344	1354.06
331.572	1382.06
331.801	1380.06
332.03	1399.06
332.258	1422.06
332.486	1425.06
332.715	1466.06
332.943	1501.06
333.172	1562.06
333.4	1614.06
333.629	1651.06
333.857	1665.06
334.085	1658.06
334.314	1632.06
334.542	1611.06
334.771	1610.06
334.999	1630.06
335.227	1618.06
335.455	1603.06
335.684	1574.06
335.912	1563.06
336.14	1529.06
336.369	1546.06
336.597	1518.06
336.825	1528.06
337.053	1564.06
337.281	1499.06
337.51	1473.06
337.738	1466.06
337.966	1464.06
338.194	1449.06
338.422	1421.06
338.65	1423.06
338.878	1399.06
339.106	1375.06
339.334	1418.06
339.562	1433.06
339.79	1374.06
340.018	1394.06
340.246	1334.06
340.474	1351.06
340.702	1324.06
340.93	1348.06
341.158	1385.06
341.386	1342.06
341.614	1371.06
341.842	1384.06
342.07	1337.06
342.298	1320.06
342.526	1365.06
342.754	1330.06
342.981	1336.06
343.209	1374.06
343.437	1398.06
343.665	1464.06
343.893	1575.06
344.12	1580.06
344.348	1555.06
344.576	1517.06
344.804	1476.06
345.031	1421.06
345.259	1353.06
345.487	1369.06
345.714	1352.06
345.942	1315.06
346.17	1325.06
346.397	1313.06
346.625	1287.06
346.853	1325.06
347.08	1271.06
347.308	1324.06
347.535	1314.06
347.763	1283.06
347.99	1250.06
348.218	1282.06
348.445	1281.06
348.673	1284.06
348.9	1274.06
349.128	1290.06
349.355	1264.06
349.583	1273.06
349.81	1279.06
350.037	1285.06
350.265	1268.06
350.492	1283.06
350.72	1267.06
350.947	1246.06
351.174	1253.06
351.402	1268.06
351.629	1250.06
351.856	1280.06
352.083	1236.06
352.311	1205.06
352.538	1258.06
352.765	1263.06
352.992	1252.06
353.22	1211.06
353.447	1214.06
353.674	1246.06
353.901	1215.06
354.128	1254.06
354.355	1236.06
354.583	1269.06
354.81	1240.06
355.037	1254.06
355.264	1236.06
355.491	1235.06
355.718	1268.06
355.945	1236.06
356.172	1241.06
356.399	1258.06
356.626	1271.06
356.853	1266.06
357.08	1240.06
357.307	1274.06
357.534	1258.06
357.761	1272.06
357.988	1261.06
358.215	1254.06
358.441	1259.06
358.668	1246.06
358.895	1204.06
359.122	1255.06
359.349	1215.06
359.576	1230.06
359.802	1225.06
360.029	1222.06
360.256	1245.06
360.483	1254.06
360.709	1270.06
360.936	1250.06
361.163	1273.06
361.39	1246.06
361.616	1234.06
361.843	1247.06
362.07	1257.06
362.296	1245.06
362.523	1224.06
362.749	1284.06
362.976	1289.06
363.203	1267.06
363.429	1271.06
363.656	1252.06
363.882	1228.06
364.109	1220.06
364.335	1270.06
364.562	1272.06
364.788	1268.06
365.015	1274.06
365.241	1286.06
365.468	1268.06
365.694	1261.06
365.92	1245.06
366.147	1235.06
366.373	1244.06
366.599	1243.06
366.826	1253.06
367.052	1220.06
367.278	1290.06
367.505	1258.06
367.731	1286.06
367.957	1274.06
368.184	1269.06
368.41	1274.06
368.636	1279.06
368.862	1318.06
369.089	1284.06
369.315	1311.06
369.541	1295.06
369.767	1311.06
369.993	1307.06
370.219	1282.06
370.445	1338.06
370.672	1351.06
370.898	1314.06
371.124	1379.06
371.35	1376.06
371.576	1375.06
371.802	1354.06
372.028	1344.06
372.254	1358.06
372.48	1383.06
372.706	1386.06
372.932	1433.06
373.158	1402.06
373.384	1401.06
373.61	1347.06
373.835	1370.06
374.061	1362.06
374.287	1364.06
374.513	1406.06
374.739	1444.06
374.965	1479.06
375.191	1462.06
375.416	1507.06
375.642	1416.06
375.868	1427.06
376.094	1450.06
376.319	1397.06
376.545	1362.06
376.771	1350.06
376.997	1366.06
377.222	1358.06
377.448	1366.06
377.674	1346.06
377.899	1319.06
378.125	1349.06
378.35	1350.06
378.576	1364.06
378.802	1296.06
379.027	1306.06
379.253	1375.06
379.478	1334.06
379.704	1342.06
379.929	1349.06
380.155	1351.06
380.38	1315.06
380.606	1344.06
380.831	1342.06
381.057	1368.06
381.282	1323.06
381.507	1326.06
381.733	1355.06
381.958	1355.06
382.184	1371.06
382.409	1382.06
382.634	1435.06
382.86	1414.06
383.085	1433.06
383.31	1432.06
383.535	1451.06
383.761	1468.06
383.986	1462.06
384.211	1512.06
384.436	1535.06
384.662	1556.06
384.887	1579.06
385.112	1600.06
385.337	1634.06
385.562	1588.06
385.787	1607.06
386.013	1613.06
386.238	1650.06
386.463	1674.06
386.688	1623.06
386.913	1623.06
387.138	1615.06
387.363	1659.06
387.588	1606.06
387.813	1641.06
388.038	1607.06
388.263	1620.06
388.488	1604.06
388.713	1654.06
388.938	1628.06
389.163	1565.06
389.387	1623.06
389.612	1604.06
389.837	1593.06
390.062	1567.06
390.287	1602.06
390.512	1608.06
390.736	1616.06
390.961	1652.06
391.186	1663.06
391.411	1699.06
391.636	1732.06
391.86	1731.06
392.085	1773.06
392.31	1800.06
392.534	1775.06
392.759	1750.06
392.984	1744.06
393.208	1780.06
393.433	1863.06
393.658	1926.06
393.882	1752.06
394.107	1704.06
394.331	1743.06
394.556	1737.06
394.78	1732.06
395.005	1768.06
395.229	1756.06
395.454	1793.06
395.678	1831.06
395.903	1824.06
396.127	1790.06
396.352	1770.06
396.576	1782.06
396.801	1782.06
397.025	1877.06
397.249	1896.06
397.474	1804.06
397.698	1842.06
397.922	1816.06
398.147	1846.06
398.371	1869.06
398.595	1898.06
398.82	1992.06
399.044	2092.06
399.268	2326.06
399.492	2559.06
399.717	2745.06
399.941	2786.06
400.165	2542.06
400.389	2413.06
400.613	2263.06
400.837	2159.06
401.062	2082.06
401.286	2070.06
401.51	2012.06
401.734	1996.06
401.958	2007.06
402.182	2004.06
402.406	2054.06
402.63	2072.06
402.854	2108.06
403.078	2074.06
403.302	2129.06
403.526	2124.06
403.75	2212.06
403.974	2235.06
404.198	2238.06
404.422	2230.06
404.645	2204.06
404.869	2182.06
405.093	2173.06
405.317	2191.06
405.541	2177.06
405.765	2134.06
405.988	2156.06
406.212	2189.06
406.436	2175.06
406.66	2235.06
406.883	2243.06
407.107	2400.06
407.331	2467.06
407.555	2540.06
407.778	2498.06
408.002	2445.06
408.226	2379.06
408.449	2356.06
408.673	2313.06
408.896	2262.06
409.12	2241.06
409.344	2291.06
409.567	2215.06
409.791	2227.06
410.014	2229.06
410.238	2191.06
410.461	2155.06
410.685	2192.06
410.908	2176.06
411.132	2106.06
411.355	2110.06
411.578	2090.06
411.802	2101.06
412.025	2038.06
412.249	2131.06
412.472	2126.06
412.695	2059.06
412.919	2026.06
413.142	2056.06
413.365	2006.06
413.589	2020.06
413.812	2024.06
414.035	1998.06
414.258	1986.06
414.482	2042.06
414.705	2019.06
414.928	2011.06
415.151	1975.06
415.374	2037.06
415.597	2018.06
415.821	1952.06
416.044	1902.06
416.267	1920.06
416.49	1903.06
416.713	1946.06
416.936	1918.06
417.159	1950.06
417.382	1944.06
417.605	1873.06
417.828	1920.06
418.051	1934.06
418.274	1913.06
418.497	1943.06
418.72	1975.06
418.943	1947.06
419.166	2067.06
419.389	2235.06
419.611	2162.06
419.834	2092.06
420.057	2019.06
420.28	1956.06
420.503	1926.06
420.726	1876.06
420.948	1912.06
421.171	1890.06
421.394	1911.06
421.617	1908.06
421.839	1954.06
422.062	1948.06
422.285	1904.06
422.507	1939.06
422.73	1982.06
422.953	2006.06
423.175	2009.06
423.398	1981.06
423.621	2000.06
423.843	2007.06
424.066	2068.06
424.288	1984.06
424.511	1955.06
424.733	1965.06
424.956	1961.06
425.178	1962.06
425.401	1953.06
425.623	1954.06
425.846	1903.06
426.068	1877.06
426.291	1879.06
426.513	1870.06
426.735	1822.06
426.958	1848.06
427.18	1785.06
427.402	1812.06
427.625	1816.06
427.847	1798.06
428.069	1739.06
428.292	1775.06
428.514	1730.06
428.736	1764.06
428.958	1766.06
429.181	1743.06
429.403	1706.06
429.625	1715.06
429.847	1718.06
430.069	1698.06
430.292	1727.06
430.514	1712.06
430.736	1760.06
430.958	1742.06
431.18	1752.06
431.402	1702.06
431.624	1743.06
431.846	1761.06
432.068	1784.06
432.29	1739.06
432.512	1734.06
432.734	1753.06
432.956	1778.06
433.178	1782.06
433.4	1790.06
433.622	1816.06
433.844	1759.06
434.066	1811.06
434.287	1818.06
434.509	1843.06
434.731	1910.06
434.953	1892.06
435.175	1998.06
435.397	1975.06
435.618	1864.06
435.84	1823.06
436.062	1824.06
436.284	1759.06
436.505	1747.06
436.727	1773.06
436.949	1764.06
437.17	1759.06
437.392	1713.06
437.614	1694.06
437.835	1699.06
438.057	1679.06
438.278	1668.06
438.5	1683.06
438.721	1647.06
438.943	1677.06
439.165	1677.06
439.386	1678.06
439.608	1709.06
439.829	1742.06
440.05	1703.06
440.272	1742.06
440.493	1742.06
440.715	1766.06
440.936	1786.06
441.158	1828.06
441.379	1851.06
441.6	1917.06
441.822	1949.06
442.043	1965.06
442.264	1906.06
442.486	1847.06
442.707	1865.06
442.928	1849.06
443.149	1892.06
443.371	1863.06
443.592	1879.06
443.813	1919.06
444.034	1936.06
444.255	1995.06
444.476	2039.06
444.698	2131.06
444.919	2183.06
445.14	2219.06
445.361	2074.06
445.582	1966.06
445.803	1882.06
446.024	1812.06
446.245	1822.06
446.466	1802.06
446.687	1758.06
446.908	1710.06
447.129	1689.06
447.35	1664.06
447.571	1647.06
447.792	1655.06
448.013	1608.06
448.234	1590.06
448.455	1601.06
448.675	1552.06
448.896	1582.06
449.117	1558.06
449.338	1593.06
449.559	1554.06
449.779	1527.06
450	1542.06
450.221	1546.06
450.442	1588.06
450.662	1592.06
450.883	1572.06
451.104	1584.06
451.324	1606.06
451.545	1538.06
451.766	1559.06
451.986	1564.06
452.207	1565.06
452.428	1541.06
452.648	1555.06
452.869	1539.06
453.089	1506.06
453.31	1551.06
453.53	1501.06
453.751	1496.06
453.971	1510.06
454.192	1498.06
454.412	1482.06
454.633	1466.06
454.853	1474.06
455.073	1471.06
455.294	1475.06
455.514	1436.06
455.734	1512.06
455.955	1458.06
456.175	1478.06
456.395	1443.06
456.616	1471.06
456.836	1508.06
457.056	1483.06
457.276	1464.06
457.497	1460.06
457.717	1488.06
457.937	1468.06
458.157	1526.06
458.377	1527.06
458.598	1586.06
458.818	1600.06
459.038	1641.06
459.258	1670.06
459.478	1740.06
459.698	1752.06
459.918	1796.06
460.138	1866.06
460.358	1930.06
460.578	1942.06
460.798	1970.06
461.018	1983.06
461.238	1980.06
461.458	1986.06
461.678	1943.06
461.898	1954.06
462.118	1987.06
462.338	2102.06
462.558	2206.06
462.777	2211.06
462.997	2378.06
463.217	2486.06
463.437	2513.06
463.657	2395.06
463.876	2311.06
464.096	2276.06
464.316	2266.06
464.536	2277.06
464.755	2179.06
464.975	2097.06
465.195	2028.06
465.414	1944.06
465.634	1869.06
465.854	1804.06
466.073	1768.06
466.293	1762.06
466.512	1680.06
466.732	1647.06
466.951	1656.06
467.171	1639.06
467.391	1669.06
467.61	1632.06
467.829	1630.06
468.049	1645.06
468.268	1596.06
468.488	1612.06
468.707	1596.06
468.927	1584.06
469.146	1590.06
469.365	1616.06
469.585	1608.06
469.804	1619.06
470.023	1681.06
470.243	1662.06
470.462	1673.06
470.681	1686.06
470.901	1706.06
471.12	1688.06
471.339	1630.06
471.558	1625.06
471.777	1613.06
471.997	1629.06
472.216	1630.06
472.435	1583.06
472.654	1586.06
472.873	1540.06
473.092	1588.06
473.311	1557.06
473.53	1551.06
473.749	1593.06
473.968	1551.06
474.187	1550.06
474.406	1543.06
474.625	1572.06
474.844	1529.06
475.063	1600.06
475.282	1594.06
475.501	1621.06
475.72	1587.06
475.939	1623.06
476.158	1605.06
476.377	1671.06
476.596	1642.06
476.814	1700.06
477.033	1696.06
477.252	1749.06
477.471	1731.06
477.69	1764.06
477.908	1832.06
478.127	1848.06
478.346	1842.06
478.564	1894.06
478.783	1908.06
479.002	1979.06
479.22	1966.06
479.439	2018.06
479.658	1977.06
479.876	2003.06
480.095	2041.06
480.313	2054.06
480.532	2108.06
480.751	2125.06
480.969	2064.06
481.188	1967.06
481.406	1976.06
481.624	1910.06
481.843	1901.06
482.061	1858.06
482.28	1892.06
482.498	1910.06
482.717	1893.06
482.935	1934.06
483.153	1913.06
483.372	1894.06
483.59	1914.06
483.808	1922.06
484.027	1940.06
484.245	1908.06
484.463	1980.06
484.681	2015.06
484.9	1986.06
485.118	2014.06
485.336	1991.06
485.554	2037.06
485.772	2040.06
485.99	2071.06
486.209	2018.06
486.427	2042.06
486.645	2040.06
486.863	1983.06
487.081	2018.06
487.299	2000.06
487.517	1979.06
487.735	1997.06
487.953	2019.06
488.171	2014.06
488.389	1978.06
488.607	1980.06
488.825	2006.06
489.043	1958.06
489.261	1960.06
489.479	1972.06
489.696	1968.06
489.914	1949.06
490.132	1997.06
490.35	1962.06
490.568	1924.06
490.786	1963.06
491.003	1960.06
491.221	1980.06
491.439	1989.06
491.657	1948.06
491.874	2002.06
492.092	1962.06
492.31	1923.06
492.527	1948.06
492.745	1969.06
492.963	1993.06
493.18	1957.06
493.398	1972.06
493.615	1986.06
493.833	1989.06
494.05	1999.06
494.268	1980.06
494.485	2008.06
494.703	1986.06
494.92	2004.06
495.138	2022.06
495.355	2038.06
495.573	2022.06
495.79	2013.06
496.008	2064.06
496.225	2101.06
496.442	2074.06
496.66	2122.06
496.877	2176.06
497.094	2179.06
497.312	2197.06
497.529	2223.06
497.746	2287.06
497.963	2379.06
498.181	2475.06
498.398	2535.06
498.615	2686.06
498.832	2871.06
499.049	2995.06
499.267	3216.06
499.484	3466.06
499.701	3774.06
499.918	4136.06
500.135	4507.06
500.352	4914.06
500.569	5094.06
500.786	5090.06
501.003	4858.06
501.22	4442.06
501.437	4016.06
501.654	3650.06
501.871	3373.06
502.088	3150.06
502.305	2942.06
502.522	2824.06
502.739	2724.06
502.956	2614.06
503.172	2504.06
503.389	2394.06
503.606	2349.06
503.823	2313.06
504.04	2298.06
504.256	2252.06
504.473	2310.06
504.69	2317.06
504.907	2269.06
505.123	2127.06
505.34	2083.06
505.557	2008.06
505.773	1921.06
505.99	1907.06
506.207	1880.06
506.423	1829.06
506.64	1804.06
506.856	1759.06
507.073	1797.06
507.289	1757.06
507.506	1681.06
507.722	1682.06
507.939	1706.06
508.155	1693.06
508.372	1678.06
508.588	1656.06
508.805	1690.06
509.021	1669.06
509.238	1666.06
509.454	1628.06
509.67	1612.06
509.887	1604.06
510.103	1591.06
510.319	1576.06
510.536	1598.06
510.752	1600.06
510.968	1582.06
511.184	1555.06
511.401	1596.06
511.617	1533.06
511.833	1549.06
512.049	1529.06
512.265	1570.06
512.481	1582.06
512.698	1544.06
512.914	1582.06
513.13	1573.06
513.346	1543.06
513.562	1581.06
513.778	1599.06
513.994	1570.06
514.21	1615.06
514.426	1602.06
514.642	1604.06
514.858	1623.06
515.074	1630.06
515.29	1633.06
515.506	1630.06
515.721	1658.06
515.937	1690.06
516.153	1688.06
516.369	1748.06
516.585	1773.06
516.801	1843.06
517.016	1921.06
517.232	1926.06
517.448	2024.06
517.664	2078.06
517.879	2068.06
518.095	2083.06
518.311	2063.06
518.527	1982.06
518.742	1909.06
518.958	1853.06
519.173	1787.06
519.389	1726.06
519.605	1697.06
519.82	1667.06
520.036	1658.06
520.251	1618.06
520.467	1620.06
520.682	1565.06
520.898	1562.06
521.113	1522.06
521.329	1553.06
521.544	1511.06
521.76	1506.06
521.975	1507.06
522.19	1514.06
522.406	1466.06
522.621	1492.06
522.836	1498.06
523.052	1499.06
523.267	1433.06
523.482	1464.06
523.698	1426.06
523.913	1420.06
524.128	1425.06
524.343	1444.06
524.559	1420.06
524.774	1381.06
524.989	1410.06
525.204	1404.06
525.419	1423.06
525.634	1411.06
525.849	1380.06
526.064	1390.06
526.28	1406.06
526.495	1353.06
526.71	1373.06
526.925	1388.06
527.14	1352.06
527.355	1371.06
527.57	1387.06
527.785	1407.06
527.999	1372.06
528.214	1397.06
528.429	1382.06
528.644	1389.06
528.859	1355.06
529.074	1361.06
529.289	1355.06
529.503	1380.06
529.718	1390.06
529.933	1357.06
530.148	1357.06
530.363	1366.06
530.577	1363.06
530.792	1365.06
531.007	1367.06
531.221	1421.06
531.436	1356.06
531.651	1348.06
531.865	1367.06
532.08	1354.06
532.295	1380.06
532.509	1375.06
532.724	1352.06
532.938	1384.06
533.153	1383.06
533.367	1380.06
533.582	1354.06
533.796	1371.06
534.011	1391.06
534.225	1347.06
534.44	1303.06
534.654	1357.06
534.868	1332.06
535.083	1318.06
535.297	1308.06
535.511	1322.06
535.726	1305.06
535.94	1300.06
536.154	1283.06
536.369	1280.06
536.583	1272.06
536.797	1288.06
537.011	1288.06
537.225	1292.06
537.44	1279.06
537.654	1246.06
537.868	1271.06
538.082	1250.06
538.296	1227.06
538.51	1206.06
538.724	1261.06
538.938	1234.06
539.153	1233.06
539.367	1258.06
539.581	1235.06
539.795	1232.06
540.009	1220.06
540.222	1230.06
540.436	1238.06
540.65	1225.06
540.864	1206.06
541.078	1210.06
541.292	1205.06
541.506	1206.06
541.72	1189.06
541.934	1228.06
542.147	1211.06
542.361	1207.06
542.575	1212.06
542.789	1179.06
543.002	1200.06
543.216	1188.06
543.43	1191.06
543.644	1211.06
543.857	1197.06
544.071	1193.06
544.285	1236.06
544.498	1206.06
544.712	1172.06
544.925	1198.06
545.139	1248.06
545.352	1197.06
545.566	1224.06
545.779	1226.06
545.993	1237.06
546.206	1204.06
546.42	1213.06
546.633	1216.06
546.847	1232.06
547.06	1204.06
547.274	1216.06
547.487	1193.06
547.7	1217.06
547.914	1220.06
548.127	1227.06
548.34	1242.06
548.554	1227.06
548.767	1228.06
548.98	1246.06
549.193	1212.06
549.407	1229.06
549.62	1228.06
549.833	1255.06
550.046	1242.06
550.259	1236.06
550.473	1220.06
550.686	1204.06
550.899	1200.06
551.112	1203.06
551.325	1193.06
551.538	1172.06
551.751	1233.06
551.964	1210.06
552.177	1259.06
552.39	1245.06
552.603	1266.06
552.816	1286.06
553.029	1311.06
553.242	1307.06
553.455	1296.06
553.667	1309.06
553.88	1310.06
554.093	1278.06
554.306	1242.06
554.519	1244.06
554.732	1158.06
554.944	1179.06
555.157	1174.06
555.37	1154.06
555.583	1149.06
555.795	1123.06
556.008	1104.06
556.221	1106.06
556.433	1090.06
556.646	1104.06
556.859	1107.06
557.071	1084.06
557.284	1056.06
557.496	1061.06
557.709	1053.06
557.921	1082.06
558.134	1068.06
558.346	1000.06
558.559	1028.06
558.771	1059.06
558.984	1013.06
559.196	1007.06
559.409	1018.06
559.621	1010.06
559.833	997.06
560.046	990.06
560.258	1010.06
560.47	1017.06
560.683	1006.06
560.895	1027.06
561.107	1012.06
561.32	988.06
561.532	1018.06
561.744	1004.06
561.956	1004.06
562.168	999.06
562.381	1051.06
562.593	986.06
562.805	1006.06
563.017	1006.06
563.229	1027.06
563.441	1026.06
563.653	1047.06
563.865	1030.06
564.077	1086.06
564.289	1055.06
564.501	1048.06
564.713	1079.06
564.925	1124.06
565.137	1121.06
565.349	1144.06
565.561	1182.06
565.773	1196.06
565.985	1239.06
566.197	1318.06
566.408	1376.06
566.62	1440.06
566.832	1562.06
567.044	1567.06
567.255	1560.06
567.467	1606.06
567.679	1677.06
567.891	1778.06
568.102	1719.06
568.314	1692.06
568.526	1570.06
568.737	1517.06
568.949	1355.06
569.161	1271.06
569.372	1174.06
569.584	1144.06
569.795	1115.06
570.007	1111.06
570.218	1049.06
570.43	1034.06
570.641	1047.06
570.853	1010.06
571.064	1035.06
571.276	1028.06
571.487	1001.06
571.698	954.06
571.91	902.06
572.121	926.06
572.333	913.06
572.544	892.06
572.755	879.06
572.966	879.06
573.178	895.06
573.389	851.06
573.6	818.06
573.811	826.06
574.023	841.06
574.234	851.06
574.445	823.06
574.656	819.06
574.867	803.06
575.078	825.06
575.289	829.06
575.501	810.06
575.712	793.06
575.923	798.06
576.134	763.06
576.345	796.06
576.556	778.06
576.767	774.06
576.978	772.06
577.188	759.06
577.399	777.06
577.61	756.06
577.821	748.06
578.032	720.06
578.243	748.06
578.454	732.06
578.665	736.06
578.875	730.06
579.086	745.06
579.297	694.06
579.508	715.06
579.718	727.06
579.929	703.06
580.14	722.06
580.35	706.06
580.561	720.06
580.772	701.06
580.982	692.06
581.193	686.06
581.403	709.06
581.614	698.06
581.825	678.06
582.035	677.06
582.246	709.06
582.456	676.06
582.667	679.06
582.877	685.06
583.087	695.06
583.298	679.06
583.508	687.06
583.719	668.06
583.929	673.06
584.139	666.06
584.35	695.06
584.56	658.06
584.77	669.06
584.981	642.06
585.191	638.06
585.401	643.06
585.611	670.06
585.821	674.06
586.032	664.06
586.242	639.06
586.452	655.06
586.662	675.06
586.872	675.06
587.082	646.06
587.292	642.06
587.502	627.06
587.713	663.06
587.923	644.06
588.133	644.06
588.343	642.06
588.553	669.06
588.762	668.06
588.972	639.06
589.182	679.06
589.392	668.06
589.602	671.06
589.812	685.06
590.022	665.06
590.232	656.06
590.441	653.06
590.651	666.06
590.861	640.06
591.071	659.06
591.281	666.06
591.49	672.06
591.7	703.06
591.91	694.06
592.119	716.06
592.329	706.06
592.539	723.06
592.748	730.06
592.958	734.06
593.167	765.06
593.377	774.06
593.587	799.06
593.796	774.06
594.006	780.06
594.215	797.06
594.424	759.06
594.634	765.06
594.843	761.06
595.053	731.06
595.262	712.06
595.472	697.06
595.681	698.06
595.89	666.06
596.1	648.06
596.309	654.06
596.518	608.06
596.727	599.06
596.937	606.06
597.146	605.06
597.355	601.06
597.564	579.06
597.774	594.06
597.983	598.06
598.192	569.06
598.401	558.06
598.61	553.06
598.819	561.06
599.028	572.06
599.237	554.06
599.446	578.06
599.655	558.06
599.864	548.06
600.073	520.06
600.282	534.06
600.491	536.06
600.7	523.06
600.909	559.06
601.118	537.06
601.327	535.06
601.536	535.06
601.745	543.06
601.953	532.06
602.162	523.06
602.371	517.06
602.58	522.06
602.789	530.06
602.997	528.06
603.206	515.06
603.415	508.06
603.623	495.06
603.832	506.06
604.041	488.06
604.249	503.06
604.458	510.06
604.666	501.06
604.875	494.06
605.084	482.06
605.292	480.06
605.501	508.06
605.709	485.06
605.918	479.06
606.126	497.06
606.334	492.06
606.543	490.06
606.751	484.06
606.96	476.06
607.168	482.06
607.376	476.06
607.585	476.06
607.793	480.06
608.001	465.06
608.21	471.06
608.418	480.06
608.626	470.06
608.834	488.06
609.043	464.06
609.251	483.06
609.459	441.06
609.667	462.06
609.875	474.06
610.083	469.06
610.291	467.06
610.499	468.06
610.707	461.06
610.916	472.06
611.124	474.06
611.332	459.06
611.54	441.06
611.748	486.06
611.955	457.06
612.163	438.06
612.371	458.06
612.579	469.06
612.787	432.06
612.995	448.06
613.203	466.06
613.411	448.06
613.618	459.06
613.826	459.06
614.034	446.06
614.242	463.06
614.449	459.06
614.657	460.06
614.865	438.06
615.072	444.06
615.28	439.06
615.488	462.06
615.695	454.06
615.903	462.06
616.111	437.06
616.318	448.06
616.526	452.06
616.733	438.06
616.941	460.06
617.148	448.06
617.356	455.06
617.563	457.06
617.771	453.06
617.978	435.06
618.185	443.06
618.393	437.06
618.6	446.06
618.807	451.06
619.015	464.06
619.222	446.06
619.429	459.06
619.637	428.06
619.844	443.06
620.051	445.06
620.258	421.06
620.466	441.06
620.673	398.06
620.88	401.06
621.087	391.06
621.294	434.06
621.501	436.06
621.708	414.06
621.915	397.06
622.122	396.06
622.329	418.06
622.536	415.06
622.743	404.06
622.95	418.06
623.157	418.06
623.364	410.06
623.571	404.06
623.778	407.06
623.985	392.06
624.192	399.06
624.399	384.06
624.606	394.06
624.812	398.06
625.019	391.06
625.226	375.06
625.433	377.06
625.639	361.06
625.846	386.06
626.053	378.06
626.259	396.06
626.466	386.06
626.673	395.06
626.879	367.06
627.086	380.06
627.293	385.06
627.499	364.06
627.706	370.06
627.912	391.06
628.119	367.06
628.325	370.06
628.532	373.06
628.738	372.06
628.945	370.06
629.151	368.06
629.357	379.06
629.564	370.06
629.77	347.06
629.976	360.06
630.183	370.06
630.389	372.06
630.595	363.06
630.802	353.06
631.008	340.06
631.214	342.06
631.42	347.06
631.627	349.06
631.833	338.06
632.039	342.06
632.245	323.06
632.451	327.06
632.657	335.06
632.863	318.06
633.069	354.06
633.275	344.06
633.481	314.06
633.688	336.06
633.893	345.06
634.099	341.06
634.305	339.06
634.511	336.06
634.717	338.06
634.923	333.06
635.129	331.06
635.335	322.06
635.541	323.06
635.747	337.06
635.952	325.06
636.158	333.06
636.364	333.06
636.57	321.06
636.775	322.06
636.981	322.06
637.187	310.06
637.392	314.06
637.598	326.06
637.804	312.06
638.009	346.06
638.215	308.06
638.421	319.06
638.626	317.06
638.832	315.06
639.037	308.06
639.243	292.06
639.448	318.06
639.654	323.06
639.859	294.06
640.065	309.06
640.27	323.06
640.475	307.06
640.681	304.06
640.886	292.06
641.091	306.06
641.297	302.06
641.502	316.06
641.707	317.06
641.913	296.06
642.118	319.06
642.323	293.06
642.528	310.06
642.733	278.06
642.939	289.06
643.144	311.06
643.349	309.06
643.554	298.06
643.759	282.06
643.964	273.06
644.169	299.06
644.374	292.06
644.579	282.06
644.784	272.06
644.989	288.06
645.194	300.06
645.399	292.06
645.604	307.06
645.809	300.06
646.014	303.06
646.219	299.06
646.423	286.06
646.628	294.06
646.833	309.06
647.038	322.06
647.243	309.06
647.447	318.06
647.652	318.06
647.857	307.06
648.062	311.06
648.266	315.06
648.471	319.06
648.676	312.06
648.88	319.06
649.085	311.06
649.289	315.06
649.494	307.06
649.698	290.06
649.903	315.06
650.107	301.06
650.312	297.06
650.516	301.06
650.721	297.06
650.925	309.06
651.13	282.06
651.334	291.06
651.539	294.06
651.743	279.06
651.947	279.06
652.152	287.06
652.356	286.06
652.56	283.06
652.764	292.06
652.969	292.06
653.173	265.06
653.377	283.06
653.581	283.06
653.785	278.06
653.99	291.06
654.194	276.06
654.398	294.06
654.602	290.06
654.806	280.06
655.01	279.06
655.214	280.06
655.418	300.06
655.622	295.06
655.826	289.06
656.03	314.06
656.234	335.06
656.438	361.06
656.642	350.06
656.846	345.06
657.049	314.06
657.253	287.06
657.457	266.06
657.661	243.06
657.865	219.06
658.068	231.06
658.272	201.06
658.476	200.06
658.68	178.06
658.883	168.06
659.087	154.06
659.291	157.06
659.494	146.06
659.698	132.06
659.901	134.06
660.105	135.06
660.309	136.06
660.512	119.06
660.716	108.06
660.919	110.06
661.123	125.06
661.326	104.06
661.53	103.06
661.733	101.06
661.936	110.06
662.14	102.06
662.343	101.06
662.546	116.06
662.75	92.06
662.953	90.06
663.156	94.06
663.36	87.06
663.563	88.06
663.766	92.06
663.969	98.06
664.173	93.06
664.376	89.06
664.579	92.06
664.782	79.06
664.985	91.06
665.188	84.06
665.391	92.06
665.594	94.06
665.797	89.06
666	90.06
666.203	78.06
666.406	79.06
666.609	74.06
666.812	89.06
667.015	104.06
667.218	98.06
667.421	91.06
667.624	84.06
667.827	80.06
668.03	104.06
668.232	89.06
668.435	80.06
668.638	91.06
668.841	89.06
669.043	82.06
669.246	85.06
669.449	90.06
669.651	84.06
669.854	76.06
670.057	91.06
670.259	78.06
670.462	66.06
670.665	78.06
670.867	78.06
671.07	84.06
671.272	91.06
671.475	95.06
671.677	84.06
671.88	81.06
672.082	87.06
672.284	89.06
672.487	95.06
672.689	90.06
672.892	79.06
