Data from NiCl2@0.5M.TitratingCurve.Agarose3%dH2O.NegLispCup.LampEnergy10.LIBS07252019_HRD10591_18-19-27-573.txt Node
Date: Thu Jul 25 18:19:27 EDT 2019
User: cochatt
Spectrometer: HR+D1059
Trigger mode: 1
Integration Time (sec): 1.000000E-1
Scans to average: 1
Electric dark correction enabled: true
Nonlinearity correction enabled: false
Boxcar width: 0
XAxis mode: Wavelengths
Number of Pixels in Spectrum: 2048
>>>>>Begin Spectral Data<<<<<
223.165	-5.31
223.4	-5.31
223.635	-5.31
223.869	-12.31
224.104	-22.31
224.338	-8.31
224.573	-26.31
224.808	-23.31
225.042	-29.31
225.277	-0.31
225.511	-2.31
225.746	-2.31
225.98	8.69
226.215	0.69
226.449	24.69
226.683	33.69
226.918	32.69
227.152	31.69
227.387	34.69
227.621	41.69
227.856	43.69
228.09	46.69
228.324	45.69
228.559	59.69
228.793	74.69
229.027	115.69
229.262	139.69
229.496	132.69
229.73	126.69
229.964	141.69
230.199	165.69
230.433	157.69
230.667	169.69
230.901	158.69
231.136	143.69
231.37	148.69
231.604	167.69
231.838	171.69
232.072	171.69
232.306	168.69
232.541	178.69
232.775	176.69
233.009	146.69
233.243	169.69
233.477	177.69
233.711	176.69
233.945	158.69
234.179	176.69
234.413	180.69
234.647	176.69
234.881	177.69
235.115	177.69
235.349	156.69
235.583	167.69
235.817	171.69
236.051	154.69
236.285	164.69
236.519	151.69
236.753	182.69
236.987	172.69
237.221	185.69
237.455	189.69
237.689	169.69
237.922	180.69
238.156	180.69
238.39	184.69
238.624	193.69
238.858	201.69
239.091	194.69
239.325	193.69
239.559	192.69
239.793	216.69
240.027	217.69
240.26	184.69
240.494	193.69
240.728	196.69
240.961	214.69
241.195	218.69
241.429	204.69
241.662	204.69
241.896	221.69
242.13	234.69
242.363	225.69
242.597	215.69
242.83	217.69
243.064	207.69
243.298	210.69
243.531	232.69
243.765	232.69
243.998	236.69
244.232	235.69
244.465	254.69
244.699	227.69
244.932	240.69
245.166	250.69
245.399	241.69
245.633	247.69
245.866	245.69
246.099	258.69
246.333	236.69
246.566	238.69
246.8	244.69
247.033	274.69
247.266	250.69
247.5	258.69
247.733	252.69
247.966	249.69
248.2	251.69
248.433	272.69
248.666	265.69
248.899	260.69
249.133	264.69
249.366	271.69
249.599	278.69
249.832	282.69
250.066	259.69
250.299	276.69
250.532	275.69
250.765	294.69
250.998	277.69
251.231	295.69
251.465	292.69
251.698	310.69
251.931	288.69
252.164	290.69
252.397	298.69
252.63	309.69
252.863	293.69
253.096	298.69
253.329	292.69
253.562	310.69
253.795	298.69
254.028	281.69
254.261	299.69
254.494	306.69
254.727	308.69
254.96	326.69
255.193	322.69
255.426	342.69
255.659	333.69
255.892	323.69
256.124	341.69
256.357	309.69
256.59	332.69
256.823	352.69
257.056	337.69
257.289	337.69
257.521	346.69
257.754	331.69
257.987	334.69
258.22	346.69
258.452	328.69
258.685	328.69
258.918	333.69
259.151	340.69
259.383	339.69
259.616	371.69
259.849	345.69
260.081	353.69
260.314	355.69
260.547	368.69
260.779	355.69
261.012	365.69
261.244	355.69
261.477	365.69
261.71	388.69
261.942	372.69
262.175	361.69
262.407	376.69
262.64	349.69
262.872	390.69
263.105	364.69
263.337	380.69
263.57	374.69
263.802	392.69
264.035	385.69
264.267	392.69
264.499	400.69
264.732	410.69
264.964	392.69
265.197	384.69
265.429	368.69
265.661	399.69
265.894	409.69
266.126	390.69
266.358	406.69
266.591	407.69
266.823	425.69
267.055	397.69
267.287	396.69
267.52	418.69
267.752	432.69
267.984	417.69
268.216	416.69
268.448	410.69
268.681	413.69
268.913	416.69
269.145	434.69
269.377	410.69
269.609	429.69
269.841	419.69
270.073	418.69
270.306	436.69
270.538	449.69
270.77	434.69
271.002	449.69
271.234	433.69
271.466	440.69
271.698	433.69
271.93	423.69
272.162	436.69
272.394	457.69
272.626	439.69
272.858	455.69
273.09	450.69
273.322	476.69
273.553	455.69
273.785	446.69
274.017	451.69
274.249	466.69
274.481	466.69
274.713	476.69
274.945	466.69
275.176	461.69
275.408	470.69
275.64	483.69
275.872	465.69
276.104	486.69
276.335	497.69
276.567	486.69
276.799	459.69
277.031	492.69
277.262	465.69
277.494	486.69
277.726	493.69
277.957	489.69
278.189	488.69
278.421	486.69
278.652	489.69
278.884	482.69
279.115	505.69
279.347	500.69
279.579	503.69
279.81	498.69
280.042	524.69
280.273	509.69
280.505	524.69
280.736	508.69
280.968	529.69
281.199	518.69
281.431	529.69
281.662	527.69
281.894	538.69
282.125	540.69
282.356	543.69
282.588	533.69
282.819	520.69
283.051	525.69
283.282	547.69
283.513	550.69
283.745	560.69
283.976	556.69
284.207	541.69
284.439	565.69
284.67	568.69
284.901	538.69
285.132	562.69
285.364	568.69
285.595	572.69
285.826	550.69
286.057	548.69
286.288	563.69
286.52	566.69
286.751	569.69
286.982	571.69
287.213	563.69
287.444	563.69
287.675	586.69
287.906	574.69
288.138	593.69
288.369	593.69
288.6	607.69
288.831	590.69
289.062	582.69
289.293	616.69
289.524	585.69
289.755	602.69
289.986	599.69
290.217	581.69
290.448	577.69
290.679	589.69
290.91	601.69
291.141	606.69
291.371	615.69
291.602	607.69
291.833	613.69
292.064	610.69
292.295	606.69
292.526	605.69
292.757	589.69
292.987	586.69
293.218	609.69
293.449	613.69
293.68	633.69
293.91	614.69
294.141	600.69
294.372	594.69
294.603	612.69
294.833	616.69
295.064	604.69
295.295	617.69
295.525	620.69
295.756	607.69
295.987	620.69
296.217	618.69
296.448	618.69
296.679	619.69
296.909	658.69
297.14	636.69
297.37	672.69
297.601	662.69
297.831	628.69
298.062	651.69
298.292	676.69
298.523	666.69
298.753	663.69
298.984	658.69
299.214	665.69
299.445	668.69
299.675	670.69
299.905	672.69
300.136	666.69
300.366	700.69
300.597	715.69
300.827	707.69
301.057	668.69
301.288	677.69
301.518	696.69
301.748	717.69
301.979	693.69
302.209	705.69
302.439	694.69
302.669	652.69
302.9	688.69
303.13	683.69
303.36	690.69
303.59	688.69
303.82	681.69
304.051	714.69
304.281	696.69
304.511	708.69
304.741	718.69
304.971	726.69
305.201	731.69
305.431	757.69
305.661	726.69
305.891	717.69
306.121	700.69
306.352	700.69
306.582	700.69
306.812	679.69
307.042	708.69
307.272	673.69
307.502	697.69
307.731	707.69
307.961	696.69
308.191	681.69
308.421	696.69
308.651	717.69
308.881	689.69
309.111	678.69
309.341	685.69
309.571	720.69
309.8	726.69
310.03	742.69
310.26	738.69
310.49	732.69
310.72	720.69
310.949	694.69
311.179	695.69
311.409	744.69
311.639	698.69
311.868	712.69
312.098	721.69
312.328	737.69
312.557	732.69
312.787	717.69
313.017	701.69
313.246	733.69
313.476	777.69
313.706	772.69
313.935	745.69
314.165	735.69
314.394	746.69
314.624	752.69
314.853	742.69
315.083	759.69
315.312	737.69
315.542	739.69
315.771	733.69
316.001	756.69
316.23	716.69
316.46	737.69
316.689	759.69
316.919	765.69
317.148	753.69
317.377	743.69
317.607	756.69
317.836	749.69
318.065	768.69
318.295	764.69
318.524	751.69
318.753	771.69
318.983	725.69
319.212	736.69
319.441	734.69
319.67	750.69
319.9	754.69
320.129	776.69
320.358	759.69
320.587	739.69
320.816	756.69
321.046	765.69
321.275	757.69
321.504	769.69
321.733	785.69
321.962	781.69
322.191	783.69
322.42	792.69
322.649	779.69
322.878	770.69
323.108	735.69
323.337	754.69
323.566	777.69
323.795	782.69
324.024	824.69
324.253	778.69
324.482	793.69
324.71	776.69
324.939	794.69
325.168	810.69
325.397	800.69
325.626	796.69
325.855	813.69
326.084	818.69
326.313	831.69
326.542	827.69
326.77	829.69
326.999	809.69
327.228	804.69
327.457	840.69
327.686	798.69
327.914	820.69
328.143	827.69
328.372	813.69
328.6	799.69
328.829	824.69
329.058	818.69
329.287	799.69
329.515	796.69
329.744	815.69
329.972	809.69
330.201	813.69
330.43	827.69
330.658	802.69
330.887	832.69
331.115	817.69
331.344	845.69
331.572	866.69
331.801	875.69
332.03	899.69
332.258	869.69
332.486	913.69
332.715	916.69
332.943	920.69
333.172	940.69
333.4	940.69
333.629	965.69
333.857	985.69
334.085	988.69
334.314	974.69
334.542	952.69
334.771	1004.69
334.999	990.69
335.227	963.69
335.455	991.69
335.684	980.69
335.912	974.69
336.14	985.69
336.369	980.69
336.597	974.69
336.825	982.69
337.053	989.69
337.281	989.69
337.51	953.69
337.738	969.69
337.966	931.69
338.194	964.69
338.422	922.69
338.65	916.69
338.878	908.69
339.106	890.69
339.334	928.69
339.562	929.69
339.79	888.69
340.018	868.69
340.246	861.69
340.474	864.69
340.702	873.69
340.93	869.69
341.158	868.69
341.386	898.69
341.614	928.69
341.842	918.69
342.07	880.69
342.298	865.69
342.526	868.69
342.754	868.69
342.981	864.69
343.209	864.69
343.437	899.69
343.665	916.69
343.893	946.69
344.12	948.69
344.348	942.69
344.576	920.69
344.804	929.69
345.031	901.69
345.259	883.69
345.487	901.69
345.714	889.69
345.942	904.69
346.17	903.69
346.397	894.69
346.625	869.69
346.853	856.69
347.08	821.69
347.308	838.69
347.535	855.69
347.763	844.69
347.99	833.69
348.218	872.69
348.445	862.69
348.673	838.69
348.9	818.69
349.128	837.69
349.355	851.69
349.583	827.69
349.81	828.69
350.037	824.69
350.265	802.69
350.492	807.69
350.72	792.69
350.947	825.69
351.174	807.69
351.402	849.69
351.629	856.69
351.856	825.69
352.083	793.69
352.311	838.69
352.538	832.69
352.765	861.69
352.992	821.69
353.22	792.69
353.447	769.69
353.674	777.69
353.901	817.69
354.128	795.69
354.355	792.69
354.583	803.69
354.81	777.69
355.037	792.69
355.264	795.69
355.491	787.69
355.718	795.69
355.945	803.69
356.172	810.69
356.399	779.69
356.626	817.69
356.853	834.69
357.08	795.69
357.307	813.69
357.534	792.69
357.761	776.69
357.988	768.69
358.215	769.69
358.441	754.69
358.668	776.69
358.895	781.69
359.122	789.69
359.349	791.69
359.576	783.69
359.802	795.69
360.029	770.69
360.256	769.69
360.483	765.69
360.709	799.69
360.936	790.69
361.163	797.69
361.39	806.69
361.616	797.69
361.843	808.69
362.07	864.69
362.296	850.69
362.523	789.69
362.749	789.69
362.976	760.69
363.203	765.69
363.429	767.69
363.656	765.69
363.882	773.69
364.109	760.69
364.335	754.69
364.562	768.69
364.788	793.69
365.015	782.69
365.241	741.69
365.468	790.69
365.694	765.69
365.92	780.69
366.147	748.69
366.373	760.69
366.599	789.69
366.826	750.69
367.052	756.69
367.278	785.69
367.505	771.69
367.731	784.69
367.957	790.69
368.184	786.69
368.41	785.69
368.636	787.69
368.862	801.69
369.089	776.69
369.315	818.69
369.541	768.69
369.767	767.69
369.993	809.69
370.219	804.69
370.445	803.69
370.672	792.69
370.898	775.69
371.124	802.69
371.35	831.69
371.576	813.69
371.802	822.69
372.028	821.69
372.254	809.69
372.48	816.69
372.706	806.69
372.932	820.69
373.158	826.69
373.384	838.69
373.61	827.69
373.835	832.69
374.061	810.69
374.287	806.69
374.513	811.69
374.739	823.69
374.965	859.69
375.191	855.69
375.416	828.69
375.642	860.69
375.868	837.69
376.094	803.69
376.319	818.69
376.545	818.69
376.771	811.69
376.997	780.69
377.222	818.69
377.448	785.69
377.674	795.69
377.899	805.69
378.125	763.69
378.35	789.69
378.576	794.69
378.802	780.69
379.027	786.69
379.253	796.69
379.478	782.69
379.704	780.69
379.929	806.69
380.155	784.69
380.38	782.69
380.606	784.69
380.831	787.69
381.057	795.69
381.282	782.69
381.507	804.69
381.733	795.69
381.958	811.69
382.184	800.69
382.409	804.69
382.634	805.69
382.86	813.69
383.085	815.69
383.31	807.69
383.535	823.69
383.761	848.69
383.986	838.69
384.211	850.69
384.436	834.69
384.662	851.69
384.887	897.69
385.112	859.69
385.337	894.69
385.562	876.69
385.787	901.69
386.013	906.69
386.238	897.69
386.463	900.69
386.688	895.69
386.913	870.69
387.138	904.69
387.363	910.69
387.588	893.69
387.813	902.69
388.038	914.69
388.263	911.69
388.488	904.69
388.713	880.69
388.938	909.69
389.163	904.69
389.387	919.69
389.612	915.69
389.837	884.69
390.062	913.69
390.287	927.69
390.512	928.69
390.736	899.69
390.961	891.69
391.186	905.69
391.411	917.69
391.636	957.69
391.86	973.69
392.085	997.69
392.31	962.69
392.534	966.69
392.759	966.69
392.984	940.69
393.208	944.69
393.433	953.69
393.658	944.69
393.882	937.69
394.107	966.69
394.331	956.69
394.556	944.69
394.78	974.69
395.005	936.69
395.229	985.69
395.454	995.69
395.678	989.69
395.903	999.69
396.127	984.69
396.352	953.69
396.576	966.69
396.801	973.69
397.025	1004.69
397.249	1000.69
397.474	1042.69
397.698	1010.69
397.922	988.69
398.147	1028.69
398.371	1048.69
398.595	1036.69
398.82	1094.69
399.044	1141.69
399.268	1175.69
399.492	1317.69
399.717	1367.69
399.941	1376.69
400.165	1338.69
400.389	1278.69
400.613	1211.69
400.837	1154.69
401.062	1148.69
401.286	1125.69
401.51	1117.69
401.734	1123.69
401.958	1105.69
402.182	1115.69
402.406	1120.69
402.63	1105.69
402.854	1144.69
403.078	1141.69
403.302	1167.69
403.526	1146.69
403.75	1150.69
403.974	1174.69
404.198	1161.69
404.422	1175.69
404.645	1155.69
404.869	1150.69
405.093	1174.69
405.317	1176.69
405.541	1179.69
405.765	1179.69
405.988	1155.69
406.212	1195.69
406.436	1185.69
406.66	1226.69
406.883	1196.69
407.107	1258.69
407.331	1298.69
407.555	1329.69
407.778	1309.69
408.002	1321.69
408.226	1307.69
408.449	1291.69
408.673	1276.69
408.896	1228.69
409.12	1235.69
409.344	1252.69
409.567	1213.69
409.791	1268.69
410.014	1234.69
410.238	1220.69
410.461	1189.69
410.685	1216.69
410.908	1193.69
411.132	1190.69
411.355	1155.69
411.578	1163.69
411.802	1157.69
412.025	1173.69
412.249	1155.69
412.472	1185.69
412.695	1160.69
412.919	1170.69
413.142	1198.69
413.365	1124.69
413.589	1151.69
413.812	1121.69
414.035	1123.69
414.258	1122.69
414.482	1144.69
414.705	1120.69
414.928	1124.69
415.151	1108.69
415.374	1128.69
415.597	1120.69
415.821	1118.69
416.044	1117.69
416.267	1100.69
416.49	1101.69
416.713	1097.69
416.936	1104.69
417.159	1126.69
417.382	1096.69
417.605	1106.69
417.828	1094.69
418.051	1116.69
418.274	1134.69
418.497	1112.69
418.72	1102.69
418.943	1113.69
419.166	1174.69
419.389	1267.69
419.611	1252.69
419.834	1184.69
420.057	1190.69
420.28	1116.69
420.503	1101.69
420.726	1115.69
420.948	1119.69
421.171	1112.69
421.394	1113.69
421.617	1100.69
421.839	1105.69
422.062	1095.69
422.285	1091.69
422.507	1115.69
422.73	1123.69
422.953	1111.69
423.175	1149.69
423.398	1144.69
423.621	1121.69
423.843	1145.69
424.066	1157.69
424.288	1109.69
424.511	1161.69
424.733	1132.69
424.956	1102.69
425.178	1129.69
425.401	1114.69
425.623	1138.69
425.846	1121.69
426.068	1131.69
426.291	1106.69
426.513	1082.69
426.735	1058.69
426.958	1078.69
427.18	1101.69
427.402	1104.69
427.625	1080.69
427.847	1059.69
428.069	1072.69
428.292	1066.69
428.514	1062.69
428.736	1047.69
428.958	1080.69
429.181	1036.69
429.403	1045.69
429.625	1061.69
429.847	1057.69
430.069	1062.69
430.292	1054.69
430.514	1053.69
430.736	1042.69
430.958	1059.69
431.18	1074.69
431.402	1083.69
431.624	1089.69
431.846	1060.69
432.068	1081.69
432.29	1072.69
432.512	1070.69
432.734	1068.69
432.956	1059.69
433.178	1078.69
433.4	1093.69
433.622	1110.69
433.844	1093.69
434.066	1080.69
434.287	1133.69
434.509	1139.69
434.731	1145.69
434.953	1118.69
435.175	1143.69
435.397	1153.69
435.618	1113.69
435.84	1107.69
436.062	1093.69
436.284	1090.69
436.505	1096.69
436.727	1097.69
436.949	1101.69
437.17	1077.69
437.392	1051.69
437.614	1083.69
437.835	1038.69
438.057	1050.69
438.278	1071.69
438.5	1038.69
438.721	1049.69
438.943	1073.69
439.165	1032.69
439.386	1049.69
439.608	1099.69
439.829	1074.69
440.05	1085.69
440.272	1102.69
440.493	1093.69
440.715	1109.69
440.936	1114.69
441.158	1123.69
441.379	1140.69
441.6	1166.69
441.822	1154.69
442.043	1156.69
442.264	1150.69
442.486	1164.69
442.707	1185.69
442.928	1183.69
443.149	1171.69
443.371	1197.69
443.592	1209.69
443.813	1190.69
444.034	1178.69
444.255	1197.69
444.476	1255.69
444.698	1278.69
444.919	1317.69
445.14	1403.69
445.361	1296.69
445.582	1253.69
445.803	1184.69
446.024	1148.69
446.245	1161.69
446.466	1136.69
446.687	1094.69
446.908	1134.69
447.129	1111.69
447.35	1088.69
447.571	1098.69
447.792	1043.69
448.013	1018.69
448.234	1005.69
448.455	1034.69
448.675	1013.69
448.896	1046.69
449.117	991.69
449.338	1006.69
449.559	1011.69
449.779	1008.69
450	1009.69
450.221	1037.69
450.442	1053.69
450.662	1036.69
450.883	1034.69
451.104	1099.69
451.324	1032.69
451.545	1051.69
451.766	1008.69
451.986	1003.69
452.207	998.69
452.428	1031.69
452.648	1001.69
452.869	987.69
453.089	1012.69
453.31	1010.69
453.53	994.69
453.751	998.69
453.971	999.69
454.192	994.69
454.412	1015.69
454.633	992.69
454.853	980.69
455.073	1006.69
455.294	983.69
455.514	981.69
455.734	1004.69
455.955	996.69
456.175	1009.69
456.395	977.69
456.616	969.69
456.836	995.69
457.056	974.69
457.276	954.69
457.497	1006.69
457.717	1018.69
457.937	984.69
458.157	1005.69
458.377	1028.69
458.598	1034.69
458.818	1061.69
459.038	1030.69
459.258	1059.69
459.478	1148.69
459.698	1179.69
459.918	1177.69
460.138	1169.69
460.358	1208.69
460.578	1219.69
460.798	1261.69
461.018	1273.69
461.238	1248.69
461.458	1226.69
461.678	1225.69
461.898	1266.69
462.118	1277.69
462.338	1302.69
462.558	1319.69
462.777	1387.69
462.997	1418.69
463.217	1483.69
463.437	1476.69
463.657	1476.69
463.876	1422.69
464.096	1439.69
464.316	1378.69
464.536	1405.69
464.755	1360.69
464.975	1322.69
465.195	1292.69
465.414	1248.69
465.634	1186.69
465.854	1165.69
466.073	1148.69
466.293	1127.69
466.512	1129.69
466.732	1052.69
466.951	1121.69
467.171	1092.69
467.391	1082.69
467.61	1082.69
467.829	1080.69
468.049	1081.69
468.268	1074.69
468.488	1083.69
468.707	1061.69
468.927	1063.69
469.146	1082.69
469.365	1096.69
469.585	1053.69
469.804	1100.69
470.023	1104.69
470.243	1101.69
470.462	1103.69
470.681	1084.69
470.901	1121.69
471.12	1126.69
471.339	1092.69
471.558	1068.69
471.777	1093.69
471.997	1069.69
472.216	1060.69
472.435	1070.69
472.654	1043.69
472.873	1042.69
473.092	1046.69
473.311	1057.69
473.53	1032.69
473.749	1036.69
473.968	1053.69
474.187	1033.69
474.406	1073.69
474.625	1057.69
474.844	1068.69
475.063	1068.69
475.282	1074.69
475.501	1090.69
475.72	1077.69
475.939	1081.69
476.158	1085.69
476.377	1096.69
476.596	1094.69
476.814	1136.69
477.033	1120.69
477.252	1131.69
477.471	1169.69
477.69	1179.69
477.908	1212.69
478.127	1223.69
478.346	1248.69
478.564	1242.69
478.783	1261.69
479.002	1323.69
479.22	1294.69
479.439	1282.69
479.658	1270.69
479.876	1265.69
480.095	1275.69
480.313	1333.69
480.532	1336.69
480.751	1316.69
480.969	1307.69
481.188	1264.69
481.406	1274.69
481.624	1221.69
481.843	1218.69
482.061	1203.69
482.28	1218.69
482.498	1230.69
482.717	1212.69
482.935	1244.69
483.153	1232.69
483.372	1257.69
483.59	1255.69
483.808	1237.69
484.027	1259.69
484.245	1256.69
484.463	1260.69
484.681	1284.69
484.9	1270.69
485.118	1264.69
485.336	1249.69
485.554	1284.69
485.772	1259.69
485.99	1291.69
486.209	1303.69
486.427	1309.69
486.645	1289.69
486.863	1307.69
487.081	1284.69
487.299	1288.69
487.517	1272.69
487.735	1305.69
487.953	1321.69
488.171	1317.69
488.389	1287.69
488.607	1261.69
488.825	1254.69
489.043	1256.69
489.261	1260.69
489.479	1273.69
489.696	1297.69
489.914	1317.69
490.132	1306.69
490.35	1302.69
490.568	1329.69
490.786	1284.69
491.003	1304.69
491.221	1363.69
491.439	1346.69
491.657	1322.69
491.874	1325.69
492.092	1361.69
492.31	1335.69
492.527	1355.69
492.745	1358.69
492.963	1302.69
493.18	1350.69
493.398	1333.69
493.615	1325.69
493.833	1344.69
494.05	1341.69
494.268	1380.69
494.485	1402.69
494.703	1389.69
494.92	1386.69
495.138	1362.69
495.355	1362.69
495.573	1405.69
495.79	1416.69
496.008	1364.69
496.225	1430.69
496.442	1430.69
496.66	1440.69
496.877	1415.69
497.094	1472.69
497.312	1500.69
497.529	1490.69
497.746	1542.69
497.963	1613.69
498.181	1629.69
498.398	1654.69
498.615	1765.69
498.832	1828.69
499.049	1919.69
499.267	1997.69
499.484	2132.69
499.701	2255.69
499.918	2403.69
500.135	2625.69
500.352	2754.69
500.569	2810.69
500.786	2867.69
501.003	2710.69
501.22	2531.69
501.437	2376.69
501.654	2206.69
501.871	2140.69
502.088	2003.69
502.305	1918.69
502.522	1845.69
502.739	1757.69
502.956	1692.69
503.172	1652.69
503.389	1615.69
503.606	1568.69
503.823	1567.69
504.04	1544.69
504.256	1516.69
504.473	1521.69
504.69	1533.69
504.907	1472.69
505.123	1446.69
505.34	1383.69
505.557	1341.69
505.773	1319.69
505.99	1306.69
506.207	1308.69
506.423	1271.69
506.64	1241.69
506.856	1239.69
507.073	1241.69
507.289	1220.69
507.506	1220.69
507.722	1200.69
507.939	1184.69
508.155	1186.69
508.372	1229.69
508.588	1200.69
508.805	1186.69
509.021	1157.69
509.238	1121.69
509.454	1146.69
509.67	1147.69
509.887	1126.69
510.103	1119.69
510.319	1130.69
510.536	1115.69
510.752	1123.69
510.968	1087.69
511.184	1108.69
511.401	1086.69
511.617	1084.69
511.833	1105.69
512.049	1105.69
512.265	1093.69
512.481	1059.69
512.698	1118.69
512.914	1118.69
513.13	1084.69
513.346	1076.69
513.562	1074.69
513.778	1106.69
513.994	1112.69
514.21	1113.69
514.426	1117.69
514.642	1110.69
514.858	1110.69
515.074	1126.69
515.29	1115.69
515.506	1118.69
515.721	1137.69
515.937	1160.69
516.153	1161.69
516.369	1206.69
516.585	1180.69
516.801	1238.69
517.016	1274.69
517.232	1282.69
517.448	1306.69
517.664	1320.69
517.879	1323.69
518.095	1330.69
518.311	1307.69
518.527	1265.69
518.742	1236.69
518.958	1252.69
519.173	1200.69
519.389	1186.69
519.605	1168.69
519.82	1148.69
520.036	1128.69
520.251	1118.69
520.467	1142.69
520.682	1114.69
520.898	1062.69
521.113	1098.69
521.329	1055.69
521.544	1052.69
521.76	1033.69
521.975	1038.69
522.19	1056.69
522.406	1060.69
522.621	1018.69
522.836	1013.69
523.052	1022.69
523.267	996.69
523.482	1019.69
523.698	1015.69
523.913	1035.69
524.128	987.69
524.343	979.69
524.559	1014.69
524.774	1000.69
524.989	1014.69
525.204	1000.69
525.419	966.69
525.634	1010.69
525.849	976.69
526.064	974.69
526.28	977.69
526.495	987.69
526.71	994.69
526.925	968.69
527.14	977.69
527.355	937.69
527.57	979.69
527.785	966.69
527.999	950.69
528.214	937.69
528.429	950.69
528.644	981.69
528.859	987.69
529.074	976.69
529.289	998.69
529.503	966.69
529.718	979.69
529.933	956.69
530.148	958.69
530.363	957.69
530.577	964.69
530.792	951.69
531.007	948.69
531.221	972.69
531.436	967.69
531.651	940.69
531.865	927.69
532.08	973.69
532.295	943.69
532.509	957.69
532.724	942.69
532.938	970.69
533.153	928.69
533.367	939.69
533.582	926.69
533.796	942.69
534.011	944.69
534.225	952.69
534.44	956.69
534.654	897.69
534.868	944.69
535.083	933.69
535.297	928.69
535.511	930.69
535.726	888.69
535.94	902.69
536.154	916.69
536.369	866.69
536.583	866.69
536.797	875.69
537.011	883.69
537.225	876.69
537.44	898.69
537.654	885.69
537.868	876.69
538.082	902.69
538.296	888.69
538.51	873.69
538.724	872.69
538.938	865.69
539.153	876.69
539.367	887.69
539.581	864.69
539.795	872.69
540.009	865.69
540.222	863.69
540.436	849.69
540.65	864.69
540.864	859.69
541.078	877.69
541.292	885.69
541.506	874.69
541.72	862.69
541.934	861.69
542.147	892.69
542.361	892.69
542.575	859.69
542.789	843.69
543.002	831.69
543.216	840.69
543.43	826.69
543.644	854.69
543.857	869.69
544.071	861.69
544.285	863.69
544.498	867.69
544.712	850.69
544.925	881.69
545.139	861.69
545.352	871.69
545.566	881.69
545.779	878.69
545.993	868.69
546.206	876.69
546.42	865.69
546.633	878.69
546.847	882.69
547.06	900.69
547.274	884.69
547.487	880.69
547.7	877.69
547.914	864.69
548.127	893.69
548.34	880.69
548.554	850.69
548.767	852.69
548.98	880.69
549.193	866.69
549.407	860.69
549.62	863.69
549.833	868.69
550.046	872.69
550.259	874.69
550.473	864.69
550.686	883.69
550.899	857.69
551.112	835.69
551.325	848.69
551.538	843.69
551.751	837.69
551.964	878.69
552.177	847.69
552.39	876.69
552.603	865.69
552.816	865.69
553.029	868.69
553.242	851.69
553.455	870.69
553.667	926.69
553.88	875.69
554.093	841.69
554.306	839.69
554.519	870.69
554.732	845.69
554.944	822.69
555.157	787.69
555.37	803.69
555.583	807.69
555.795	794.69
556.008	791.69
556.221	773.69
556.433	756.69
556.646	775.69
556.859	766.69
557.071	753.69
557.284	757.69
557.496	757.69
557.709	750.69
557.921	750.69
558.134	745.69
558.346	716.69
558.559	732.69
558.771	734.69
558.984	744.69
559.196	731.69
559.409	706.69
559.621	737.69
559.833	743.69
560.046	739.69
560.258	735.69
560.47	739.69
560.683	717.69
560.895	715.69
561.107	722.69
561.32	704.69
561.532	726.69
561.744	730.69
561.956	716.69
562.168	719.69
562.381	737.69
562.593	723.69
562.805	711.69
563.017	750.69
563.229	724.69
563.441	724.69
563.653	724.69
563.865	735.69
564.077	733.69
564.289	716.69
564.501	756.69
564.713	770.69
564.925	776.69
565.137	790.69
565.349	798.69
565.561	809.69
565.773	800.69
565.985	786.69
566.197	854.69
566.408	885.69
566.62	964.69
566.832	968.69
567.044	949.69
567.255	980.69
567.467	948.69
567.679	1004.69
567.891	1052.69
568.102	1040.69
568.314	1001.69
568.526	940.69
568.737	905.69
568.949	867.69
569.161	848.69
569.372	774.69
569.584	795.69
569.795	770.69
570.007	717.69
570.218	737.69
570.43	711.69
570.641	709.69
570.853	689.69
571.064	683.69
571.276	705.69
571.487	650.69
571.698	677.69
571.91	675.69
572.121	643.69
572.333	629.69
572.544	627.69
572.755	643.69
572.966	598.69
573.178	624.69
573.389	614.69
573.6	605.69
573.811	562.69
574.023	603.69
574.234	577.69
574.445	578.69
574.656	568.69
574.867	595.69
575.078	571.69
575.289	571.69
575.501	577.69
575.712	565.69
575.923	536.69
576.134	552.69
576.345	562.69
576.556	553.69
576.767	549.69
576.978	573.69
577.188	540.69
577.399	550.69
577.61	526.69
577.821	535.69
578.032	539.69
578.243	523.69
578.454	518.69
578.665	528.69
578.875	523.69
579.086	522.69
579.297	512.69
579.508	522.69
579.718	506.69
579.929	500.69
580.14	512.69
580.35	500.69
580.561	533.69
580.772	509.69
580.982	515.69
581.193	515.69
581.403	497.69
581.614	510.69
581.825	516.69
582.035	492.69
582.246	500.69
582.456	489.69
582.667	514.69
582.877	491.69
583.087	482.69
583.298	472.69
583.508	499.69
583.719	472.69
583.929	474.69
584.139	477.69
584.35	463.69
584.56	497.69
584.77	490.69
584.981	470.69
585.191	470.69
585.401	468.69
585.611	469.69
585.821	473.69
586.032	473.69
586.242	475.69
586.452	459.69
586.662	483.69
586.872	485.69
587.082	475.69
587.292	480.69
587.502	458.69
587.713	454.69
587.923	459.69
588.133	470.69
588.343	472.69
588.553	466.69
588.762	447.69
588.972	499.69
589.182	560.69
589.392	523.69
589.602	480.69
589.812	512.69
590.022	508.69
590.232	458.69
590.441	451.69
590.651	465.69
590.861	451.69
591.071	461.69
591.281	482.69
591.49	469.69
591.7	480.69
591.91	502.69
592.119	492.69
592.329	481.69
592.539	521.69
592.748	515.69
592.958	497.69
593.167	489.69
593.377	503.69
593.587	532.69
593.796	541.69
594.006	537.69
594.215	491.69
594.424	500.69
594.634	521.69
594.843	515.69
595.053	487.69
595.262	486.69
595.472	478.69
595.681	474.69
595.89	461.69
596.1	448.69
596.309	431.69
596.518	412.69
596.727	436.69
596.937	452.69
597.146	414.69
597.355	422.69
597.564	421.69
597.774	432.69
597.983	396.69
598.192	413.69
598.401	402.69
598.61	397.69
598.819	408.69
599.028	384.69
599.237	400.69
599.446	404.69
599.655	383.69
599.864	377.69
600.073	387.69
600.282	390.69
600.491	379.69
600.7	397.69
600.909	371.69
601.118	382.69
601.327	383.69
601.536	374.69
601.745	385.69
601.953	396.69
602.162	371.69
602.371	365.69
602.58	368.69
602.789	357.69
602.997	359.69
603.206	358.69
603.415	347.69
603.623	369.69
603.832	375.69
604.041	361.69
604.249	363.69
604.458	363.69
604.666	353.69
604.875	365.69
605.084	337.69
605.292	352.69
605.501	370.69
605.709	361.69
605.918	376.69
606.126	359.69
606.334	357.69
606.543	359.69
606.751	351.69
606.96	348.69
607.168	344.69
607.376	351.69
607.585	359.69
607.793	337.69
608.001	367.69
608.21	338.69
608.418	352.69
608.626	349.69
608.834	355.69
609.043	340.69
609.251	349.69
609.459	322.69
609.667	330.69
609.875	337.69
610.083	354.69
610.291	349.69
610.499	328.69
610.707	340.69
610.916	334.69
611.124	341.69
611.332	354.69
611.54	333.69
611.748	339.69
611.955	358.69
612.163	333.69
612.371	336.69
612.579	330.69
612.787	329.69
612.995	314.69
613.203	339.69
613.411	331.69
613.618	334.69
613.826	321.69
614.034	325.69
614.242	331.69
614.449	323.69
614.657	298.69
614.865	326.69
615.072	325.69
615.28	322.69
615.488	323.69
615.695	331.69
615.903	309.69
616.111	312.69
616.318	332.69
616.526	310.69
616.733	333.69
616.941	326.69
617.148	313.69
617.356	314.69
617.563	322.69
617.771	322.69
617.978	329.69
618.185	314.69
618.393	312.69
618.6	324.69
618.807	323.69
619.015	324.69
619.222	323.69
619.429	311.69
619.637	313.69
619.844	306.69
620.051	290.69
620.258	302.69
620.466	313.69
620.673	288.69
620.88	290.69
621.087	279.69
621.294	303.69
621.501	285.69
621.708	284.69
621.915	279.69
622.122	287.69
622.329	292.69
622.536	297.69
622.743	287.69
622.95	309.69
623.157	286.69
623.364	291.69
623.571	301.69
623.778	309.69
623.985	299.69
624.192	290.69
624.399	270.69
624.606	269.69
624.812	289.69
625.019	290.69
625.226	276.69
625.433	281.69
625.639	273.69
625.846	278.69
626.053	277.69
626.259	291.69
626.466	290.69
626.673	274.69
626.879	263.69
627.086	275.69
627.293	279.69
627.499	265.69
627.706	260.69
627.912	266.69
628.119	265.69
628.325	262.69
628.532	271.69
628.738	265.69
628.945	268.69
629.151	258.69
629.357	271.69
629.564	276.69
629.77	268.69
629.976	262.69
630.183	262.69
630.389	254.69
630.595	262.69
630.802	261.69
631.008	244.69
631.214	248.69
631.42	237.69
631.627	261.69
631.833	249.69
632.039	244.69
632.245	242.69
632.451	252.69
632.657	250.69
632.863	244.69
633.069	239.69
633.275	252.69
633.481	249.69
633.688	250.69
633.893	229.69
634.099	263.69
634.305	261.69
634.511	224.69
634.717	229.69
634.923	257.69
635.129	240.69
635.335	245.69
635.541	235.69
635.747	230.69
635.952	242.69
636.158	227.69
636.364	248.69
636.57	236.69
636.775	228.69
636.981	244.69
637.187	226.69
637.392	242.69
637.598	237.69
637.804	229.69
638.009	233.69
638.215	235.69
638.421	238.69
638.626	212.69
638.832	218.69
639.037	216.69
639.243	228.69
639.448	224.69
639.654	233.69
639.859	227.69
640.065	222.69
640.27	219.69
640.475	229.69
640.681	236.69
640.886	211.69
641.091	222.69
641.297	219.69
641.502	210.69
641.707	215.69
641.913	226.69
642.118	221.69
642.323	218.69
642.528	212.69
642.733	226.69
642.939	227.69
643.144	222.69
643.349	203.69
643.554	213.69
643.759	212.69
643.964	224.69
644.169	210.69
644.374	214.69
644.579	214.69
644.784	214.69
644.989	206.69
645.194	211.69
645.399	214.69
645.604	211.69
645.809	217.69
646.014	207.69
646.219	209.69
646.423	204.69
646.628	198.69
646.833	229.69
647.038	227.69
647.243	211.69
647.447	220.69
647.652	219.69
647.857	206.69
648.062	209.69
648.266	215.69
648.471	220.69
648.676	223.69
648.88	229.69
649.085	201.69
649.289	205.69
649.494	210.69
649.698	211.69
649.903	205.69
650.107	202.69
650.312	212.69
650.516	201.69
650.721	199.69
650.925	200.69
651.13	189.69
651.334	193.69
651.539	184.69
651.743	189.69
651.947	174.69
652.152	194.69
652.356	183.69
652.56	181.69
652.764	181.69
652.969	188.69
653.173	171.69
653.377	161.69
653.581	177.69
653.785	178.69
653.99	177.69
654.194	164.69
654.398	168.69
654.602	165.69
654.806	174.69
655.01	173.69
655.214	150.69
655.418	180.69
655.622	154.69
655.826	164.69
656.03	158.69
656.234	155.69
656.438	153.69
656.642	143.69
656.846	153.69
657.049	162.69
657.253	142.69
657.457	144.69
657.661	150.69
657.865	128.69
658.068	148.69
658.272	141.69
658.476	125.69
658.68	125.69
658.883	116.69
659.087	117.69
659.291	101.69
659.494	117.69
659.698	111.69
659.901	118.69
660.105	103.69
660.309	100.69
660.512	104.69
660.716	99.69
660.919	87.69
661.123	117.69
661.326	106.69
661.53	88.69
661.733	110.69
661.936	100.69
662.14	97.69
662.343	74.69
662.546	99.69
662.75	98.69
662.953	99.69
663.156	74.69
663.36	89.69
663.563	77.69
663.766	76.69
663.969	87.69
664.173	93.69
664.376	84.69
664.579	79.69
664.782	89.69
664.985	82.69
665.188	78.69
665.391	87.69
665.594	87.69
665.797	85.69
666	62.69
666.203	71.69
666.406	86.69
666.609	78.69
666.812	83.69
667.015	83.69
667.218	80.69
667.421	78.69
667.624	69.69
667.827	92.69
668.03	80.69
668.232	70.69
668.435	78.69
668.638	78.69
668.841	81.69
669.043	81.69
669.246	82.69
669.449	86.69
669.651	74.69
669.854	78.69
670.057	69.69
670.259	79.69
670.462	82.69
670.665	90.69
670.867	73.69
671.07	80.69
671.272	74.69
671.475	75.69
671.677	96.69
671.88	88.69
672.082	84.69
672.284	72.69
672.487	90.69
672.689	80.69
672.892	80.69
