Data from NiCl2@0.5M.TitratingCurve.Agarose3%dH2O.NegLispCup.LampEnergy10.LIBS07252019_HRD10591_18-20-50-572.txt Node
Date: Thu Jul 25 18:20:50 EDT 2019
User: cochatt
Spectrometer: HR+D1059
Trigger mode: 1
Integration Time (sec): 1.000000E-1
Scans to average: 1
Electric dark correction enabled: true
Nonlinearity correction enabled: false
Boxcar width: 0
XAxis mode: Wavelengths
Number of Pixels in Spectrum: 2048
>>>>>Begin Spectral Data<<<<<
223.165	-23.62
223.4	-23.62
223.635	-23.62
223.869	-10.62
224.104	-15.62
224.338	-7.62
224.573	-16.62
224.808	-25.62
225.042	-10.62
225.277	-6.62
225.511	3.38
225.746	8.38
225.98	11.38
226.215	8.38
226.449	26.38
226.683	18.38
226.918	18.38
227.152	22.38
227.387	19.38
227.621	33.38
227.856	55.38
228.09	48.38
228.324	53.38
228.559	42.38
228.793	69.38
229.027	107.38
229.262	119.38
229.496	109.38
229.73	115.38
229.964	124.38
230.199	152.38
230.433	172.38
230.667	170.38
230.901	152.38
231.136	130.38
231.37	143.38
231.604	149.38
231.838	168.38
232.072	176.38
232.306	164.38
232.541	161.38
232.775	161.38
233.009	156.38
233.243	155.38
233.477	137.38
233.711	151.38
233.945	163.38
234.179	159.38
234.413	168.38
234.647	152.38
234.881	165.38
235.115	166.38
235.349	159.38
235.583	170.38
235.817	165.38
236.051	160.38
236.285	168.38
236.519	174.38
236.753	184.38
236.987	194.38
237.221	153.38
237.455	175.38
237.689	177.38
237.922	176.38
238.156	170.38
238.39	180.38
238.624	168.38
238.858	188.38
239.091	176.38
239.325	190.38
239.559	199.38
239.793	186.38
240.027	196.38
240.26	199.38
240.494	200.38
240.728	184.38
240.961	192.38
241.195	193.38
241.429	190.38
241.662	201.38
241.896	215.38
242.13	223.38
242.363	197.38
242.597	213.38
242.83	213.38
243.064	209.38
243.298	214.38
243.531	222.38
243.765	231.38
243.998	226.38
244.232	231.38
244.465	222.38
244.699	214.38
244.932	232.38
245.166	217.38
245.399	222.38
245.633	226.38
245.866	225.38
246.099	236.38
246.333	226.38
246.566	231.38
246.8	227.38
247.033	235.38
247.266	226.38
247.5	232.38
247.733	230.38
247.966	258.38
248.2	267.38
248.433	244.38
248.666	259.38
248.899	268.38
249.133	272.38
249.366	250.38
249.599	250.38
249.832	225.38
250.066	269.38
250.299	265.38
250.532	277.38
250.765	267.38
250.998	273.38
251.231	286.38
251.465	287.38
251.698	291.38
251.931	278.38
252.164	282.38
252.397	285.38
252.63	281.38
252.863	300.38
253.096	294.38
253.329	308.38
253.562	282.38
253.795	310.38
254.028	298.38
254.261	293.38
254.494	289.38
254.727	298.38
254.96	291.38
255.193	306.38
255.426	304.38
255.659	302.38
255.892	307.38
256.124	291.38
256.357	297.38
256.59	308.38
256.823	313.38
257.056	303.38
257.289	315.38
257.521	305.38
257.754	347.38
257.987	316.38
258.22	331.38
258.452	327.38
258.685	319.38
258.918	335.38
259.151	331.38
259.383	328.38
259.616	325.38
259.849	338.38
260.081	351.38
260.314	331.38
260.547	329.38
260.779	341.38
261.012	344.38
261.244	354.38
261.477	337.38
261.71	360.38
261.942	338.38
262.175	362.38
262.407	374.38
262.64	338.38
262.872	362.38
263.105	359.38
263.337	365.38
263.57	359.38
263.802	382.38
264.035	366.38
264.267	375.38
264.499	362.38
264.732	344.38
264.964	374.38
265.197	382.38
265.429	377.38
265.661	397.38
265.894	392.38
266.126	388.38
266.358	394.38
266.591	401.38
266.823	392.38
267.055	395.38
267.287	376.38
267.52	389.38
267.752	382.38
267.984	396.38
268.216	400.38
268.448	392.38
268.681	416.38
268.913	414.38
269.145	392.38
269.377	412.38
269.609	398.38
269.841	407.38
270.073	419.38
270.306	418.38
270.538	392.38
270.77	418.38
271.002	436.38
271.234	423.38
271.466	427.38
271.698	415.38
271.93	419.38
272.162	434.38
272.394	446.38
272.626	442.38
272.858	438.38
273.09	399.38
273.322	448.38
273.553	429.38
273.785	434.38
274.017	426.38
274.249	445.38
274.481	446.38
274.713	460.38
274.945	457.38
275.176	450.38
275.408	455.38
275.64	478.38
275.872	425.38
276.104	458.38
276.335	470.38
276.567	461.38
276.799	454.38
277.031	466.38
277.262	467.38
277.494	454.38
277.726	482.38
277.957	490.38
278.189	495.38
278.421	473.38
278.652	475.38
278.884	504.38
279.115	505.38
279.347	482.38
279.579	480.38
279.81	499.38
280.042	503.38
280.273	481.38
280.505	497.38
280.736	518.38
280.968	504.38
281.199	497.38
281.431	497.38
281.662	524.38
281.894	518.38
282.125	517.38
282.356	534.38
282.588	516.38
282.819	517.38
283.051	523.38
283.282	536.38
283.513	511.38
283.745	542.38
283.976	530.38
284.207	518.38
284.439	528.38
284.67	530.38
284.901	527.38
285.132	507.38
285.364	550.38
285.595	566.38
285.826	536.38
286.057	554.38
286.288	551.38
286.52	543.38
286.751	568.38
286.982	548.38
287.213	571.38
287.444	580.38
287.675	542.38
287.906	559.38
288.138	534.38
288.369	575.38
288.6	575.38
288.831	546.38
289.062	562.38
289.293	577.38
289.524	567.38
289.755	546.38
289.986	582.38
290.217	592.38
290.448	598.38
290.679	583.38
290.91	554.38
291.141	562.38
291.371	592.38
291.602	606.38
291.833	558.38
292.064	586.38
292.295	578.38
292.526	593.38
292.757	578.38
292.987	559.38
293.218	581.38
293.449	584.38
293.68	588.38
293.91	577.38
294.141	586.38
294.372	590.38
294.603	595.38
294.833	602.38
295.064	582.38
295.295	594.38
295.525	590.38
295.756	590.38
295.987	583.38
296.217	620.38
296.448	585.38
296.679	617.38
296.909	632.38
297.14	609.38
297.37	634.38
297.601	628.38
297.831	631.38
298.062	632.38
298.292	633.38
298.523	662.38
298.753	664.38
298.984	618.38
299.214	660.38
299.445	648.38
299.675	638.38
299.905	664.38
300.136	658.38
300.366	674.38
300.597	690.38
300.827	672.38
301.057	684.38
301.288	657.38
301.518	674.38
301.748	686.38
301.979	686.38
302.209	680.38
302.439	683.38
302.669	685.38
302.9	675.38
303.13	652.38
303.36	681.38
303.59	675.38
303.82	674.38
304.051	669.38
304.281	698.38
304.511	666.38
304.741	691.38
304.971	691.38
305.201	711.38
305.431	699.38
305.661	739.38
305.891	689.38
306.121	700.38
306.352	696.38
306.582	659.38
306.812	686.38
307.042	687.38
307.272	651.38
307.502	638.38
307.731	678.38
307.961	666.38
308.191	681.38
308.421	687.38
308.651	672.38
308.881	675.38
309.111	671.38
309.341	698.38
309.571	688.38
309.8	670.38
310.03	695.38
310.26	715.38
310.49	709.38
310.72	722.38
310.949	672.38
311.179	659.38
311.409	699.38
311.639	689.38
311.868	699.38
312.098	688.38
312.328	697.38
312.557	719.38
312.787	717.38
313.017	671.38
313.246	718.38
313.476	758.38
313.706	737.38
313.935	715.38
314.165	730.38
314.394	725.38
314.624	721.38
314.853	735.38
315.083	738.38
315.312	705.38
315.542	742.38
315.771	717.38
316.001	711.38
316.23	733.38
316.46	722.38
316.689	722.38
316.919	756.38
317.148	724.38
317.377	730.38
317.607	744.38
317.836	706.38
318.065	740.38
318.295	721.38
318.524	719.38
318.753	717.38
318.983	724.38
319.212	715.38
319.441	753.38
319.67	695.38
319.9	764.38
320.129	735.38
320.358	748.38
320.587	752.38
320.816	731.38
321.046	734.38
321.275	745.38
321.504	737.38
321.733	780.38
321.962	752.38
322.191	758.38
322.42	741.38
322.649	733.38
322.878	727.38
323.108	754.38
323.337	755.38
323.566	756.38
323.795	744.38
324.024	738.38
324.253	759.38
324.482	780.38
324.71	758.38
324.939	762.38
325.168	772.38
325.397	747.38
325.626	763.38
325.855	779.38
326.084	785.38
326.313	798.38
326.542	783.38
326.77	793.38
326.999	790.38
327.228	791.38
327.457	785.38
327.686	774.38
327.914	789.38
328.143	812.38
328.372	779.38
328.6	822.38
328.829	801.38
329.058	790.38
329.287	791.38
329.515	802.38
329.744	797.38
329.972	796.38
330.201	790.38
330.43	813.38
330.658	831.38
330.887	814.38
331.115	826.38
331.344	836.38
331.572	809.38
331.801	855.38
332.03	888.38
332.258	866.38
332.486	870.38
332.715	862.38
332.943	858.38
333.172	892.38
333.4	908.38
333.629	939.38
333.857	931.38
334.085	944.38
334.314	937.38
334.542	944.38
334.771	940.38
334.999	915.38
335.227	927.38
335.455	964.38
335.684	974.38
335.912	946.38
336.14	935.38
336.369	927.38
336.597	978.38
336.825	970.38
337.053	969.38
337.281	959.38
337.51	942.38
337.738	915.38
337.966	919.38
338.194	915.38
338.422	892.38
338.65	912.38
338.878	863.38
339.106	895.38
339.334	882.38
339.562	894.38
339.79	865.38
340.018	873.38
340.246	855.38
340.474	844.38
340.702	860.38
340.93	847.38
341.158	871.38
341.386	858.38
341.614	939.38
341.842	896.38
342.07	846.38
342.298	824.38
342.526	864.38
342.754	858.38
342.981	841.38
343.209	854.38
343.437	874.38
343.665	925.38
343.893	899.38
344.12	936.38
344.348	917.38
344.576	943.38
344.804	949.38
345.031	910.38
345.259	873.38
345.487	870.38
345.714	847.38
345.942	887.38
346.17	898.38
346.397	867.38
346.625	857.38
346.853	834.38
347.08	812.38
347.308	841.38
347.535	808.38
347.763	811.38
347.99	782.38
348.218	796.38
348.445	822.38
348.673	780.38
348.9	823.38
349.128	792.38
349.355	827.38
349.583	843.38
349.81	795.38
350.037	753.38
350.265	789.38
350.492	787.38
350.72	779.38
350.947	780.38
351.174	812.38
351.402	849.38
351.629	831.38
351.856	832.38
352.083	760.38
352.311	789.38
352.538	848.38
352.765	878.38
352.992	816.38
353.22	744.38
353.447	776.38
353.674	780.38
353.901	756.38
354.128	774.38
354.355	743.38
354.583	747.38
354.81	772.38
355.037	770.38
355.264	762.38
355.491	783.38
355.718	766.38
355.945	781.38
356.172	768.38
356.399	775.38
356.626	775.38
356.853	840.38
357.08	777.38
357.307	762.38
357.534	760.38
357.761	763.38
357.988	745.38
358.215	770.38
358.441	777.38
358.668	761.38
358.895	736.38
359.122	757.38
359.349	753.38
359.576	725.38
359.802	770.38
360.029	766.38
360.256	766.38
360.483	752.38
360.709	748.38
360.936	771.38
361.163	767.38
361.39	788.38
361.616	774.38
361.843	798.38
362.07	838.38
362.296	814.38
362.523	788.38
362.749	764.38
362.976	741.38
363.203	740.38
363.429	732.38
363.656	770.38
363.882	741.38
364.109	737.38
364.335	734.38
364.562	745.38
364.788	736.38
365.015	723.38
365.241	740.38
365.468	747.38
365.694	735.38
365.92	736.38
366.147	727.38
366.373	730.38
366.599	739.38
366.826	729.38
367.052	721.38
367.278	734.38
367.505	723.38
367.731	759.38
367.957	724.38
368.184	730.38
368.41	750.38
368.636	761.38
368.862	742.38
369.089	734.38
369.315	757.38
369.541	760.38
369.767	756.38
369.993	760.38
370.219	747.38
370.445	794.38
370.672	784.38
370.898	749.38
371.124	771.38
371.35	795.38
371.576	796.38
371.802	798.38
372.028	779.38
372.254	796.38
372.48	812.38
372.706	830.38
372.932	796.38
373.158	801.38
373.384	806.38
373.61	783.38
373.835	798.38
374.061	790.38
374.287	805.38
374.513	817.38
374.739	825.38
374.965	842.38
375.191	824.38
375.416	819.38
375.642	799.38
375.868	784.38
376.094	803.38
376.319	787.38
376.545	791.38
376.771	770.38
376.997	784.38
377.222	774.38
377.448	764.38
377.674	794.38
377.899	788.38
378.125	763.38
378.35	783.38
378.576	747.38
378.802	746.38
379.027	788.38
379.253	742.38
379.478	763.38
379.704	739.38
379.929	750.38
380.155	762.38
380.38	748.38
380.606	755.38
380.831	759.38
381.057	757.38
381.282	770.38
381.507	759.38
381.733	766.38
381.958	771.38
382.184	739.38
382.409	774.38
382.634	780.38
382.86	775.38
383.085	796.38
383.31	817.38
383.535	807.38
383.761	807.38
383.986	822.38
384.211	814.38
384.436	829.38
384.662	830.38
384.887	836.38
385.112	850.38
385.337	866.38
385.562	850.38
385.787	864.38
386.013	886.38
386.238	870.38
386.463	864.38
386.688	896.38
386.913	851.38
387.138	875.38
387.363	865.38
387.588	874.38
387.813	881.38
388.038	842.38
388.263	846.38
388.488	898.38
388.713	896.38
388.938	880.38
389.163	863.38
389.387	888.38
389.612	859.38
389.837	873.38
390.062	865.38
390.287	865.38
390.512	863.38
390.736	893.38
390.961	906.38
391.186	914.38
391.411	919.38
391.636	921.38
391.86	953.38
392.085	934.38
392.31	932.38
392.534	974.38
392.759	932.38
392.984	959.38
393.208	917.38
393.433	915.38
393.658	912.38
393.882	919.38
394.107	929.38
394.331	948.38
394.556	946.38
394.78	945.38
395.005	932.38
395.229	948.38
395.454	961.38
395.678	948.38
395.903	952.38
396.127	973.38
396.352	963.38
396.576	942.38
396.801	965.38
397.025	972.38
397.249	976.38
397.474	1006.38
397.698	981.38
397.922	997.38
398.147	963.38
398.371	993.38
398.595	1001.38
398.82	1048.38
399.044	1082.38
399.268	1180.38
399.492	1262.38
399.717	1305.38
399.941	1327.38
400.165	1295.38
400.389	1234.38
400.613	1170.38
400.837	1165.38
401.062	1128.38
401.286	1103.38
401.51	1067.38
401.734	1090.38
401.958	1095.38
402.182	1094.38
402.406	1077.38
402.63	1062.38
402.854	1110.38
403.078	1080.38
403.302	1099.38
403.526	1101.38
403.75	1106.38
403.974	1123.38
404.198	1132.38
404.422	1147.38
404.645	1136.38
404.869	1132.38
405.093	1127.38
405.317	1112.38
405.541	1118.38
405.765	1147.38
405.988	1170.38
406.212	1172.38
406.436	1146.38
406.66	1186.38
406.883	1209.38
407.107	1241.38
407.331	1243.38
407.555	1312.38
407.778	1306.38
408.002	1300.38
408.226	1268.38
408.449	1291.38
408.673	1216.38
408.896	1221.38
409.12	1178.38
409.344	1232.38
409.567	1194.38
409.791	1204.38
410.014	1226.38
410.238	1195.38
410.461	1186.38
410.685	1172.38
410.908	1175.38
411.132	1130.38
411.355	1145.38
411.578	1170.38
411.802	1129.38
412.025	1152.38
412.249	1138.38
412.472	1163.38
412.695	1124.38
412.919	1134.38
413.142	1102.38
413.365	1094.38
413.589	1127.38
413.812	1128.38
414.035	1121.38
414.258	1096.38
414.482	1111.38
414.705	1122.38
414.928	1100.38
415.151	1109.38
415.374	1114.38
415.597	1110.38
415.821	1082.38
416.044	1089.38
416.267	1095.38
416.49	1094.38
416.713	1094.38
416.936	1080.38
417.159	1100.38
417.382	1078.38
417.605	1063.38
417.828	1067.38
418.051	1106.38
418.274	1096.38
418.497	1076.38
418.72	1111.38
418.943	1106.38
419.166	1170.38
419.389	1232.38
419.611	1210.38
419.834	1160.38
420.057	1110.38
420.28	1124.38
420.503	1094.38
420.726	1093.38
420.948	1080.38
421.171	1070.38
421.394	1098.38
421.617	1095.38
421.839	1077.38
422.062	1066.38
422.285	1086.38
422.507	1113.38
422.73	1073.38
422.953	1097.38
423.175	1086.38
423.398	1082.38
423.621	1089.38
423.843	1115.38
424.066	1102.38
424.288	1135.38
424.511	1108.38
424.733	1088.38
424.956	1097.38
425.178	1092.38
425.401	1108.38
425.623	1106.38
425.846	1072.38
426.068	1066.38
426.291	1062.38
426.513	1046.38
426.735	1066.38
426.958	1078.38
427.18	1046.38
427.402	1051.38
427.625	1048.38
427.847	1068.38
428.069	1056.38
428.292	1054.38
428.514	1070.38
428.736	1052.38
428.958	1055.38
429.181	1049.38
429.403	1032.38
429.625	1028.38
429.847	1007.38
430.069	1032.38
430.292	1041.38
430.514	1010.38
430.736	1061.38
430.958	1066.38
431.18	1046.38
431.402	998.38
431.624	1022.38
431.846	1035.38
432.068	1051.38
432.29	1078.38
432.512	1078.38
432.734	1051.38
432.956	1044.38
433.178	1042.38
433.4	1078.38
433.622	1055.38
433.844	1077.38
434.066	1080.38
434.287	1109.38
434.509	1094.38
434.731	1102.38
434.953	1088.38
435.175	1112.38
435.397	1142.38
435.618	1113.38
435.84	1084.38
436.062	1065.38
436.284	1057.38
436.505	1071.38
436.727	1055.38
436.949	1059.38
437.17	1066.38
437.392	1050.38
437.614	1057.38
437.835	1026.38
438.057	1041.38
438.278	1023.38
438.5	997.38
438.721	1033.38
438.943	1014.38
439.165	1014.38
439.386	1032.38
439.608	1053.38
439.829	1036.38
440.05	1056.38
440.272	1052.38
440.493	1087.38
440.715	1064.38
440.936	1064.38
441.158	1081.38
441.379	1104.38
441.6	1108.38
441.822	1120.38
442.043	1124.38
442.264	1128.38
442.486	1125.38
442.707	1129.38
442.928	1121.38
443.149	1154.38
443.371	1142.38
443.592	1162.38
443.813	1174.38
444.034	1158.38
444.255	1168.38
444.476	1205.38
444.698	1196.38
444.919	1252.38
445.14	1315.38
445.361	1268.38
445.582	1214.38
445.803	1149.38
446.024	1138.38
446.245	1138.38
446.466	1140.38
446.687	1074.38
446.908	1072.38
447.129	1098.38
447.35	1067.38
447.571	1079.38
447.792	1017.38
448.013	1007.38
448.234	1014.38
448.455	1020.38
448.675	999.38
448.896	1021.38
449.117	956.38
449.338	1001.38
449.559	1010.38
449.779	986.38
450	961.38
450.221	992.38
450.442	993.38
450.662	980.38
450.883	987.38
451.104	985.38
451.324	1010.38
451.545	1013.38
451.766	989.38
451.986	966.38
452.207	994.38
452.428	997.38
452.648	996.38
452.869	970.38
453.089	946.38
453.31	978.38
453.53	980.38
453.751	965.38
453.971	965.38
454.192	990.38
454.412	979.38
454.633	970.38
454.853	932.38
455.073	946.38
455.294	976.38
455.514	938.38
455.734	984.38
455.955	989.38
456.175	971.38
456.395	948.38
456.616	948.38
456.836	916.38
457.056	961.38
457.276	921.38
457.497	959.38
457.717	992.38
457.937	965.38
458.157	950.38
458.377	994.38
458.598	994.38
458.818	1011.38
459.038	1050.38
459.258	1065.38
459.478	1083.38
459.698	1144.38
459.918	1162.38
460.138	1181.38
460.358	1195.38
460.578	1184.38
460.798	1231.38
461.018	1238.38
461.238	1218.38
461.458	1234.38
461.678	1237.38
461.898	1262.38
462.118	1273.38
462.338	1337.38
462.558	1304.38
462.777	1367.38
462.997	1426.38
463.217	1446.38
463.437	1460.38
463.657	1444.38
463.876	1354.38
464.096	1398.38
464.316	1360.38
464.536	1345.38
464.755	1312.38
464.975	1310.38
465.195	1245.38
465.414	1235.38
465.634	1197.38
465.854	1170.38
466.073	1136.38
466.293	1100.38
466.512	1085.38
466.732	1046.38
466.951	1100.38
467.171	1063.38
467.391	1061.38
467.61	1041.38
467.829	1060.38
468.049	1063.38
468.268	1041.38
468.488	1012.38
468.707	1027.38
468.927	1022.38
469.146	1060.38
469.365	1072.38
469.585	1027.38
469.804	1058.38
470.023	1065.38
470.243	1049.38
470.462	1096.38
470.681	1097.38
470.901	1073.38
471.12	1066.38
471.339	1067.38
471.558	1065.38
471.777	1072.38
471.997	1035.38
472.216	1028.38
472.435	1030.38
472.654	1021.38
472.873	996.38
473.092	1049.38
473.311	1046.38
473.53	1035.38
473.749	1026.38
473.968	1006.38
474.187	1026.38
474.406	1028.38
474.625	1042.38
474.844	1044.38
475.063	1082.38
475.282	1053.38
475.501	1040.38
475.72	1050.38
475.939	1099.38
476.158	1081.38
476.377	1064.38
476.596	1089.38
476.814	1096.38
477.033	1091.38
477.252	1121.38
477.471	1121.38
477.69	1124.38
477.908	1150.38
478.127	1200.38
478.346	1186.38
478.564	1209.38
478.783	1225.38
479.002	1250.38
479.22	1259.38
479.439	1252.38
479.658	1223.38
479.876	1286.38
480.095	1226.38
480.313	1249.38
480.532	1287.38
480.751	1287.38
480.969	1223.38
481.188	1251.38
481.406	1198.38
481.624	1236.38
481.843	1187.38
482.061	1211.38
482.28	1154.38
482.498	1186.38
482.717	1194.38
482.935	1190.38
483.153	1194.38
483.372	1225.38
483.59	1264.38
483.808	1230.38
484.027	1224.38
484.245	1255.38
484.463	1209.38
484.681	1245.38
484.9	1227.38
485.118	1239.38
485.336	1216.38
485.554	1225.38
485.772	1240.38
485.99	1239.38
486.209	1268.38
486.427	1233.38
486.645	1224.38
486.863	1242.38
487.081	1251.38
487.299	1272.38
487.517	1234.38
487.735	1298.38
487.953	1257.38
488.171	1246.38
488.389	1282.38
488.607	1260.38
488.825	1214.38
489.043	1241.38
489.261	1234.38
489.479	1229.38
489.696	1236.38
489.914	1250.38
490.132	1279.38
490.35	1273.38
490.568	1265.38
490.786	1266.38
491.003	1266.38
491.221	1266.38
491.439	1262.38
491.657	1293.38
491.874	1318.38
492.092	1304.38
492.31	1314.38
492.527	1321.38
492.745	1310.38
492.963	1314.38
493.18	1312.38
493.398	1298.38
493.615	1264.38
493.833	1311.38
494.05	1306.38
494.268	1316.38
494.485	1338.38
494.703	1331.38
494.92	1344.38
495.138	1346.38
495.355	1373.38
495.573	1370.38
495.79	1369.38
496.008	1342.38
496.225	1367.38
496.442	1393.38
496.66	1412.38
496.877	1421.38
497.094	1446.38
497.312	1462.38
497.529	1496.38
497.746	1540.38
497.963	1558.38
498.181	1627.38
498.398	1640.38
498.615	1767.38
498.832	1865.38
499.049	1908.38
499.267	1988.38
499.484	2143.38
499.701	2248.38
499.918	2386.38
500.135	2516.38
500.352	2712.38
500.569	2752.38
500.786	2738.38
501.003	2670.38
501.22	2547.38
501.437	2401.38
501.654	2234.38
501.871	2139.38
502.088	2037.38
502.305	1950.38
502.522	1893.38
502.739	1792.38
502.956	1668.38
503.172	1648.38
503.389	1593.38
503.606	1582.38
503.823	1550.38
504.04	1540.38
504.256	1529.38
504.473	1505.38
504.69	1473.38
504.907	1452.38
505.123	1413.38
505.34	1378.38
505.557	1328.38
505.773	1299.38
505.99	1291.38
506.207	1253.38
506.423	1256.38
506.64	1241.38
506.856	1219.38
507.073	1211.38
507.289	1206.38
507.506	1193.38
507.722	1149.38
507.939	1161.38
508.155	1150.38
508.372	1153.38
508.588	1144.38
508.805	1150.38
509.021	1123.38
509.238	1132.38
509.454	1096.38
509.67	1108.38
509.887	1123.38
510.103	1098.38
510.319	1107.38
510.536	1062.38
510.752	1084.38
510.968	1070.38
511.184	1050.38
511.401	1056.38
511.617	1079.38
511.833	1072.38
512.049	1096.38
512.265	1066.38
512.481	1066.38
512.698	1055.38
512.914	1083.38
513.13	1070.38
513.346	1074.38
513.562	1080.38
513.778	1058.38
513.994	1078.38
514.21	1122.38
514.426	1079.38
514.642	1080.38
514.858	1106.38
515.074	1105.38
515.29	1097.38
515.506	1114.38
515.721	1103.38
515.937	1122.38
516.153	1138.38
516.369	1142.38
516.585	1162.38
516.801	1193.38
517.016	1223.38
517.232	1239.38
517.448	1262.38
517.664	1280.38
517.879	1266.38
518.095	1269.38
518.311	1271.38
518.527	1260.38
518.742	1231.38
518.958	1226.38
519.173	1168.38
519.389	1172.38
519.605	1154.38
519.82	1127.38
520.036	1120.38
520.251	1098.38
520.467	1101.38
520.682	1064.38
520.898	1045.38
521.113	1042.38
521.329	1038.38
521.544	1040.38
521.76	1015.38
521.975	1018.38
522.19	1023.38
522.406	984.38
522.621	997.38
522.836	978.38
523.052	981.38
523.267	997.38
523.482	981.38
523.698	947.38
523.913	980.38
524.128	966.38
524.343	998.38
524.559	987.38
524.774	951.38
524.989	987.38
525.204	981.38
525.419	926.38
525.634	943.38
525.849	933.38
526.064	941.38
526.28	937.38
526.495	939.38
526.71	936.38
526.925	949.38
527.14	914.38
527.355	936.38
527.57	931.38
527.785	955.38
527.999	954.38
528.214	936.38
528.429	954.38
528.644	942.38
528.859	944.38
529.074	953.38
529.289	931.38
529.503	922.38
529.718	959.38
529.933	924.38
530.148	927.38
530.363	916.38
530.577	914.38
530.792	914.38
531.007	918.38
531.221	904.38
531.436	916.38
531.651	912.38
531.865	927.38
532.08	904.38
532.295	916.38
532.509	892.38
532.724	929.38
532.938	932.38
533.153	920.38
533.367	912.38
533.582	908.38
533.796	920.38
534.011	884.38
534.225	885.38
534.44	872.38
534.654	882.38
534.868	922.38
535.083	903.38
535.297	899.38
535.511	873.38
535.726	888.38
535.94	860.38
536.154	881.38
536.369	878.38
536.583	868.38
536.797	871.38
537.011	890.38
537.225	850.38
537.44	857.38
537.654	872.38
537.868	857.38
538.082	835.38
538.296	849.38
538.51	835.38
538.724	858.38
538.938	861.38
539.153	820.38
539.367	841.38
539.581	833.38
539.795	851.38
540.009	859.38
540.222	854.38
540.436	862.38
540.65	804.38
540.864	864.38
541.078	841.38
541.292	852.38
541.506	861.38
541.72	859.38
541.934	859.38
542.147	847.38
542.361	827.38
542.575	855.38
542.789	818.38
543.002	817.38
543.216	832.38
543.43	802.38
543.644	794.38
543.857	829.38
544.071	825.38
544.285	852.38
544.498	863.38
544.712	858.38
544.925	825.38
545.139	821.38
545.352	841.38
545.566	860.38
545.779	848.38
545.993	831.38
546.206	873.38
546.42	822.38
546.633	854.38
546.847	804.38
547.06	849.38
547.274	811.38
547.487	835.38
547.7	825.38
547.914	872.38
548.127	879.38
548.34	829.38
548.554	834.38
548.767	830.38
548.98	849.38
549.193	849.38
549.407	850.38
549.62	827.38
549.833	828.38
550.046	848.38
550.259	855.38
550.473	826.38
550.686	821.38
550.899	822.38
551.112	816.38
551.325	805.38
551.538	823.38
551.751	850.38
551.964	829.38
552.177	811.38
552.39	833.38
552.603	860.38
552.816	859.38
553.029	888.38
553.242	848.38
553.455	897.38
553.667	855.38
553.88	854.38
554.093	834.38
554.306	821.38
554.519	841.38
554.732	830.38
554.944	779.38
555.157	790.38
555.37	778.38
555.583	772.38
555.795	780.38
556.008	773.38
556.221	736.38
556.433	743.38
556.646	736.38
556.859	735.38
557.071	721.38
557.284	736.38
557.496	737.38
557.709	721.38
557.921	725.38
558.134	740.38
558.346	725.38
558.559	698.38
558.771	709.38
558.984	726.38
559.196	720.38
559.409	703.38
559.621	702.38
559.833	699.38
560.046	690.38
560.258	723.38
560.47	688.38
560.683	726.38
560.895	686.38
561.107	685.38
561.32	694.38
561.532	711.38
561.744	693.38
561.956	698.38
562.168	704.38
562.381	692.38
562.593	710.38
562.805	720.38
563.017	726.38
563.229	740.38
563.441	704.38
563.653	730.38
563.865	708.38
564.077	763.38
564.289	729.38
564.501	734.38
564.713	755.38
564.925	760.38
565.137	787.38
565.349	784.38
565.561	788.38
565.773	819.38
565.985	836.38
566.197	859.38
566.408	888.38
566.62	916.38
566.832	939.38
567.044	976.38
567.255	949.38
567.467	933.38
567.679	978.38
567.891	978.38
568.102	1004.38
568.314	974.38
568.526	924.38
568.737	889.38
568.949	851.38
569.161	806.38
569.372	784.38
569.584	767.38
569.795	753.38
570.007	722.38
570.218	720.38
570.43	712.38
570.641	675.38
570.853	683.38
571.064	708.38
571.276	662.38
571.487	674.38
571.698	659.38
571.91	652.38
572.121	644.38
572.333	619.38
572.544	617.38
572.755	599.38
572.966	591.38
573.178	612.38
573.389	589.38
573.6	587.38
573.811	575.38
574.023	591.38
574.234	579.38
574.445	567.38
574.656	561.38
574.867	562.38
575.078	567.38
575.289	575.38
575.501	563.38
575.712	561.38
575.923	561.38
576.134	536.38
576.345	535.38
576.556	529.38
576.767	535.38
576.978	539.38
577.188	541.38
577.399	542.38
577.61	537.38
577.821	515.38
578.032	530.38
578.243	530.38
578.454	524.38
578.665	516.38
578.875	520.38
579.086	505.38
579.297	500.38
579.508	515.38
579.718	504.38
579.929	486.38
580.14	505.38
580.35	492.38
580.561	491.38
580.772	468.38
580.982	481.38
581.193	504.38
581.403	487.38
581.614	482.38
581.825	490.38
582.035	478.38
582.246	485.38
582.456	458.38
582.667	471.38
582.877	480.38
583.087	471.38
583.298	464.38
583.508	468.38
583.719	473.38
583.929	456.38
584.139	474.38
584.35	460.38
584.56	458.38
584.77	452.38
584.981	460.38
585.191	471.38
585.401	448.38
585.611	439.38
585.821	447.38
586.032	444.38
586.242	456.38
586.452	477.38
586.662	457.38
586.872	465.38
587.082	456.38
587.292	463.38
587.502	450.38
587.713	436.38
587.923	432.38
588.133	442.38
588.343	435.38
588.553	448.38
588.762	446.38
588.972	456.38
589.182	518.38
589.392	515.38
589.602	476.38
589.812	511.38
590.022	474.38
590.232	455.38
590.441	448.38
590.651	471.38
590.861	455.38
591.071	453.38
591.281	482.38
591.49	456.38
591.7	454.38
591.91	476.38
592.119	481.38
592.329	506.38
592.539	485.38
592.748	484.38
592.958	486.38
593.167	485.38
593.377	491.38
593.587	512.38
593.796	508.38
594.006	514.38
594.215	493.38
594.424	487.38
594.634	470.38
594.843	482.38
595.053	471.38
595.262	486.38
595.472	470.38
595.681	443.38
595.89	456.38
596.1	431.38
596.309	435.38
596.518	426.38
596.727	430.38
596.937	423.38
597.146	426.38
597.355	424.38
597.564	402.38
597.774	404.38
597.983	392.38
598.192	393.38
598.401	382.38
598.61	384.38
598.819	393.38
599.028	382.38
599.237	384.38
599.446	370.38
599.655	385.38
599.864	371.38
600.073	375.38
600.282	390.38
600.491	369.38
600.7	365.38
600.909	397.38
601.118	381.38
601.327	363.38
601.536	358.38
601.745	360.38
601.953	385.38
602.162	361.38
602.371	375.38
602.58	361.38
602.789	382.38
602.997	359.38
603.206	386.38
603.415	359.38
603.623	363.38
603.832	361.38
604.041	370.38
604.249	368.38
604.458	355.38
604.666	358.38
604.875	363.38
605.084	348.38
605.292	356.38
605.501	345.38
605.709	335.38
605.918	332.38
606.126	334.38
606.334	333.38
606.543	340.38
606.751	347.38
606.96	341.38
607.168	338.38
607.376	343.38
607.585	333.38
607.793	331.38
608.001	348.38
608.21	329.38
608.418	335.38
608.626	328.38
608.834	338.38
609.043	339.38
609.251	340.38
609.459	331.38
609.667	316.38
609.875	320.38
610.083	315.38
610.291	310.38
610.499	339.38
610.707	342.38
610.916	312.38
611.124	320.38
611.332	317.38
611.54	325.38
611.748	324.38
611.955	340.38
612.163	327.38
612.371	314.38
612.579	319.38
612.787	319.38
612.995	324.38
613.203	344.38
613.411	311.38
613.618	322.38
613.826	303.38
614.034	323.38
614.242	324.38
614.449	307.38
614.657	319.38
614.865	321.38
615.072	324.38
615.28	307.38
615.488	311.38
615.695	309.38
615.903	319.38
616.111	311.38
616.318	307.38
616.526	310.38
616.733	308.38
616.941	309.38
617.148	320.38
617.356	300.38
617.563	304.38
617.771	308.38
617.978	320.38
618.185	299.38
618.393	298.38
618.6	324.38
618.807	298.38
619.015	315.38
619.222	274.38
619.429	281.38
619.637	289.38
619.844	305.38
620.051	308.38
620.258	298.38
620.466	302.38
620.673	310.38
620.88	289.38
621.087	294.38
621.294	305.38
621.501	274.38
621.708	272.38
621.915	297.38
622.122	284.38
622.329	294.38
622.536	293.38
622.743	274.38
622.95	274.38
623.157	276.38
623.364	279.38
623.571	275.38
623.778	279.38
623.985	278.38
624.192	266.38
624.399	266.38
624.606	280.38
624.812	265.38
625.019	268.38
625.226	269.38
625.433	267.38
625.639	245.38
625.846	271.38
626.053	269.38
626.259	259.38
626.466	279.38
626.673	274.38
626.879	268.38
627.086	252.38
627.293	260.38
627.499	260.38
627.706	259.38
627.912	273.38
628.119	254.38
628.325	270.38
628.532	260.38
628.738	257.38
628.945	262.38
629.151	270.38
629.357	253.38
629.564	247.38
629.77	248.38
629.976	258.38
630.183	265.38
630.389	246.38
630.595	259.38
630.802	255.38
631.008	243.38
631.214	241.38
631.42	259.38
631.627	262.38
631.833	247.38
632.039	246.38
632.245	248.38
632.451	227.38
632.657	238.38
632.863	258.38
633.069	232.38
633.275	242.38
633.481	241.38
633.688	231.38
633.893	218.38
634.099	220.38
634.305	250.38
634.511	233.38
634.717	223.38
634.923	229.38
635.129	227.38
635.335	229.38
635.541	230.38
635.747	244.38
635.952	233.38
636.158	229.38
636.364	213.38
636.57	222.38
636.775	232.38
636.981	225.38
637.187	229.38
637.392	229.38
637.598	215.38
637.804	221.38
638.009	231.38
638.215	215.38
638.421	208.38
638.626	232.38
638.832	215.38
639.037	218.38
639.243	216.38
639.448	212.38
639.654	217.38
639.859	212.38
640.065	229.38
640.27	216.38
640.475	227.38
640.681	216.38
640.886	219.38
641.091	229.38
641.297	217.38
641.502	226.38
641.707	217.38
641.913	216.38
642.118	205.38
642.323	204.38
642.528	218.38
642.733	215.38
642.939	212.38
643.144	194.38
643.349	214.38
643.554	224.38
643.759	205.38
643.964	217.38
644.169	202.38
644.374	211.38
644.579	206.38
644.784	222.38
644.989	207.38
645.194	217.38
645.399	206.38
645.604	199.38
645.809	203.38
646.014	223.38
646.219	210.38
646.423	204.38
646.628	195.38
646.833	212.38
647.038	192.38
647.243	221.38
647.447	208.38
647.652	218.38
647.857	206.38
648.062	224.38
648.266	215.38
648.471	213.38
648.676	196.38
648.88	201.38
649.085	231.38
649.289	198.38
649.494	219.38
649.698	215.38
649.903	194.38
650.107	199.38
650.312	208.38
650.516	191.38
650.721	190.38
650.925	202.38
651.13	198.38
651.334	205.38
651.539	190.38
651.743	184.38
651.947	177.38
652.152	176.38
652.356	175.38
652.56	182.38
652.764	185.38
652.969	185.38
653.173	181.38
653.377	170.38
653.581	174.38
653.785	150.38
653.99	176.38
654.194	175.38
654.398	167.38
654.602	161.38
654.806	157.38
655.01	149.38
655.214	155.38
655.418	161.38
655.622	159.38
655.826	175.38
656.03	160.38
656.234	157.38
656.438	160.38
656.642	141.38
656.846	134.38
657.049	143.38
657.253	144.38
657.457	144.38
657.661	123.38
657.865	126.38
658.068	122.38
658.272	123.38
658.476	121.38
658.68	115.38
658.883	112.38
659.087	104.38
659.291	118.38
659.494	106.38
659.698	97.38
659.901	113.38
660.105	122.38
660.309	98.38
660.512	100.38
660.716	95.38
660.919	96.38
661.123	90.38
661.326	87.38
661.53	98.38
661.733	85.38
661.936	104.38
662.14	82.38
662.343	89.38
662.546	98.38
662.75	74.38
662.953	75.38
663.156	80.38
663.36	78.38
663.563	92.38
663.766	75.38
663.969	82.38
664.173	82.38
664.376	78.38
664.579	70.38
664.782	71.38
664.985	83.38
665.188	78.38
665.391	80.38
665.594	80.38
665.797	92.38
666	95.38
666.203	81.38
666.406	86.38
666.609	65.38
666.812	88.38
667.015	78.38
667.218	80.38
667.421	105.38
667.624	89.38
667.827	84.38
668.03	70.38
668.232	83.38
668.435	89.38
668.638	80.38
668.841	70.38
669.043	76.38
669.246	73.38
669.449	82.38
669.651	92.38
669.854	77.38
670.057	92.38
670.259	81.38
670.462	86.38
670.665	82.38
670.867	79.38
671.07	73.38
671.272	85.38
671.475	78.38
671.677	80.38
671.88	77.38
672.082	71.38
672.284	79.38
672.487	82.38
672.689	84.38
672.892	84.38
