Data from NiCl2@0.0625M.TitratingCurve.Agarose3%dH2O.NegLispCup.LampEnergy10.LIBS07252019_HRD10591_18-32-50-576.txt Node
Date: Thu Jul 25 18:32:50 EDT 2019
User: cochatt
Spectrometer: HR+D1059
Trigger mode: 1
Integration Time (sec): 1.000000E-1
Scans to average: 1
Electric dark correction enabled: true
Nonlinearity correction enabled: false
Boxcar width: 0
XAxis mode: Wavelengths
Number of Pixels in Spectrum: 2048
>>>>>Begin Spectral Data<<<<<
223.165	-17.62
223.4	-17.62
223.635	-17.62
223.869	-9.62
224.104	-15.62
224.338	1.38
224.573	-20.62
224.808	-13.62
225.042	-15.62
225.277	-19.62
225.511	-1.62
225.746	9.38
225.98	3.38
226.215	22.38
226.449	25.38
226.683	8.38
226.918	24.38
227.152	19.38
227.387	37.38
227.621	46.38
227.856	52.38
228.09	37.38
228.324	48.38
228.559	44.38
228.793	77.38
229.027	160.38
229.262	177.38
229.496	146.38
229.73	184.38
229.964	194.38
230.199	175.38
230.433	192.38
230.667	166.38
230.901	183.38
231.136	199.38
231.37	210.38
231.604	198.38
231.838	194.38
232.072	200.38
232.306	214.38
232.541	223.38
232.775	212.38
233.009	218.38
233.243	212.38
233.477	209.38
233.711	206.38
233.945	209.38
234.179	212.38
234.413	231.38
234.647	234.38
234.881	220.38
235.115	235.38
235.349	225.38
235.583	232.38
235.817	229.38
236.051	229.38
236.285	230.38
236.519	242.38
236.753	250.38
236.987	255.38
237.221	256.38
237.455	255.38
237.689	261.38
237.922	262.38
238.156	280.38
238.39	258.38
238.624	292.38
238.858	299.38
239.091	289.38
239.325	277.38
239.559	273.38
239.793	292.38
240.027	287.38
240.26	285.38
240.494	306.38
240.728	304.38
240.961	292.38
241.195	294.38
241.429	306.38
241.662	298.38
241.896	316.38
242.13	313.38
242.363	317.38
242.597	322.38
242.83	329.38
243.064	339.38
243.298	333.38
243.531	341.38
243.765	346.38
243.998	338.38
244.232	340.38
244.465	346.38
244.699	346.38
244.932	356.38
245.166	359.38
245.399	368.38
245.633	370.38
245.866	353.38
246.099	362.38
246.333	376.38
246.566	361.38
246.8	366.38
247.033	387.38
247.266	386.38
247.5	396.38
247.733	398.38
247.966	408.38
248.2	416.38
248.433	424.38
248.666	409.38
248.899	397.38
249.133	438.38
249.366	401.38
249.599	417.38
249.832	429.38
250.066	435.38
250.299	438.38
250.532	429.38
250.765	422.38
250.998	437.38
251.231	459.38
251.465	450.38
251.698	453.38
251.931	478.38
252.164	492.38
252.397	474.38
252.63	450.38
252.863	477.38
253.096	493.38
253.329	464.38
253.562	480.38
253.795	463.38
254.028	489.38
254.261	475.38
254.494	474.38
254.727	486.38
254.96	489.38
255.193	508.38
255.426	504.38
255.659	492.38
255.892	519.38
256.124	502.38
256.357	512.38
256.59	507.38
256.823	512.38
257.056	516.38
257.289	521.38
257.521	541.38
257.754	535.38
257.987	527.38
258.22	534.38
258.452	540.38
258.685	550.38
258.918	560.38
259.151	531.38
259.383	557.38
259.616	536.38
259.849	570.38
260.081	558.38
260.314	577.38
260.547	538.38
260.779	568.38
261.012	568.38
261.244	593.38
261.477	569.38
261.71	586.38
261.942	599.38
262.175	582.38
262.407	594.38
262.64	584.38
262.872	587.38
263.105	595.38
263.337	606.38
263.57	604.38
263.802	615.38
264.035	603.38
264.267	628.38
264.499	608.38
264.732	617.38
264.964	605.38
265.197	620.38
265.429	644.38
265.661	626.38
265.894	609.38
266.126	614.38
266.358	635.38
266.591	638.38
266.823	634.38
267.055	644.38
267.287	634.38
267.52	658.38
267.752	640.38
267.984	698.38
268.216	664.38
268.448	655.38
268.681	652.38
268.913	696.38
269.145	685.38
269.377	668.38
269.609	696.38
269.841	689.38
270.073	674.38
270.306	674.38
270.538	716.38
270.77	663.38
271.002	688.38
271.234	682.38
271.466	722.38
271.698	700.38
271.93	696.38
272.162	721.38
272.394	712.38
272.626	698.38
272.858	710.38
273.09	738.38
273.322	708.38
273.553	753.38
273.785	746.38
274.017	762.38
274.249	753.38
274.481	757.38
274.713	774.38
274.945	770.38
275.176	791.38
275.408	760.38
275.64	781.38
275.872	786.38
276.104	795.38
276.335	790.38
276.567	800.38
276.799	764.38
277.031	785.38
277.262	773.38
277.494	808.38
277.726	780.38
277.957	797.38
278.189	787.38
278.421	788.38
278.652	778.38
278.884	778.38
279.115	812.38
279.347	820.38
279.579	846.38
279.81	842.38
280.042	827.38
280.273	826.38
280.505	846.38
280.736	837.38
280.968	833.38
281.199	804.38
281.431	844.38
281.662	854.38
281.894	860.38
282.125	866.38
282.356	873.38
282.588	859.38
282.819	854.38
283.051	868.38
283.282	861.38
283.513	861.38
283.745	875.38
283.976	892.38
284.207	893.38
284.439	882.38
284.67	877.38
284.901	886.38
285.132	890.38
285.364	908.38
285.595	898.38
285.826	918.38
286.057	917.38
286.288	927.38
286.52	934.38
286.751	916.38
286.982	947.38
287.213	906.38
287.444	906.38
287.675	921.38
287.906	928.38
288.138	926.38
288.369	909.38
288.6	918.38
288.831	941.38
289.062	948.38
289.293	956.38
289.524	935.38
289.755	946.38
289.986	946.38
290.217	978.38
290.448	958.38
290.679	954.38
290.91	942.38
291.141	940.38
291.371	951.38
291.602	975.38
291.833	929.38
292.064	957.38
292.295	964.38
292.526	958.38
292.757	965.38
292.987	937.38
293.218	953.38
293.449	953.38
293.68	965.38
293.91	965.38
294.141	953.38
294.372	952.38
294.603	983.38
294.833	1006.38
295.064	993.38
295.295	990.38
295.525	988.38
295.756	1000.38
295.987	962.38
296.217	1013.38
296.448	989.38
296.679	977.38
296.909	996.38
297.14	1001.38
297.37	1048.38
297.601	1013.38
297.831	1032.38
298.062	1049.38
298.292	1024.38
298.523	1056.38
298.753	1070.38
298.984	1047.38
299.214	1046.38
299.445	1054.38
299.675	1036.38
299.905	1074.38
300.136	1065.38
300.366	1061.38
300.597	1073.38
300.827	1048.38
301.057	1094.38
301.288	1105.38
301.518	1098.38
301.748	1108.38
301.979	1138.38
302.209	1121.38
302.439	1114.38
302.669	1112.38
302.9	1083.38
303.13	1079.38
303.36	1072.38
303.59	1080.38
303.82	1076.38
304.051	1111.38
304.281	1110.38
304.511	1113.38
304.741	1096.38
304.971	1116.38
305.201	1084.38
305.431	1065.38
305.661	1090.38
305.891	1121.38
306.121	1077.38
306.352	1102.38
306.582	1083.38
306.812	1090.38
307.042	1122.38
307.272	1076.38
307.502	1106.38
307.731	1086.38
307.961	1081.38
308.191	1090.38
308.421	1112.38
308.651	1094.38
308.881	1075.38
309.111	1084.38
309.341	1070.38
309.571	1102.38
309.8	1113.38
310.03	1120.38
310.26	1102.38
310.49	1102.38
310.72	1084.38
310.949	1098.38
311.179	1121.38
311.409	1097.38
311.639	1104.38
311.868	1118.38
312.098	1144.38
312.328	1140.38
312.557	1162.38
312.787	1162.38
313.017	1138.38
313.246	1145.38
313.476	1146.38
313.706	1160.38
313.935	1179.38
314.165	1183.38
314.394	1137.38
314.624	1191.38
314.853	1154.38
315.083	1139.38
315.312	1217.38
315.542	1209.38
315.771	1182.38
316.001	1180.38
316.23	1181.38
316.46	1172.38
316.689	1183.38
316.919	1182.38
317.148	1168.38
317.377	1193.38
317.607	1178.38
317.836	1152.38
318.065	1162.38
318.295	1189.38
318.524	1173.38
318.753	1162.38
318.983	1158.38
319.212	1165.38
319.441	1173.38
319.67	1170.38
319.9	1151.38
320.129	1157.38
320.358	1178.38
320.587	1172.38
320.816	1150.38
321.046	1182.38
321.275	1172.38
321.504	1162.38
321.733	1201.38
321.962	1176.38
322.191	1200.38
322.42	1202.38
322.649	1209.38
322.878	1196.38
323.108	1173.38
323.337	1212.38
323.566	1216.38
323.795	1204.38
324.024	1192.38
324.253	1204.38
324.482	1229.38
324.71	1246.38
324.939	1237.38
325.168	1226.38
325.397	1236.38
325.626	1252.38
325.855	1245.38
326.084	1236.38
326.313	1275.38
326.542	1295.38
326.77	1314.38
326.999	1288.38
327.228	1231.38
327.457	1254.38
327.686	1279.38
327.914	1277.38
328.143	1278.38
328.372	1319.38
328.6	1309.38
328.829	1280.38
329.058	1255.38
329.287	1280.38
329.515	1292.38
329.744	1296.38
329.972	1285.38
330.201	1315.38
330.43	1306.38
330.658	1325.38
330.887	1333.38
331.115	1342.38
331.344	1310.38
331.572	1337.38
331.801	1385.38
332.03	1410.38
332.258	1389.38
332.486	1462.38
332.715	1466.38
332.943	1444.38
333.172	1564.38
333.4	1602.38
333.629	1652.38
333.857	1662.38
334.085	1638.38
334.314	1627.38
334.542	1600.38
334.771	1656.38
334.999	1577.38
335.227	1615.38
335.455	1593.38
335.684	1568.38
335.912	1597.38
336.14	1537.38
336.369	1509.38
336.597	1562.38
336.825	1524.38
337.053	1501.38
337.281	1480.38
337.51	1476.38
337.738	1458.38
337.966	1441.38
338.194	1440.38
338.422	1419.38
338.65	1404.38
338.878	1389.38
339.106	1381.38
339.334	1414.38
339.562	1374.38
339.79	1358.38
340.018	1341.38
340.246	1357.38
340.474	1374.38
340.702	1350.38
340.93	1342.38
341.158	1362.38
341.386	1336.38
341.614	1354.38
341.842	1359.38
342.07	1328.38
342.298	1346.38
342.526	1316.38
342.754	1361.38
342.981	1354.38
343.209	1410.38
343.437	1464.38
343.665	1433.38
343.893	1564.38
344.12	1576.38
344.348	1564.38
344.576	1473.38
344.804	1450.38
345.031	1419.38
345.259	1362.38
345.487	1354.38
345.714	1356.38
345.942	1331.38
346.17	1323.38
346.397	1304.38
346.625	1304.38
346.853	1260.38
347.08	1252.38
347.308	1277.38
347.535	1293.38
347.763	1295.38
347.99	1271.38
348.218	1269.38
348.445	1313.38
348.673	1286.38
348.9	1282.38
349.128	1261.38
349.355	1267.38
349.583	1298.38
349.81	1278.38
350.037	1255.38
350.265	1238.38
350.492	1256.38
350.72	1290.38
350.947	1248.38
351.174	1266.38
351.402	1257.38
351.629	1243.38
351.856	1255.38
352.083	1242.38
352.311	1226.38
352.538	1242.38
352.765	1249.38
352.992	1256.38
353.22	1214.38
353.447	1214.38
353.674	1227.38
353.901	1224.38
354.128	1249.38
354.355	1249.38
354.583	1242.38
354.81	1226.38
355.037	1258.38
355.264	1266.38
355.491	1251.38
355.718	1204.38
355.945	1236.38
356.172	1275.38
356.399	1254.38
356.626	1267.38
356.853	1237.38
357.08	1265.38
357.307	1238.38
357.534	1258.38
357.761	1244.38
357.988	1282.38
358.215	1269.38
358.441	1246.38
358.668	1216.38
358.895	1267.38
359.122	1206.38
359.349	1228.38
359.576	1228.38
359.802	1264.38
360.029	1240.38
360.256	1243.38
360.483	1213.38
360.709	1250.38
360.936	1245.38
361.163	1260.38
361.39	1242.38
361.616	1219.38
361.843	1252.38
362.07	1234.38
362.296	1238.38
362.523	1267.38
362.749	1302.38
362.976	1245.38
363.203	1257.38
363.429	1219.38
363.656	1266.38
363.882	1250.38
364.109	1259.38
364.335	1250.38
364.562	1222.38
364.788	1267.38
365.015	1240.38
365.241	1244.38
365.468	1258.38
365.694	1234.38
365.92	1242.38
366.147	1256.38
366.373	1262.38
366.599	1251.38
366.826	1221.38
367.052	1267.38
367.278	1258.38
367.505	1230.38
367.731	1268.38
367.957	1246.38
368.184	1284.38
368.41	1311.38
368.636	1307.38
368.862	1278.38
369.089	1269.38
369.315	1301.38
369.541	1296.38
369.767	1285.38
369.993	1319.38
370.219	1297.38
370.445	1285.38
370.672	1320.38
370.898	1361.38
371.124	1382.38
371.35	1356.38
371.576	1356.38
371.802	1347.38
372.028	1372.38
372.254	1366.38
372.48	1368.38
372.706	1394.38
372.932	1402.38
373.158	1417.38
373.384	1351.38
373.61	1364.38
373.835	1387.38
374.061	1340.38
374.287	1357.38
374.513	1383.38
374.739	1432.38
374.965	1450.38
375.191	1492.38
375.416	1492.38
375.642	1411.38
375.868	1438.38
376.094	1390.38
376.319	1371.38
376.545	1384.38
376.771	1386.38
376.997	1353.38
377.222	1349.38
377.448	1348.38
377.674	1344.38
377.899	1331.38
378.125	1333.38
378.35	1320.38
378.576	1341.38
378.802	1346.38
379.027	1358.38
379.253	1357.38
379.478	1356.38
379.704	1331.38
379.929	1331.38
380.155	1335.38
380.38	1339.38
380.606	1353.38
380.831	1326.38
381.057	1310.38
381.282	1357.38
381.507	1354.38
381.733	1376.38
381.958	1378.38
382.184	1398.38
382.409	1378.38
382.634	1406.38
382.86	1415.38
383.085	1427.38
383.31	1435.38
383.535	1469.38
383.761	1456.38
383.986	1488.38
384.211	1487.38
384.436	1529.38
384.662	1546.38
384.887	1566.38
385.112	1556.38
385.337	1594.38
385.562	1596.38
385.787	1602.38
386.013	1624.38
386.238	1639.38
386.463	1614.38
386.688	1643.38
386.913	1616.38
387.138	1600.38
387.363	1591.38
387.588	1584.38
387.813	1586.38
388.038	1577.38
388.263	1632.38
388.488	1629.38
388.713	1568.38
388.938	1605.38
389.163	1581.38
389.387	1626.38
389.612	1588.38
389.837	1598.38
390.062	1611.38
390.287	1607.38
390.512	1597.38
390.736	1607.38
390.961	1659.38
391.186	1638.38
391.411	1670.38
391.636	1732.38
391.86	1746.38
392.085	1792.38
392.31	1810.38
392.534	1760.38
392.759	1726.38
392.984	1725.38
393.208	1747.38
393.433	1754.38
393.658	1826.38
393.882	1696.38
394.107	1686.38
394.331	1680.38
394.556	1704.38
394.78	1720.38
395.005	1734.38
395.229	1721.38
395.454	1714.38
395.678	1783.38
395.903	1821.38
396.127	1784.38
396.352	1762.38
396.576	1706.38
396.801	1766.38
397.025	1830.38
397.249	1800.38
397.474	1854.38
397.698	1796.38
397.922	1843.38
398.147	1815.38
398.371	1885.38
398.595	1919.38
398.82	1966.38
399.044	2090.38
399.268	2330.38
399.492	2525.38
399.717	2711.38
399.941	2746.38
400.165	2545.38
400.389	2329.38
400.613	2223.38
400.837	2124.38
401.062	2077.38
401.286	2052.38
401.51	2016.38
401.734	1976.38
401.958	1998.38
402.182	2000.38
402.406	1995.38
402.63	2048.38
402.854	2108.38
403.078	2119.38
403.302	2107.38
403.526	2163.38
403.75	2131.38
403.974	2196.38
404.198	2169.38
404.422	2158.38
404.645	2166.38
404.869	2147.38
405.093	2200.38
405.317	2135.38
405.541	2190.38
405.765	2138.38
405.988	2139.38
406.212	2151.38
406.436	2177.38
406.66	2231.38
406.883	2220.38
407.107	2365.38
407.331	2454.38
407.555	2491.38
407.778	2458.38
408.002	2442.38
408.226	2408.38
408.449	2359.38
408.673	2276.38
408.896	2228.38
409.12	2236.38
409.344	2251.38
409.567	2172.38
409.791	2184.38
410.014	2181.38
410.238	2185.38
410.461	2169.38
410.685	2150.38
410.908	2110.38
411.132	2097.38
411.355	2061.38
411.578	2056.38
411.802	2096.38
412.025	2074.38
412.249	2061.38
412.472	2078.38
412.695	2026.38
412.919	1980.38
413.142	2006.38
413.365	1966.38
413.589	2023.38
413.812	1995.38
414.035	1981.38
414.258	1953.38
414.482	2006.38
414.705	2017.38
414.928	2068.38
415.151	1984.38
415.374	2000.38
415.597	1991.38
415.821	1924.38
416.044	1944.38
416.267	1930.38
416.49	1924.38
416.713	1914.38
416.936	1912.38
417.159	1916.38
417.382	1923.38
417.605	1883.38
417.828	1894.38
418.051	1937.38
418.274	1920.38
418.497	1924.38
418.72	1970.38
418.943	1955.38
419.166	1995.38
419.389	2266.38
419.611	2132.38
419.834	2062.38
420.057	2012.38
420.28	1952.38
420.503	1874.38
420.726	1897.38
420.948	1905.38
421.171	1886.38
421.394	1932.38
421.617	1914.38
421.839	1900.38
422.062	1928.38
422.285	1892.38
422.507	1957.38
422.73	1941.38
422.953	1976.38
423.175	1949.38
423.398	1988.38
423.621	1987.38
423.843	1994.38
424.066	1999.38
424.288	1994.38
424.511	1968.38
424.733	1929.38
424.956	1963.38
425.178	1925.38
425.401	1910.38
425.623	1923.38
425.846	1869.38
426.068	1918.38
426.291	1840.38
426.513	1850.38
426.735	1820.38
426.958	1833.38
427.18	1832.38
427.402	1811.38
427.625	1802.38
427.847	1744.38
428.069	1816.38
428.292	1805.38
428.514	1678.38
428.736	1739.38
428.958	1756.38
429.181	1741.38
429.403	1748.38
429.625	1774.38
429.847	1701.38
430.069	1735.38
430.292	1733.38
430.514	1727.38
430.736	1713.38
430.958	1743.38
431.18	1749.38
431.402	1776.38
431.624	1732.38
431.846	1772.38
432.068	1720.38
432.29	1765.38
432.512	1756.38
432.734	1792.38
432.956	1769.38
433.178	1768.38
433.4	1793.38
433.622	1802.38
433.844	1803.38
434.066	1796.38
434.287	1786.38
434.509	1872.38
434.731	1879.38
434.953	1885.38
435.175	1935.38
435.397	1906.38
435.618	1866.38
435.84	1828.38
436.062	1759.38
436.284	1773.38
436.505	1754.38
436.727	1773.38
436.949	1764.38
437.17	1750.38
437.392	1747.38
437.614	1708.38
437.835	1684.38
438.057	1703.38
438.278	1653.38
438.5	1649.38
438.721	1678.38
438.943	1663.38
439.165	1668.38
439.386	1695.38
439.608	1685.38
439.829	1725.38
440.05	1712.38
440.272	1717.38
440.493	1698.38
440.715	1736.38
440.936	1748.38
441.158	1818.38
441.379	1841.38
441.6	1918.38
441.822	1884.38
442.043	1908.38
442.264	1885.38
442.486	1879.38
442.707	1846.38
442.928	1856.38
443.149	1877.38
443.371	1839.38
443.592	1878.38
443.813	1899.38
444.034	1914.38
444.255	1968.38
444.476	2032.38
444.698	2092.38
444.919	2146.38
445.14	2244.38
445.361	2052.38
445.582	1958.38
445.803	1884.38
446.024	1840.38
446.245	1821.38
446.466	1757.38
446.687	1722.38
446.908	1736.38
447.129	1698.38
447.35	1662.38
447.571	1665.38
447.792	1623.38
448.013	1598.38
448.234	1610.38
448.455	1603.38
448.675	1588.38
448.896	1578.38
449.117	1546.38
449.338	1557.38
449.559	1531.38
449.779	1535.38
450	1522.38
450.221	1542.38
450.442	1589.38
450.662	1548.38
450.883	1547.38
451.104	1609.38
451.324	1568.38
451.545	1580.38
451.766	1555.38
451.986	1525.38
452.207	1549.38
452.428	1549.38
452.648	1516.38
452.869	1499.38
453.089	1500.38
453.31	1521.38
453.53	1502.38
453.751	1474.38
453.971	1508.38
454.192	1510.38
454.412	1490.38
454.633	1503.38
454.853	1492.38
455.073	1426.38
455.294	1465.38
455.514	1448.38
455.734	1494.38
455.955	1443.38
456.175	1477.38
456.395	1484.38
456.616	1424.38
456.836	1429.38
457.056	1480.38
457.276	1462.38
457.497	1496.38
457.717	1492.38
457.937	1494.38
458.157	1509.38
458.377	1551.38
458.598	1548.38
458.818	1596.38
459.038	1591.38
459.258	1660.38
459.478	1718.38
459.698	1792.38
459.918	1798.38
460.138	1860.38
460.358	1904.38
460.578	1902.38
460.798	1957.38
461.018	1990.38
461.238	2002.38
461.458	1931.38
461.678	1912.38
461.898	1966.38
462.118	2002.38
462.338	2089.38
462.558	2116.38
462.777	2223.38
462.997	2334.38
463.217	2457.38
463.437	2482.38
463.657	2356.38
463.876	2236.38
464.096	2296.38
464.316	2260.38
464.536	2246.38
464.755	2161.38
464.975	2103.38
465.195	1977.38
465.414	1929.38
465.634	1842.38
465.854	1788.38
466.073	1765.38
466.293	1723.38
466.512	1671.38
466.732	1684.38
466.951	1678.38
467.171	1656.38
467.391	1664.38
467.61	1626.38
467.829	1642.38
468.049	1595.38
468.268	1587.38
468.488	1581.38
468.707	1566.38
468.927	1579.38
469.146	1580.38
469.365	1610.38
469.585	1606.38
469.804	1603.38
470.023	1685.38
470.243	1690.38
470.462	1647.38
470.681	1697.38
470.901	1668.38
471.12	1700.38
471.339	1655.38
471.558	1603.38
471.777	1653.38
471.997	1604.38
472.216	1609.38
472.435	1566.38
472.654	1598.38
472.873	1554.38
473.092	1572.38
473.311	1568.38
473.53	1579.38
473.749	1547.38
473.968	1571.38
474.187	1547.38
474.406	1544.38
474.625	1540.38
474.844	1600.38
475.063	1583.38
475.282	1552.38
475.501	1589.38
475.72	1641.38
475.939	1623.38
476.158	1651.38
476.377	1637.38
476.596	1658.38
476.814	1686.38
477.033	1677.38
477.252	1684.38
477.471	1727.38
477.69	1792.38
477.908	1828.38
478.127	1835.38
478.346	1882.38
478.564	1893.38
478.783	1916.38
479.002	1961.38
479.22	1975.38
479.439	1999.38
479.658	1979.38
479.876	2008.38
480.095	2026.38
480.313	2085.38
480.532	2034.38
480.751	2068.38
480.969	2070.38
481.188	1985.38
481.406	1934.38
481.624	1932.38
481.843	1905.38
482.061	1915.38
482.28	1875.38
482.498	1906.38
482.717	1886.38
482.935	1932.38
483.153	1914.38
483.372	1908.38
483.59	1952.38
483.808	1945.38
484.027	1940.38
484.245	1952.38
484.463	1960.38
484.681	1967.38
484.9	1984.38
485.118	2000.38
485.336	2011.38
485.554	2015.38
485.772	2028.38
485.99	1999.38
486.209	2018.38
486.427	1954.38
486.645	2044.38
486.863	1970.38
487.081	2008.38
487.299	1996.38
487.517	2023.38
487.735	1975.38
487.953	2003.38
488.171	1981.38
488.389	1936.38
488.607	1960.38
488.825	1980.38
489.043	1957.38
489.261	1975.38
489.479	1965.38
489.696	1947.38
489.914	1993.38
490.132	1994.38
490.35	1949.38
490.568	1962.38
490.786	1979.38
491.003	1970.38
491.221	1987.38
491.439	1973.38
491.657	1981.38
491.874	1988.38
492.092	1942.38
492.31	1959.38
492.527	1971.38
492.745	1968.38
492.963	1994.38
493.18	1985.38
493.398	2009.38
493.615	2019.38
493.833	1992.38
494.05	2013.38
494.268	2052.38
494.485	2012.38
494.703	2000.38
494.92	2046.38
495.138	2007.38
495.355	2015.38
495.573	2042.38
495.79	2050.38
496.008	2094.38
496.225	2087.38
496.442	2088.38
496.66	2088.38
496.877	2104.38
497.094	2164.38
497.312	2193.38
497.529	2252.38
497.746	2265.38
497.963	2333.38
498.181	2444.38
498.398	2524.38
498.615	2626.38
498.832	2755.38
499.049	2964.38
499.267	3188.38
499.484	3470.38
499.701	3725.38
499.918	4020.38
500.135	4488.38
500.352	4866.38
500.569	5042.38
500.786	4889.38
501.003	4690.38
501.22	4410.38
501.437	3915.38
501.654	3594.38
501.871	3382.38
502.088	3108.38
502.305	2899.38
502.522	2810.38
502.739	2763.38
502.956	2626.38
503.172	2480.38
503.389	2405.38
503.606	2344.38
503.823	2262.38
504.04	2273.38
504.256	2296.38
504.473	2297.38
504.69	2264.38
504.907	2247.38
505.123	2182.38
505.34	2090.38
505.557	1979.38
505.773	1956.38
505.99	1909.38
506.207	1887.38
506.423	1844.38
506.64	1782.38
506.856	1788.38
507.073	1749.38
507.289	1728.38
507.506	1716.38
507.722	1704.38
507.939	1696.38
508.155	1709.38
508.372	1661.38
508.588	1658.38
508.805	1629.38
509.021	1652.38
509.238	1596.38
509.454	1602.38
509.67	1616.38
509.887	1629.38
510.103	1577.38
510.319	1594.38
510.536	1561.38
510.752	1568.38
510.968	1617.38
511.184	1564.38
511.401	1578.38
511.617	1566.38
511.833	1572.38
512.049	1576.38
512.265	1554.38
512.481	1545.38
512.698	1590.38
512.914	1591.38
513.13	1580.38
513.346	1554.38
513.562	1580.38
513.778	1583.38
513.994	1576.38
514.21	1584.38
514.426	1567.38
514.642	1561.38
514.858	1618.38
515.074	1626.38
515.29	1695.38
515.506	1622.38
515.721	1674.38
515.937	1694.38
516.153	1696.38
516.369	1725.38
516.585	1798.38
516.801	1819.38
517.016	1849.38
517.232	1935.38
517.448	1944.38
517.664	2066.38
517.879	2073.38
518.095	2004.38
518.311	2026.38
518.527	1962.38
518.742	1892.38
518.958	1863.38
519.173	1769.38
519.389	1746.38
519.605	1705.38
519.82	1672.38
520.036	1661.38
520.251	1639.38
520.467	1648.38
520.682	1577.38
520.898	1588.38
521.113	1538.38
521.329	1512.38
521.544	1506.38
521.76	1550.38
521.975	1484.38
522.19	1481.38
522.406	1473.38
522.621	1442.38
522.836	1444.38
523.052	1445.38
523.267	1454.38
523.482	1461.38
523.698	1432.38
523.913	1414.38
524.128	1420.38
524.343	1409.38
524.559	1426.38
524.774	1414.38
524.989	1442.38
525.204	1433.38
525.419	1408.38
525.634	1413.38
525.849	1403.38
526.064	1404.38
526.28	1384.38
526.495	1381.38
526.71	1401.38
526.925	1374.38
527.14	1356.38
527.355	1412.38
527.57	1392.38
527.785	1412.38
527.999	1363.38
528.214	1388.38
528.429	1372.38
528.644	1372.38
528.859	1386.38
529.074	1353.38
529.289	1410.38
529.503	1385.38
529.718	1387.38
529.933	1354.38
530.148	1354.38
530.363	1379.38
530.577	1351.38
530.792	1352.38
531.007	1352.38
531.221	1378.38
531.436	1374.38
531.651	1377.38
531.865	1322.38
532.08	1372.38
532.295	1368.38
532.509	1362.38
532.724	1400.38
532.938	1357.38
533.153	1366.38
533.367	1344.38
533.582	1350.38
533.796	1321.38
534.011	1352.38
534.225	1338.38
534.44	1355.38
534.654	1345.38
534.868	1353.38
535.083	1315.38
535.297	1326.38
535.511	1290.38
535.726	1290.38
535.94	1283.38
536.154	1302.38
536.369	1288.38
536.583	1298.38
536.797	1273.38
537.011	1274.38
537.225	1271.38
537.44	1261.38
537.654	1268.38
537.868	1281.38
538.082	1214.38
538.296	1239.38
538.51	1218.38
538.724	1259.38
538.938	1220.38
539.153	1224.38
539.367	1238.38
539.581	1223.38
539.795	1225.38
540.009	1232.38
540.222	1239.38
540.436	1213.38
540.65	1217.38
540.864	1220.38
541.078	1198.38
541.292	1233.38
541.506	1224.38
541.72	1179.38
541.934	1241.38
542.147	1219.38
542.361	1209.38
542.575	1214.38
542.789	1196.38
543.002	1179.38
543.216	1225.38
543.43	1176.38
543.644	1203.38
543.857	1190.38
544.071	1191.38
544.285	1200.38
544.498	1204.38
544.712	1190.38
544.925	1188.38
545.139	1210.38
545.352	1193.38
545.566	1214.38
545.779	1236.38
545.993	1215.38
546.206	1246.38
546.42	1197.38
546.633	1224.38
546.847	1228.38
547.06	1251.38
547.274	1203.38
547.487	1230.38
547.7	1198.38
547.914	1197.38
548.127	1230.38
548.34	1256.38
548.554	1214.38
548.767	1258.38
548.98	1231.38
549.193	1227.38
549.407	1237.38
549.62	1246.38
549.833	1268.38
550.046	1226.38
550.259	1243.38
550.473	1183.38
550.686	1194.38
550.899	1206.38
551.112	1196.38
551.325	1189.38
551.538	1192.38
551.751	1204.38
551.964	1195.38
552.177	1237.38
552.39	1259.38
552.603	1258.38
552.816	1261.38
553.029	1295.38
553.242	1273.38
553.455	1321.38
553.667	1283.38
553.88	1306.38
554.093	1256.38
554.306	1218.38
554.519	1218.38
554.732	1214.38
554.944	1178.38
555.157	1160.38
555.37	1145.38
555.583	1140.38
555.795	1122.38
556.008	1118.38
556.221	1098.38
556.433	1073.38
556.646	1078.38
556.859	1069.38
557.071	1086.38
557.284	1043.38
557.496	1070.38
557.709	1055.38
557.921	1028.38
558.134	1046.38
558.346	1001.38
558.559	1013.38
558.771	993.38
558.984	996.38
559.196	1036.38
559.409	1036.38
559.621	1048.38
559.833	1021.38
560.046	995.38
560.258	1003.38
560.47	1010.38
560.683	982.38
560.895	1008.38
561.107	1002.38
561.32	1004.38
561.532	997.38
561.744	1008.38
561.956	997.38
562.168	1008.38
562.381	1000.38
562.593	999.38
562.805	1020.38
563.017	1002.38
563.229	1010.38
563.441	1006.38
563.653	1010.38
563.865	1044.38
564.077	1034.38
564.289	1088.38
564.501	1085.38
564.713	1072.38
564.925	1102.38
565.137	1137.38
565.349	1124.38
565.561	1174.38
565.773	1217.38
565.985	1247.38
566.197	1256.38
566.408	1346.38
566.62	1493.38
566.832	1489.38
567.044	1559.38
567.255	1570.38
567.467	1600.38
567.679	1674.38
567.891	1726.38
568.102	1770.38
568.314	1664.38
568.526	1552.38
568.737	1448.38
568.949	1328.38
569.161	1268.38
569.372	1189.38
569.584	1168.38
569.795	1088.38
570.007	1060.38
570.218	1047.38
570.43	1049.38
570.641	1017.38
570.853	1028.38
571.064	1039.38
571.276	1030.38
571.487	997.38
571.698	952.38
571.91	920.38
572.121	900.38
572.333	921.38
572.544	894.38
572.755	895.38
572.966	873.38
573.178	867.38
573.389	859.38
573.6	842.38
573.811	822.38
574.023	828.38
574.234	813.38
574.445	844.38
574.656	808.38
574.867	828.38
575.078	812.38
575.289	818.38
575.501	792.38
575.712	777.38
575.923	791.38
576.134	781.38
576.345	770.38
576.556	764.38
576.767	753.38
576.978	749.38
577.188	742.38
577.399	754.38
577.61	748.38
577.821	766.38
578.032	733.38
578.243	723.38
578.454	737.38
578.665	734.38
578.875	741.38
579.086	732.38
579.297	721.38
579.508	728.38
579.718	717.38
579.929	703.38
580.14	716.38
580.35	721.38
580.561	689.38
580.772	681.38
580.982	700.38
581.193	685.38
581.403	686.38
581.614	693.38
581.825	712.38
582.035	676.38
582.246	691.38
582.456	691.38
582.667	683.38
582.877	682.38
583.087	698.38
583.298	689.38
583.508	674.38
583.719	678.38
583.929	696.38
584.139	658.38
584.35	669.38
584.56	674.38
584.77	668.38
584.981	657.38
585.191	672.38
585.401	650.38
585.611	648.38
585.821	661.38
586.032	698.38
586.242	639.38
586.452	643.38
586.662	632.38
586.872	650.38
587.082	620.38
587.292	633.38
587.502	664.38
587.713	653.38
587.923	656.38
588.133	658.38
588.343	663.38
588.553	638.38
588.762	653.38
588.972	652.38
589.182	682.38
589.392	666.38
589.602	671.38
589.812	660.38
590.022	664.38
590.232	656.38
590.441	650.38
590.651	656.38
590.861	666.38
591.071	654.38
591.281	640.38
591.49	654.38
591.7	688.38
591.91	680.38
592.119	702.38
592.329	716.38
592.539	724.38
592.748	733.38
592.958	740.38
593.167	764.38
593.377	792.38
593.587	787.38
593.796	770.38
594.006	788.38
594.215	796.38
594.424	772.38
594.634	769.38
594.843	746.38
595.053	729.38
595.262	717.38
595.472	704.38
595.681	650.38
595.89	654.38
596.1	651.38
596.309	643.38
596.518	633.38
596.727	625.38
596.937	598.38
597.146	597.38
597.355	589.38
597.564	597.38
597.774	553.38
597.983	566.38
598.192	547.38
598.401	566.38
598.61	566.38
598.819	557.38
599.028	545.38
599.237	583.38
599.446	558.38
599.655	544.38
599.864	545.38
600.073	547.38
600.282	563.38
600.491	567.38
600.7	546.38
600.909	542.38
601.118	533.38
601.327	530.38
601.536	514.38
601.745	488.38
601.953	516.38
602.162	517.38
602.371	518.38
602.58	525.38
602.789	522.38
602.997	500.38
603.206	523.38
603.415	483.38
603.623	498.38
603.832	500.38
604.041	514.38
604.249	498.38
604.458	509.38
604.666	491.38
604.875	503.38
605.084	489.38
605.292	502.38
605.501	489.38
605.709	467.38
605.918	485.38
606.126	500.38
606.334	480.38
606.543	475.38
606.751	487.38
606.96	478.38
607.168	470.38
607.376	475.38
607.585	475.38
607.793	475.38
608.001	471.38
608.21	489.38
608.418	475.38
608.626	464.38
608.834	469.38
609.043	485.38
609.251	476.38
609.459	470.38
609.667	486.38
609.875	471.38
610.083	472.38
610.291	484.38
610.499	456.38
610.707	479.38
610.916	453.38
611.124	464.38
611.332	436.38
611.54	458.38
611.748	480.38
611.955	448.38
612.163	456.38
612.371	456.38
612.579	457.38
612.787	436.38
612.995	446.38
613.203	454.38
613.411	447.38
613.618	447.38
613.826	435.38
614.034	453.38
614.242	444.38
614.449	442.38
614.657	458.38
614.865	439.38
615.072	451.38
615.28	446.38
615.488	451.38
615.695	452.38
615.903	432.38
616.111	425.38
616.318	463.38
616.526	448.38
616.733	450.38
616.941	456.38
617.148	468.38
617.356	445.38
617.563	461.38
617.771	425.38
617.978	428.38
618.185	435.38
618.393	430.38
618.6	449.38
618.807	448.38
619.015	437.38
619.222	458.38
619.429	425.38
619.637	409.38
619.844	440.38
620.051	453.38
620.258	444.38
620.466	409.38
620.673	383.38
620.88	420.38
621.087	411.38
621.294	412.38
621.501	424.38
621.708	404.38
621.915	405.38
622.122	428.38
622.329	416.38
622.536	421.38
622.743	414.38
622.95	403.38
623.157	381.38
623.364	402.38
623.571	388.38
623.778	412.38
623.985	413.38
624.192	376.38
624.399	394.38
624.606	386.38
624.812	399.38
625.019	377.38
625.226	368.38
625.433	385.38
625.639	378.38
625.846	391.38
626.053	394.38
626.259	364.38
626.466	364.38
626.673	371.38
626.879	348.38
627.086	379.38
627.293	374.38
627.499	357.38
627.706	378.38
627.912	365.38
628.119	353.38
628.325	374.38
628.532	350.38
628.738	364.38
628.945	364.38
629.151	356.38
629.357	377.38
629.564	357.38
629.77	380.38
629.976	352.38
630.183	356.38
630.389	353.38
630.595	342.38
630.802	325.38
631.008	359.38
631.214	348.38
631.42	353.38
631.627	339.38
631.833	320.38
632.039	350.38
632.245	328.38
632.451	341.38
632.657	332.38
632.863	333.38
633.069	333.38
633.275	333.38
633.481	317.38
633.688	324.38
633.893	332.38
634.099	311.38
634.305	324.38
634.511	331.38
634.717	308.38
634.923	332.38
635.129	326.38
635.335	324.38
635.541	314.38
635.747	332.38
635.952	339.38
636.158	319.38
636.364	327.38
636.57	323.38
636.775	327.38
636.981	310.38
637.187	314.38
637.392	301.38
637.598	304.38
637.804	319.38
638.009	315.38
638.215	320.38
638.421	308.38
638.626	307.38
638.832	312.38
639.037	299.38
639.243	317.38
639.448	302.38
639.654	315.38
639.859	301.38
640.065	305.38
640.27	318.38
640.475	316.38
640.681	286.38
640.886	308.38
641.091	301.38
641.297	302.38
641.502	296.38
641.707	290.38
641.913	292.38
642.118	297.38
642.323	310.38
642.528	297.38
642.733	290.38
642.939	296.38
643.144	285.38
643.349	291.38
643.554	306.38
643.759	297.38
643.964	316.38
644.169	284.38
644.374	297.38
644.579	294.38
644.784	310.38
644.989	291.38
645.194	312.38
645.399	283.38
645.604	296.38
645.809	299.38
646.014	302.38
646.219	294.38
646.423	287.38
646.628	304.38
646.833	301.38
647.038	313.38
647.243	304.38
647.447	297.38
647.652	322.38
647.857	318.38
648.062	308.38
648.266	304.38
648.471	309.38
648.676	313.38
648.88	324.38
649.085	306.38
649.289	316.38
649.494	324.38
649.698	317.38
649.903	290.38
650.107	314.38
650.312	310.38
650.516	299.38
650.721	316.38
650.925	301.38
651.13	299.38
651.334	298.38
651.539	308.38
651.743	291.38
651.947	291.38
652.152	288.38
652.356	286.38
652.56	295.38
652.764	290.38
652.969	292.38
653.173	294.38
653.377	283.38
653.581	277.38
653.785	275.38
653.99	270.38
654.194	288.38
654.398	298.38
654.602	286.38
654.806	305.38
655.01	292.38
655.214	300.38
655.418	308.38
655.622	307.38
655.826	309.38
656.03	321.38
656.234	330.38
656.438	354.38
656.642	349.38
656.846	317.38
657.049	304.38
657.253	300.38
657.457	268.38
657.661	248.38
657.865	210.38
658.068	207.38
658.272	194.38
658.476	185.38
658.68	178.38
658.883	159.38
659.087	180.38
659.291	140.38
659.494	152.38
659.698	137.38
659.901	134.38
660.105	134.38
660.309	125.38
660.512	120.38
660.716	118.38
660.919	117.38
661.123	118.38
661.326	106.38
661.53	103.38
661.733	113.38
661.936	91.38
662.14	100.38
662.343	95.38
662.546	97.38
662.75	85.38
662.953	87.38
663.156	89.38
663.36	78.38
663.563	67.38
663.766	77.38
663.969	84.38
664.173	96.38
664.376	101.38
664.579	86.38
664.782	93.38
664.985	97.38
665.188	82.38
665.391	88.38
665.594	103.38
665.797	76.38
666	78.38
666.203	83.38
666.406	76.38
666.609	79.38
666.812	82.38
667.015	79.38
667.218	95.38
667.421	85.38
667.624	75.38
667.827	93.38
668.03	93.38
668.232	75.38
668.435	74.38
668.638	80.38
668.841	82.38
669.043	88.38
669.246	81.38
669.449	69.38
669.651	69.38
669.854	79.38
670.057	76.38
670.259	74.38
670.462	83.38
670.665	100.38
670.867	95.38
671.07	78.38
671.272	96.38
671.475	99.38
671.677	71.38
671.88	73.38
672.082	70.38
672.284	77.38
672.487	91.38
672.689	75.38
672.892	88.38
