Data from NiCl2@0.125M.TitratingCurve.Agarose3%dH2O.NegLispCup.LampEnergy10.LIBS07252019_HRD10591_18-30-14-585.txt Node
Date: Thu Jul 25 18:30:14 EDT 2019
User: cochatt
Spectrometer: HR+D1059
Trigger mode: 1
Integration Time (sec): 1.000000E-1
Scans to average: 1
Electric dark correction enabled: true
Nonlinearity correction enabled: false
Boxcar width: 0
XAxis mode: Wavelengths
Number of Pixels in Spectrum: 2048
>>>>>Begin Spectral Data<<<<<
223.165	-18.38
223.4	-18.38
223.635	-18.38
223.869	-21.38
224.104	-16.38
224.338	-17.38
224.573	-17.38
224.808	-6.38
225.042	-8.38
225.277	7.62
225.511	-10.38
225.746	4.62
225.98	2.62
226.215	0.62
226.449	9.62
226.683	18.62
226.918	28.62
227.152	43.62
227.387	34.62
227.621	26.62
227.856	44.62
228.09	27.62
228.324	51.62
228.559	52.62
228.793	70.62
229.027	105.62
229.262	117.62
229.496	102.62
229.73	121.62
229.964	120.62
230.199	122.62
230.433	123.62
230.667	123.62
230.901	137.62
231.136	129.62
231.37	148.62
231.604	129.62
231.838	144.62
232.072	128.62
232.306	147.62
232.541	125.62
232.775	146.62
233.009	139.62
233.243	145.62
233.477	134.62
233.711	162.62
233.945	147.62
234.179	155.62
234.413	138.62
234.647	149.62
234.881	170.62
235.115	138.62
235.349	142.62
235.583	138.62
235.817	147.62
236.051	152.62
236.285	132.62
236.519	158.62
236.753	142.62
236.987	147.62
237.221	146.62
237.455	154.62
237.689	153.62
237.922	134.62
238.156	164.62
238.39	163.62
238.624	153.62
238.858	180.62
239.091	171.62
239.325	155.62
239.559	170.62
239.793	182.62
240.027	185.62
240.26	165.62
240.494	174.62
240.728	167.62
240.961	178.62
241.195	193.62
241.429	172.62
241.662	191.62
241.896	174.62
242.13	198.62
242.363	211.62
242.597	200.62
242.83	201.62
243.064	183.62
243.298	211.62
243.531	205.62
243.765	200.62
243.998	208.62
244.232	215.62
244.465	208.62
244.699	200.62
244.932	232.62
245.166	225.62
245.399	220.62
245.633	199.62
245.866	202.62
246.099	221.62
246.333	203.62
246.566	222.62
246.8	226.62
247.033	233.62
247.266	212.62
247.5	202.62
247.733	250.62
247.966	229.62
248.2	234.62
248.433	255.62
248.666	229.62
248.899	247.62
249.133	249.62
249.366	241.62
249.599	238.62
249.832	257.62
250.066	231.62
250.299	252.62
250.532	240.62
250.765	259.62
250.998	254.62
251.231	276.62
251.465	262.62
251.698	258.62
251.931	260.62
252.164	271.62
252.397	278.62
252.63	275.62
252.863	278.62
253.096	262.62
253.329	267.62
253.562	278.62
253.795	298.62
254.028	266.62
254.261	279.62
254.494	287.62
254.727	274.62
254.96	274.62
255.193	283.62
255.426	279.62
255.659	272.62
255.892	272.62
256.124	287.62
256.357	287.62
256.59	279.62
256.823	310.62
257.056	299.62
257.289	306.62
257.521	288.62
257.754	299.62
257.987	306.62
258.22	308.62
258.452	304.62
258.685	298.62
258.918	307.62
259.151	308.62
259.383	306.62
259.616	311.62
259.849	300.62
260.081	307.62
260.314	335.62
260.547	330.62
260.779	306.62
261.012	320.62
261.244	320.62
261.477	325.62
261.71	324.62
261.942	305.62
262.175	316.62
262.407	340.62
262.64	325.62
262.872	340.62
263.105	347.62
263.337	343.62
263.57	331.62
263.802	349.62
264.035	327.62
264.267	330.62
264.499	352.62
264.732	314.62
264.964	355.62
265.197	344.62
265.429	350.62
265.661	350.62
265.894	351.62
266.126	339.62
266.358	358.62
266.591	352.62
266.823	361.62
267.055	338.62
267.287	364.62
267.52	370.62
267.752	344.62
267.984	361.62
268.216	377.62
268.448	371.62
268.681	372.62
268.913	368.62
269.145	358.62
269.377	356.62
269.609	380.62
269.841	368.62
270.073	365.62
270.306	372.62
270.538	367.62
270.77	367.62
271.002	372.62
271.234	372.62
271.466	372.62
271.698	368.62
271.93	391.62
272.162	385.62
272.394	378.62
272.626	378.62
272.858	373.62
273.09	384.62
273.322	407.62
273.553	376.62
273.785	379.62
274.017	388.62
274.249	407.62
274.481	392.62
274.713	392.62
274.945	416.62
275.176	421.62
275.408	408.62
275.64	415.62
275.872	419.62
276.104	432.62
276.335	418.62
276.567	419.62
276.799	413.62
277.031	432.62
277.262	418.62
277.494	406.62
277.726	401.62
277.957	428.62
278.189	414.62
278.421	412.62
278.652	436.62
278.884	438.62
279.115	422.62
279.347	426.62
279.579	437.62
279.81	436.62
280.042	437.62
280.273	430.62
280.505	454.62
280.736	428.62
280.968	446.62
281.199	437.62
281.431	452.62
281.662	474.62
281.894	465.62
282.125	444.62
282.356	471.62
282.588	454.62
282.819	470.62
283.051	471.62
283.282	464.62
283.513	466.62
283.745	460.62
283.976	476.62
284.207	470.62
284.439	462.62
284.67	464.62
284.901	483.62
285.132	487.62
285.364	470.62
285.595	479.62
285.826	496.62
286.057	514.62
286.288	471.62
286.52	487.62
286.751	486.62
286.982	500.62
287.213	488.62
287.444	494.62
287.675	499.62
287.906	532.62
288.138	515.62
288.369	492.62
288.6	517.62
288.831	500.62
289.062	502.62
289.293	512.62
289.524	495.62
289.755	522.62
289.986	534.62
290.217	516.62
290.448	522.62
290.679	534.62
290.91	521.62
291.141	544.62
291.371	531.62
291.602	523.62
291.833	506.62
292.064	536.62
292.295	512.62
292.526	536.62
292.757	535.62
292.987	524.62
293.218	520.62
293.449	522.62
293.68	518.62
293.91	526.62
294.141	545.62
294.372	509.62
294.603	534.62
294.833	539.62
295.064	555.62
295.295	545.62
295.525	538.62
295.756	546.62
295.987	534.62
296.217	555.62
296.448	556.62
296.679	543.62
296.909	543.62
297.14	523.62
297.37	562.62
297.601	547.62
297.831	571.62
298.062	604.62
298.292	575.62
298.523	598.62
298.753	627.62
298.984	580.62
299.214	582.62
299.445	554.62
299.675	568.62
299.905	570.62
300.136	584.62
300.366	580.62
300.597	601.62
300.827	589.62
301.057	599.62
301.288	603.62
301.518	593.62
301.748	602.62
301.979	601.62
302.209	595.62
302.439	594.62
302.669	587.62
302.9	591.62
303.13	581.62
303.36	588.62
303.59	579.62
303.82	596.62
304.051	593.62
304.281	591.62
304.511	581.62
304.741	600.62
304.971	613.62
305.201	587.62
305.431	577.62
305.661	583.62
305.891	580.62
306.121	586.62
306.352	565.62
306.582	573.62
306.812	562.62
307.042	585.62
307.272	589.62
307.502	566.62
307.731	577.62
307.961	541.62
308.191	551.62
308.421	549.62
308.651	587.62
308.881	568.62
309.111	566.62
309.341	570.62
309.571	592.62
309.8	594.62
310.03	578.62
310.26	578.62
310.49	556.62
310.72	561.62
310.949	568.62
311.179	575.62
311.409	586.62
311.639	569.62
311.868	584.62
312.098	600.62
312.328	611.62
312.557	598.62
312.787	602.62
313.017	587.62
313.246	600.62
313.476	609.62
313.706	617.62
313.935	632.62
314.165	620.62
314.394	594.62
314.624	606.62
314.853	610.62
315.083	627.62
315.312	608.62
315.542	608.62
315.771	599.62
316.001	583.62
316.23	594.62
316.46	596.62
316.689	629.62
316.919	622.62
317.148	611.62
317.377	598.62
317.607	600.62
317.836	565.62
318.065	587.62
318.295	603.62
318.524	608.62
318.753	589.62
318.983	610.62
319.212	580.62
319.441	606.62
319.67	598.62
319.9	592.62
320.129	578.62
320.358	608.62
320.587	607.62
320.816	610.62
321.046	618.62
321.275	618.62
321.504	602.62
321.733	600.62
321.962	606.62
322.191	620.62
322.42	643.62
322.649	616.62
322.878	593.62
323.108	602.62
323.337	615.62
323.566	614.62
323.795	596.62
324.024	623.62
324.253	617.62
324.482	617.62
324.71	622.62
324.939	630.62
325.168	648.62
325.397	643.62
325.626	623.62
325.855	640.62
326.084	642.62
326.313	669.62
326.542	677.62
326.77	687.62
326.999	668.62
327.228	666.62
327.457	657.62
327.686	625.62
327.914	658.62
328.143	665.62
328.372	660.62
328.6	664.62
328.829	652.62
329.058	661.62
329.287	660.62
329.515	672.62
329.744	647.62
329.972	660.62
330.201	689.62
330.43	652.62
330.658	653.62
330.887	679.62
331.115	696.62
331.344	675.62
331.572	694.62
331.801	709.62
332.03	711.62
332.258	734.62
332.486	748.62
332.715	780.62
332.943	822.62
333.172	832.62
333.4	872.62
333.629	908.62
333.857	914.62
334.085	892.62
334.314	887.62
334.542	838.62
334.771	859.62
334.999	840.62
335.227	843.62
335.455	820.62
335.684	790.62
335.912	819.62
336.14	770.62
336.369	772.62
336.597	793.62
336.825	788.62
337.053	779.62
337.281	764.62
337.51	754.62
337.738	772.62
337.966	739.62
338.194	719.62
338.422	701.62
338.65	741.62
338.878	708.62
339.106	700.62
339.334	724.62
339.562	705.62
339.79	683.62
340.018	675.62
340.246	650.62
340.474	660.62
340.702	688.62
340.93	688.62
341.158	679.62
341.386	695.62
341.614	687.62
341.842	675.62
342.07	681.62
342.298	676.62
342.526	699.62
342.754	694.62
342.981	682.62
343.209	690.62
343.437	752.62
343.665	771.62
343.893	836.62
344.12	872.62
344.348	841.62
344.576	776.62
344.804	759.62
345.031	735.62
345.259	693.62
345.487	705.62
345.714	690.62
345.942	706.62
346.17	674.62
346.397	687.62
346.625	663.62
346.853	650.62
347.08	675.62
347.308	636.62
347.535	667.62
347.763	680.62
347.99	699.62
348.218	692.62
348.445	703.62
348.673	689.62
348.9	676.62
349.128	671.62
349.355	661.62
349.583	675.62
349.81	666.62
350.037	666.62
350.265	639.62
350.492	643.62
350.72	663.62
350.947	637.62
351.174	661.62
351.402	639.62
351.629	632.62
351.856	634.62
352.083	612.62
352.311	651.62
352.538	624.62
352.765	627.62
352.992	630.62
353.22	634.62
353.447	611.62
353.674	636.62
353.901	638.62
354.128	644.62
354.355	646.62
354.583	625.62
354.81	652.62
355.037	658.62
355.264	631.62
355.491	648.62
355.718	646.62
355.945	644.62
356.172	652.62
356.399	646.62
356.626	655.62
356.853	642.62
357.08	664.62
357.307	650.62
357.534	660.62
357.761	644.62
357.988	627.62
358.215	641.62
358.441	631.62
358.668	609.62
358.895	628.62
359.122	640.62
359.349	659.62
359.576	658.62
359.802	656.62
360.029	633.62
360.256	602.62
360.483	631.62
360.709	632.62
360.936	618.62
361.163	638.62
361.39	636.62
361.616	649.62
361.843	618.62
362.07	636.62
362.296	665.62
362.523	645.62
362.749	658.62
362.976	642.62
363.203	640.62
363.429	614.62
363.656	630.62
363.882	658.62
364.109	648.62
364.335	643.62
364.562	626.62
364.788	630.62
365.015	637.62
365.241	629.62
365.468	617.62
365.694	633.62
365.92	639.62
366.147	623.62
366.373	620.62
366.599	652.62
366.826	606.62
367.052	646.62
367.278	632.62
367.505	639.62
367.731	627.62
367.957	647.62
368.184	640.62
368.41	656.62
368.636	658.62
368.862	637.62
369.089	660.62
369.315	641.62
369.541	652.62
369.767	658.62
369.993	648.62
370.219	680.62
370.445	680.62
370.672	691.62
370.898	672.62
371.124	691.62
371.35	706.62
371.576	702.62
371.802	737.62
372.028	686.62
372.254	695.62
372.48	701.62
372.706	682.62
372.932	709.62
373.158	726.62
373.384	714.62
373.61	664.62
373.835	700.62
374.061	689.62
374.287	708.62
374.513	705.62
374.739	735.62
374.965	761.62
375.191	785.62
375.416	776.62
375.642	755.62
375.868	740.62
376.094	756.62
376.319	716.62
376.545	713.62
376.771	710.62
376.997	706.62
377.222	715.62
377.448	707.62
377.674	688.62
377.899	699.62
378.125	690.62
378.35	670.62
378.576	691.62
378.802	678.62
379.027	683.62
379.253	685.62
379.478	704.62
379.704	692.62
379.929	690.62
380.155	682.62
380.38	671.62
380.606	678.62
380.831	696.62
381.057	717.62
381.282	706.62
381.507	686.62
381.733	731.62
381.958	701.62
382.184	721.62
382.409	715.62
382.634	731.62
382.86	743.62
383.085	745.62
383.31	761.62
383.535	793.62
383.761	780.62
383.986	777.62
384.211	803.62
384.436	807.62
384.662	808.62
384.887	852.62
385.112	846.62
385.337	856.62
385.562	870.62
385.787	834.62
386.013	872.62
386.238	858.62
386.463	853.62
386.688	853.62
386.913	830.62
387.138	858.62
387.363	836.62
387.588	845.62
387.813	832.62
388.038	793.62
388.263	817.62
388.488	843.62
388.713	860.62
388.938	812.62
389.163	811.62
389.387	809.62
389.612	808.62
389.837	805.62
390.062	798.62
390.287	836.62
390.512	802.62
390.736	851.62
390.961	845.62
391.186	880.62
391.411	871.62
391.636	914.62
391.86	954.62
392.085	963.62
392.31	972.62
392.534	939.62
392.759	902.62
392.984	903.62
393.208	904.62
393.433	905.62
393.658	887.62
393.882	914.62
394.107	894.62
394.331	907.62
394.556	890.62
394.78	917.62
395.005	906.62
395.229	912.62
395.454	912.62
395.678	970.62
395.903	938.62
396.127	940.62
396.352	912.62
396.576	868.62
396.801	867.62
397.025	901.62
397.249	922.62
397.474	952.62
397.698	926.62
397.922	920.62
398.147	921.62
398.371	935.62
398.595	989.62
398.82	1012.62
399.044	1104.62
399.268	1208.62
399.492	1425.62
399.717	1690.62
399.941	1698.62
400.165	1444.62
400.389	1288.62
400.613	1178.62
400.837	1126.62
401.062	1083.62
401.286	1069.62
401.51	1006.62
401.734	1048.62
401.958	1057.62
402.182	1092.62
402.406	1058.62
402.63	1054.62
402.854	1148.62
403.078	1158.62
403.302	1203.62
403.526	1226.62
403.75	1241.62
403.974	1227.62
404.198	1251.62
404.422	1230.62
404.645	1269.62
404.869	1195.62
405.093	1202.62
405.317	1200.62
405.541	1192.62
405.765	1170.62
405.988	1154.62
406.212	1182.62
406.436	1161.62
406.66	1182.62
406.883	1207.62
407.107	1270.62
407.331	1349.62
407.555	1394.62
407.778	1369.62
408.002	1352.62
408.226	1320.62
408.449	1258.62
408.673	1236.62
408.896	1190.62
409.12	1196.62
409.344	1195.62
409.567	1212.62
409.791	1221.62
410.014	1223.62
410.238	1237.62
410.461	1200.62
410.685	1191.62
410.908	1156.62
411.132	1144.62
411.355	1095.62
411.578	1116.62
411.802	1100.62
412.025	1110.62
412.249	1123.62
412.472	1136.62
412.695	1090.62
412.919	1064.62
413.142	1039.62
413.365	1053.62
413.589	1047.62
413.812	1051.62
414.035	1065.62
414.258	1043.62
414.482	1050.62
414.705	1063.62
414.928	1106.62
415.151	1086.62
415.374	1046.62
415.597	1057.62
415.821	1025.62
416.044	1024.62
416.267	1028.62
416.49	1027.62
416.713	1042.62
416.936	1049.62
417.159	1066.62
417.382	1045.62
417.605	1021.62
417.828	1049.62
418.051	1035.62
418.274	1058.62
418.497	1049.62
418.72	1094.62
418.943	1084.62
419.166	1129.62
419.389	1232.62
419.611	1219.62
419.834	1169.62
420.057	1123.62
420.28	1087.62
420.503	1051.62
420.726	1040.62
420.948	1064.62
421.171	1047.62
421.394	1027.62
421.617	1020.62
421.839	1034.62
422.062	1052.62
422.285	1050.62
422.507	1072.62
422.73	1068.62
422.953	1083.62
423.175	1110.62
423.398	1113.62
423.621	1109.62
423.843	1118.62
424.066	1133.62
424.288	1104.62
424.511	1112.62
424.733	1126.62
424.956	1112.62
425.178	1072.62
425.401	1075.62
425.623	1084.62
425.846	1030.62
426.068	1016.62
426.291	1016.62
426.513	993.62
426.735	983.62
426.958	994.62
427.18	954.62
427.402	988.62
427.625	975.62
427.847	931.62
428.069	948.62
428.292	952.62
428.514	937.62
428.736	927.62
428.958	946.62
429.181	932.62
429.403	917.62
429.625	898.62
429.847	912.62
430.069	930.62
430.292	930.62
430.514	918.62
430.736	921.62
430.958	914.62
431.18	899.62
431.402	924.62
431.624	940.62
431.846	949.62
432.068	976.62
432.29	979.62
432.512	954.62
432.734	946.62
432.956	926.62
433.178	946.62
433.4	935.62
433.622	939.62
433.844	940.62
434.066	959.62
434.287	974.62
434.509	1012.62
434.731	1043.62
434.953	1074.62
435.175	1086.62
435.397	1058.62
435.618	1003.62
435.84	982.62
436.062	952.62
436.284	931.62
436.505	948.62
436.727	963.62
436.949	968.62
437.17	948.62
437.392	924.62
437.614	936.62
437.835	898.62
438.057	934.62
438.278	907.62
438.5	928.62
438.721	893.62
438.943	922.62
439.165	912.62
439.386	919.62
439.608	931.62
439.829	935.62
440.05	929.62
440.272	953.62
440.493	950.62
440.715	950.62
440.936	975.62
441.158	1023.62
441.379	1035.62
441.6	1098.62
441.822	1093.62
442.043	1070.62
442.264	1074.62
442.486	1044.62
442.707	1055.62
442.928	1042.62
443.149	1059.62
443.371	1057.62
443.592	1066.62
443.813	1076.62
444.034	1075.62
444.255	1115.62
444.476	1178.62
444.698	1266.62
444.919	1319.62
445.14	1388.62
445.361	1229.62
445.582	1111.62
445.803	1083.62
446.024	1022.62
446.245	985.62
446.466	960.62
446.687	948.62
446.908	969.62
447.129	940.62
447.35	928.62
447.571	925.62
447.792	906.62
448.013	881.62
448.234	879.62
448.455	883.62
448.675	870.62
448.896	884.62
449.117	859.62
449.338	846.62
449.559	857.62
449.779	875.62
450	870.62
450.221	850.62
450.442	864.62
450.662	858.62
450.883	890.62
451.104	921.62
451.324	923.62
451.545	898.62
451.766	883.62
451.986	931.62
452.207	893.62
452.428	902.62
452.648	898.62
452.869	869.62
453.089	850.62
453.31	890.62
453.53	878.62
453.751	874.62
453.971	862.62
454.192	853.62
454.412	848.62
454.633	856.62
454.853	838.62
455.073	824.62
455.294	822.62
455.514	801.62
455.734	838.62
455.955	827.62
456.175	818.62
456.395	799.62
456.616	819.62
456.836	841.62
457.056	810.62
457.276	779.62
457.497	827.62
457.717	824.62
457.937	823.62
458.157	832.62
458.377	840.62
458.598	859.62
458.818	879.62
459.038	898.62
459.258	937.62
459.478	979.62
459.698	994.62
459.918	1031.62
460.138	1050.62
460.358	1114.62
460.578	1146.62
460.798	1157.62
461.018	1168.62
461.238	1152.62
461.458	1121.62
461.678	1124.62
461.898	1138.62
462.118	1155.62
462.338	1233.62
462.558	1278.62
462.777	1283.62
462.997	1443.62
463.217	1562.62
463.437	1562.62
463.657	1406.62
463.876	1383.62
464.096	1351.62
464.316	1356.62
464.536	1371.62
464.755	1307.62
464.975	1256.62
465.195	1210.62
465.414	1082.62
465.634	1041.62
465.854	983.62
466.073	981.62
466.293	949.62
466.512	912.62
466.732	926.62
466.951	922.62
467.171	909.62
467.391	907.62
467.61	912.62
467.829	911.62
468.049	920.62
468.268	890.62
468.488	879.62
468.707	856.62
468.927	871.62
469.146	884.62
469.365	891.62
469.585	895.62
469.804	922.62
470.023	954.62
470.243	950.62
470.462	955.62
470.681	942.62
470.901	952.62
471.12	934.62
471.339	936.62
471.558	914.62
471.777	891.62
471.997	882.62
472.216	900.62
472.435	855.62
472.654	890.62
472.873	848.62
473.092	856.62
473.311	855.62
473.53	834.62
473.749	853.62
473.968	847.62
474.187	818.62
474.406	839.62
474.625	873.62
474.844	884.62
475.063	843.62
475.282	854.62
475.501	852.62
475.72	855.62
475.939	882.62
476.158	878.62
476.377	900.62
476.596	896.62
476.814	921.62
477.033	922.62
477.252	931.62
477.471	942.62
477.69	1000.62
477.908	1011.62
478.127	1001.62
478.346	1040.62
478.564	1036.62
478.783	1086.62
479.002	1095.62
479.22	1108.62
479.439	1084.62
479.658	1060.62
479.876	1055.62
480.095	1082.62
480.313	1146.62
480.532	1150.62
480.751	1175.62
480.969	1144.62
481.188	1088.62
481.406	1046.62
481.624	1025.62
481.843	1017.62
482.061	1013.62
482.28	976.62
482.498	971.62
482.717	991.62
482.935	993.62
483.153	993.62
483.372	983.62
483.59	1008.62
483.808	965.62
484.027	987.62
484.245	996.62
484.463	1012.62
484.681	1038.62
484.9	1017.62
485.118	1011.62
485.336	1024.62
485.554	1011.62
485.772	1033.62
485.99	1077.62
486.209	1091.62
486.427	1070.62
486.645	1069.62
486.863	1063.62
487.081	1061.62
487.299	1029.62
487.517	1050.62
487.735	1026.62
487.953	1023.62
488.171	1035.62
488.389	1038.62
488.607	1014.62
488.825	1027.62
489.043	973.62
489.261	1018.62
489.479	1015.62
489.696	1028.62
489.914	1030.62
490.132	1047.62
490.35	1033.62
490.568	1007.62
490.786	1032.62
491.003	1043.62
491.221	1067.62
491.439	1047.62
491.657	1010.62
491.874	1023.62
492.092	1034.62
492.31	1064.62
492.527	1063.62
492.745	1063.62
492.963	1075.62
493.18	1058.62
493.398	1056.62
493.615	1076.62
493.833	1083.62
494.05	1065.62
494.268	1080.62
494.485	1122.62
494.703	1075.62
494.92	1091.62
495.138	1097.62
495.355	1075.62
495.573	1095.62
495.79	1108.62
496.008	1106.62
496.225	1119.62
496.442	1131.62
496.66	1110.62
496.877	1137.62
497.094	1130.62
497.312	1178.62
497.529	1201.62
497.746	1230.62
497.963	1238.62
498.181	1280.62
498.398	1358.62
498.615	1421.62
498.832	1540.62
499.049	1630.62
499.267	1805.62
499.484	2020.62
499.701	2184.62
499.918	2434.62
500.135	2834.62
500.352	3258.62
500.569	3490.62
500.786	3404.62
501.003	3190.62
501.22	2802.62
501.437	2484.62
501.654	2119.62
501.871	1908.62
502.088	1736.62
502.305	1694.62
502.522	1512.62
502.739	1510.62
502.956	1402.62
503.172	1330.62
503.389	1313.62
503.606	1251.62
503.823	1236.62
504.04	1249.62
504.256	1248.62
504.473	1304.62
504.69	1319.62
504.907	1297.62
505.123	1209.62
505.34	1130.62
505.557	1065.62
505.773	1027.62
505.99	1032.62
506.207	987.62
506.423	1026.62
506.64	998.62
506.856	1000.62
507.073	959.62
507.289	977.62
507.506	979.62
507.722	930.62
507.939	943.62
508.155	965.62
508.372	939.62
508.588	911.62
508.805	912.62
509.021	906.62
509.238	922.62
509.454	892.62
509.67	880.62
509.887	892.62
510.103	895.62
510.319	880.62
510.536	894.62
510.752	857.62
510.968	892.62
511.184	865.62
511.401	857.62
511.617	882.62
511.833	897.62
512.049	862.62
512.265	882.62
512.481	874.62
512.698	844.62
512.914	874.62
513.13	876.62
513.346	882.62
513.562	902.62
513.778	893.62
513.994	869.62
514.21	883.62
514.426	888.62
514.642	868.62
514.858	915.62
515.074	894.62
515.29	921.62
515.506	911.62
515.721	922.62
515.937	942.62
516.153	952.62
516.369	987.62
516.585	995.62
516.801	1008.62
517.016	1079.62
517.232	1127.62
517.448	1200.62
517.664	1237.62
517.879	1249.62
518.095	1233.62
518.311	1239.62
518.527	1195.62
518.742	1096.62
518.958	1070.62
519.173	1008.62
519.389	1023.62
519.605	963.62
519.82	922.62
520.036	907.62
520.251	940.62
520.467	914.62
520.682	881.62
520.898	878.62
521.113	856.62
521.329	876.62
521.544	883.62
521.76	886.62
521.975	850.62
522.19	856.62
522.406	836.62
522.621	813.62
522.836	841.62
523.052	826.62
523.267	821.62
523.482	841.62
523.698	818.62
523.913	820.62
524.128	839.62
524.343	804.62
524.559	809.62
524.774	797.62
524.989	797.62
525.204	801.62
525.419	794.62
525.634	818.62
525.849	823.62
526.064	804.62
526.28	802.62
526.495	794.62
526.71	808.62
526.925	784.62
527.14	788.62
527.355	786.62
527.57	809.62
527.785	795.62
527.999	791.62
528.214	801.62
528.429	788.62
528.644	791.62
528.859	817.62
529.074	798.62
529.289	819.62
529.503	806.62
529.718	780.62
529.933	797.62
530.148	794.62
530.363	792.62
530.577	788.62
530.792	773.62
531.007	810.62
531.221	801.62
531.436	779.62
531.651	826.62
531.865	789.62
532.08	816.62
532.295	802.62
532.509	794.62
532.724	762.62
532.938	780.62
533.153	803.62
533.367	768.62
533.582	798.62
533.796	790.62
534.011	778.62
534.225	777.62
534.44	786.62
534.654	741.62
534.868	751.62
535.083	766.62
535.297	768.62
535.511	775.62
535.726	742.62
535.94	770.62
536.154	768.62
536.369	759.62
536.583	763.62
536.797	745.62
537.011	769.62
537.225	738.62
537.44	707.62
537.654	724.62
537.868	710.62
538.082	707.62
538.296	694.62
538.51	704.62
538.724	726.62
538.938	727.62
539.153	715.62
539.367	728.62
539.581	723.62
539.795	732.62
540.009	696.62
540.222	719.62
540.436	722.62
540.65	713.62
540.864	702.62
541.078	707.62
541.292	703.62
541.506	719.62
541.72	706.62
541.934	694.62
542.147	705.62
542.361	709.62
542.575	697.62
542.789	718.62
543.002	686.62
543.216	697.62
543.43	696.62
543.644	696.62
543.857	699.62
544.071	685.62
544.285	706.62
544.498	687.62
544.712	720.62
544.925	728.62
545.139	716.62
545.352	705.62
545.566	747.62
545.779	707.62
545.993	728.62
546.206	719.62
546.42	722.62
546.633	704.62
546.847	694.62
547.06	699.62
547.274	715.62
547.487	713.62
547.7	743.62
547.914	695.62
548.127	731.62
548.34	752.62
548.554	726.62
548.767	737.62
548.98	735.62
549.193	729.62
549.407	736.62
549.62	772.62
549.833	759.62
550.046	750.62
550.259	735.62
550.473	721.62
550.686	738.62
550.899	692.62
551.112	701.62
551.325	706.62
551.538	694.62
551.751	707.62
551.964	723.62
552.177	734.62
552.39	728.62
552.603	740.62
552.816	774.62
553.029	783.62
553.242	787.62
553.455	801.62
553.667	794.62
553.88	776.62
554.093	770.62
554.306	751.62
554.519	726.62
554.732	723.62
554.944	714.62
555.157	690.62
555.37	696.62
555.583	683.62
555.795	672.62
556.008	678.62
556.221	667.62
556.433	649.62
556.646	652.62
556.859	629.62
557.071	617.62
557.284	612.62
557.496	630.62
557.709	610.62
557.921	598.62
558.134	624.62
558.346	616.62
558.559	610.62
558.771	604.62
558.984	617.62
559.196	626.62
559.409	590.62
559.621	589.62
559.833	592.62
560.046	600.62
560.258	605.62
560.47	606.62
560.683	583.62
560.895	611.62
561.107	599.62
561.32	615.62
561.532	603.62
561.744	614.62
561.956	615.62
562.168	600.62
562.381	614.62
562.593	612.62
562.805	602.62
563.017	619.62
563.229	608.62
563.441	587.62
563.653	619.62
563.865	619.62
564.077	607.62
564.289	623.62
564.501	635.62
564.713	636.62
564.925	643.62
565.137	692.62
565.349	676.62
565.561	705.62
565.773	699.62
565.985	738.62
566.197	793.62
566.408	825.62
566.62	894.62
566.832	983.62
567.044	1024.62
567.255	1008.62
567.467	1048.62
567.679	1103.62
567.891	1205.62
568.102	1237.62
568.314	1200.62
568.526	1044.62
568.737	938.62
568.949	835.62
569.161	789.62
569.372	703.62
569.584	698.62
569.795	684.62
570.007	671.62
570.218	630.62
570.43	634.62
570.641	618.62
570.853	642.62
571.064	653.62
571.276	672.62
571.487	629.62
571.698	577.62
571.91	567.62
572.121	575.62
572.333	536.62
572.544	556.62
572.755	524.62
572.966	523.62
573.178	504.62
573.389	500.62
573.6	507.62
573.811	480.62
574.023	501.62
574.234	493.62
574.445	504.62
574.656	516.62
574.867	505.62
575.078	513.62
575.289	516.62
575.501	502.62
575.712	494.62
575.923	490.62
576.134	465.62
576.345	479.62
576.556	479.62
576.767	472.62
576.978	489.62
577.188	470.62
577.399	472.62
577.61	454.62
577.821	455.62
578.032	460.62
578.243	449.62
578.454	450.62
578.665	464.62
578.875	448.62
579.086	456.62
579.297	453.62
579.508	446.62
579.718	449.62
579.929	434.62
580.14	434.62
580.35	429.62
580.561	449.62
580.772	454.62
580.982	442.62
581.193	456.62
581.403	430.62
581.614	428.62
581.825	431.62
582.035	418.62
582.246	442.62
582.456	448.62
582.667	422.62
582.877	431.62
583.087	412.62
583.298	444.62
583.508	434.62
583.719	411.62
583.929	432.62
584.139	414.62
584.35	423.62
584.56	421.62
584.77	418.62
584.981	412.62
585.191	417.62
585.401	411.62
585.611	424.62
585.821	408.62
586.032	392.62
586.242	412.62
586.452	418.62
586.662	409.62
586.872	408.62
587.082	411.62
587.292	422.62
587.502	402.62
587.713	412.62
587.923	421.62
588.133	420.62
588.343	404.62
588.553	412.62
588.762	390.62
588.972	404.62
589.182	423.62
589.392	420.62
589.602	406.62
589.812	404.62
590.022	406.62
590.232	432.62
590.441	418.62
590.651	412.62
590.861	404.62
591.071	416.62
591.281	409.62
591.49	437.62
591.7	417.62
591.91	455.62
592.119	440.62
592.329	436.62
592.539	456.62
592.748	487.62
592.958	494.62
593.167	479.62
593.377	494.62
593.587	509.62
593.796	528.62
594.006	523.62
594.215	530.62
594.424	562.62
594.634	546.62
594.843	526.62
595.053	490.62
595.262	443.62
595.472	451.62
595.681	424.62
595.89	422.62
596.1	422.62
596.309	423.62
596.518	408.62
596.727	386.62
596.937	381.62
597.146	385.62
597.355	385.62
597.564	382.62
597.774	363.62
597.983	368.62
598.192	370.62
598.401	373.62
598.61	358.62
598.819	357.62
599.028	344.62
599.237	376.62
599.446	362.62
599.655	359.62
599.864	342.62
600.073	326.62
600.282	350.62
600.491	354.62
600.7	358.62
600.909	351.62
601.118	350.62
601.327	321.62
601.536	347.62
601.745	346.62
601.953	340.62
602.162	341.62
602.371	334.62
602.58	321.62
602.789	328.62
602.997	329.62
603.206	339.62
603.415	341.62
603.623	319.62
603.832	323.62
604.041	311.62
604.249	343.62
604.458	328.62
604.666	338.62
604.875	293.62
605.084	331.62
605.292	304.62
605.501	318.62
605.709	337.62
605.918	324.62
606.126	327.62
606.334	341.62
606.543	300.62
606.751	323.62
606.96	288.62
607.168	309.62
607.376	306.62
607.585	315.62
607.793	321.62
608.001	313.62
608.21	313.62
608.418	304.62
608.626	322.62
608.834	299.62
609.043	321.62
609.251	311.62
609.459	309.62
609.667	306.62
609.875	292.62
610.083	314.62
610.291	321.62
610.499	318.62
610.707	312.62
610.916	308.62
611.124	298.62
611.332	294.62
611.54	310.62
611.748	311.62
611.955	305.62
612.163	282.62
612.371	292.62
612.579	297.62
612.787	311.62
612.995	295.62
613.203	302.62
613.411	286.62
613.618	291.62
613.826	300.62
614.034	296.62
614.242	303.62
614.449	291.62
614.657	290.62
614.865	296.62
615.072	293.62
615.28	304.62
615.488	297.62
615.695	302.62
615.903	306.62
616.111	300.62
616.318	304.62
616.526	292.62
616.733	298.62
616.941	321.62
617.148	320.62
617.356	304.62
617.563	311.62
617.771	297.62
617.978	282.62
618.185	280.62
618.393	313.62
618.6	300.62
618.807	300.62
619.015	293.62
619.222	304.62
619.429	297.62
619.637	281.62
619.844	297.62
620.051	276.62
620.258	293.62
620.466	272.62
620.673	265.62
620.88	270.62
621.087	274.62
621.294	267.62
621.501	278.62
621.708	265.62
621.915	266.62
622.122	262.62
622.329	264.62
622.536	288.62
622.743	271.62
622.95	271.62
623.157	265.62
623.364	256.62
623.571	266.62
623.778	268.62
623.985	278.62
624.192	282.62
624.399	251.62
624.606	262.62
624.812	274.62
625.019	256.62
625.226	286.62
625.433	268.62
625.639	250.62
625.846	269.62
626.053	285.62
626.259	290.62
626.466	262.62
626.673	263.62
626.879	256.62
627.086	239.62
627.293	245.62
627.499	227.62
627.706	249.62
627.912	250.62
628.119	250.62
628.325	252.62
628.532	259.62
628.738	242.62
628.945	243.62
629.151	236.62
629.357	234.62
629.564	230.62
629.77	247.62
629.976	240.62
630.183	243.62
630.389	238.62
630.595	228.62
630.802	258.62
631.008	232.62
631.214	219.62
631.42	222.62
631.627	241.62
631.833	214.62
632.039	224.62
632.245	238.62
632.451	228.62
632.657	234.62
632.863	215.62
633.069	234.62
633.275	223.62
633.481	204.62
633.688	219.62
633.893	231.62
634.099	225.62
634.305	228.62
634.511	219.62
634.717	249.62
634.923	230.62
635.129	229.62
635.335	213.62
635.541	213.62
635.747	216.62
635.952	216.62
636.158	212.62
636.364	196.62
636.57	228.62
636.775	219.62
636.981	203.62
637.187	218.62
637.392	209.62
637.598	203.62
637.804	214.62
638.009	208.62
638.215	207.62
638.421	225.62
638.626	218.62
638.832	208.62
639.037	208.62
639.243	209.62
639.448	203.62
639.654	226.62
639.859	220.62
640.065	183.62
640.27	215.62
640.475	204.62
640.681	209.62
640.886	205.62
641.091	203.62
641.297	190.62
641.502	204.62
641.707	203.62
641.913	190.62
642.118	201.62
642.323	194.62
642.528	207.62
642.733	203.62
642.939	210.62
643.144	208.62
643.349	202.62
643.554	201.62
643.759	184.62
643.964	188.62
644.169	188.62
644.374	207.62
644.579	182.62
644.784	192.62
644.989	197.62
645.194	203.62
645.399	200.62
645.604	191.62
645.809	200.62
646.014	197.62
646.219	213.62
646.423	207.62
646.628	203.62
646.833	213.62
647.038	218.62
647.243	196.62
647.447	207.62
647.652	214.62
647.857	206.62
648.062	203.62
648.266	221.62
648.471	239.62
648.676	201.62
648.88	218.62
649.085	206.62
649.289	200.62
649.494	197.62
649.698	196.62
649.903	196.62
650.107	188.62
650.312	198.62
650.516	192.62
650.721	203.62
650.925	180.62
651.13	193.62
651.334	183.62
651.539	179.62
651.743	171.62
651.947	178.62
652.152	176.62
652.356	172.62
652.56	172.62
652.764	175.62
652.969	155.62
653.173	184.62
653.377	156.62
653.581	165.62
653.785	164.62
653.99	162.62
654.194	155.62
654.398	172.62
654.602	166.62
654.806	153.62
655.01	160.62
655.214	144.62
655.418	168.62
655.622	164.62
655.826	151.62
656.03	140.62
656.234	152.62
656.438	147.62
656.642	161.62
656.846	155.62
657.049	140.62
657.253	157.62
657.457	136.62
657.661	129.62
657.865	135.62
658.068	122.62
658.272	120.62
658.476	116.62
658.68	128.62
658.883	107.62
659.087	123.62
659.291	110.62
659.494	102.62
659.698	94.62
659.901	102.62
660.105	89.62
660.309	112.62
660.512	97.62
660.716	81.62
660.919	98.62
661.123	112.62
661.326	100.62
661.53	83.62
661.733	91.62
661.936	88.62
662.14	75.62
662.343	86.62
662.546	69.62
662.75	96.62
662.953	91.62
663.156	81.62
663.36	70.62
663.563	74.62
663.766	86.62
663.969	90.62
664.173	71.62
664.376	71.62
664.579	93.62
664.782	86.62
664.985	71.62
665.188	82.62
665.391	76.62
665.594	76.62
665.797	76.62
666	74.62
666.203	82.62
666.406	103.62
666.609	69.62
666.812	81.62
667.015	74.62
667.218	86.62
667.421	92.62
667.624	82.62
667.827	88.62
668.03	82.62
668.232	76.62
668.435	72.62
668.638	96.62
668.841	91.62
669.043	87.62
669.246	77.62
669.449	72.62
669.651	83.62
669.854	75.62
670.057	75.62
670.259	90.62
670.462	83.62
670.665	76.62
670.867	69.62
671.07	78.62
671.272	84.62
671.475	87.62
671.677	68.62
671.88	82.62
672.082	66.62
672.284	73.62
672.487	89.62
672.689	74.62
672.892	81.62
