Data from NiCl2@0.0625M.TitratingCurve.Agarose3%dH2O.NegLispCup.LampEnergy10.LIBS07252019_HRD10591_18-33-46-577.txt Node
Date: Thu Jul 25 18:33:46 EDT 2019
User: cochatt
Spectrometer: HR+D1059
Trigger mode: 1
Integration Time (sec): 1.000000E-1
Scans to average: 1
Electric dark correction enabled: true
Nonlinearity correction enabled: false
Boxcar width: 0
XAxis mode: Wavelengths
Number of Pixels in Spectrum: 2048
>>>>>Begin Spectral Data<<<<<
223.165	-10.88
223.4	-10.88
223.635	-10.88
223.869	-25.88
224.104	-14.88
224.338	-17.88
224.573	-15.88
224.808	-18.88
225.042	-22.88
225.277	10.12
225.511	6.12
225.746	4.12
225.98	4.12
226.215	15.12
226.449	13.12
226.683	6.12
226.918	33.12
227.152	35.12
227.387	57.12
227.621	36.12
227.856	41.12
228.09	41.12
228.324	49.12
228.559	67.12
228.793	81.12
229.027	157.12
229.262	161.12
229.496	161.12
229.73	154.12
229.964	183.12
230.199	195.12
230.433	196.12
230.667	197.12
230.901	190.12
231.136	196.12
231.37	197.12
231.604	207.12
231.838	207.12
232.072	210.12
232.306	196.12
232.541	225.12
232.775	207.12
233.009	208.12
233.243	201.12
233.477	217.12
233.711	228.12
233.945	222.12
234.179	219.12
234.413	222.12
234.647	231.12
234.881	230.12
235.115	238.12
235.349	224.12
235.583	222.12
235.817	229.12
236.051	223.12
236.285	238.12
236.519	246.12
236.753	244.12
236.987	247.12
237.221	245.12
237.455	218.12
237.689	242.12
237.922	257.12
238.156	262.12
238.39	262.12
238.624	262.12
238.858	253.12
239.091	274.12
239.325	272.12
239.559	288.12
239.793	295.12
240.027	301.12
240.26	294.12
240.494	292.12
240.728	295.12
240.961	287.12
241.195	310.12
241.429	290.12
241.662	311.12
241.896	307.12
242.13	311.12
242.363	315.12
242.597	316.12
242.83	325.12
243.064	325.12
243.298	319.12
243.531	327.12
243.765	364.12
243.998	342.12
244.232	351.12
244.465	341.12
244.699	345.12
244.932	356.12
245.166	337.12
245.399	362.12
245.633	366.12
245.866	351.12
246.099	352.12
246.333	377.12
246.566	385.12
246.8	364.12
247.033	375.12
247.266	381.12
247.5	383.12
247.733	380.12
247.966	405.12
248.2	415.12
248.433	415.12
248.666	409.12
248.899	418.12
249.133	406.12
249.366	423.12
249.599	421.12
249.832	434.12
250.066	407.12
250.299	440.12
250.532	423.12
250.765	417.12
250.998	442.12
251.231	447.12
251.465	466.12
251.698	450.12
251.931	466.12
252.164	460.12
252.397	459.12
252.63	460.12
252.863	457.12
253.096	466.12
253.329	475.12
253.562	443.12
253.795	492.12
254.028	481.12
254.261	477.12
254.494	504.12
254.727	478.12
254.96	504.12
255.193	491.12
255.426	495.12
255.659	488.12
255.892	504.12
256.124	503.12
256.357	493.12
256.59	494.12
256.823	507.12
257.056	514.12
257.289	513.12
257.521	518.12
257.754	520.12
257.987	539.12
258.22	537.12
258.452	524.12
258.685	564.12
258.918	546.12
259.151	545.12
259.383	539.12
259.616	547.12
259.849	554.12
260.081	563.12
260.314	598.12
260.547	574.12
260.779	569.12
261.012	579.12
261.244	597.12
261.477	574.12
261.71	600.12
261.942	564.12
262.175	595.12
262.407	590.12
262.64	582.12
262.872	596.12
263.105	586.12
263.337	606.12
263.57	595.12
263.802	591.12
264.035	586.12
264.267	582.12
264.499	600.12
264.732	601.12
264.964	603.12
265.197	610.12
265.429	616.12
265.661	604.12
265.894	629.12
266.126	637.12
266.358	641.12
266.591	603.12
266.823	651.12
267.055	638.12
267.287	625.12
267.52	630.12
267.752	655.12
267.984	651.12
268.216	645.12
268.448	656.12
268.681	652.12
268.913	640.12
269.145	659.12
269.377	671.12
269.609	667.12
269.841	659.12
270.073	670.12
270.306	668.12
270.538	643.12
270.77	677.12
271.002	663.12
271.234	705.12
271.466	684.12
271.698	680.12
271.93	697.12
272.162	715.12
272.394	724.12
272.626	686.12
272.858	709.12
273.09	703.12
273.322	716.12
273.553	700.12
273.785	741.12
274.017	729.12
274.249	767.12
274.481	761.12
274.713	737.12
274.945	757.12
275.176	747.12
275.408	745.12
275.64	774.12
275.872	762.12
276.104	788.12
276.335	756.12
276.567	741.12
276.799	745.12
277.031	768.12
277.262	756.12
277.494	769.12
277.726	758.12
277.957	775.12
278.189	772.12
278.421	802.12
278.652	793.12
278.884	802.12
279.115	788.12
279.347	794.12
279.579	804.12
279.81	783.12
280.042	792.12
280.273	788.12
280.505	801.12
280.736	812.12
280.968	840.12
281.199	843.12
281.431	860.12
281.662	829.12
281.894	830.12
282.125	859.12
282.356	842.12
282.588	841.12
282.819	870.12
283.051	855.12
283.282	874.12
283.513	866.12
283.745	875.12
283.976	863.12
284.207	888.12
284.439	838.12
284.67	863.12
284.901	878.12
285.132	879.12
285.364	866.12
285.595	877.12
285.826	897.12
286.057	881.12
286.288	893.12
286.52	888.12
286.751	912.12
286.982	883.12
287.213	918.12
287.444	922.12
287.675	908.12
287.906	926.12
288.138	913.12
288.369	926.12
288.6	970.12
288.831	909.12
289.062	923.12
289.293	944.12
289.524	928.12
289.755	962.12
289.986	933.12
290.217	942.12
290.448	917.12
290.679	924.12
290.91	930.12
291.141	947.12
291.371	967.12
291.602	973.12
291.833	923.12
292.064	924.12
292.295	929.12
292.526	926.12
292.757	965.12
292.987	947.12
293.218	939.12
293.449	958.12
293.68	970.12
293.91	968.12
294.141	925.12
294.372	942.12
294.603	934.12
294.833	956.12
295.064	963.12
295.295	970.12
295.525	955.12
295.756	1002.12
295.987	1002.12
296.217	1000.12
296.448	935.12
296.679	996.12
296.909	994.12
297.14	994.12
297.37	1019.12
297.601	1035.12
297.831	1013.12
298.062	994.12
298.292	974.12
298.523	1044.12
298.753	1053.12
298.984	1046.12
299.214	1010.12
299.445	1017.12
299.675	1045.12
299.905	1030.12
300.136	1052.12
300.366	1049.12
300.597	1034.12
300.827	1061.12
301.057	1068.12
301.288	1069.12
301.518	1085.12
301.748	1078.12
301.979	1073.12
302.209	1113.12
302.439	1127.12
302.669	1067.12
302.9	1083.12
303.13	1064.12
303.36	1093.12
303.59	1091.12
303.82	1078.12
304.051	1094.12
304.281	1076.12
304.511	1085.12
304.741	1102.12
304.971	1098.12
305.201	1094.12
305.431	1077.12
305.661	1086.12
305.891	1094.12
306.121	1091.12
306.352	1077.12
306.582	1087.12
306.812	1067.12
307.042	1076.12
307.272	1069.12
307.502	1055.12
307.731	1079.12
307.961	1064.12
308.191	1041.12
308.421	1053.12
308.651	1085.12
308.881	1050.12
309.111	1075.12
309.341	1091.12
309.571	1066.12
309.8	1087.12
310.03	1092.12
310.26	1137.12
310.49	1101.12
310.72	1110.12
310.949	1073.12
311.179	1077.12
311.409	1080.12
311.639	1114.12
311.868	1089.12
312.098	1123.12
312.328	1122.12
312.557	1115.12
312.787	1128.12
313.017	1099.12
313.246	1142.12
313.476	1140.12
313.706	1131.12
313.935	1168.12
314.165	1148.12
314.394	1161.12
314.624	1177.12
314.853	1165.12
315.083	1166.12
315.312	1145.12
315.542	1164.12
315.771	1165.12
316.001	1149.12
316.23	1147.12
316.46	1145.12
316.689	1148.12
316.919	1133.12
317.148	1129.12
317.377	1149.12
317.607	1163.12
317.836	1150.12
318.065	1123.12
318.295	1155.12
318.524	1160.12
318.753	1153.12
318.983	1159.12
319.212	1093.12
319.441	1134.12
319.67	1171.12
319.9	1172.12
320.129	1149.12
320.358	1166.12
320.587	1167.12
320.816	1130.12
321.046	1166.12
321.275	1151.12
321.504	1160.12
321.733	1145.12
321.962	1181.12
322.191	1156.12
322.42	1153.12
322.649	1152.12
322.878	1179.12
323.108	1167.12
323.337	1210.12
323.566	1210.12
323.795	1187.12
324.024	1203.12
324.253	1207.12
324.482	1186.12
324.71	1188.12
324.939	1190.12
325.168	1208.12
325.397	1201.12
325.626	1205.12
325.855	1219.12
326.084	1260.12
326.313	1241.12
326.542	1261.12
326.77	1269.12
326.999	1235.12
327.228	1241.12
327.457	1225.12
327.686	1225.12
327.914	1270.12
328.143	1270.12
328.372	1250.12
328.6	1233.12
328.829	1250.12
329.058	1256.12
329.287	1249.12
329.515	1290.12
329.744	1267.12
329.972	1268.12
330.201	1277.12
330.43	1285.12
330.658	1283.12
330.887	1351.12
331.115	1321.12
331.344	1314.12
331.572	1352.12
331.801	1366.12
332.03	1363.12
332.258	1397.12
332.486	1401.12
332.715	1435.12
332.943	1482.12
333.172	1508.12
333.4	1569.12
333.629	1574.12
333.857	1586.12
334.085	1643.12
334.314	1592.12
334.542	1604.12
334.771	1541.12
334.999	1574.12
335.227	1537.12
335.455	1535.12
335.684	1563.12
335.912	1522.12
336.14	1483.12
336.369	1521.12
336.597	1495.12
336.825	1489.12
337.053	1459.12
337.281	1466.12
337.51	1454.12
337.738	1443.12
337.966	1428.12
338.194	1382.12
338.422	1379.12
338.65	1388.12
338.878	1397.12
339.106	1405.12
339.334	1403.12
339.562	1339.12
339.79	1328.12
340.018	1305.12
340.246	1324.12
340.474	1302.12
340.702	1304.12
340.93	1308.12
341.158	1315.12
341.386	1325.12
341.614	1328.12
341.842	1305.12
342.07	1342.12
342.298	1293.12
342.526	1315.12
342.754	1316.12
342.981	1330.12
343.209	1351.12
343.437	1381.12
343.665	1481.12
343.893	1546.12
344.12	1551.12
344.348	1516.12
344.576	1496.12
344.804	1446.12
345.031	1339.12
345.259	1367.12
345.487	1342.12
345.714	1305.12
345.942	1315.12
346.17	1272.12
346.397	1319.12
346.625	1283.12
346.853	1255.12
347.08	1287.12
347.308	1284.12
347.535	1263.12
347.763	1251.12
347.99	1262.12
348.218	1268.12
348.445	1270.12
348.673	1255.12
348.9	1274.12
349.128	1240.12
349.355	1283.12
349.583	1265.12
349.81	1247.12
350.037	1246.12
350.265	1206.12
350.492	1249.12
350.72	1213.12
350.947	1212.12
351.174	1220.12
351.402	1242.12
351.629	1199.12
351.856	1229.12
352.083	1207.12
352.311	1211.12
352.538	1222.12
352.765	1259.12
352.992	1228.12
353.22	1213.12
353.447	1203.12
353.674	1203.12
353.901	1243.12
354.128	1231.12
354.355	1192.12
354.583	1209.12
354.81	1204.12
355.037	1222.12
355.264	1181.12
355.491	1217.12
355.718	1251.12
355.945	1241.12
356.172	1246.12
356.399	1229.12
356.626	1204.12
356.853	1282.12
357.08	1250.12
357.307	1223.12
357.534	1229.12
357.761	1253.12
357.988	1220.12
358.215	1250.12
358.441	1228.12
358.668	1222.12
358.895	1238.12
359.122	1224.12
359.349	1213.12
359.576	1221.12
359.802	1211.12
360.029	1207.12
360.256	1217.12
360.483	1235.12
360.709	1207.12
360.936	1233.12
361.163	1213.12
361.39	1222.12
361.616	1259.12
361.843	1227.12
362.07	1248.12
362.296	1229.12
362.523	1229.12
362.749	1221.12
362.976	1233.12
363.203	1206.12
363.429	1197.12
363.656	1261.12
363.882	1224.12
364.109	1227.12
364.335	1223.12
364.562	1224.12
364.788	1228.12
365.015	1231.12
365.241	1238.12
365.468	1193.12
365.694	1203.12
365.92	1241.12
366.147	1214.12
366.373	1203.12
366.599	1256.12
366.826	1229.12
367.052	1208.12
367.278	1229.12
367.505	1266.12
367.731	1226.12
367.957	1225.12
368.184	1217.12
368.41	1254.12
368.636	1291.12
368.862	1258.12
369.089	1285.12
369.315	1250.12
369.541	1287.12
369.767	1322.12
369.993	1295.12
370.219	1303.12
370.445	1281.12
370.672	1309.12
370.898	1334.12
371.124	1322.12
371.35	1333.12
371.576	1333.12
371.802	1348.12
372.028	1326.12
372.254	1347.12
372.48	1374.12
372.706	1365.12
372.932	1371.12
373.158	1349.12
373.384	1354.12
373.61	1384.12
373.835	1382.12
374.061	1366.12
374.287	1374.12
374.513	1381.12
374.739	1448.12
374.965	1463.12
375.191	1467.12
375.416	1448.12
375.642	1402.12
375.868	1372.12
376.094	1361.12
376.319	1395.12
376.545	1388.12
376.771	1355.12
376.997	1345.12
377.222	1343.12
377.448	1330.12
377.674	1345.12
377.899	1304.12
378.125	1336.12
378.35	1319.12
378.576	1315.12
378.802	1334.12
379.027	1318.12
379.253	1353.12
379.478	1302.12
379.704	1323.12
379.929	1335.12
380.155	1338.12
380.38	1307.12
380.606	1318.12
380.831	1303.12
381.057	1348.12
381.282	1299.12
381.507	1341.12
381.733	1372.12
381.958	1371.12
382.184	1369.12
382.409	1373.12
382.634	1385.12
382.86	1411.12
383.085	1398.12
383.31	1411.12
383.535	1451.12
383.761	1427.12
383.986	1458.12
384.211	1478.12
384.436	1499.12
384.662	1489.12
384.887	1547.12
385.112	1517.12
385.337	1572.12
385.562	1552.12
385.787	1576.12
386.013	1622.12
386.238	1607.12
386.463	1601.12
386.688	1581.12
386.913	1518.12
387.138	1552.12
387.363	1559.12
387.588	1541.12
387.813	1570.12
388.038	1575.12
388.263	1599.12
388.488	1586.12
388.713	1587.12
388.938	1587.12
389.163	1530.12
389.387	1550.12
389.612	1541.12
389.837	1596.12
390.062	1543.12
390.287	1534.12
390.512	1568.12
390.736	1594.12
390.961	1610.12
391.186	1621.12
391.411	1638.12
391.636	1673.12
391.86	1722.12
392.085	1735.12
392.31	1738.12
392.534	1725.12
392.759	1675.12
392.984	1674.12
393.208	1683.12
393.433	1708.12
393.658	1692.12
393.882	1697.12
394.107	1637.12
394.331	1630.12
394.556	1646.12
394.78	1717.12
395.005	1691.12
395.229	1665.12
395.454	1726.12
395.678	1770.12
395.903	1777.12
396.127	1745.12
396.352	1714.12
396.576	1689.12
396.801	1688.12
397.025	1735.12
397.249	1740.12
397.474	1751.12
397.698	1795.12
397.922	1791.12
398.147	1757.12
398.371	1845.12
398.595	1835.12
398.82	1937.12
399.044	2053.12
399.268	2210.12
399.492	2424.12
399.717	2645.12
399.941	2666.12
400.165	2470.12
400.389	2270.12
400.613	2175.12
400.837	2050.12
401.062	1998.12
401.286	1976.12
401.51	1963.12
401.734	1940.12
401.958	1963.12
402.182	1947.12
402.406	1985.12
402.63	1988.12
402.854	2020.12
403.078	2053.12
403.302	2049.12
403.526	2087.12
403.75	2099.12
403.974	2123.12
404.198	2100.12
404.422	2144.12
404.645	2103.12
404.869	2105.12
405.093	2152.12
405.317	2096.12
405.541	2030.12
405.765	2102.12
405.988	2058.12
406.212	2125.12
406.436	2093.12
406.66	2175.12
406.883	2171.12
407.107	2315.12
407.331	2345.12
407.555	2435.12
407.778	2426.12
408.002	2383.12
408.226	2370.12
408.449	2286.12
408.673	2239.12
408.896	2153.12
409.12	2156.12
409.344	2172.12
409.567	2159.12
409.791	2161.12
410.014	2203.12
410.238	2150.12
410.461	2115.12
410.685	2136.12
410.908	2096.12
411.132	2106.12
411.355	2031.12
411.578	2036.12
411.802	2019.12
412.025	2007.12
412.249	2042.12
412.472	2050.12
412.695	1993.12
412.919	1979.12
413.142	1953.12
413.365	1964.12
413.589	1949.12
413.812	1900.12
414.035	1934.12
414.258	1917.12
414.482	1965.12
414.705	2022.12
414.928	1925.12
415.151	1950.12
415.374	1944.12
415.597	1906.12
415.821	1861.12
416.044	1884.12
416.267	1835.12
416.49	1857.12
416.713	1867.12
416.936	1870.12
417.159	1862.12
417.382	1826.12
417.605	1839.12
417.828	1855.12
418.051	1878.12
418.274	1902.12
418.497	1883.12
418.72	1924.12
418.943	1867.12
419.166	1989.12
419.389	2156.12
419.611	2074.12
419.834	2016.12
420.057	1968.12
420.28	1885.12
420.503	1843.12
420.726	1833.12
420.948	1859.12
421.171	1854.12
421.394	1883.12
421.617	1858.12
421.839	1873.12
422.062	1890.12
422.285	1838.12
422.507	1919.12
422.73	1921.12
422.953	1923.12
423.175	1903.12
423.398	1910.12
423.621	1870.12
423.843	1915.12
424.066	1897.12
424.288	1894.12
424.511	1858.12
424.733	1895.12
424.956	1914.12
425.178	1903.12
425.401	1898.12
425.623	1915.12
425.846	1845.12
426.068	1867.12
426.291	1816.12
426.513	1787.12
426.735	1806.12
426.958	1771.12
427.18	1720.12
427.402	1775.12
427.625	1742.12
427.847	1710.12
428.069	1683.12
428.292	1744.12
428.514	1711.12
428.736	1693.12
428.958	1721.12
429.181	1692.12
429.403	1644.12
429.625	1693.12
429.847	1681.12
430.069	1670.12
430.292	1721.12
430.514	1685.12
430.736	1708.12
430.958	1724.12
431.18	1703.12
431.402	1710.12
431.624	1729.12
431.846	1737.12
432.068	1742.12
432.29	1751.12
432.512	1715.12
432.734	1733.12
432.956	1722.12
433.178	1770.12
433.4	1732.12
433.622	1762.12
433.844	1741.12
434.066	1766.12
434.287	1787.12
434.509	1801.12
434.731	1845.12
434.953	1899.12
435.175	1893.12
435.397	1901.12
435.618	1829.12
435.84	1785.12
436.062	1761.12
436.284	1757.12
436.505	1686.12
436.727	1719.12
436.949	1710.12
437.17	1726.12
437.392	1684.12
437.614	1635.12
437.835	1608.12
438.057	1613.12
438.278	1615.12
438.5	1678.12
438.721	1635.12
438.943	1635.12
439.165	1633.12
439.386	1639.12
439.608	1660.12
439.829	1674.12
440.05	1702.12
440.272	1686.12
440.493	1650.12
440.715	1704.12
440.936	1706.12
441.158	1766.12
441.379	1761.12
441.6	1842.12
441.822	1854.12
442.043	1859.12
442.264	1839.12
442.486	1789.12
442.707	1821.12
442.928	1785.12
443.149	1836.12
443.371	1793.12
443.592	1803.12
443.813	1810.12
444.034	1857.12
444.255	1892.12
444.476	1935.12
444.698	2067.12
444.919	2087.12
445.14	2181.12
445.361	1983.12
445.582	1869.12
445.803	1810.12
446.024	1748.12
446.245	1757.12
446.466	1708.12
446.687	1671.12
446.908	1655.12
447.129	1678.12
447.35	1626.12
447.571	1649.12
447.792	1578.12
448.013	1588.12
448.234	1543.12
448.455	1545.12
448.675	1540.12
448.896	1549.12
449.117	1487.12
449.338	1551.12
449.559	1523.12
449.779	1482.12
450	1490.12
450.221	1487.12
450.442	1493.12
450.662	1546.12
450.883	1525.12
451.104	1543.12
451.324	1550.12
451.545	1494.12
451.766	1510.12
451.986	1541.12
452.207	1518.12
452.428	1482.12
452.648	1497.12
452.869	1470.12
453.089	1441.12
453.31	1454.12
453.53	1474.12
453.751	1463.12
453.971	1434.12
454.192	1438.12
454.412	1404.12
454.633	1436.12
454.853	1407.12
455.073	1402.12
455.294	1423.12
455.514	1413.12
455.734	1420.12
455.955	1415.12
456.175	1442.12
456.395	1443.12
456.616	1409.12
456.836	1442.12
457.056	1450.12
457.276	1414.12
457.497	1450.12
457.717	1448.12
457.937	1426.12
458.157	1434.12
458.377	1475.12
458.598	1571.12
458.818	1575.12
459.038	1611.12
459.258	1591.12
459.478	1708.12
459.698	1720.12
459.918	1760.12
460.138	1799.12
460.358	1852.12
460.578	1861.12
460.798	1916.12
461.018	1904.12
461.238	1881.12
461.458	1901.12
461.678	1910.12
461.898	1953.12
462.118	1927.12
462.338	2014.12
462.558	2066.12
462.777	2102.12
462.997	2289.12
463.217	2380.12
463.437	2391.12
463.657	2248.12
463.876	2198.12
464.096	2246.12
464.316	2196.12
464.536	2141.12
464.755	2119.12
464.975	2030.12
465.195	1931.12
465.414	1904.12
465.634	1814.12
465.854	1739.12
466.073	1717.12
466.293	1699.12
466.512	1641.12
466.732	1629.12
466.951	1659.12
467.171	1580.12
467.391	1590.12
467.61	1603.12
467.829	1571.12
468.049	1553.12
468.268	1556.12
468.488	1556.12
468.707	1564.12
468.927	1565.12
469.146	1544.12
469.365	1556.12
469.585	1595.12
469.804	1602.12
470.023	1651.12
470.243	1621.12
470.462	1620.12
470.681	1646.12
470.901	1616.12
471.12	1642.12
471.339	1606.12
471.558	1606.12
471.777	1602.12
471.997	1631.12
472.216	1551.12
472.435	1558.12
472.654	1534.12
472.873	1514.12
473.092	1550.12
473.311	1526.12
473.53	1527.12
473.749	1503.12
473.968	1537.12
474.187	1498.12
474.406	1537.12
474.625	1539.12
474.844	1572.12
475.063	1556.12
475.282	1539.12
475.501	1563.12
475.72	1574.12
475.939	1571.12
476.158	1614.12
476.377	1621.12
476.596	1663.12
476.814	1630.12
477.033	1644.12
477.252	1681.12
477.471	1730.12
477.69	1689.12
477.908	1771.12
478.127	1802.12
478.346	1831.12
478.564	1834.12
478.783	1859.12
479.002	1895.12
479.22	1923.12
479.439	1985.12
479.658	1926.12
479.876	1914.12
480.095	1963.12
480.313	1991.12
480.532	2061.12
480.751	2034.12
480.969	1956.12
481.188	1990.12
481.406	1917.12
481.624	1866.12
481.843	1866.12
482.061	1821.12
482.28	1879.12
482.498	1896.12
482.717	1901.12
482.935	1870.12
483.153	1930.12
483.372	1923.12
483.59	1939.12
483.808	1944.12
484.027	1965.12
484.245	1986.12
484.463	1990.12
484.681	2026.12
484.9	1988.12
485.118	2006.12
485.336	2076.12
485.554	2103.12
485.772	2044.12
485.99	2116.12
486.209	2080.12
486.427	2059.12
486.645	2057.12
486.863	2066.12
487.081	2056.12
487.299	2024.12
487.517	2065.12
487.735	2040.12
487.953	2038.12
488.171	2039.12
488.389	2003.12
488.607	1997.12
488.825	1959.12
489.043	1980.12
489.261	1987.12
489.479	1992.12
489.696	1953.12
489.914	1956.12
490.132	1976.12
490.35	1933.12
490.568	1999.12
490.786	1962.12
491.003	1920.12
491.221	1946.12
491.439	1945.12
491.657	1924.12
491.874	1890.12
492.092	1927.12
492.31	1927.12
492.527	1949.12
492.745	1977.12
492.963	1979.12
493.18	1927.12
493.398	1937.12
493.615	1943.12
493.833	1987.12
494.05	1971.12
494.268	1940.12
494.485	1979.12
494.703	1973.12
494.92	1975.12
495.138	1986.12
495.355	1985.12
495.573	2006.12
495.79	2028.12
496.008	2036.12
496.225	2023.12
496.442	2038.12
496.66	2045.12
496.877	2102.12
497.094	2097.12
497.312	2154.12
497.529	2209.12
497.746	2237.12
497.963	2279.12
498.181	2356.12
498.398	2506.12
498.615	2526.12
498.832	2696.12
499.049	2905.12
499.267	3066.12
499.484	3312.12
499.701	3590.12
499.918	3869.12
500.135	4257.12
500.352	4644.12
500.569	4823.12
500.786	4772.12
501.003	4542.12
501.22	4229.12
501.437	3825.12
501.654	3477.12
501.871	3285.12
502.088	2977.12
502.305	2860.12
502.522	2717.12
502.739	2645.12
502.956	2510.12
503.172	2395.12
503.389	2297.12
503.606	2260.12
503.823	2231.12
504.04	2194.12
504.256	2205.12
504.473	2192.12
504.69	2201.12
504.907	2154.12
505.123	2053.12
505.34	2008.12
505.557	1909.12
505.773	1863.12
505.99	1824.12
506.207	1773.12
506.423	1773.12
506.64	1764.12
506.856	1722.12
507.073	1701.12
507.289	1722.12
507.506	1691.12
507.722	1675.12
507.939	1661.12
508.155	1638.12
508.372	1651.12
508.588	1653.12
508.805	1599.12
509.021	1594.12
509.238	1581.12
509.454	1598.12
509.67	1605.12
509.887	1541.12
510.103	1559.12
510.319	1560.12
510.536	1544.12
510.752	1506.12
510.968	1523.12
511.184	1510.12
511.401	1546.12
511.617	1525.12
511.833	1539.12
512.049	1524.12
512.265	1516.12
512.481	1527.12
512.698	1528.12
512.914	1497.12
513.13	1529.12
513.346	1513.12
513.562	1531.12
513.778	1545.12
513.994	1555.12
514.21	1559.12
514.426	1529.12
514.642	1554.12
514.858	1582.12
515.074	1576.12
515.29	1562.12
515.506	1596.12
515.721	1613.12
515.937	1618.12
516.153	1659.12
516.369	1688.12
516.585	1722.12
516.801	1807.12
517.016	1786.12
517.232	1851.12
517.448	1932.12
517.664	1961.12
517.879	2017.12
518.095	1962.12
518.311	1962.12
518.527	1922.12
518.742	1858.12
518.958	1821.12
519.173	1726.12
519.389	1701.12
519.605	1624.12
519.82	1633.12
520.036	1645.12
520.251	1579.12
520.467	1553.12
520.682	1511.12
520.898	1499.12
521.113	1500.12
521.329	1501.12
521.544	1498.12
521.76	1498.12
521.975	1456.12
522.19	1442.12
522.406	1412.12
522.621	1420.12
522.836	1428.12
523.052	1418.12
523.267	1397.12
523.482	1393.12
523.698	1391.12
523.913	1374.12
524.128	1413.12
524.343	1343.12
524.559	1410.12
524.774	1363.12
524.989	1395.12
525.204	1395.12
525.419	1400.12
525.634	1349.12
525.849	1389.12
526.064	1346.12
526.28	1338.12
526.495	1355.12
526.71	1364.12
526.925	1332.12
527.14	1346.12
527.355	1336.12
527.57	1334.12
527.785	1343.12
527.999	1359.12
528.214	1355.12
528.429	1362.12
528.644	1359.12
528.859	1323.12
529.074	1332.12
529.289	1342.12
529.503	1316.12
529.718	1329.12
529.933	1299.12
530.148	1317.12
530.363	1339.12
530.577	1305.12
530.792	1323.12
531.007	1340.12
531.221	1322.12
531.436	1339.12
531.651	1329.12
531.865	1349.12
532.08	1376.12
532.295	1335.12
532.509	1314.12
532.724	1307.12
532.938	1295.12
533.153	1340.12
533.367	1325.12
533.582	1307.12
533.796	1312.12
534.011	1297.12
534.225	1318.12
534.44	1311.12
534.654	1324.12
534.868	1299.12
535.083	1301.12
535.297	1278.12
535.511	1285.12
535.726	1272.12
535.94	1287.12
536.154	1252.12
536.369	1242.12
536.583	1237.12
536.797	1235.12
537.011	1230.12
537.225	1229.12
537.44	1225.12
537.654	1216.12
537.868	1241.12
538.082	1224.12
538.296	1212.12
538.51	1234.12
538.724	1231.12
538.938	1210.12
539.153	1180.12
539.367	1196.12
539.581	1212.12
539.795	1233.12
540.009	1228.12
540.222	1208.12
540.436	1186.12
540.65	1175.12
540.864	1205.12
541.078	1169.12
541.292	1191.12
541.506	1193.12
541.72	1164.12
541.934	1205.12
542.147	1193.12
542.361	1189.12
542.575	1162.12
542.789	1193.12
543.002	1150.12
543.216	1129.12
543.43	1163.12
543.644	1138.12
543.857	1187.12
544.071	1169.12
544.285	1149.12
544.498	1154.12
544.712	1141.12
544.925	1195.12
545.139	1194.12
545.352	1157.12
545.566	1146.12
545.779	1200.12
545.993	1205.12
546.206	1189.12
546.42	1164.12
546.633	1189.12
546.847	1180.12
547.06	1169.12
547.274	1182.12
547.487	1186.12
547.7	1155.12
547.914	1171.12
548.127	1190.12
548.34	1184.12
548.554	1182.12
548.767	1192.12
548.98	1188.12
549.193	1177.12
549.407	1177.12
549.62	1225.12
549.833	1258.12
550.046	1221.12
550.259	1183.12
550.473	1175.12
550.686	1153.12
550.899	1171.12
551.112	1163.12
551.325	1186.12
551.538	1181.12
551.751	1172.12
551.964	1191.12
552.177	1205.12
552.39	1212.12
552.603	1195.12
552.816	1229.12
553.029	1226.12
553.242	1226.12
553.455	1236.12
553.667	1269.12
553.88	1239.12
554.093	1245.12
554.306	1211.12
554.519	1182.12
554.732	1157.12
554.944	1152.12
555.157	1125.12
555.37	1122.12
555.583	1107.12
555.795	1126.12
556.008	1049.12
556.221	1057.12
556.433	1078.12
556.646	1046.12
556.859	1065.12
557.071	1018.12
557.284	1015.12
557.496	1022.12
557.709	1030.12
557.921	1036.12
558.134	993.12
558.346	995.12
558.559	999.12
558.771	1010.12
558.984	999.12
559.196	994.12
559.409	1000.12
559.621	1007.12
559.833	971.12
560.046	991.12
560.258	977.12
560.47	989.12
560.683	997.12
560.895	983.12
561.107	999.12
561.32	952.12
561.532	997.12
561.744	976.12
561.956	1009.12
562.168	973.12
562.381	980.12
562.593	990.12
562.805	976.12
563.017	990.12
563.229	1010.12
563.441	976.12
563.653	984.12
563.865	983.12
564.077	1014.12
564.289	1010.12
564.501	1030.12
564.713	1075.12
564.925	1060.12
565.137	1112.12
565.349	1121.12
565.561	1128.12
565.773	1147.12
565.985	1217.12
566.197	1290.12
566.408	1330.12
566.62	1384.12
566.832	1465.12
567.044	1493.12
567.255	1497.12
567.467	1543.12
567.679	1631.12
567.891	1643.12
568.102	1662.12
568.314	1628.12
568.526	1466.12
568.737	1352.12
568.949	1288.12
569.161	1250.12
569.372	1160.12
569.584	1091.12
569.795	1102.12
570.007	1025.12
570.218	1013.12
570.43	1005.12
570.641	986.12
570.853	1000.12
571.064	982.12
571.276	970.12
571.487	958.12
571.698	942.12
571.91	917.12
572.121	899.12
572.333	887.12
572.544	859.12
572.755	857.12
572.966	815.12
573.178	830.12
573.389	826.12
573.6	796.12
573.811	799.12
574.023	814.12
574.234	798.12
574.445	790.12
574.656	801.12
574.867	814.12
575.078	806.12
575.289	794.12
575.501	791.12
575.712	787.12
575.923	761.12
576.134	765.12
576.345	748.12
576.556	767.12
576.767	773.12
576.978	760.12
577.188	729.12
577.399	722.12
577.61	750.12
577.821	723.12
578.032	734.12
578.243	719.12
578.454	709.12
578.665	709.12
578.875	719.12
579.086	694.12
579.297	723.12
579.508	710.12
579.718	695.12
579.929	701.12
580.14	694.12
580.35	681.12
580.561	705.12
580.772	682.12
580.982	697.12
581.193	686.12
581.403	684.12
581.614	675.12
581.825	698.12
582.035	671.12
582.246	652.12
582.456	659.12
582.667	643.12
582.877	662.12
583.087	658.12
583.298	645.12
583.508	650.12
583.719	662.12
583.929	649.12
584.139	627.12
584.35	650.12
584.56	665.12
584.77	653.12
584.981	647.12
585.191	645.12
585.401	678.12
585.611	631.12
585.821	644.12
586.032	657.12
586.242	655.12
586.452	657.12
586.662	643.12
586.872	633.12
587.082	631.12
587.292	620.12
587.502	650.12
587.713	625.12
587.923	639.12
588.133	632.12
588.343	635.12
588.553	602.12
588.762	629.12
588.972	634.12
589.182	649.12
589.392	639.12
589.602	626.12
589.812	672.12
590.022	659.12
590.232	633.12
590.441	626.12
590.651	643.12
590.861	657.12
591.071	655.12
591.281	659.12
591.49	659.12
591.7	663.12
591.91	651.12
592.119	662.12
592.329	717.12
592.539	727.12
592.748	708.12
592.958	743.12
593.167	754.12
593.377	741.12
593.587	763.12
593.796	785.12
594.006	775.12
594.215	764.12
594.424	771.12
594.634	753.12
594.843	705.12
595.053	708.12
595.262	687.12
595.472	651.12
595.681	648.12
595.89	637.12
596.1	644.12
596.309	580.12
596.518	607.12
596.727	618.12
596.937	596.12
597.146	585.12
597.355	553.12
597.564	578.12
597.774	561.12
597.983	551.12
598.192	542.12
598.401	553.12
598.61	549.12
598.819	535.12
599.028	530.12
599.237	535.12
599.446	526.12
599.655	537.12
599.864	540.12
600.073	535.12
600.282	549.12
600.491	523.12
600.7	543.12
600.909	514.12
601.118	533.12
601.327	524.12
601.536	521.12
601.745	518.12
601.953	515.12
602.162	517.12
602.371	504.12
602.58	524.12
602.789	504.12
602.997	489.12
603.206	499.12
603.415	519.12
603.623	487.12
603.832	480.12
604.041	492.12
604.249	489.12
604.458	504.12
604.666	469.12
604.875	497.12
605.084	479.12
605.292	491.12
605.501	504.12
605.709	485.12
605.918	467.12
606.126	497.12
606.334	482.12
606.543	466.12
606.751	470.12
606.96	462.12
607.168	464.12
607.376	451.12
607.585	470.12
607.793	478.12
608.001	473.12
608.21	470.12
608.418	468.12
608.626	439.12
608.834	463.12
609.043	455.12
609.251	478.12
609.459	445.12
609.667	474.12
609.875	451.12
610.083	474.12
610.291	452.12
610.499	445.12
610.707	450.12
610.916	468.12
611.124	454.12
611.332	450.12
611.54	438.12
611.748	442.12
611.955	430.12
612.163	446.12
612.371	450.12
612.579	468.12
612.787	441.12
612.995	444.12
613.203	446.12
613.411	426.12
613.618	451.12
613.826	452.12
614.034	449.12
614.242	449.12
614.449	439.12
614.657	429.12
614.865	427.12
615.072	431.12
615.28	426.12
615.488	448.12
615.695	453.12
615.903	462.12
616.111	438.12
616.318	437.12
616.526	475.12
616.733	443.12
616.941	467.12
617.148	437.12
617.356	429.12
617.563	459.12
617.771	403.12
617.978	420.12
618.185	410.12
618.393	436.12
618.6	446.12
618.807	412.12
619.015	440.12
619.222	420.12
619.429	413.12
619.637	406.12
619.844	438.12
620.051	427.12
620.258	413.12
620.466	423.12
620.673	414.12
620.88	408.12
621.087	412.12
621.294	411.12
621.501	399.12
621.708	403.12
621.915	419.12
622.122	411.12
622.329	393.12
622.536	391.12
622.743	402.12
622.95	419.12
623.157	372.12
623.364	394.12
623.571	395.12
623.778	389.12
623.985	383.12
624.192	383.12
624.399	380.12
624.606	387.12
624.812	380.12
625.019	378.12
625.226	398.12
625.433	388.12
625.639	371.12
625.846	386.12
626.053	370.12
626.259	390.12
626.466	376.12
626.673	394.12
626.879	346.12
627.086	365.12
627.293	360.12
627.499	360.12
627.706	381.12
627.912	358.12
628.119	353.12
628.325	353.12
628.532	367.12
628.738	369.12
628.945	351.12
629.151	350.12
629.357	355.12
629.564	365.12
629.77	348.12
629.976	347.12
630.183	334.12
630.389	345.12
630.595	342.12
630.802	343.12
631.008	349.12
631.214	339.12
631.42	340.12
631.627	331.12
631.833	335.12
632.039	335.12
632.245	332.12
632.451	332.12
632.657	328.12
632.863	338.12
633.069	330.12
633.275	324.12
633.481	334.12
633.688	317.12
633.893	323.12
634.099	335.12
634.305	326.12
634.511	321.12
634.717	336.12
634.923	331.12
635.129	327.12
635.335	326.12
635.541	323.12
635.747	315.12
635.952	318.12
636.158	329.12
636.364	325.12
636.57	319.12
636.775	318.12
636.981	317.12
637.187	315.12
637.392	305.12
637.598	309.12
637.804	297.12
638.009	297.12
638.215	289.12
638.421	293.12
638.626	303.12
638.832	310.12
639.037	311.12
639.243	308.12
639.448	305.12
639.654	321.12
639.859	307.12
640.065	297.12
640.27	292.12
640.475	309.12
640.681	302.12
640.886	317.12
641.091	294.12
641.297	298.12
641.502	311.12
641.707	295.12
641.913	290.12
642.118	298.12
642.323	274.12
642.528	313.12
642.733	294.12
642.939	293.12
643.144	279.12
643.349	286.12
643.554	316.12
643.759	280.12
643.964	303.12
644.169	301.12
644.374	276.12
644.579	301.12
644.784	302.12
644.989	298.12
645.194	298.12
645.399	307.12
645.604	302.12
645.809	305.12
646.014	295.12
646.219	295.12
646.423	309.12
646.628	298.12
646.833	306.12
647.038	318.12
647.243	334.12
647.447	298.12
647.652	317.12
647.857	325.12
648.062	316.12
648.266	333.12
648.471	338.12
648.676	323.12
648.88	324.12
649.085	325.12
649.289	310.12
649.494	299.12
649.698	305.12
649.903	314.12
650.107	306.12
650.312	296.12
650.516	313.12
650.721	307.12
650.925	311.12
651.13	291.12
651.334	303.12
651.539	317.12
651.743	301.12
651.947	277.12
652.152	302.12
652.356	305.12
652.56	321.12
652.764	300.12
652.969	289.12
653.173	307.12
653.377	280.12
653.581	282.12
653.785	291.12
653.99	294.12
654.194	298.12
654.398	296.12
654.602	314.12
654.806	293.12
655.01	312.12
655.214	321.12
655.418	318.12
655.622	334.12
655.826	375.12
656.03	382.12
656.234	411.12
656.438	428.12
656.642	436.12
656.846	394.12
657.049	374.12
657.253	327.12
657.457	298.12
657.661	278.12
657.865	244.12
658.068	219.12
658.272	205.12
658.476	200.12
658.68	193.12
658.883	173.12
659.087	177.12
659.291	157.12
659.494	147.12
659.698	150.12
659.901	146.12
660.105	136.12
660.309	126.12
660.512	129.12
660.716	128.12
660.919	116.12
661.123	124.12
661.326	115.12
661.53	108.12
661.733	107.12
661.936	119.12
662.14	91.12
662.343	103.12
662.546	104.12
662.75	95.12
662.953	90.12
663.156	108.12
663.36	93.12
663.563	93.12
663.766	85.12
663.969	89.12
664.173	80.12
664.376	91.12
664.579	88.12
664.782	103.12
664.985	88.12
665.188	81.12
665.391	83.12
665.594	94.12
665.797	79.12
666	87.12
666.203	93.12
666.406	80.12
666.609	76.12
666.812	87.12
667.015	93.12
667.218	94.12
667.421	98.12
667.624	88.12
667.827	86.12
668.03	80.12
668.232	87.12
668.435	77.12
668.638	92.12
668.841	91.12
669.043	71.12
669.246	76.12
669.449	93.12
669.651	89.12
669.854	88.12
670.057	86.12
670.259	79.12
670.462	79.12
670.665	73.12
670.867	94.12
671.07	84.12
671.272	83.12
671.475	86.12
671.677	95.12
671.88	86.12
672.082	88.12
672.284	92.12
672.487	88.12
672.689	70.12
672.892	81.12
