Data from NiCl2@0.0625M.TitratingCurve.Agarose3%dH2O.NegLispCup.LampEnergy10.LIBS07252019_HRD10591_18-33-33-576.txt Node
Date: Thu Jul 25 18:33:33 EDT 2019
User: cochatt
Spectrometer: HR+D1059
Trigger mode: 1
Integration Time (sec): 1.000000E-1
Scans to average: 1
Electric dark correction enabled: true
Nonlinearity correction enabled: false
Boxcar width: 0
XAxis mode: Wavelengths
Number of Pixels in Spectrum: 2048
>>>>>Begin Spectral Data<<<<<
223.165	-13.56
223.4	-13.56
223.635	-13.56
223.869	-23.56
224.104	-15.56
224.338	-5.56
224.573	-16.56
224.808	-33.56
225.042	-9.56
225.277	5.44
225.511	-12.56
225.746	11.44
225.98	7.44
226.215	1.44
226.449	31.44
226.683	26.44
226.918	19.44
227.152	27.44
227.387	25.44
227.621	35.44
227.856	43.44
228.09	46.44
228.324	53.44
228.559	59.44
228.793	62.44
229.027	123.44
229.262	161.44
229.496	153.44
229.73	175.44
229.964	166.44
230.199	178.44
230.433	194.44
230.667	183.44
230.901	193.44
231.136	177.44
231.37	192.44
231.604	196.44
231.838	193.44
232.072	189.44
232.306	193.44
232.541	213.44
232.775	216.44
233.009	190.44
233.243	201.44
233.477	230.44
233.711	220.44
233.945	224.44
234.179	218.44
234.413	207.44
234.647	221.44
234.881	215.44
235.115	231.44
235.349	224.44
235.583	234.44
235.817	228.44
236.051	219.44
236.285	262.44
236.519	241.44
236.753	216.44
236.987	234.44
237.221	224.44
237.455	241.44
237.689	244.44
237.922	246.44
238.156	264.44
238.39	257.44
238.624	241.44
238.858	259.44
239.091	275.44
239.325	277.44
239.559	272.44
239.793	285.44
240.027	261.44
240.26	278.44
240.494	272.44
240.728	280.44
240.961	306.44
241.195	290.44
241.429	288.44
241.662	272.44
241.896	293.44
242.13	318.44
242.363	306.44
242.597	309.44
242.83	308.44
243.064	303.44
243.298	329.44
243.531	334.44
243.765	325.44
243.998	334.44
244.232	320.44
244.465	329.44
244.699	337.44
244.932	348.44
245.166	351.44
245.399	360.44
245.633	353.44
245.866	349.44
246.099	352.44
246.333	350.44
246.566	353.44
246.8	367.44
247.033	365.44
247.266	368.44
247.5	370.44
247.733	374.44
247.966	393.44
248.2	390.44
248.433	388.44
248.666	404.44
248.899	373.44
249.133	391.44
249.366	394.44
249.599	406.44
249.832	411.44
250.066	383.44
250.299	421.44
250.532	416.44
250.765	433.44
250.998	416.44
251.231	426.44
251.465	432.44
251.698	437.44
251.931	414.44
252.164	423.44
252.397	454.44
252.63	448.44
252.863	450.44
253.096	463.44
253.329	457.44
253.562	468.44
253.795	459.44
254.028	467.44
254.261	464.44
254.494	460.44
254.727	466.44
254.96	472.44
255.193	464.44
255.426	489.44
255.659	474.44
255.892	496.44
256.124	491.44
256.357	485.44
256.59	480.44
256.823	499.44
257.056	486.44
257.289	466.44
257.521	481.44
257.754	496.44
257.987	510.44
258.22	473.44
258.452	510.44
258.685	522.44
258.918	537.44
259.151	524.44
259.383	518.44
259.616	517.44
259.849	531.44
260.081	528.44
260.314	567.44
260.547	525.44
260.779	551.44
261.012	531.44
261.244	545.44
261.477	559.44
261.71	575.44
261.942	547.44
262.175	552.44
262.407	591.44
262.64	569.44
262.872	573.44
263.105	560.44
263.337	572.44
263.57	584.44
263.802	593.44
264.035	574.44
264.267	574.44
264.499	587.44
264.732	593.44
264.964	578.44
265.197	591.44
265.429	597.44
265.661	597.44
265.894	593.44
266.126	599.44
266.358	615.44
266.591	593.44
266.823	617.44
267.055	618.44
267.287	644.44
267.52	621.44
267.752	610.44
267.984	629.44
268.216	630.44
268.448	659.44
268.681	638.44
268.913	640.44
269.145	635.44
269.377	665.44
269.609	631.44
269.841	638.44
270.073	654.44
270.306	636.44
270.538	645.44
270.77	635.44
271.002	670.44
271.234	665.44
271.466	692.44
271.698	673.44
271.93	679.44
272.162	674.44
272.394	674.44
272.626	688.44
272.858	695.44
273.09	689.44
273.322	689.44
273.553	695.44
273.785	694.44
274.017	737.44
274.249	695.44
274.481	734.44
274.713	716.44
274.945	704.44
275.176	761.44
275.408	736.44
275.64	771.44
275.872	717.44
276.104	733.44
276.335	748.44
276.567	743.44
276.799	728.44
277.031	745.44
277.262	768.44
277.494	736.44
277.726	779.44
277.957	759.44
278.189	764.44
278.421	780.44
278.652	777.44
278.884	766.44
279.115	775.44
279.347	783.44
279.579	778.44
279.81	807.44
280.042	777.44
280.273	789.44
280.505	775.44
280.736	823.44
280.968	791.44
281.199	823.44
281.431	792.44
281.662	815.44
281.894	821.44
282.125	821.44
282.356	810.44
282.588	847.44
282.819	851.44
283.051	813.44
283.282	845.44
283.513	845.44
283.745	841.44
283.976	852.44
284.207	855.44
284.439	856.44
284.67	883.44
284.901	861.44
285.132	842.44
285.364	832.44
285.595	874.44
285.826	893.44
286.057	874.44
286.288	871.44
286.52	874.44
286.751	908.44
286.982	887.44
287.213	892.44
287.444	879.44
287.675	886.44
287.906	897.44
288.138	907.44
288.369	901.44
288.6	902.44
288.831	888.44
289.062	922.44
289.293	921.44
289.524	897.44
289.755	919.44
289.986	913.44
290.217	913.44
290.448	885.44
290.679	917.44
290.91	930.44
291.141	916.44
291.371	919.44
291.602	947.44
291.833	929.44
292.064	935.44
292.295	928.44
292.526	929.44
292.757	909.44
292.987	924.44
293.218	907.44
293.449	932.44
293.68	934.44
293.91	896.44
294.141	947.44
294.372	919.44
294.603	937.44
294.833	951.44
295.064	945.44
295.295	943.44
295.525	959.44
295.756	954.44
295.987	957.44
296.217	951.44
296.448	957.44
296.679	949.44
296.909	946.44
297.14	959.44
297.37	979.44
297.601	975.44
297.831	979.44
298.062	978.44
298.292	1007.44
298.523	1035.44
298.753	1021.44
298.984	983.44
299.214	1037.44
299.445	1019.44
299.675	990.44
299.905	1019.44
300.136	1026.44
300.366	1019.44
300.597	1023.44
300.827	1052.44
301.057	1043.44
301.288	1025.44
301.518	1079.44
301.748	1081.44
301.979	1068.44
302.209	1067.44
302.439	1073.44
302.669	1049.44
302.9	1060.44
303.13	1056.44
303.36	1063.44
303.59	1056.44
303.82	1049.44
304.051	1072.44
304.281	1064.44
304.511	1039.44
304.741	1078.44
304.971	1065.44
305.201	1076.44
305.431	1041.44
305.661	1078.44
305.891	1044.44
306.121	1064.44
306.352	1063.44
306.582	1049.44
306.812	1011.44
307.042	1054.44
307.272	1057.44
307.502	1033.44
307.731	1055.44
307.961	1047.44
308.191	1054.44
308.421	1016.44
308.651	1046.44
308.881	1046.44
309.111	1053.44
309.341	1034.44
309.571	1100.44
309.8	1083.44
310.03	1046.44
310.26	1060.44
310.49	1065.44
310.72	1056.44
310.949	1081.44
311.179	1083.44
311.409	1054.44
311.639	1081.44
311.868	1060.44
312.098	1095.44
312.328	1125.44
312.557	1106.44
312.787	1119.44
313.017	1093.44
313.246	1120.44
313.476	1121.44
313.706	1100.44
313.935	1140.44
314.165	1127.44
314.394	1129.44
314.624	1130.44
314.853	1090.44
315.083	1122.44
315.312	1126.44
315.542	1142.44
315.771	1120.44
316.001	1104.44
316.23	1122.44
316.46	1115.44
316.689	1154.44
316.919	1126.44
317.148	1100.44
317.377	1133.44
317.607	1141.44
317.836	1105.44
318.065	1141.44
318.295	1142.44
318.524	1108.44
318.753	1117.44
318.983	1120.44
319.212	1111.44
319.441	1117.44
319.67	1113.44
319.9	1128.44
320.129	1101.44
320.358	1112.44
320.587	1128.44
320.816	1122.44
321.046	1139.44
321.275	1130.44
321.504	1081.44
321.733	1113.44
321.962	1113.44
322.191	1122.44
322.42	1133.44
322.649	1111.44
322.878	1126.44
323.108	1166.44
323.337	1162.44
323.566	1125.44
323.795	1155.44
324.024	1165.44
324.253	1189.44
324.482	1171.44
324.71	1185.44
324.939	1173.44
325.168	1173.44
325.397	1179.44
325.626	1180.44
325.855	1218.44
326.084	1172.44
326.313	1224.44
326.542	1243.44
326.77	1225.44
326.999	1225.44
327.228	1202.44
327.457	1222.44
327.686	1199.44
327.914	1237.44
328.143	1212.44
328.372	1227.44
328.6	1215.44
328.829	1205.44
329.058	1247.44
329.287	1251.44
329.515	1238.44
329.744	1259.44
329.972	1248.44
330.201	1230.44
330.43	1269.44
330.658	1291.44
330.887	1256.44
331.115	1266.44
331.344	1304.44
331.572	1289.44
331.801	1302.44
332.03	1331.44
332.258	1346.44
332.486	1419.44
332.715	1393.44
332.943	1449.44
333.172	1477.44
333.4	1552.44
333.629	1578.44
333.857	1582.44
334.085	1565.44
334.314	1565.44
334.542	1534.44
334.771	1581.44
334.999	1541.44
335.227	1533.44
335.455	1565.44
335.684	1472.44
335.912	1532.44
336.14	1493.44
336.369	1483.44
336.597	1487.44
336.825	1483.44
337.053	1479.44
337.281	1432.44
337.51	1431.44
337.738	1418.44
337.966	1365.44
338.194	1354.44
338.422	1370.44
338.65	1344.44
338.878	1373.44
339.106	1337.44
339.334	1345.44
339.562	1363.44
339.79	1327.44
340.018	1325.44
340.246	1304.44
340.474	1290.44
340.702	1277.44
340.93	1316.44
341.158	1305.44
341.386	1297.44
341.614	1316.44
341.842	1281.44
342.07	1248.44
342.298	1296.44
342.526	1258.44
342.754	1272.44
342.981	1279.44
343.209	1320.44
343.437	1389.44
343.665	1415.44
343.893	1510.44
344.12	1484.44
344.348	1474.44
344.576	1412.44
344.804	1405.44
345.031	1337.44
345.259	1331.44
345.487	1276.44
345.714	1279.44
345.942	1287.44
346.17	1274.44
346.397	1306.44
346.625	1263.44
346.853	1229.44
347.08	1238.44
347.308	1228.44
347.535	1183.44
347.763	1235.44
347.99	1221.44
348.218	1224.44
348.445	1233.44
348.673	1213.44
348.9	1250.44
349.128	1242.44
349.355	1222.44
349.583	1202.44
349.81	1185.44
350.037	1187.44
350.265	1222.44
350.492	1196.44
350.72	1201.44
350.947	1181.44
351.174	1207.44
351.402	1184.44
351.629	1187.44
351.856	1172.44
352.083	1169.44
352.311	1188.44
352.538	1203.44
352.765	1203.44
352.992	1187.44
353.22	1193.44
353.447	1186.44
353.674	1176.44
353.901	1166.44
354.128	1165.44
354.355	1155.44
354.583	1155.44
354.81	1168.44
355.037	1171.44
355.264	1188.44
355.491	1170.44
355.718	1181.44
355.945	1203.44
356.172	1199.44
356.399	1213.44
356.626	1224.44
356.853	1211.44
357.08	1185.44
357.307	1199.44
357.534	1204.44
357.761	1219.44
357.988	1220.44
358.215	1177.44
358.441	1167.44
358.668	1165.44
358.895	1206.44
359.122	1191.44
359.349	1192.44
359.576	1191.44
359.802	1197.44
360.029	1218.44
360.256	1194.44
360.483	1188.44
360.709	1183.44
360.936	1200.44
361.163	1209.44
361.39	1186.44
361.616	1189.44
361.843	1203.44
362.07	1208.44
362.296	1213.44
362.523	1190.44
362.749	1215.44
362.976	1192.44
363.203	1177.44
363.429	1180.44
363.656	1237.44
363.882	1172.44
364.109	1163.44
364.335	1178.44
364.562	1197.44
364.788	1157.44
365.015	1174.44
365.241	1226.44
365.468	1197.44
365.694	1197.44
365.92	1227.44
366.147	1214.44
366.373	1198.44
366.599	1211.44
366.826	1163.44
367.052	1194.44
367.278	1207.44
367.505	1226.44
367.731	1218.44
367.957	1172.44
368.184	1219.44
368.41	1227.44
368.636	1209.44
368.862	1219.44
369.089	1247.44
369.315	1238.44
369.541	1244.44
369.767	1238.44
369.993	1246.44
370.219	1237.44
370.445	1241.44
370.672	1262.44
370.898	1271.44
371.124	1291.44
371.35	1327.44
371.576	1294.44
371.802	1298.44
372.028	1288.44
372.254	1311.44
372.48	1323.44
372.706	1364.44
372.932	1323.44
373.158	1309.44
373.384	1320.44
373.61	1313.44
373.835	1331.44
374.061	1288.44
374.287	1290.44
374.513	1330.44
374.739	1382.44
374.965	1374.44
375.191	1430.44
375.416	1425.44
375.642	1341.44
375.868	1344.44
376.094	1328.44
376.319	1321.44
376.545	1305.44
376.771	1344.44
376.997	1319.44
377.222	1325.44
377.448	1294.44
377.674	1273.44
377.899	1281.44
378.125	1269.44
378.35	1283.44
378.576	1299.44
378.802	1288.44
379.027	1291.44
379.253	1313.44
379.478	1283.44
379.704	1316.44
379.929	1262.44
380.155	1272.44
380.38	1289.44
380.606	1275.44
380.831	1287.44
381.057	1285.44
381.282	1305.44
381.507	1290.44
381.733	1312.44
381.958	1287.44
382.184	1324.44
382.409	1351.44
382.634	1335.44
382.86	1341.44
383.085	1357.44
383.31	1390.44
383.535	1417.44
383.761	1423.44
383.986	1453.44
384.211	1452.44
384.436	1455.44
384.662	1478.44
384.887	1522.44
385.112	1495.44
385.337	1551.44
385.562	1570.44
385.787	1555.44
386.013	1563.44
386.238	1538.44
386.463	1582.44
386.688	1570.44
386.913	1551.44
387.138	1545.44
387.363	1542.44
387.588	1543.44
387.813	1572.44
388.038	1537.44
388.263	1522.44
388.488	1532.44
388.713	1577.44
388.938	1505.44
389.163	1533.44
389.387	1538.44
389.612	1522.44
389.837	1540.44
390.062	1543.44
390.287	1519.44
390.512	1535.44
390.736	1567.44
390.961	1585.44
391.186	1609.44
391.411	1629.44
391.636	1652.44
391.86	1707.44
392.085	1695.44
392.31	1720.44
392.534	1684.44
392.759	1653.44
392.984	1657.44
393.208	1656.44
393.433	1669.44
393.658	1661.44
393.882	1597.44
394.107	1578.44
394.331	1628.44
394.556	1622.44
394.78	1679.44
395.005	1649.44
395.229	1652.44
395.454	1730.44
395.678	1736.44
395.903	1734.44
396.127	1743.44
396.352	1717.44
396.576	1681.44
396.801	1658.44
397.025	1725.44
397.249	1727.44
397.474	1736.44
397.698	1725.44
397.922	1760.44
398.147	1743.44
398.371	1827.44
398.595	1871.44
398.82	1905.44
399.044	2015.44
399.268	2186.44
399.492	2429.44
399.717	2658.44
399.941	2660.44
400.165	2501.44
400.389	2314.44
400.613	2167.44
400.837	2056.44
401.062	2004.44
401.286	1990.44
401.51	1926.44
401.734	1953.44
401.958	1968.44
402.182	1952.44
402.406	1945.44
402.63	1959.44
402.854	1998.44
403.078	1981.44
403.302	2062.44
403.526	2055.44
403.75	2065.44
403.974	2117.44
404.198	2114.44
404.422	2117.44
404.645	2083.44
404.869	2103.44
405.093	2106.44
405.317	2058.44
405.541	2074.44
405.765	2076.44
405.988	2067.44
406.212	2078.44
406.436	2136.44
406.66	2183.44
406.883	2177.44
407.107	2293.44
407.331	2388.44
407.555	2430.44
407.778	2410.44
408.002	2355.44
408.226	2303.44
408.449	2272.44
408.673	2238.44
408.896	2139.44
409.12	2118.44
409.344	2181.44
409.567	2168.44
409.791	2126.44
410.014	2117.44
410.238	2091.44
410.461	2089.44
410.685	2044.44
410.908	2120.44
411.132	2064.44
411.355	1985.44
411.578	2059.44
411.802	2001.44
412.025	1985.44
412.249	2061.44
412.472	2015.44
412.695	1945.44
412.919	1932.44
413.142	1970.44
413.365	1918.44
413.589	1937.44
413.812	1910.44
414.035	1917.44
414.258	1898.44
414.482	1929.44
414.705	1890.44
414.928	1922.44
415.151	1917.44
415.374	1903.44
415.597	1965.44
415.821	1877.44
416.044	1864.44
416.267	1841.44
416.49	1853.44
416.713	1853.44
416.936	1866.44
417.159	1804.44
417.382	1855.44
417.605	1866.44
417.828	1854.44
418.051	1859.44
418.274	1845.44
418.497	1865.44
418.72	1901.44
418.943	1872.44
419.166	2003.44
419.389	2135.44
419.611	2104.44
419.834	1947.44
420.057	1937.44
420.28	1909.44
420.503	1838.44
420.726	1839.44
420.948	1843.44
421.171	1852.44
421.394	1851.44
421.617	1816.44
421.839	1841.44
422.062	1853.44
422.285	1809.44
422.507	1865.44
422.73	1831.44
422.953	1873.44
423.175	1858.44
423.398	1885.44
423.621	1867.44
423.843	1936.44
424.066	1955.44
424.288	1915.44
424.511	1910.44
424.733	1921.44
424.956	1885.44
425.178	1857.44
425.401	1861.44
425.623	1847.44
425.846	1800.44
426.068	1837.44
426.291	1775.44
426.513	1795.44
426.735	1776.44
426.958	1757.44
427.18	1695.44
427.402	1757.44
427.625	1705.44
427.847	1712.44
428.069	1693.44
428.292	1709.44
428.514	1683.44
428.736	1656.44
428.958	1712.44
429.181	1651.44
429.403	1628.44
429.625	1627.44
429.847	1643.44
430.069	1673.44
430.292	1690.44
430.514	1616.44
430.736	1689.44
430.958	1693.44
431.18	1658.44
431.402	1653.44
431.624	1685.44
431.846	1673.44
432.068	1686.44
432.29	1718.44
432.512	1659.44
432.734	1693.44
432.956	1656.44
433.178	1704.44
433.4	1727.44
433.622	1705.44
433.844	1737.44
434.066	1728.44
434.287	1745.44
434.509	1821.44
434.731	1832.44
434.953	1849.44
435.175	1883.44
435.397	1888.44
435.618	1784.44
435.84	1712.44
436.062	1685.44
436.284	1715.44
436.505	1700.44
436.727	1701.44
436.949	1678.44
437.17	1649.44
437.392	1634.44
437.614	1652.44
437.835	1607.44
438.057	1585.44
438.278	1611.44
438.5	1585.44
438.721	1615.44
438.943	1600.44
439.165	1614.44
439.386	1613.44
439.608	1637.44
439.829	1656.44
440.05	1652.44
440.272	1659.44
440.493	1650.44
440.715	1689.44
440.936	1685.44
441.158	1720.44
441.379	1754.44
441.6	1850.44
441.822	1842.44
442.043	1851.44
442.264	1834.44
442.486	1753.44
442.707	1767.44
442.928	1805.44
443.149	1801.44
443.371	1785.44
443.592	1822.44
443.813	1831.44
444.034	1840.44
444.255	1874.44
444.476	1993.44
444.698	2024.44
444.919	2098.44
445.14	2148.44
445.361	1977.44
445.582	1889.44
445.803	1782.44
446.024	1754.44
446.245	1726.44
446.466	1709.44
446.687	1665.44
446.908	1674.44
447.129	1621.44
447.35	1621.44
447.571	1605.44
447.792	1546.44
448.013	1572.44
448.234	1538.44
448.455	1535.44
448.675	1505.44
448.896	1486.44
449.117	1471.44
449.338	1519.44
449.559	1460.44
449.779	1473.44
450	1459.44
450.221	1488.44
450.442	1494.44
450.662	1497.44
450.883	1489.44
451.104	1534.44
451.324	1503.44
451.545	1504.44
451.766	1516.44
451.986	1468.44
452.207	1477.44
452.428	1491.44
452.648	1465.44
452.869	1464.44
453.089	1440.44
453.31	1443.44
453.53	1440.44
453.751	1409.44
453.971	1430.44
454.192	1418.44
454.412	1399.44
454.633	1410.44
454.853	1405.44
455.073	1418.44
455.294	1417.44
455.514	1402.44
455.734	1401.44
455.955	1385.44
456.175	1399.44
456.395	1384.44
456.616	1386.44
456.836	1422.44
457.056	1402.44
457.276	1404.44
457.497	1431.44
457.717	1415.44
457.937	1403.44
458.157	1426.44
458.377	1462.44
458.598	1441.44
458.818	1539.44
459.038	1569.44
459.258	1611.44
459.478	1677.44
459.698	1706.44
459.918	1722.44
460.138	1760.44
460.358	1873.44
460.578	1899.44
460.798	1904.44
461.018	1877.44
461.238	1875.44
461.458	1893.44
461.678	1823.44
461.898	1921.44
462.118	1950.44
462.338	2027.44
462.558	2027.44
462.777	2100.44
462.997	2297.44
463.217	2372.44
463.437	2406.44
463.657	2313.44
463.876	2188.44
464.096	2183.44
464.316	2169.44
464.536	2182.44
464.755	2109.44
464.975	2058.44
465.195	1936.44
465.414	1866.44
465.634	1759.44
465.854	1757.44
466.073	1671.44
466.293	1660.44
466.512	1605.44
466.732	1578.44
466.951	1636.44
467.171	1574.44
467.391	1594.44
467.61	1587.44
467.829	1535.44
468.049	1576.44
468.268	1514.44
468.488	1550.44
468.707	1499.44
468.927	1521.44
469.146	1536.44
469.365	1559.44
469.585	1511.44
469.804	1574.44
470.023	1602.44
470.243	1615.44
470.462	1618.44
470.681	1605.44
470.901	1611.44
471.12	1575.44
471.339	1568.44
471.558	1598.44
471.777	1544.44
471.997	1551.44
472.216	1558.44
472.435	1509.44
472.654	1476.44
472.873	1475.44
473.092	1523.44
473.311	1533.44
473.53	1525.44
473.749	1507.44
473.968	1519.44
474.187	1514.44
474.406	1489.44
474.625	1496.44
474.844	1507.44
475.063	1478.44
475.282	1512.44
475.501	1485.44
475.72	1581.44
475.939	1583.44
476.158	1570.44
476.377	1582.44
476.596	1589.44
476.814	1618.44
477.033	1618.44
477.252	1667.44
477.471	1686.44
477.69	1690.44
477.908	1761.44
478.127	1753.44
478.346	1818.44
478.564	1830.44
478.783	1811.44
479.002	1931.44
479.22	1890.44
479.439	1886.44
479.658	1879.44
479.876	1886.44
480.095	1954.44
480.313	1979.44
480.532	2042.44
480.751	2020.44
480.969	1972.44
481.188	1906.44
481.406	1895.44
481.624	1884.44
481.843	1819.44
482.061	1799.44
482.28	1840.44
482.498	1817.44
482.717	1836.44
482.935	1864.44
483.153	1871.44
483.372	1851.44
483.59	1875.44
483.808	1892.44
484.027	1871.44
484.245	1918.44
484.463	1959.44
484.681	1983.44
484.9	1937.44
485.118	1994.44
485.336	1986.44
485.554	2025.44
485.772	2042.44
485.99	2003.44
486.209	2037.44
486.427	2014.44
486.645	2026.44
486.863	2020.44
487.081	2019.44
487.299	1991.44
487.517	1971.44
487.735	2046.44
487.953	1987.44
488.171	2001.44
488.389	1944.44
488.607	1942.44
488.825	1918.44
489.043	1918.44
489.261	1927.44
489.479	1918.44
489.696	1910.44
489.914	1871.44
490.132	1917.44
490.35	1890.44
490.568	1913.44
490.786	1879.44
491.003	1866.44
491.221	1889.44
491.439	1924.44
491.657	1898.44
491.874	1871.44
492.092	1871.44
492.31	1863.44
492.527	1861.44
492.745	1926.44
492.963	1909.44
493.18	1892.44
493.398	1942.44
493.615	1932.44
493.833	1909.44
494.05	1947.44
494.268	1920.44
494.485	1937.44
494.703	1970.44
494.92	1943.44
495.138	1917.44
495.355	1930.44
495.573	1917.44
495.79	1973.44
496.008	1992.44
496.225	1992.44
496.442	1998.44
496.66	2034.44
496.877	2061.44
497.094	2069.44
497.312	2109.44
497.529	2125.44
497.746	2189.44
497.963	2230.44
498.181	2364.44
498.398	2421.44
498.615	2575.44
498.832	2688.44
499.049	2874.44
499.267	3035.44
499.484	3351.44
499.701	3621.44
499.918	3942.44
500.135	4353.44
500.352	4721.44
500.569	4908.44
500.786	4860.44
501.003	4651.44
501.22	4223.44
501.437	3903.44
501.654	3502.44
501.871	3183.44
502.088	3010.44
502.305	2824.44
502.522	2714.44
502.739	2609.44
502.956	2454.44
503.172	2383.44
503.389	2281.44
503.606	2209.44
503.823	2225.44
504.04	2151.44
504.256	2181.44
504.473	2197.44
504.69	2200.44
504.907	2149.44
505.123	2042.44
505.34	1965.44
505.557	1917.44
505.773	1874.44
505.99	1833.44
506.207	1790.44
506.423	1734.44
506.64	1744.44
506.856	1702.44
507.073	1674.44
507.289	1689.44
507.506	1663.44
507.722	1686.44
507.939	1645.44
508.155	1574.44
508.372	1581.44
508.588	1581.44
508.805	1584.44
509.021	1583.44
509.238	1545.44
509.454	1546.44
509.67	1542.44
509.887	1536.44
510.103	1514.44
510.319	1528.44
510.536	1511.44
510.752	1523.44
510.968	1508.44
511.184	1517.44
511.401	1500.44
511.617	1480.44
511.833	1481.44
512.049	1491.44
512.265	1486.44
512.481	1492.44
512.698	1475.44
512.914	1458.44
513.13	1486.44
513.346	1465.44
513.562	1512.44
513.778	1532.44
513.994	1522.44
514.21	1490.44
514.426	1510.44
514.642	1508.44
514.858	1538.44
515.074	1530.44
515.29	1604.44
515.506	1573.44
515.721	1562.44
515.937	1610.44
516.153	1632.44
516.369	1627.44
516.585	1744.44
516.801	1747.44
517.016	1820.44
517.232	1892.44
517.448	1899.44
517.664	1968.44
517.879	1951.44
518.095	1987.44
518.311	1960.44
518.527	1886.44
518.742	1823.44
518.958	1766.44
519.173	1754.44
519.389	1715.44
519.605	1634.44
519.82	1637.44
520.036	1585.44
520.251	1534.44
520.467	1509.44
520.682	1490.44
520.898	1477.44
521.113	1511.44
521.329	1466.44
521.544	1432.44
521.76	1441.44
521.975	1451.44
522.19	1405.44
522.406	1418.44
522.621	1399.44
522.836	1392.44
523.052	1413.44
523.267	1379.44
523.482	1369.44
523.698	1359.44
523.913	1387.44
524.128	1372.44
524.343	1395.44
524.559	1342.44
524.774	1332.44
524.989	1351.44
525.204	1338.44
525.419	1335.44
525.634	1348.44
525.849	1350.44
526.064	1343.44
526.28	1357.44
526.495	1336.44
526.71	1333.44
526.925	1335.44
527.14	1332.44
527.355	1355.44
527.57	1305.44
527.785	1313.44
527.999	1305.44
528.214	1316.44
528.429	1310.44
528.644	1311.44
528.859	1320.44
529.074	1341.44
529.289	1350.44
529.503	1331.44
529.718	1349.44
529.933	1343.44
530.148	1304.44
530.363	1320.44
530.577	1306.44
530.792	1311.44
531.007	1321.44
531.221	1317.44
531.436	1347.44
531.651	1296.44
531.865	1326.44
532.08	1318.44
532.295	1327.44
532.509	1331.44
532.724	1322.44
532.938	1326.44
533.153	1343.44
533.367	1277.44
533.582	1317.44
533.796	1279.44
534.011	1339.44
534.225	1269.44
534.44	1291.44
534.654	1284.44
534.868	1294.44
535.083	1263.44
535.297	1226.44
535.511	1252.44
535.726	1254.44
535.94	1287.44
536.154	1239.44
536.369	1224.44
536.583	1226.44
536.797	1219.44
537.011	1219.44
537.225	1232.44
537.44	1220.44
537.654	1227.44
537.868	1192.44
538.082	1209.44
538.296	1211.44
538.51	1215.44
538.724	1206.44
538.938	1163.44
539.153	1190.44
539.367	1193.44
539.581	1165.44
539.795	1166.44
540.009	1188.44
540.222	1209.44
540.436	1170.44
540.65	1186.44
540.864	1184.44
541.078	1150.44
541.292	1162.44
541.506	1161.44
541.72	1143.44
541.934	1157.44
542.147	1144.44
542.361	1124.44
542.575	1137.44
542.789	1145.44
543.002	1163.44
543.216	1141.44
543.43	1137.44
543.644	1157.44
543.857	1152.44
544.071	1133.44
544.285	1163.44
544.498	1147.44
544.712	1162.44
544.925	1135.44
545.139	1164.44
545.352	1188.44
545.566	1192.44
545.779	1175.44
545.993	1178.44
546.206	1183.44
546.42	1171.44
546.633	1161.44
546.847	1181.44
547.06	1159.44
547.274	1185.44
547.487	1175.44
547.7	1173.44
547.914	1176.44
548.127	1193.44
548.34	1175.44
548.554	1188.44
548.767	1177.44
548.98	1183.44
549.193	1167.44
549.407	1190.44
549.62	1215.44
549.833	1219.44
550.046	1202.44
550.259	1164.44
550.473	1186.44
550.686	1176.44
550.899	1169.44
551.112	1166.44
551.325	1146.44
551.538	1144.44
551.751	1146.44
551.964	1165.44
552.177	1170.44
552.39	1181.44
552.603	1198.44
552.816	1246.44
553.029	1254.44
553.242	1239.44
553.455	1266.44
553.667	1232.44
553.88	1248.44
554.093	1219.44
554.306	1193.44
554.519	1181.44
554.732	1149.44
554.944	1160.44
555.157	1096.44
555.37	1113.44
555.583	1111.44
555.795	1094.44
556.008	1049.44
556.221	1059.44
556.433	1051.44
556.646	987.44
556.859	1046.44
557.071	1028.44
557.284	1057.44
557.496	1013.44
557.709	1012.44
557.921	996.44
558.134	1003.44
558.346	1006.44
558.559	983.44
558.771	998.44
558.984	970.44
559.196	957.44
559.409	967.44
559.621	973.44
559.833	980.44
560.046	937.44
560.258	942.44
560.47	975.44
560.683	974.44
560.895	966.44
561.107	986.44
561.32	937.44
561.532	942.44
561.744	960.44
561.956	943.44
562.168	955.44
562.381	990.44
562.593	965.44
562.805	982.44
563.017	965.44
563.229	981.44
563.441	979.44
563.653	985.44
563.865	971.44
564.077	990.44
564.289	1015.44
564.501	1019.44
564.713	1066.44
564.925	1050.44
565.137	1100.44
565.349	1111.44
565.561	1156.44
565.773	1177.44
565.985	1212.44
566.197	1256.44
566.408	1314.44
566.62	1425.44
566.832	1473.44
567.044	1492.44
567.255	1498.44
567.467	1550.44
567.679	1586.44
567.891	1681.44
568.102	1676.44
568.314	1634.44
568.526	1522.44
568.737	1389.44
568.949	1304.44
569.161	1209.44
569.372	1142.44
569.584	1083.44
569.795	1041.44
570.007	1041.44
570.218	1016.44
570.43	1001.44
570.641	976.44
570.853	984.44
571.064	1009.44
571.276	969.44
571.487	952.44
571.698	919.44
571.91	914.44
572.121	903.44
572.333	885.44
572.544	844.44
572.755	843.44
572.966	841.44
573.178	807.44
573.389	790.44
573.6	788.44
573.811	783.44
574.023	785.44
574.234	813.44
574.445	810.44
574.656	789.44
574.867	789.44
575.078	786.44
575.289	790.44
575.501	783.44
575.712	754.44
575.923	767.44
576.134	742.44
576.345	750.44
576.556	726.44
576.767	739.44
576.978	740.44
577.188	744.44
577.399	740.44
577.61	703.44
577.821	706.44
578.032	718.44
578.243	696.44
578.454	721.44
578.665	683.44
578.875	691.44
579.086	663.44
579.297	673.44
579.508	676.44
579.718	685.44
579.929	687.44
580.14	671.44
580.35	707.44
580.561	677.44
580.772	661.44
580.982	666.44
581.193	672.44
581.403	667.44
581.614	687.44
581.825	655.44
582.035	661.44
582.246	655.44
582.456	641.44
582.667	665.44
582.877	664.44
583.087	643.44
583.298	638.44
583.508	660.44
583.719	663.44
583.929	656.44
584.139	661.44
584.35	637.44
584.56	626.44
584.77	639.44
584.981	627.44
585.191	634.44
585.401	649.44
585.611	643.44
585.821	629.44
586.032	615.44
586.242	618.44
586.452	624.44
586.662	633.44
586.872	660.44
587.082	631.44
587.292	623.44
587.502	635.44
587.713	615.44
587.923	631.44
588.133	625.44
588.343	602.44
588.553	623.44
588.762	628.44
588.972	603.44
589.182	627.44
589.392	659.44
589.602	628.44
589.812	614.44
590.022	621.44
590.232	618.44
590.441	602.44
590.651	618.44
590.861	634.44
591.071	641.44
591.281	656.44
591.49	647.44
591.7	641.44
591.91	675.44
592.119	682.44
592.329	697.44
592.539	695.44
592.748	711.44
592.958	715.44
593.167	722.44
593.377	743.44
593.587	783.44
593.796	754.44
594.006	770.44
594.215	775.44
594.424	769.44
594.634	724.44
594.843	726.44
595.053	702.44
595.262	686.44
595.472	653.44
595.681	630.44
595.89	624.44
596.1	637.44
596.309	624.44
596.518	606.44
596.727	599.44
596.937	575.44
597.146	563.44
597.355	580.44
597.564	582.44
597.774	562.44
597.983	547.44
598.192	553.44
598.401	551.44
598.61	540.44
598.819	550.44
599.028	530.44
599.237	535.44
599.446	519.44
599.655	503.44
599.864	522.44
600.073	543.44
600.282	519.44
600.491	491.44
600.7	519.44
600.909	515.44
601.118	514.44
601.327	513.44
601.536	514.44
601.745	529.44
601.953	484.44
602.162	480.44
602.371	509.44
602.58	488.44
602.789	478.44
602.997	509.44
603.206	506.44
603.415	492.44
603.623	508.44
603.832	495.44
604.041	494.44
604.249	462.44
604.458	480.44
604.666	471.44
604.875	480.44
605.084	481.44
605.292	506.44
605.501	465.44
605.709	481.44
605.918	463.44
606.126	457.44
606.334	466.44
606.543	463.44
606.751	456.44
606.96	455.44
607.168	481.44
607.376	456.44
607.585	466.44
607.793	450.44
608.001	457.44
608.21	470.44
608.418	461.44
608.626	466.44
608.834	468.44
609.043	461.44
609.251	467.44
609.459	445.44
609.667	463.44
609.875	446.44
610.083	438.44
610.291	446.44
610.499	458.44
610.707	449.44
610.916	465.44
611.124	443.44
611.332	454.44
611.54	415.44
611.748	450.44
611.955	455.44
612.163	428.44
612.371	443.44
612.579	446.44
612.787	422.44
612.995	445.44
613.203	426.44
613.411	431.44
613.618	430.44
613.826	431.44
614.034	425.44
614.242	440.44
614.449	434.44
614.657	436.44
614.865	425.44
615.072	433.44
615.28	403.44
615.488	431.44
615.695	426.44
615.903	429.44
616.111	437.44
616.318	439.44
616.526	444.44
616.733	469.44
616.941	433.44
617.148	443.44
617.356	439.44
617.563	425.44
617.771	434.44
617.978	427.44
618.185	433.44
618.393	434.44
618.6	437.44
618.807	415.44
619.015	430.44
619.222	416.44
619.429	419.44
619.637	407.44
619.844	404.44
620.051	408.44
620.258	423.44
620.466	410.44
620.673	378.44
620.88	384.44
621.087	384.44
621.294	399.44
621.501	393.44
621.708	380.44
621.915	411.44
622.122	381.44
622.329	385.44
622.536	395.44
622.743	401.44
622.95	403.44
623.157	388.44
623.364	388.44
623.571	376.44
623.778	376.44
623.985	377.44
624.192	383.44
624.399	375.44
624.606	368.44
624.812	346.44
625.019	357.44
625.226	379.44
625.433	365.44
625.639	354.44
625.846	356.44
626.053	361.44
626.259	378.44
626.466	365.44
626.673	344.44
626.879	347.44
627.086	354.44
627.293	356.44
627.499	355.44
627.706	361.44
627.912	366.44
628.119	363.44
628.325	353.44
628.532	362.44
628.738	374.44
628.945	343.44
629.151	345.44
629.357	350.44
629.564	335.44
629.77	354.44
629.976	343.44
630.183	347.44
630.389	339.44
630.595	328.44
630.802	334.44
631.008	327.44
631.214	342.44
631.42	327.44
631.627	316.44
631.833	317.44
632.039	335.44
632.245	331.44
632.451	320.44
632.657	311.44
632.863	320.44
633.069	326.44
633.275	323.44
633.481	326.44
633.688	328.44
633.893	307.44
634.099	305.44
634.305	331.44
634.511	321.44
634.717	305.44
634.923	323.44
635.129	322.44
635.335	311.44
635.541	296.44
635.747	290.44
635.952	294.44
636.158	296.44
636.364	314.44
636.57	306.44
636.775	321.44
636.981	317.44
637.187	322.44
637.392	288.44
637.598	301.44
637.804	293.44
638.009	289.44
638.215	314.44
638.421	298.44
638.626	299.44
638.832	311.44
639.037	289.44
639.243	301.44
639.448	304.44
639.654	297.44
639.859	294.44
640.065	287.44
640.27	287.44
640.475	288.44
640.681	279.44
640.886	286.44
641.091	309.44
641.297	281.44
641.502	290.44
641.707	285.44
641.913	286.44
642.118	275.44
642.323	289.44
642.528	296.44
642.733	295.44
642.939	291.44
643.144	280.44
643.349	299.44
643.554	295.44
643.759	299.44
643.964	289.44
644.169	272.44
644.374	280.44
644.579	298.44
644.784	292.44
644.989	303.44
645.194	276.44
645.399	292.44
645.604	280.44
645.809	305.44
646.014	306.44
646.219	275.44
646.423	305.44
646.628	271.44
646.833	286.44
647.038	283.44
647.243	304.44
647.447	305.44
647.652	311.44
647.857	294.44
648.062	319.44
648.266	309.44
648.471	289.44
648.676	321.44
648.88	325.44
649.085	318.44
649.289	319.44
649.494	324.44
649.698	299.44
649.903	321.44
650.107	306.44
650.312	306.44
650.516	306.44
650.721	296.44
650.925	285.44
651.13	274.44
651.334	279.44
651.539	289.44
651.743	291.44
651.947	283.44
652.152	282.44
652.356	257.44
652.56	277.44
652.764	276.44
652.969	273.44
653.173	299.44
653.377	267.44
653.581	294.44
653.785	270.44
653.99	268.44
654.194	283.44
654.398	287.44
654.602	287.44
654.806	304.44
655.01	307.44
655.214	312.44
655.418	317.44
655.622	329.44
655.826	339.44
656.03	364.44
656.234	379.44
656.438	409.44
656.642	425.44
656.846	395.44
657.049	352.44
657.253	336.44
657.457	273.44
657.661	253.44
657.865	227.44
658.068	225.44
658.272	187.44
658.476	194.44
658.68	177.44
658.883	165.44
659.087	175.44
659.291	159.44
659.494	136.44
659.698	139.44
659.901	139.44
660.105	122.44
660.309	112.44
660.512	116.44
660.716	116.44
660.919	116.44
661.123	110.44
661.326	102.44
661.53	95.44
661.733	106.44
661.936	89.44
662.14	104.44
662.343	105.44
662.546	89.44
662.75	101.44
662.953	87.44
663.156	87.44
663.36	94.44
663.563	80.44
663.766	94.44
663.969	87.44
664.173	89.44
664.376	93.44
664.579	83.44
664.782	81.44
664.985	91.44
665.188	83.44
665.391	84.44
665.594	75.44
665.797	71.44
666	89.44
666.203	66.44
666.406	79.44
666.609	81.44
666.812	76.44
667.015	66.44
667.218	85.44
667.421	79.44
667.624	81.44
667.827	92.44
668.03	69.44
668.232	81.44
668.435	72.44
668.638	83.44
668.841	90.44
669.043	70.44
669.246	81.44
669.449	92.44
669.651	85.44
669.854	72.44
670.057	76.44
670.259	93.44
670.462	82.44
670.665	85.44
670.867	82.44
671.07	92.44
671.272	82.44
671.475	79.44
671.677	81.44
671.88	98.44
672.082	76.44
672.284	85.44
672.487	79.44
672.689	68.44
672.892	68.44
