Data from NiCl2@0.125M.TitratingCurve.Agarose3%dH2O.NegLispCup.LampEnergy10.LIBS07252019_HRD10591_18-29-12-574.txt Node
Date: Thu Jul 25 18:29:12 EDT 2019
User: cochatt
Spectrometer: HR+D1059
Trigger mode: 1
Integration Time (sec): 1.000000E-1
Scans to average: 1
Electric dark correction enabled: true
Nonlinearity correction enabled: false
Boxcar width: 0
XAxis mode: Wavelengths
Number of Pixels in Spectrum: 2048
>>>>>Begin Spectral Data<<<<<
223.165	-11.75
223.4	-11.75
223.635	-11.75
223.869	-16.75
224.104	-25.75
224.338	-29.75
224.573	-22.75
224.808	-5.75
225.042	-26.75
225.277	-2.75
225.511	4.25
225.746	-0.75
225.98	11.25
226.215	17.25
226.449	26.25
226.683	26.25
226.918	26.25
227.152	31.25
227.387	45.25
227.621	46.25
227.856	39.25
228.09	48.25
228.324	45.25
228.559	45.25
228.793	69.25
229.027	119.25
229.262	116.25
229.496	124.25
229.73	124.25
229.964	116.25
230.199	139.25
230.433	137.25
230.667	133.25
230.901	137.25
231.136	143.25
231.37	153.25
231.604	150.25
231.838	140.25
232.072	156.25
232.306	156.25
232.541	173.25
232.775	157.25
233.009	148.25
233.243	146.25
233.477	162.25
233.711	161.25
233.945	147.25
234.179	169.25
234.413	153.25
234.647	160.25
234.881	174.25
235.115	152.25
235.349	151.25
235.583	159.25
235.817	149.25
236.051	157.25
236.285	176.25
236.519	160.25
236.753	170.25
236.987	158.25
237.221	156.25
237.455	164.25
237.689	173.25
237.922	145.25
238.156	164.25
238.39	179.25
238.624	165.25
238.858	167.25
239.091	180.25
239.325	187.25
239.559	183.25
239.793	189.25
240.027	178.25
240.26	188.25
240.494	192.25
240.728	200.25
240.961	201.25
241.195	195.25
241.429	199.25
241.662	204.25
241.896	187.25
242.13	207.25
242.363	196.25
242.597	201.25
242.83	220.25
243.064	200.25
243.298	217.25
243.531	215.25
243.765	198.25
243.998	221.25
244.232	206.25
244.465	220.25
244.699	219.25
244.932	227.25
245.166	218.25
245.399	247.25
245.633	211.25
245.866	226.25
246.099	228.25
246.333	250.25
246.566	222.25
246.8	259.25
247.033	245.25
247.266	218.25
247.5	227.25
247.733	252.25
247.966	245.25
248.2	246.25
248.433	253.25
248.666	257.25
248.899	263.25
249.133	244.25
249.366	283.25
249.599	255.25
249.832	257.25
250.066	270.25
250.299	273.25
250.532	267.25
250.765	280.25
250.998	263.25
251.231	275.25
251.465	273.25
251.698	281.25
251.931	310.25
252.164	276.25
252.397	283.25
252.63	291.25
252.863	286.25
253.096	285.25
253.329	304.25
253.562	288.25
253.795	289.25
254.028	298.25
254.261	303.25
254.494	295.25
254.727	286.25
254.96	294.25
255.193	308.25
255.426	289.25
255.659	315.25
255.892	321.25
256.124	283.25
256.357	310.25
256.59	311.25
256.823	294.25
257.056	305.25
257.289	315.25
257.521	323.25
257.754	317.25
257.987	329.25
258.22	330.25
258.452	304.25
258.685	324.25
258.918	328.25
259.151	325.25
259.383	329.25
259.616	329.25
259.849	332.25
260.081	352.25
260.314	334.25
260.547	316.25
260.779	317.25
261.012	339.25
261.244	334.25
261.477	348.25
261.71	351.25
261.942	339.25
262.175	345.25
262.407	346.25
262.64	344.25
262.872	346.25
263.105	350.25
263.337	362.25
263.57	352.25
263.802	351.25
264.035	356.25
264.267	361.25
264.499	347.25
264.732	352.25
264.964	363.25
265.197	355.25
265.429	384.25
265.661	375.25
265.894	379.25
266.126	378.25
266.358	396.25
266.591	380.25
266.823	386.25
267.055	381.25
267.287	393.25
267.52	387.25
267.752	388.25
267.984	400.25
268.216	407.25
268.448	400.25
268.681	407.25
268.913	386.25
269.145	385.25
269.377	400.25
269.609	408.25
269.841	380.25
270.073	401.25
270.306	403.25
270.538	405.25
270.77	391.25
271.002	395.25
271.234	415.25
271.466	407.25
271.698	385.25
271.93	413.25
272.162	401.25
272.394	408.25
272.626	396.25
272.858	404.25
273.09	405.25
273.322	415.25
273.553	424.25
273.785	404.25
274.017	421.25
274.249	435.25
274.481	422.25
274.713	432.25
274.945	419.25
275.176	427.25
275.408	441.25
275.64	435.25
275.872	444.25
276.104	429.25
276.335	432.25
276.567	444.25
276.799	439.25
277.031	457.25
277.262	441.25
277.494	422.25
277.726	461.25
277.957	456.25
278.189	467.25
278.421	459.25
278.652	459.25
278.884	468.25
279.115	475.25
279.347	466.25
279.579	474.25
279.81	455.25
280.042	472.25
280.273	447.25
280.505	464.25
280.736	481.25
280.968	459.25
281.199	466.25
281.431	493.25
281.662	478.25
281.894	483.25
282.125	475.25
282.356	493.25
282.588	502.25
282.819	501.25
283.051	496.25
283.282	478.25
283.513	525.25
283.745	495.25
283.976	500.25
284.207	500.25
284.439	503.25
284.67	496.25
284.901	523.25
285.132	528.25
285.364	503.25
285.595	491.25
285.826	510.25
286.057	520.25
286.288	503.25
286.52	516.25
286.751	504.25
286.982	545.25
287.213	514.25
287.444	507.25
287.675	525.25
287.906	526.25
288.138	530.25
288.369	539.25
288.6	557.25
288.831	552.25
289.062	527.25
289.293	536.25
289.524	550.25
289.755	561.25
289.986	556.25
290.217	548.25
290.448	557.25
290.679	541.25
290.91	568.25
291.141	551.25
291.371	569.25
291.602	549.25
291.833	565.25
292.064	563.25
292.295	559.25
292.526	564.25
292.757	556.25
292.987	545.25
293.218	539.25
293.449	559.25
293.68	565.25
293.91	549.25
294.141	558.25
294.372	544.25
294.603	554.25
294.833	554.25
295.064	558.25
295.295	577.25
295.525	580.25
295.756	574.25
295.987	569.25
296.217	578.25
296.448	589.25
296.679	597.25
296.909	584.25
297.14	607.25
297.37	627.25
297.601	579.25
297.831	584.25
298.062	629.25
298.292	621.25
298.523	639.25
298.753	639.25
298.984	603.25
299.214	610.25
299.445	607.25
299.675	589.25
299.905	608.25
300.136	583.25
300.366	616.25
300.597	623.25
300.827	629.25
301.057	635.25
301.288	645.25
301.518	641.25
301.748	631.25
301.979	669.25
302.209	644.25
302.439	654.25
302.669	595.25
302.9	631.25
303.13	593.25
303.36	610.25
303.59	612.25
303.82	600.25
304.051	611.25
304.281	613.25
304.511	617.25
304.741	611.25
304.971	631.25
305.201	636.25
305.431	608.25
305.661	614.25
305.891	614.25
306.121	621.25
306.352	628.25
306.582	630.25
306.812	592.25
307.042	603.25
307.272	590.25
307.502	591.25
307.731	597.25
307.961	627.25
308.191	596.25
308.421	601.25
308.651	616.25
308.881	589.25
309.111	608.25
309.341	606.25
309.571	605.25
309.8	599.25
310.03	607.25
310.26	592.25
310.49	599.25
310.72	585.25
310.949	604.25
311.179	613.25
311.409	612.25
311.639	633.25
311.868	603.25
312.098	609.25
312.328	603.25
312.557	629.25
312.787	620.25
313.017	641.25
313.246	624.25
313.476	631.25
313.706	631.25
313.935	652.25
314.165	673.25
314.394	633.25
314.624	666.25
314.853	659.25
315.083	659.25
315.312	639.25
315.542	635.25
315.771	641.25
316.001	657.25
316.23	630.25
316.46	618.25
316.689	627.25
316.919	639.25
317.148	639.25
317.377	630.25
317.607	631.25
317.836	599.25
318.065	623.25
318.295	636.25
318.524	629.25
318.753	624.25
318.983	627.25
319.212	633.25
319.441	625.25
319.67	627.25
319.9	651.25
320.129	627.25
320.358	621.25
320.587	637.25
320.816	617.25
321.046	624.25
321.275	632.25
321.504	643.25
321.733	619.25
321.962	608.25
322.191	645.25
322.42	638.25
322.649	617.25
322.878	631.25
323.108	638.25
323.337	657.25
323.566	653.25
323.795	657.25
324.024	640.25
324.253	646.25
324.482	651.25
324.71	651.25
324.939	648.25
325.168	644.25
325.397	652.25
325.626	676.25
325.855	664.25
326.084	684.25
326.313	687.25
326.542	705.25
326.77	710.25
326.999	697.25
327.228	687.25
327.457	688.25
327.686	678.25
327.914	701.25
328.143	709.25
328.372	666.25
328.6	693.25
328.829	684.25
329.058	680.25
329.287	679.25
329.515	677.25
329.744	720.25
329.972	685.25
330.201	725.25
330.43	687.25
330.658	687.25
330.887	703.25
331.115	709.25
331.344	736.25
331.572	738.25
331.801	759.25
332.03	746.25
332.258	782.25
332.486	787.25
332.715	833.25
332.943	853.25
333.172	910.25
333.4	930.25
333.629	969.25
333.857	973.25
334.085	964.25
334.314	933.25
334.542	927.25
334.771	900.25
334.999	888.25
335.227	856.25
335.455	865.25
335.684	853.25
335.912	833.25
336.14	816.25
336.369	824.25
336.597	812.25
336.825	815.25
337.053	830.25
337.281	811.25
337.51	793.25
337.738	796.25
337.966	793.25
338.194	746.25
338.422	771.25
338.65	733.25
338.878	730.25
339.106	756.25
339.334	775.25
339.562	752.25
339.79	740.25
340.018	723.25
340.246	726.25
340.474	730.25
340.702	693.25
340.93	727.25
341.158	731.25
341.386	704.25
341.614	716.25
341.842	716.25
342.07	732.25
342.298	706.25
342.526	697.25
342.754	711.25
342.981	715.25
343.209	730.25
343.437	762.25
343.665	797.25
343.893	876.25
344.12	914.25
344.348	875.25
344.576	830.25
344.804	786.25
345.031	757.25
345.259	725.25
345.487	728.25
345.714	705.25
345.942	697.25
346.17	703.25
346.397	673.25
346.625	687.25
346.853	708.25
347.08	699.25
347.308	698.25
347.535	729.25
347.763	725.25
347.99	735.25
348.218	725.25
348.445	708.25
348.673	697.25
348.9	706.25
349.128	705.25
349.355	687.25
349.583	692.25
349.81	679.25
350.037	648.25
350.265	643.25
350.492	671.25
350.72	684.25
350.947	665.25
351.174	662.25
351.402	651.25
351.629	665.25
351.856	661.25
352.083	665.25
352.311	634.25
352.538	669.25
352.765	670.25
352.992	634.25
353.22	638.25
353.447	669.25
353.674	645.25
353.901	676.25
354.128	665.25
354.355	661.25
354.583	663.25
354.81	676.25
355.037	696.25
355.264	678.25
355.491	695.25
355.718	665.25
355.945	651.25
356.172	690.25
356.399	693.25
356.626	680.25
356.853	664.25
357.08	665.25
357.307	670.25
357.534	654.25
357.761	675.25
357.988	701.25
358.215	659.25
358.441	666.25
358.668	660.25
358.895	653.25
359.122	667.25
359.349	658.25
359.576	669.25
359.802	647.25
360.029	683.25
360.256	693.25
360.483	649.25
360.709	653.25
360.936	691.25
361.163	661.25
361.39	677.25
361.616	662.25
361.843	665.25
362.07	652.25
362.296	641.25
362.523	642.25
362.749	682.25
362.976	651.25
363.203	631.25
363.429	678.25
363.656	678.25
363.882	662.25
364.109	658.25
364.335	664.25
364.562	673.25
364.788	632.25
365.015	680.25
365.241	681.25
365.468	665.25
365.694	672.25
365.92	675.25
366.147	631.25
366.373	656.25
366.599	661.25
366.826	671.25
367.052	671.25
367.278	685.25
367.505	643.25
367.731	679.25
367.957	673.25
368.184	672.25
368.41	678.25
368.636	683.25
368.862	667.25
369.089	682.25
369.315	673.25
369.541	672.25
369.767	679.25
369.993	686.25
370.219	683.25
370.445	699.25
370.672	696.25
370.898	713.25
371.124	703.25
371.35	727.25
371.576	730.25
371.802	721.25
372.028	717.25
372.254	709.25
372.48	713.25
372.706	724.25
372.932	760.25
373.158	761.25
373.384	727.25
373.61	710.25
373.835	722.25
374.061	730.25
374.287	744.25
374.513	757.25
374.739	789.25
374.965	762.25
375.191	842.25
375.416	815.25
375.642	788.25
375.868	766.25
376.094	777.25
376.319	737.25
376.545	732.25
376.771	735.25
376.997	726.25
377.222	726.25
377.448	713.25
377.674	736.25
377.899	735.25
378.125	714.25
378.35	727.25
378.576	683.25
378.802	701.25
379.027	715.25
379.253	755.25
379.478	693.25
379.704	720.25
379.929	684.25
380.155	710.25
380.38	710.25
380.606	730.25
380.831	720.25
381.057	695.25
381.282	704.25
381.507	727.25
381.733	725.25
381.958	734.25
382.184	745.25
382.409	736.25
382.634	758.25
382.86	786.25
383.085	773.25
383.31	785.25
383.535	800.25
383.761	812.25
383.986	827.25
384.211	825.25
384.436	847.25
384.662	862.25
384.887	894.25
385.112	892.25
385.337	894.25
385.562	899.25
385.787	890.25
386.013	896.25
386.238	903.25
386.463	919.25
386.688	878.25
386.913	893.25
387.138	860.25
387.363	868.25
387.588	842.25
387.813	863.25
388.038	857.25
388.263	884.25
388.488	868.25
388.713	885.25
388.938	855.25
389.163	828.25
389.387	867.25
389.612	828.25
389.837	847.25
390.062	840.25
390.287	841.25
390.512	825.25
390.736	845.25
390.961	911.25
391.186	873.25
391.411	900.25
391.636	940.25
391.86	955.25
392.085	1016.25
392.31	1038.25
392.534	994.25
392.759	955.25
392.984	934.25
393.208	934.25
393.433	942.25
393.658	958.25
393.882	925.25
394.107	953.25
394.331	922.25
394.556	940.25
394.78	939.25
395.005	946.25
395.229	938.25
395.454	951.25
395.678	995.25
395.903	988.25
396.127	1008.25
396.352	947.25
396.576	923.25
396.801	918.25
397.025	933.25
397.249	922.25
397.474	964.25
397.698	968.25
397.922	1000.25
398.147	974.25
398.371	978.25
398.595	1038.25
398.82	1075.25
399.044	1164.25
399.268	1249.25
399.492	1494.25
399.717	1776.25
399.941	1770.25
400.165	1540.25
400.389	1357.25
400.613	1221.25
400.837	1157.25
401.062	1135.25
401.286	1096.25
401.51	1088.25
401.734	1099.25
401.958	1107.25
402.182	1148.25
402.406	1136.25
402.63	1155.25
402.854	1181.25
403.078	1223.25
403.302	1232.25
403.526	1248.25
403.75	1309.25
403.974	1317.25
404.198	1328.25
404.422	1363.25
404.645	1317.25
404.869	1288.25
405.093	1336.25
405.317	1238.25
405.541	1248.25
405.765	1218.25
405.988	1200.25
406.212	1203.25
406.436	1210.25
406.66	1236.25
406.883	1276.25
407.107	1325.25
407.331	1414.25
407.555	1488.25
407.778	1473.25
408.002	1431.25
408.226	1382.25
408.449	1334.25
408.673	1304.25
408.896	1253.25
409.12	1257.25
409.344	1274.25
409.567	1249.25
409.791	1289.25
410.014	1257.25
410.238	1270.25
410.461	1238.25
410.685	1222.25
410.908	1194.25
411.132	1172.25
411.355	1155.25
411.578	1146.25
411.802	1143.25
412.025	1144.25
412.249	1187.25
412.472	1173.25
412.695	1123.25
412.919	1123.25
413.142	1080.25
413.365	1095.25
413.589	1151.25
413.812	1100.25
414.035	1085.25
414.258	1096.25
414.482	1120.25
414.705	1118.25
414.928	1110.25
415.151	1124.25
415.374	1105.25
415.597	1119.25
415.821	1083.25
416.044	1037.25
416.267	1079.25
416.49	1081.25
416.713	1045.25
416.936	1065.25
417.159	1091.25
417.382	1079.25
417.605	1090.25
417.828	1104.25
418.051	1125.25
418.274	1117.25
418.497	1096.25
418.72	1110.25
418.943	1136.25
419.166	1193.25
419.389	1279.25
419.611	1248.25
419.834	1227.25
420.057	1156.25
420.28	1119.25
420.503	1104.25
420.726	1065.25
420.948	1087.25
421.171	1092.25
421.394	1081.25
421.617	1124.25
421.839	1110.25
422.062	1112.25
422.285	1069.25
422.507	1152.25
422.73	1132.25
422.953	1133.25
423.175	1136.25
423.398	1182.25
423.621	1185.25
423.843	1180.25
424.066	1191.25
424.288	1179.25
424.511	1137.25
424.733	1142.25
424.956	1145.25
425.178	1142.25
425.401	1131.25
425.623	1130.25
425.846	1093.25
426.068	1059.25
426.291	1064.25
426.513	1037.25
426.735	1043.25
426.958	1025.25
427.18	995.25
427.402	1015.25
427.625	988.25
427.847	981.25
428.069	978.25
428.292	1001.25
428.514	959.25
428.736	960.25
428.958	955.25
429.181	952.25
429.403	960.25
429.625	928.25
429.847	940.25
430.069	901.25
430.292	965.25
430.514	941.25
430.736	952.25
430.958	971.25
431.18	934.25
431.402	957.25
431.624	974.25
431.846	959.25
432.068	973.25
432.29	984.25
432.512	965.25
432.734	975.25
432.956	971.25
433.178	977.25
433.4	987.25
433.622	986.25
433.844	1017.25
434.066	994.25
434.287	1005.25
434.509	1016.25
434.731	1091.25
434.953	1126.25
435.175	1140.25
435.397	1097.25
435.618	1042.25
435.84	1011.25
436.062	991.25
436.284	976.25
436.505	953.25
436.727	986.25
436.949	1012.25
437.17	981.25
437.392	980.25
437.614	943.25
437.835	932.25
438.057	924.25
438.278	941.25
438.5	945.25
438.721	930.25
438.943	958.25
439.165	963.25
439.386	962.25
439.608	982.25
439.829	971.25
440.05	998.25
440.272	990.25
440.493	1037.25
440.715	1018.25
440.936	1013.25
441.158	1082.25
441.379	1111.25
441.6	1145.25
441.822	1134.25
442.043	1161.25
442.264	1086.25
442.486	1061.25
442.707	1081.25
442.928	1106.25
443.149	1104.25
443.371	1063.25
443.592	1072.25
443.813	1110.25
444.034	1133.25
444.255	1169.25
444.476	1225.25
444.698	1320.25
444.919	1385.25
445.14	1480.25
445.361	1302.25
445.582	1181.25
445.803	1065.25
446.024	1035.25
446.245	1032.25
446.466	1034.25
446.687	1041.25
446.908	987.25
447.129	982.25
447.35	978.25
447.571	960.25
447.792	928.25
448.013	969.25
448.234	940.25
448.455	921.25
448.675	916.25
448.896	926.25
449.117	883.25
449.338	909.25
449.559	903.25
449.779	892.25
450	876.25
450.221	899.25
450.442	893.25
450.662	906.25
450.883	945.25
451.104	958.25
451.324	911.25
451.545	914.25
451.766	941.25
451.986	933.25
452.207	910.25
452.428	899.25
452.648	901.25
452.869	902.25
453.089	895.25
453.31	905.25
453.53	865.25
453.751	889.25
453.971	913.25
454.192	892.25
454.412	855.25
454.633	881.25
454.853	872.25
455.073	858.25
455.294	855.25
455.514	856.25
455.734	851.25
455.955	815.25
456.175	874.25
456.395	823.25
456.616	842.25
456.836	873.25
457.056	858.25
457.276	836.25
457.497	816.25
457.717	838.25
457.937	883.25
458.157	903.25
458.377	858.25
458.598	884.25
458.818	947.25
459.038	960.25
459.258	968.25
459.478	998.25
459.698	1013.25
459.918	1063.25
460.138	1087.25
460.358	1182.25
460.578	1147.25
460.798	1214.25
461.018	1217.25
461.238	1164.25
461.458	1153.25
461.678	1209.25
461.898	1167.25
462.118	1177.25
462.338	1258.25
462.558	1291.25
462.777	1343.25
462.997	1493.25
463.217	1640.25
463.437	1662.25
463.657	1508.25
463.876	1427.25
464.096	1389.25
464.316	1408.25
464.536	1435.25
464.755	1357.25
464.975	1292.25
465.195	1213.25
465.414	1140.25
465.634	1109.25
465.854	1033.25
466.073	1012.25
466.293	1022.25
466.512	977.25
466.732	974.25
466.951	945.25
467.171	950.25
467.391	965.25
467.61	935.25
467.829	949.25
468.049	961.25
468.268	918.25
468.488	923.25
468.707	913.25
468.927	908.25
469.146	932.25
469.365	900.25
469.585	933.25
469.804	941.25
470.023	967.25
470.243	1003.25
470.462	985.25
470.681	1011.25
470.901	988.25
471.12	966.25
471.339	972.25
471.558	947.25
471.777	938.25
471.997	897.25
472.216	912.25
472.435	905.25
472.654	889.25
472.873	894.25
473.092	881.25
473.311	868.25
473.53	886.25
473.749	877.25
473.968	866.25
474.187	885.25
474.406	855.25
474.625	899.25
474.844	900.25
475.063	891.25
475.282	887.25
475.501	855.25
475.72	880.25
475.939	885.25
476.158	903.25
476.377	957.25
476.596	909.25
476.814	910.25
477.033	912.25
477.252	924.25
477.471	1005.25
477.69	968.25
477.908	1011.25
478.127	1057.25
478.346	1072.25
478.564	1076.25
478.783	1097.25
479.002	1129.25
479.22	1103.25
479.439	1053.25
479.658	1086.25
479.876	1115.25
480.095	1108.25
480.313	1177.25
480.532	1223.25
480.751	1213.25
480.969	1133.25
481.188	1076.25
481.406	1060.25
481.624	1029.25
481.843	1022.25
482.061	1013.25
482.28	1008.25
482.498	984.25
482.717	978.25
482.935	971.25
483.153	984.25
483.372	984.25
483.59	990.25
483.808	1007.25
484.027	998.25
484.245	1005.25
484.463	997.25
484.681	1036.25
484.9	1011.25
485.118	1031.25
485.336	1062.25
485.554	1051.25
485.772	1095.25
485.99	1080.25
486.209	1069.25
486.427	1057.25
486.645	1068.25
486.863	1053.25
487.081	1061.25
487.299	1032.25
487.517	1050.25
487.735	1059.25
487.953	1059.25
488.171	1046.25
488.389	1028.25
488.607	1019.25
488.825	1038.25
489.043	1039.25
489.261	1039.25
489.479	1028.25
489.696	1012.25
489.914	1038.25
490.132	1031.25
490.35	1039.25
490.568	1038.25
490.786	1081.25
491.003	1030.25
491.221	1055.25
491.439	1052.25
491.657	1023.25
491.874	1070.25
492.092	1095.25
492.31	1070.25
492.527	1064.25
492.745	1068.25
492.963	1042.25
493.18	1072.25
493.398	1100.25
493.615	1091.25
493.833	1093.25
494.05	1139.25
494.268	1119.25
494.485	1104.25
494.703	1112.25
494.92	1104.25
495.138	1112.25
495.355	1130.25
495.573	1121.25
495.79	1136.25
496.008	1139.25
496.225	1115.25
496.442	1149.25
496.66	1184.25
496.877	1159.25
497.094	1180.25
497.312	1207.25
497.529	1214.25
497.746	1243.25
497.963	1295.25
498.181	1340.25
498.398	1378.25
498.615	1477.25
498.832	1577.25
499.049	1717.25
499.267	1848.25
499.484	2073.25
499.701	2268.25
499.918	2538.25
500.135	2965.25
500.352	3479.25
500.569	3670.25
500.786	3628.25
501.003	3351.25
501.22	2916.25
501.437	2586.25
501.654	2302.25
501.871	2012.25
502.088	1846.25
502.305	1731.25
502.522	1622.25
502.739	1582.25
502.956	1444.25
503.172	1412.25
503.389	1328.25
503.606	1292.25
503.823	1247.25
504.04	1244.25
504.256	1305.25
504.473	1296.25
504.69	1383.25
504.907	1356.25
505.123	1219.25
505.34	1179.25
505.557	1110.25
505.773	1106.25
505.99	1048.25
506.207	1029.25
506.423	1054.25
506.64	1024.25
506.856	1002.25
507.073	1005.25
507.289	989.25
507.506	968.25
507.722	978.25
507.939	991.25
508.155	965.25
508.372	952.25
508.588	951.25
508.805	918.25
509.021	935.25
509.238	900.25
509.454	885.25
509.67	906.25
509.887	898.25
510.103	907.25
510.319	894.25
510.536	904.25
510.752	872.25
510.968	916.25
511.184	894.25
511.401	927.25
511.617	887.25
511.833	880.25
512.049	871.25
512.265	907.25
512.481	895.25
512.698	897.25
512.914	896.25
513.13	888.25
513.346	900.25
513.562	903.25
513.778	892.25
513.994	895.25
514.21	896.25
514.426	893.25
514.642	923.25
514.858	896.25
515.074	944.25
515.29	924.25
515.506	944.25
515.721	959.25
515.937	967.25
516.153	980.25
516.369	1025.25
516.585	1040.25
516.801	1111.25
517.016	1110.25
517.232	1219.25
517.448	1217.25
517.664	1243.25
517.879	1315.25
518.095	1316.25
518.311	1248.25
518.527	1207.25
518.742	1181.25
518.958	1097.25
519.173	1085.25
519.389	1035.25
519.605	988.25
519.82	962.25
520.036	962.25
520.251	951.25
520.467	945.25
520.682	925.25
520.898	921.25
521.113	926.25
521.329	888.25
521.544	899.25
521.76	876.25
521.975	892.25
522.19	826.25
522.406	870.25
522.621	864.25
522.836	858.25
523.052	884.25
523.267	862.25
523.482	827.25
523.698	829.25
523.913	837.25
524.128	851.25
524.343	855.25
524.559	825.25
524.774	863.25
524.989	839.25
525.204	833.25
525.419	821.25
525.634	819.25
525.849	819.25
526.064	817.25
526.28	803.25
526.495	795.25
526.71	815.25
526.925	834.25
527.14	806.25
527.355	804.25
527.57	816.25
527.785	789.25
527.999	835.25
528.214	828.25
528.429	812.25
528.644	803.25
528.859	829.25
529.074	830.25
529.289	819.25
529.503	804.25
529.718	821.25
529.933	815.25
530.148	793.25
530.363	820.25
530.577	833.25
530.792	812.25
531.007	792.25
531.221	795.25
531.436	815.25
531.651	847.25
531.865	810.25
532.08	824.25
532.295	794.25
532.509	817.25
532.724	812.25
532.938	813.25
533.153	817.25
533.367	824.25
533.582	811.25
533.796	845.25
534.011	828.25
534.225	798.25
534.44	827.25
534.654	795.25
534.868	792.25
535.083	773.25
535.297	776.25
535.511	808.25
535.726	786.25
535.94	769.25
536.154	795.25
536.369	779.25
536.583	760.25
536.797	757.25
537.011	781.25
537.225	764.25
537.44	741.25
537.654	750.25
537.868	755.25
538.082	735.25
538.296	748.25
538.51	775.25
538.724	739.25
538.938	749.25
539.153	738.25
539.367	727.25
539.581	729.25
539.795	734.25
540.009	744.25
540.222	743.25
540.436	741.25
540.65	729.25
540.864	718.25
541.078	736.25
541.292	715.25
541.506	728.25
541.72	732.25
541.934	742.25
542.147	765.25
542.361	706.25
542.575	729.25
542.789	688.25
543.002	710.25
543.216	721.25
543.43	704.25
543.644	704.25
543.857	738.25
544.071	710.25
544.285	724.25
544.498	727.25
544.712	741.25
544.925	743.25
545.139	751.25
545.352	771.25
545.566	756.25
545.779	753.25
545.993	736.25
546.206	739.25
546.42	764.25
546.633	739.25
546.847	739.25
547.06	732.25
547.274	760.25
547.487	720.25
547.7	719.25
547.914	771.25
548.127	763.25
548.34	783.25
548.554	753.25
548.767	773.25
548.98	759.25
549.193	774.25
549.407	734.25
549.62	764.25
549.833	783.25
550.046	790.25
550.259	733.25
550.473	739.25
550.686	779.25
550.899	693.25
551.112	713.25
551.325	721.25
551.538	719.25
551.751	752.25
551.964	747.25
552.177	728.25
552.39	737.25
552.603	766.25
552.816	784.25
553.029	806.25
553.242	811.25
553.455	827.25
553.667	840.25
553.88	816.25
554.093	785.25
554.306	791.25
554.519	753.25
554.732	751.25
554.944	752.25
555.157	710.25
555.37	714.25
555.583	697.25
555.795	688.25
556.008	691.25
556.221	687.25
556.433	667.25
556.646	671.25
556.859	674.25
557.071	675.25
557.284	639.25
557.496	642.25
557.709	651.25
557.921	645.25
558.134	620.25
558.346	637.25
558.559	613.25
558.771	630.25
558.984	614.25
559.196	638.25
559.409	641.25
559.621	608.25
559.833	621.25
560.046	625.25
560.258	593.25
560.47	596.25
560.683	608.25
560.895	608.25
561.107	585.25
561.32	603.25
561.532	606.25
561.744	621.25
561.956	637.25
562.168	624.25
562.381	581.25
562.593	592.25
562.805	627.25
563.017	609.25
563.229	635.25
563.441	627.25
563.653	627.25
563.865	616.25
564.077	624.25
564.289	669.25
564.501	654.25
564.713	647.25
564.925	642.25
565.137	655.25
565.349	661.25
565.561	705.25
565.773	727.25
565.985	769.25
566.197	813.25
566.408	876.25
566.62	949.25
566.832	1027.25
567.044	1073.25
567.255	1042.25
567.467	1103.25
567.679	1165.25
567.891	1254.25
568.102	1301.25
568.314	1225.25
568.526	1100.25
568.737	1004.25
568.949	896.25
569.161	808.25
569.372	748.25
569.584	719.25
569.795	692.25
570.007	649.25
570.218	616.25
570.43	671.25
570.641	634.25
570.853	637.25
571.064	672.25
571.276	664.25
571.487	640.25
571.698	618.25
571.91	605.25
572.121	597.25
572.333	564.25
572.544	581.25
572.755	530.25
572.966	539.25
573.178	540.25
573.389	536.25
573.6	541.25
573.811	528.25
574.023	519.25
574.234	521.25
574.445	528.25
574.656	530.25
574.867	512.25
575.078	513.25
575.289	513.25
575.501	515.25
575.712	503.25
575.923	521.25
576.134	494.25
576.345	464.25
576.556	479.25
576.767	486.25
576.978	476.25
577.188	506.25
577.399	463.25
577.61	478.25
577.821	473.25
578.032	467.25
578.243	470.25
578.454	467.25
578.665	472.25
578.875	473.25
579.086	448.25
579.297	463.25
579.508	440.25
579.718	454.25
579.929	464.25
580.14	439.25
580.35	463.25
580.561	438.25
580.772	458.25
580.982	449.25
581.193	434.25
581.403	469.25
581.614	452.25
581.825	433.25
582.035	433.25
582.246	409.25
582.456	437.25
582.667	452.25
582.877	432.25
583.087	420.25
583.298	440.25
583.508	415.25
583.719	441.25
583.929	428.25
584.139	426.25
584.35	418.25
584.56	421.25
584.77	427.25
584.981	422.25
585.191	447.25
585.401	419.25
585.611	401.25
585.821	419.25
586.032	420.25
586.242	401.25
586.452	419.25
586.662	406.25
586.872	405.25
587.082	392.25
587.292	419.25
587.502	410.25
587.713	405.25
587.923	410.25
588.133	396.25
588.343	417.25
588.553	422.25
588.762	420.25
588.972	415.25
589.182	434.25
589.392	428.25
589.602	451.25
589.812	426.25
590.022	449.25
590.232	427.25
590.441	413.25
590.651	421.25
590.861	443.25
591.071	431.25
591.281	432.25
591.49	448.25
591.7	436.25
591.91	465.25
592.119	454.25
592.329	459.25
592.539	484.25
592.748	503.25
592.958	507.25
593.167	535.25
593.377	542.25
593.587	562.25
593.796	556.25
594.006	556.25
594.215	568.25
594.424	579.25
594.634	549.25
594.843	509.25
595.053	489.25
595.262	464.25
595.472	455.25
595.681	459.25
595.89	430.25
596.1	414.25
596.309	407.25
596.518	432.25
596.727	403.25
596.937	397.25
597.146	381.25
597.355	382.25
597.564	377.25
597.774	391.25
597.983	361.25
598.192	365.25
598.401	365.25
598.61	362.25
598.819	361.25
599.028	372.25
599.237	362.25
599.446	367.25
599.655	374.25
599.864	341.25
600.073	361.25
600.282	364.25
600.491	352.25
600.7	344.25
600.909	348.25
601.118	347.25
601.327	350.25
601.536	348.25
601.745	359.25
601.953	357.25
602.162	348.25
602.371	337.25
602.58	326.25
602.789	347.25
602.997	323.25
603.206	338.25
603.415	348.25
603.623	352.25
603.832	331.25
604.041	327.25
604.249	322.25
604.458	321.25
604.666	323.25
604.875	319.25
605.084	349.25
605.292	344.25
605.501	333.25
605.709	332.25
605.918	328.25
606.126	320.25
606.334	328.25
606.543	318.25
606.751	308.25
606.96	337.25
607.168	311.25
607.376	316.25
607.585	311.25
607.793	315.25
608.001	328.25
608.21	309.25
608.418	331.25
608.626	316.25
608.834	312.25
609.043	304.25
609.251	307.25
609.459	313.25
609.667	328.25
609.875	311.25
610.083	308.25
610.291	307.25
610.499	310.25
610.707	308.25
610.916	315.25
611.124	310.25
611.332	309.25
611.54	300.25
611.748	304.25
611.955	313.25
612.163	314.25
612.371	303.25
612.579	325.25
612.787	312.25
612.995	296.25
613.203	307.25
613.411	299.25
613.618	311.25
613.826	305.25
614.034	315.25
614.242	316.25
614.449	311.25
614.657	299.25
614.865	300.25
615.072	288.25
615.28	312.25
615.488	299.25
615.695	325.25
615.903	313.25
616.111	310.25
616.318	312.25
616.526	328.25
616.733	321.25
616.941	308.25
617.148	324.25
617.356	304.25
617.563	300.25
617.771	301.25
617.978	315.25
618.185	305.25
618.393	305.25
618.6	301.25
618.807	292.25
619.015	309.25
619.222	313.25
619.429	298.25
619.637	302.25
619.844	280.25
620.051	298.25
620.258	297.25
620.466	298.25
620.673	286.25
620.88	276.25
621.087	278.25
621.294	287.25
621.501	272.25
621.708	286.25
621.915	265.25
622.122	277.25
622.329	290.25
622.536	280.25
622.743	282.25
622.95	302.25
623.157	273.25
623.364	287.25
623.571	297.25
623.778	274.25
623.985	274.25
624.192	273.25
624.399	258.25
624.606	264.25
624.812	251.25
625.019	274.25
625.226	267.25
625.433	262.25
625.639	268.25
625.846	282.25
626.053	278.25
626.259	269.25
626.466	256.25
626.673	244.25
626.879	238.25
627.086	256.25
627.293	247.25
627.499	263.25
627.706	245.25
627.912	250.25
628.119	250.25
628.325	252.25
628.532	256.25
628.738	265.25
628.945	235.25
629.151	263.25
629.357	264.25
629.564	260.25
629.77	251.25
629.976	257.25
630.183	214.25
630.389	235.25
630.595	232.25
630.802	224.25
631.008	228.25
631.214	232.25
631.42	235.25
631.627	224.25
631.833	232.25
632.039	219.25
632.245	223.25
632.451	227.25
632.657	241.25
632.863	214.25
633.069	229.25
633.275	229.25
633.481	237.25
633.688	228.25
633.893	233.25
634.099	249.25
634.305	245.25
634.511	231.25
634.717	234.25
634.923	210.25
635.129	213.25
635.335	234.25
635.541	232.25
635.747	214.25
635.952	209.25
636.158	233.25
636.364	219.25
636.57	223.25
636.775	227.25
636.981	223.25
637.187	229.25
637.392	216.25
637.598	215.25
637.804	209.25
638.009	217.25
638.215	201.25
638.421	212.25
638.626	212.25
638.832	204.25
639.037	226.25
639.243	205.25
639.448	199.25
639.654	200.25
639.859	219.25
640.065	208.25
640.27	200.25
640.475	198.25
640.681	203.25
640.886	185.25
641.091	192.25
641.297	206.25
641.502	205.25
641.707	204.25
641.913	213.25
642.118	219.25
642.323	214.25
642.528	207.25
642.733	204.25
642.939	201.25
643.144	193.25
643.349	206.25
643.554	216.25
643.759	196.25
643.964	201.25
644.169	193.25
644.374	188.25
644.579	209.25
644.784	189.25
644.989	189.25
645.194	181.25
645.399	203.25
645.604	189.25
645.809	206.25
646.014	200.25
646.219	194.25
646.423	199.25
646.628	196.25
646.833	191.25
647.038	203.25
647.243	200.25
647.447	205.25
647.652	205.25
647.857	212.25
648.062	203.25
648.266	193.25
648.471	208.25
648.676	212.25
648.88	220.25
649.085	209.25
649.289	202.25
649.494	188.25
649.698	197.25
649.903	202.25
650.107	183.25
650.312	185.25
650.516	163.25
650.721	179.25
650.925	180.25
651.13	171.25
651.334	172.25
651.539	176.25
651.743	173.25
651.947	183.25
652.152	179.25
652.356	171.25
652.56	155.25
652.764	158.25
652.969	154.25
653.173	164.25
653.377	142.25
653.581	149.25
653.785	157.25
653.99	145.25
654.194	143.25
654.398	148.25
654.602	149.25
654.806	149.25
655.01	148.25
655.214	157.25
655.418	152.25
655.622	124.25
655.826	140.25
656.03	130.25
656.234	136.25
656.438	131.25
656.642	138.25
656.846	142.25
657.049	133.25
657.253	126.25
657.457	118.25
657.661	120.25
657.865	115.25
658.068	105.25
658.272	130.25
658.476	112.25
658.68	119.25
658.883	126.25
659.087	112.25
659.291	96.25
659.494	107.25
659.698	105.25
659.901	99.25
660.105	103.25
660.309	90.25
660.512	98.25
660.716	94.25
660.919	104.25
661.123	85.25
661.326	88.25
661.53	92.25
661.733	99.25
661.936	85.25
662.14	97.25
662.343	95.25
662.546	103.25
662.75	94.25
662.953	72.25
663.156	94.25
663.36	87.25
663.563	85.25
663.766	97.25
663.969	73.25
664.173	78.25
664.376	89.25
664.579	74.25
664.782	87.25
664.985	79.25
665.188	97.25
665.391	79.25
665.594	93.25
665.797	88.25
666	88.25
666.203	89.25
666.406	80.25
666.609	89.25
666.812	106.25
667.015	80.25
667.218	85.25
667.421	76.25
667.624	86.25
667.827	79.25
668.03	77.25
668.232	88.25
668.435	83.25
668.638	84.25
668.841	90.25
669.043	79.25
669.246	81.25
669.449	79.25
669.651	90.25
669.854	82.25
670.057	90.25
670.259	88.25
670.462	106.25
670.665	83.25
670.867	80.25
671.07	82.25
671.272	81.25
671.475	85.25
671.677	87.25
671.88	79.25
672.082	92.25
672.284	87.25
672.487	88.25
672.689	80.25
672.892	80.25
