Data from NiCl2@0.0625M.TitratingCurve.Agarose3%dH2O.NegLispCup.LampEnergy10.LIBS07252019_HRD10591_18-32-58-583.txt Node
Date: Thu Jul 25 18:32:58 EDT 2019
User: cochatt
Spectrometer: HR+D1059
Trigger mode: 1
Integration Time (sec): 1.000000E-1
Scans to average: 1
Electric dark correction enabled: true
Nonlinearity correction enabled: false
Boxcar width: 0
XAxis mode: Wavelengths
Number of Pixels in Spectrum: 2048
>>>>>Begin Spectral Data<<<<<
223.165	-25.31
223.4	-25.31
223.635	-25.31
223.869	-18.31
224.104	-12.31
224.338	-11.31
224.573	-14.31
224.808	-22.31
225.042	-15.31
225.277	5.69
225.511	17.69
225.746	3.69
225.98	1.69
226.215	13.69
226.449	17.69
226.683	24.69
226.918	12.69
227.152	21.69
227.387	25.69
227.621	37.69
227.856	40.69
228.09	31.69
228.324	51.69
228.559	53.69
228.793	87.69
229.027	151.69
229.262	168.69
229.496	159.69
229.73	175.69
229.964	187.69
230.199	170.69
230.433	180.69
230.667	175.69
230.901	180.69
231.136	193.69
231.37	201.69
231.604	185.69
231.838	207.69
232.072	218.69
232.306	208.69
232.541	213.69
232.775	202.69
233.009	213.69
233.243	211.69
233.477	217.69
233.711	217.69
233.945	218.69
234.179	221.69
234.413	217.69
234.647	227.69
234.881	228.69
235.115	243.69
235.349	237.69
235.583	231.69
235.817	222.69
236.051	223.69
236.285	231.69
236.519	227.69
236.753	227.69
236.987	240.69
237.221	232.69
237.455	241.69
237.689	254.69
237.922	263.69
238.156	263.69
238.39	251.69
238.624	267.69
238.858	269.69
239.091	273.69
239.325	270.69
239.559	286.69
239.793	284.69
240.027	259.69
240.26	275.69
240.494	282.69
240.728	286.69
240.961	284.69
241.195	309.69
241.429	301.69
241.662	296.69
241.896	305.69
242.13	310.69
242.363	320.69
242.597	322.69
242.83	311.69
243.064	298.69
243.298	341.69
243.531	344.69
243.765	351.69
243.998	342.69
244.232	345.69
244.465	346.69
244.699	346.69
244.932	336.69
245.166	336.69
245.399	350.69
245.633	367.69
245.866	369.69
246.099	379.69
246.333	367.69
246.566	352.69
246.8	375.69
247.033	367.69
247.266	384.69
247.5	360.69
247.733	370.69
247.966	381.69
248.2	409.69
248.433	392.69
248.666	404.69
248.899	402.69
249.133	402.69
249.366	417.69
249.599	429.69
249.832	393.69
250.066	415.69
250.299	419.69
250.532	417.69
250.765	421.69
250.998	440.69
251.231	440.69
251.465	454.69
251.698	447.69
251.931	435.69
252.164	448.69
252.397	453.69
252.63	455.69
252.863	456.69
253.096	453.69
253.329	486.69
253.562	477.69
253.795	455.69
254.028	468.69
254.261	494.69
254.494	472.69
254.727	472.69
254.96	470.69
255.193	476.69
255.426	500.69
255.659	490.69
255.892	493.69
256.124	521.69
256.357	488.69
256.59	496.69
256.823	491.69
257.056	501.69
257.289	487.69
257.521	511.69
257.754	511.69
257.987	517.69
258.22	544.69
258.452	530.69
258.685	545.69
258.918	509.69
259.151	526.69
259.383	523.69
259.616	522.69
259.849	562.69
260.081	546.69
260.314	543.69
260.547	550.69
260.779	568.69
261.012	562.69
261.244	580.69
261.477	554.69
261.71	561.69
261.942	550.69
262.175	547.69
262.407	573.69
262.64	578.69
262.872	587.69
263.105	595.69
263.337	587.69
263.57	593.69
263.802	591.69
264.035	594.69
264.267	599.69
264.499	572.69
264.732	619.69
264.964	594.69
265.197	609.69
265.429	610.69
265.661	619.69
265.894	599.69
266.126	615.69
266.358	606.69
266.591	622.69
266.823	607.69
267.055	631.69
267.287	648.69
267.52	610.69
267.752	629.69
267.984	626.69
268.216	636.69
268.448	665.69
268.681	633.69
268.913	648.69
269.145	648.69
269.377	652.69
269.609	650.69
269.841	665.69
270.073	668.69
270.306	680.69
270.538	665.69
270.77	661.69
271.002	650.69
271.234	676.69
271.466	701.69
271.698	666.69
271.93	695.69
272.162	691.69
272.394	681.69
272.626	703.69
272.858	740.69
273.09	707.69
273.322	726.69
273.553	695.69
273.785	725.69
274.017	725.69
274.249	724.69
274.481	740.69
274.713	709.69
274.945	728.69
275.176	741.69
275.408	718.69
275.64	743.69
275.872	765.69
276.104	758.69
276.335	744.69
276.567	746.69
276.799	771.69
277.031	757.69
277.262	763.69
277.494	777.69
277.726	775.69
277.957	765.69
278.189	791.69
278.421	779.69
278.652	761.69
278.884	770.69
279.115	795.69
279.347	802.69
279.579	806.69
279.81	810.69
280.042	834.69
280.273	798.69
280.505	832.69
280.736	814.69
280.968	801.69
281.199	806.69
281.431	844.69
281.662	833.69
281.894	837.69
282.125	836.69
282.356	843.69
282.588	861.69
282.819	840.69
283.051	881.69
283.282	834.69
283.513	850.69
283.745	867.69
283.976	863.69
284.207	877.69
284.439	895.69
284.67	893.69
284.901	879.69
285.132	890.69
285.364	884.69
285.595	887.69
285.826	879.69
286.057	889.69
286.288	874.69
286.52	897.69
286.751	929.69
286.982	901.69
287.213	924.69
287.444	931.69
287.675	900.69
287.906	895.69
288.138	929.69
288.369	903.69
288.6	925.69
288.831	922.69
289.062	874.69
289.293	929.69
289.524	942.69
289.755	925.69
289.986	943.69
290.217	957.69
290.448	931.69
290.679	948.69
290.91	953.69
291.141	927.69
291.371	928.69
291.602	941.69
291.833	921.69
292.064	949.69
292.295	948.69
292.526	945.69
292.757	947.69
292.987	936.69
293.218	931.69
293.449	964.69
293.68	975.69
293.91	953.69
294.141	953.69
294.372	928.69
294.603	960.69
294.833	963.69
295.064	946.69
295.295	971.69
295.525	964.69
295.756	974.69
295.987	988.69
296.217	975.69
296.448	981.69
296.679	975.69
296.909	979.69
297.14	985.69
297.37	1017.69
297.601	1023.69
297.831	1008.69
298.062	1007.69
298.292	993.69
298.523	1017.69
298.753	1033.69
298.984	1049.69
299.214	1041.69
299.445	1048.69
299.675	1061.69
299.905	1024.69
300.136	1012.69
300.366	1037.69
300.597	1045.69
300.827	1082.69
301.057	1069.69
301.288	1086.69
301.518	1081.69
301.748	1085.69
301.979	1110.69
302.209	1100.69
302.439	1090.69
302.669	1062.69
302.9	1069.69
303.13	1081.69
303.36	1086.69
303.59	1054.69
303.82	1065.69
304.051	1102.69
304.281	1121.69
304.511	1091.69
304.741	1073.69
304.971	1091.69
305.201	1060.69
305.431	1077.69
305.661	1081.69
305.891	1087.69
306.121	1077.69
306.352	1069.69
306.582	1078.69
306.812	1082.69
307.042	1115.69
307.272	1081.69
307.502	1066.69
307.731	1069.69
307.961	1075.69
308.191	1064.69
308.421	1085.69
308.651	1082.69
308.881	1060.69
309.111	1085.69
309.341	1077.69
309.571	1118.69
309.8	1083.69
310.03	1059.69
310.26	1051.69
310.49	1082.69
310.72	1085.69
310.949	1093.69
311.179	1108.69
311.409	1088.69
311.639	1114.69
311.868	1126.69
312.098	1145.69
312.328	1126.69
312.557	1141.69
312.787	1124.69
313.017	1125.69
313.246	1124.69
313.476	1166.69
313.706	1180.69
313.935	1150.69
314.165	1162.69
314.394	1143.69
314.624	1177.69
314.853	1125.69
315.083	1135.69
315.312	1158.69
315.542	1158.69
315.771	1136.69
316.001	1129.69
316.23	1147.69
316.46	1130.69
316.689	1145.69
316.919	1151.69
317.148	1119.69
317.377	1128.69
317.607	1122.69
317.836	1130.69
318.065	1132.69
318.295	1113.69
318.524	1147.69
318.753	1138.69
318.983	1130.69
319.212	1142.69
319.441	1151.69
319.67	1155.69
319.9	1146.69
320.129	1183.69
320.358	1141.69
320.587	1157.69
320.816	1161.69
321.046	1170.69
321.275	1171.69
321.504	1179.69
321.733	1169.69
321.962	1170.69
322.191	1149.69
322.42	1197.69
322.649	1144.69
322.878	1185.69
323.108	1197.69
323.337	1201.69
323.566	1180.69
323.795	1189.69
324.024	1193.69
324.253	1208.69
324.482	1200.69
324.71	1191.69
324.939	1185.69
325.168	1201.69
325.397	1182.69
325.626	1201.69
325.855	1214.69
326.084	1246.69
326.313	1259.69
326.542	1240.69
326.77	1281.69
326.999	1251.69
327.228	1234.69
327.457	1258.69
327.686	1234.69
327.914	1233.69
328.143	1254.69
328.372	1265.69
328.6	1241.69
328.829	1250.69
329.058	1273.69
329.287	1251.69
329.515	1269.69
329.744	1274.69
329.972	1263.69
330.201	1305.69
330.43	1290.69
330.658	1256.69
330.887	1282.69
331.115	1303.69
331.344	1327.69
331.572	1341.69
331.801	1366.69
332.03	1384.69
332.258	1385.69
332.486	1418.69
332.715	1431.69
332.943	1470.69
333.172	1504.69
333.4	1581.69
333.629	1605.69
333.857	1618.69
334.085	1621.69
334.314	1590.69
334.542	1591.69
334.771	1592.69
334.999	1542.69
335.227	1581.69
335.455	1532.69
335.684	1547.69
335.912	1539.69
336.14	1528.69
336.369	1482.69
336.597	1557.69
336.825	1487.69
337.053	1485.69
337.281	1483.69
337.51	1447.69
337.738	1450.69
337.966	1391.69
338.194	1429.69
338.422	1381.69
338.65	1382.69
338.878	1411.69
339.106	1387.69
339.334	1367.69
339.562	1350.69
339.79	1313.69
340.018	1350.69
340.246	1321.69
340.474	1302.69
340.702	1306.69
340.93	1352.69
341.158	1333.69
341.386	1318.69
341.614	1343.69
341.842	1334.69
342.07	1274.69
342.298	1285.69
342.526	1292.69
342.754	1286.69
342.981	1334.69
343.209	1338.69
343.437	1386.69
343.665	1455.69
343.893	1533.69
344.12	1555.69
344.348	1552.69
344.576	1434.69
344.804	1433.69
345.031	1369.69
345.259	1344.69
345.487	1349.69
345.714	1316.69
345.942	1303.69
346.17	1292.69
346.397	1281.69
346.625	1257.69
346.853	1229.69
347.08	1253.69
347.308	1261.69
347.535	1341.69
347.763	1289.69
347.99	1279.69
348.218	1226.69
348.445	1253.69
348.673	1254.69
348.9	1235.69
349.128	1250.69
349.355	1224.69
349.583	1239.69
349.81	1241.69
350.037	1213.69
350.265	1204.69
350.492	1254.69
350.72	1238.69
350.947	1254.69
351.174	1199.69
351.402	1215.69
351.629	1208.69
351.856	1222.69
352.083	1223.69
352.311	1220.69
352.538	1214.69
352.765	1248.69
352.992	1208.69
353.22	1209.69
353.447	1183.69
353.674	1195.69
353.901	1217.69
354.128	1194.69
354.355	1212.69
354.583	1184.69
354.81	1215.69
355.037	1202.69
355.264	1186.69
355.491	1247.69
355.718	1231.69
355.945	1223.69
356.172	1242.69
356.399	1226.69
356.626	1220.69
356.853	1249.69
357.08	1243.69
357.307	1215.69
357.534	1238.69
357.761	1234.69
357.988	1241.69
358.215	1203.69
358.441	1231.69
358.668	1193.69
358.895	1236.69
359.122	1241.69
359.349	1227.69
359.576	1226.69
359.802	1226.69
360.029	1195.69
360.256	1236.69
360.483	1250.69
360.709	1193.69
360.936	1198.69
361.163	1230.69
361.39	1228.69
361.616	1230.69
361.843	1198.69
362.07	1223.69
362.296	1209.69
362.523	1198.69
362.749	1243.69
362.976	1221.69
363.203	1209.69
363.429	1209.69
363.656	1246.69
363.882	1224.69
364.109	1214.69
364.335	1243.69
364.562	1194.69
364.788	1224.69
365.015	1246.69
365.241	1229.69
365.468	1189.69
365.694	1213.69
365.92	1243.69
366.147	1209.69
366.373	1220.69
366.599	1200.69
366.826	1206.69
367.052	1194.69
367.278	1238.69
367.505	1227.69
367.731	1243.69
367.957	1215.69
368.184	1241.69
368.41	1246.69
368.636	1235.69
368.862	1280.69
369.089	1279.69
369.315	1281.69
369.541	1251.69
369.767	1244.69
369.993	1278.69
370.219	1273.69
370.445	1284.69
370.672	1316.69
370.898	1312.69
371.124	1331.69
371.35	1337.69
371.576	1352.69
371.802	1357.69
372.028	1336.69
372.254	1337.69
372.48	1318.69
372.706	1357.69
372.932	1355.69
373.158	1367.69
373.384	1359.69
373.61	1346.69
373.835	1333.69
374.061	1327.69
374.287	1367.69
374.513	1410.69
374.739	1407.69
374.965	1437.69
375.191	1465.69
375.416	1437.69
375.642	1445.69
375.868	1417.69
376.094	1373.69
376.319	1389.69
376.545	1354.69
376.771	1329.69
376.997	1351.69
377.222	1322.69
377.448	1317.69
377.674	1309.69
377.899	1319.69
378.125	1319.69
378.35	1302.69
378.576	1290.69
378.802	1309.69
379.027	1313.69
379.253	1333.69
379.478	1283.69
379.704	1311.69
379.929	1321.69
380.155	1301.69
380.38	1310.69
380.606	1319.69
380.831	1285.69
381.057	1325.69
381.282	1307.69
381.507	1335.69
381.733	1353.69
381.958	1354.69
382.184	1322.69
382.409	1365.69
382.634	1370.69
382.86	1388.69
383.085	1394.69
383.31	1374.69
383.535	1410.69
383.761	1465.69
383.986	1447.69
384.211	1483.69
384.436	1487.69
384.662	1512.69
384.887	1565.69
385.112	1545.69
385.337	1539.69
385.562	1578.69
385.787	1583.69
386.013	1636.69
386.238	1565.69
386.463	1605.69
386.688	1617.69
386.913	1567.69
387.138	1591.69
387.363	1586.69
387.588	1554.69
387.813	1559.69
388.038	1541.69
388.263	1587.69
388.488	1612.69
388.713	1587.69
388.938	1605.69
389.163	1531.69
389.387	1592.69
389.612	1598.69
389.837	1576.69
390.062	1549.69
390.287	1563.69
390.512	1550.69
390.736	1549.69
390.961	1593.69
391.186	1636.69
391.411	1686.69
391.636	1707.69
391.86	1732.69
392.085	1742.69
392.31	1750.69
392.534	1686.69
392.759	1724.69
392.984	1679.69
393.208	1735.69
393.433	1723.69
393.658	1732.69
393.882	1658.69
394.107	1675.69
394.331	1686.69
394.556	1683.69
394.78	1649.69
395.005	1688.69
395.229	1688.69
395.454	1741.69
395.678	1744.69
395.903	1767.69
396.127	1742.69
396.352	1709.69
396.576	1706.69
396.801	1717.69
397.025	1748.69
397.249	1754.69
397.474	1763.69
397.698	1786.69
397.922	1824.69
398.147	1781.69
398.371	1864.69
398.595	1893.69
398.82	1992.69
399.044	2056.69
399.268	2222.69
399.492	2485.69
399.717	2679.69
399.941	2747.69
400.165	2554.69
400.389	2327.69
400.613	2183.69
400.837	2083.69
401.062	2022.69
401.286	1987.69
401.51	2011.69
401.734	1987.69
401.958	1979.69
402.182	1968.69
402.406	2035.69
402.63	2019.69
402.854	2087.69
403.078	2074.69
403.302	2090.69
403.526	2111.69
403.75	2158.69
403.974	2168.69
404.198	2158.69
404.422	2169.69
404.645	2140.69
404.869	2121.69
405.093	2146.69
405.317	2121.69
405.541	2152.69
405.765	2160.69
405.988	2137.69
406.212	2119.69
406.436	2147.69
406.66	2188.69
406.883	2203.69
407.107	2321.69
407.331	2385.69
407.555	2464.69
407.778	2418.69
408.002	2412.69
408.226	2344.69
408.449	2353.69
408.673	2264.69
408.896	2247.69
409.12	2173.69
409.344	2223.69
409.567	2135.69
409.791	2200.69
410.014	2165.69
410.238	2161.69
410.461	2166.69
410.685	2155.69
410.908	2070.69
411.132	2083.69
411.355	2048.69
411.578	2118.69
411.802	2085.69
412.025	2090.69
412.249	2024.69
412.472	2051.69
412.695	2055.69
412.919	1954.69
413.142	1990.69
413.365	1997.69
413.589	2013.69
413.812	1958.69
414.035	1957.69
414.258	1951.69
414.482	1953.69
414.705	1986.69
414.928	1979.69
415.151	1975.69
415.374	1982.69
415.597	1932.69
415.821	1911.69
416.044	1891.69
416.267	1910.69
416.49	1856.69
416.713	1857.69
416.936	1882.69
417.159	1849.69
417.382	1859.69
417.605	1872.69
417.828	1905.69
418.051	1906.69
418.274	1924.69
418.497	1903.69
418.72	1913.69
418.943	1882.69
419.166	2060.69
419.389	2203.69
419.611	2137.69
419.834	2053.69
420.057	1983.69
420.28	1917.69
420.503	1902.69
420.726	1830.69
420.948	1874.69
421.171	1909.69
421.394	1896.69
421.617	1872.69
421.839	1900.69
422.062	1889.69
422.285	1855.69
422.507	1894.69
422.73	1905.69
422.953	1954.69
423.175	1945.69
423.398	1954.69
423.621	1953.69
423.843	1946.69
424.066	1940.69
424.288	1959.69
424.511	1920.69
424.733	1917.69
424.956	1888.69
425.178	1908.69
425.401	1931.69
425.623	1914.69
425.846	1850.69
426.068	1849.69
426.291	1810.69
426.513	1776.69
426.735	1823.69
426.958	1810.69
427.18	1760.69
427.402	1778.69
427.625	1765.69
427.847	1744.69
428.069	1719.69
428.292	1766.69
428.514	1725.69
428.736	1731.69
428.958	1741.69
429.181	1681.69
429.403	1688.69
429.625	1654.69
429.847	1678.69
430.069	1712.69
430.292	1662.69
430.514	1675.69
430.736	1679.69
430.958	1680.69
431.18	1723.69
431.402	1730.69
431.624	1713.69
431.846	1718.69
432.068	1770.69
432.29	1769.69
432.512	1714.69
432.734	1744.69
432.956	1730.69
433.178	1742.69
433.4	1747.69
433.622	1733.69
433.844	1799.69
434.066	1752.69
434.287	1775.69
434.509	1835.69
434.731	1858.69
434.953	1929.69
435.175	1893.69
435.397	1907.69
435.618	1828.69
435.84	1817.69
436.062	1788.69
436.284	1727.69
436.505	1706.69
436.727	1749.69
436.949	1741.69
437.17	1712.69
437.392	1677.69
437.614	1705.69
437.835	1667.69
438.057	1654.69
438.278	1620.69
438.5	1627.69
438.721	1657.69
438.943	1660.69
439.165	1678.69
439.386	1640.69
439.608	1674.69
439.829	1674.69
440.05	1651.69
440.272	1672.69
440.493	1709.69
440.715	1697.69
440.936	1720.69
441.158	1769.69
441.379	1777.69
441.6	1866.69
441.822	1833.69
442.043	1894.69
442.264	1855.69
442.486	1787.69
442.707	1842.69
442.928	1859.69
443.149	1846.69
443.371	1833.69
443.592	1839.69
443.813	1898.69
444.034	1871.69
444.255	1940.69
444.476	1984.69
444.698	2081.69
444.919	2164.69
445.14	2221.69
445.361	2074.69
445.582	1913.69
445.803	1828.69
446.024	1797.69
446.245	1786.69
446.466	1720.69
446.687	1713.69
446.908	1717.69
447.129	1668.69
447.35	1634.69
447.571	1629.69
447.792	1596.69
448.013	1601.69
448.234	1586.69
448.455	1550.69
448.675	1582.69
448.896	1541.69
449.117	1517.69
449.338	1509.69
449.559	1506.69
449.779	1518.69
450	1501.69
450.221	1506.69
450.442	1578.69
450.662	1543.69
450.883	1520.69
451.104	1559.69
451.324	1551.69
451.545	1529.69
451.766	1555.69
451.986	1520.69
452.207	1506.69
452.428	1523.69
452.648	1490.69
452.869	1462.69
453.089	1473.69
453.31	1485.69
453.53	1458.69
453.751	1474.69
453.971	1487.69
454.192	1447.69
454.412	1439.69
454.633	1478.69
454.853	1449.69
455.073	1466.69
455.294	1464.69
455.514	1418.69
455.734	1455.69
455.955	1412.69
456.175	1453.69
456.395	1459.69
456.616	1419.69
456.836	1437.69
457.056	1440.69
457.276	1450.69
457.497	1469.69
457.717	1451.69
457.937	1463.69
458.157	1454.69
458.377	1481.69
458.598	1517.69
458.818	1556.69
459.038	1623.69
459.258	1691.69
459.478	1642.69
459.698	1786.69
459.918	1778.69
460.138	1818.69
460.358	1938.69
460.578	1927.69
460.798	1936.69
461.018	1946.69
461.238	1962.69
461.458	1953.69
461.678	1916.69
461.898	1958.69
462.118	1975.69
462.338	2077.69
462.558	2098.69
462.777	2184.69
462.997	2293.69
463.217	2463.69
463.437	2482.69
463.657	2313.69
463.876	2234.69
464.096	2240.69
464.316	2189.69
464.536	2205.69
464.755	2159.69
464.975	2086.69
465.195	1994.69
465.414	1914.69
465.634	1795.69
465.854	1773.69
466.073	1742.69
466.293	1699.69
466.512	1655.69
466.732	1655.69
466.951	1640.69
467.171	1617.69
467.391	1648.69
467.61	1602.69
467.829	1631.69
468.049	1599.69
468.268	1575.69
468.488	1575.69
468.707	1580.69
468.927	1569.69
469.146	1552.69
469.365	1538.69
469.585	1557.69
469.804	1655.69
470.023	1647.69
470.243	1619.69
470.462	1656.69
470.681	1680.69
470.901	1657.69
471.12	1647.69
471.339	1606.69
471.558	1599.69
471.777	1645.69
471.997	1588.69
472.216	1566.69
472.435	1578.69
472.654	1528.69
472.873	1506.69
473.092	1550.69
473.311	1574.69
473.53	1550.69
473.749	1532.69
473.968	1546.69
474.187	1507.69
474.406	1505.69
474.625	1522.69
474.844	1580.69
475.063	1583.69
475.282	1555.69
475.501	1578.69
475.72	1585.69
475.939	1579.69
476.158	1594.69
476.377	1623.69
476.596	1609.69
476.814	1669.69
477.033	1632.69
477.252	1648.69
477.471	1703.69
477.69	1743.69
477.908	1769.69
478.127	1843.69
478.346	1821.69
478.564	1855.69
478.783	1890.69
479.002	1904.69
479.22	1967.69
479.439	1926.69
479.658	1938.69
479.876	1930.69
480.095	2001.69
480.313	2042.69
480.532	2054.69
480.751	2114.69
480.969	1989.69
481.188	1999.69
481.406	1905.69
481.624	1928.69
481.843	1872.69
482.061	1877.69
482.28	1874.69
482.498	1855.69
482.717	1856.69
482.935	1878.69
483.153	1876.69
483.372	1886.69
483.59	1899.69
483.808	1912.69
484.027	1890.69
484.245	1938.69
484.463	1957.69
484.681	1948.69
484.9	1988.69
485.118	1972.69
485.336	1951.69
485.554	2024.69
485.772	2009.69
485.99	1980.69
486.209	2029.69
486.427	1965.69
486.645	1982.69
486.863	2016.69
487.081	1994.69
487.299	1982.69
487.517	1967.69
487.735	1974.69
487.953	2004.69
488.171	1977.69
488.389	1906.69
488.607	1921.69
488.825	1967.69
489.043	1907.69
489.261	1916.69
489.479	1939.69
489.696	1921.69
489.914	1951.69
490.132	1946.69
490.35	1873.69
490.568	1951.69
490.786	1929.69
491.003	1939.69
491.221	1990.69
491.439	1934.69
491.657	1894.69
491.874	1912.69
492.092	1937.69
492.31	1917.69
492.527	1953.69
492.745	1931.69
492.963	1923.69
493.18	1981.69
493.398	1969.69
493.615	1970.69
493.833	1961.69
494.05	1921.69
494.268	1950.69
494.485	1981.69
494.703	1990.69
494.92	2019.69
495.138	1995.69
495.355	2029.69
495.573	1992.69
495.79	2014.69
496.008	2024.69
496.225	2005.69
496.442	2033.69
496.66	2083.69
496.877	2096.69
497.094	2104.69
497.312	2175.69
497.529	2205.69
497.746	2234.69
497.963	2311.69
498.181	2433.69
498.398	2429.69
498.615	2643.69
498.832	2754.69
499.049	2992.69
499.267	3133.69
499.484	3375.69
499.701	3683.69
499.918	3984.69
500.135	4371.69
500.352	4848.69
500.569	5032.69
500.786	4945.69
501.003	4711.69
501.22	4359.69
501.437	3997.69
501.654	3571.69
501.871	3370.69
502.088	3131.69
502.305	2922.69
502.522	2767.69
502.739	2693.69
502.956	2539.69
503.172	2449.69
503.389	2360.69
503.606	2271.69
503.823	2229.69
504.04	2235.69
504.256	2255.69
504.473	2289.69
504.69	2257.69
504.907	2185.69
505.123	2142.69
505.34	2024.69
505.557	1949.69
505.773	1921.69
505.99	1867.69
506.207	1818.69
506.423	1816.69
506.64	1761.69
506.856	1768.69
507.073	1747.69
507.289	1713.69
507.506	1709.69
507.722	1663.69
507.939	1696.69
508.155	1677.69
508.372	1658.69
508.588	1621.69
508.805	1609.69
509.021	1619.69
509.238	1614.69
509.454	1577.69
509.67	1597.69
509.887	1569.69
510.103	1552.69
510.319	1542.69
510.536	1545.69
510.752	1533.69
510.968	1542.69
511.184	1520.69
511.401	1519.69
511.617	1523.69
511.833	1565.69
512.049	1546.69
512.265	1553.69
512.481	1503.69
512.698	1531.69
512.914	1525.69
513.13	1560.69
513.346	1509.69
513.562	1546.69
513.778	1527.69
513.994	1558.69
514.21	1560.69
514.426	1571.69
514.642	1581.69
514.858	1541.69
515.074	1573.69
515.29	1616.69
515.506	1621.69
515.721	1631.69
515.937	1657.69
516.153	1665.69
516.369	1730.69
516.585	1746.69
516.801	1822.69
517.016	1834.69
517.232	1925.69
517.448	1974.69
517.664	2005.69
517.879	2018.69
518.095	2032.69
518.311	1996.69
518.527	1920.69
518.742	1861.69
518.958	1792.69
519.173	1790.69
519.389	1705.69
519.605	1624.69
519.82	1638.69
520.036	1622.69
520.251	1578.69
520.467	1551.69
520.682	1546.69
520.898	1536.69
521.113	1511.69
521.329	1485.69
521.544	1473.69
521.76	1483.69
521.975	1444.69
522.19	1471.69
522.406	1441.69
522.621	1476.69
522.836	1444.69
523.052	1395.69
523.267	1395.69
523.482	1390.69
523.698	1396.69
523.913	1400.69
524.128	1417.69
524.343	1394.69
524.559	1387.69
524.774	1413.69
524.989	1380.69
525.204	1434.69
525.419	1363.69
525.634	1382.69
525.849	1384.69
526.064	1385.69
526.28	1375.69
526.495	1366.69
526.71	1353.69
526.925	1360.69
527.14	1355.69
527.355	1355.69
527.57	1328.69
527.785	1356.69
527.999	1371.69
528.214	1346.69
528.429	1385.69
528.644	1362.69
528.859	1383.69
529.074	1334.69
529.289	1338.69
529.503	1377.69
529.718	1320.69
529.933	1335.69
530.148	1359.69
530.363	1330.69
530.577	1331.69
530.792	1314.69
531.007	1353.69
531.221	1373.69
531.436	1314.69
531.651	1354.69
531.865	1342.69
532.08	1343.69
532.295	1333.69
532.509	1324.69
532.724	1367.69
532.938	1320.69
533.153	1351.69
533.367	1329.69
533.582	1351.69
533.796	1297.69
534.011	1325.69
534.225	1320.69
534.44	1314.69
534.654	1311.69
534.868	1307.69
535.083	1304.69
535.297	1285.69
535.511	1319.69
535.726	1279.69
535.94	1273.69
536.154	1253.69
536.369	1266.69
536.583	1274.69
536.797	1218.69
537.011	1236.69
537.225	1238.69
537.44	1200.69
537.654	1249.69
537.868	1240.69
538.082	1217.69
538.296	1205.69
538.51	1235.69
538.724	1229.69
538.938	1231.69
539.153	1222.69
539.367	1204.69
539.581	1177.69
539.795	1197.69
540.009	1243.69
540.222	1218.69
540.436	1211.69
540.65	1169.69
540.864	1194.69
541.078	1186.69
541.292	1198.69
541.506	1180.69
541.72	1186.69
541.934	1182.69
542.147	1182.69
542.361	1187.69
542.575	1147.69
542.789	1167.69
543.002	1162.69
543.216	1162.69
543.43	1170.69
543.644	1188.69
543.857	1199.69
544.071	1173.69
544.285	1175.69
544.498	1206.69
544.712	1209.69
544.925	1197.69
545.139	1248.69
545.352	1192.69
545.566	1208.69
545.779	1214.69
545.993	1240.69
546.206	1202.69
546.42	1175.69
546.633	1231.69
546.847	1211.69
547.06	1213.69
547.274	1197.69
547.487	1181.69
547.7	1177.69
547.914	1185.69
548.127	1217.69
548.34	1193.69
548.554	1194.69
548.767	1204.69
548.98	1204.69
549.193	1215.69
549.407	1219.69
549.62	1218.69
549.833	1227.69
550.046	1203.69
550.259	1222.69
550.473	1185.69
550.686	1167.69
550.899	1178.69
551.112	1195.69
551.325	1178.69
551.538	1159.69
551.751	1163.69
551.964	1181.69
552.177	1171.69
552.39	1235.69
552.603	1263.69
552.816	1238.69
553.029	1278.69
553.242	1277.69
553.455	1283.69
553.667	1296.69
553.88	1240.69
554.093	1257.69
554.306	1221.69
554.519	1183.69
554.732	1171.69
554.944	1181.69
555.157	1125.69
555.37	1157.69
555.583	1141.69
555.795	1127.69
556.008	1085.69
556.221	1062.69
556.433	1082.69
556.646	1064.69
556.859	1026.69
557.071	1026.69
557.284	1063.69
557.496	1040.69
557.709	1042.69
557.921	1013.69
558.134	1025.69
558.346	992.69
558.559	1016.69
558.771	999.69
558.984	1034.69
559.196	994.69
559.409	993.69
559.621	994.69
559.833	986.69
560.046	992.69
560.258	975.69
560.47	990.69
560.683	997.69
560.895	990.69
561.107	978.69
561.32	971.69
561.532	1006.69
561.744	985.69
561.956	989.69
562.168	988.69
562.381	994.69
562.593	1002.69
562.805	985.69
563.017	1001.69
563.229	994.69
563.441	1002.69
563.653	1015.69
563.865	984.69
564.077	1034.69
564.289	1030.69
564.501	1027.69
564.713	1045.69
564.925	1093.69
565.137	1104.69
565.349	1105.69
565.561	1134.69
565.773	1189.69
565.985	1211.69
566.197	1277.69
566.408	1354.69
566.62	1434.69
566.832	1524.69
567.044	1530.69
567.255	1568.69
567.467	1594.69
567.679	1678.69
567.891	1778.69
568.102	1739.69
568.314	1677.69
568.526	1544.69
568.737	1432.69
568.949	1322.69
569.161	1253.69
569.372	1175.69
569.584	1151.69
569.795	1083.69
570.007	1062.69
570.218	1073.69
570.43	1011.69
570.641	1032.69
570.853	1007.69
571.064	980.69
571.276	995.69
571.487	971.69
571.698	948.69
571.91	904.69
572.121	894.69
572.333	891.69
572.544	866.69
572.755	851.69
572.966	862.69
573.178	843.69
573.389	850.69
573.6	810.69
573.811	838.69
574.023	816.69
574.234	818.69
574.445	805.69
574.656	825.69
574.867	807.69
575.078	799.69
575.289	783.69
575.501	775.69
575.712	774.69
575.923	774.69
576.134	768.69
576.345	774.69
576.556	753.69
576.767	756.69
576.978	755.69
577.188	739.69
577.399	725.69
577.61	743.69
577.821	735.69
578.032	733.69
578.243	715.69
578.454	710.69
578.665	734.69
578.875	710.69
579.086	695.69
579.297	701.69
579.508	710.69
579.718	709.69
579.929	711.69
580.14	675.69
580.35	690.69
580.561	687.69
580.772	685.69
580.982	688.69
581.193	672.69
581.403	682.69
581.614	672.69
581.825	675.69
582.035	650.69
582.246	663.69
582.456	674.69
582.667	691.69
582.877	694.69
583.087	659.69
583.298	659.69
583.508	656.69
583.719	653.69
583.929	681.69
584.139	681.69
584.35	641.69
584.56	663.69
584.77	665.69
584.981	668.69
585.191	641.69
585.401	647.69
585.611	679.69
585.821	627.69
586.032	643.69
586.242	676.69
586.452	654.69
586.662	633.69
586.872	650.69
587.082	644.69
587.292	645.69
587.502	624.69
587.713	624.69
587.923	646.69
588.133	642.69
588.343	617.69
588.553	609.69
588.762	664.69
588.972	663.69
589.182	654.69
589.392	643.69
589.602	640.69
589.812	647.69
590.022	657.69
590.232	637.69
590.441	643.69
590.651	646.69
590.861	635.69
591.071	658.69
591.281	689.69
591.49	680.69
591.7	667.69
591.91	701.69
592.119	687.69
592.329	682.69
592.539	706.69
592.748	751.69
592.958	741.69
593.167	751.69
593.377	739.69
593.587	802.69
593.796	799.69
594.006	763.69
594.215	792.69
594.424	768.69
594.634	771.69
594.843	756.69
595.053	720.69
595.262	728.69
595.472	681.69
595.681	675.69
595.89	661.69
596.1	620.69
596.309	616.69
596.518	599.69
596.727	584.69
596.937	616.69
597.146	584.69
597.355	581.69
597.564	581.69
597.774	574.69
597.983	564.69
598.192	573.69
598.401	549.69
598.61	557.69
598.819	550.69
599.028	534.69
599.237	538.69
599.446	544.69
599.655	539.69
599.864	532.69
600.073	541.69
600.282	542.69
600.491	552.69
600.7	523.69
600.909	522.69
601.118	500.69
601.327	538.69
601.536	531.69
601.745	536.69
601.953	514.69
602.162	518.69
602.371	500.69
602.58	491.69
602.789	513.69
602.997	518.69
603.206	500.69
603.415	497.69
603.623	508.69
603.832	499.69
604.041	495.69
604.249	500.69
604.458	505.69
604.666	486.69
604.875	501.69
605.084	493.69
605.292	501.69
605.501	480.69
605.709	480.69
605.918	494.69
606.126	469.69
606.334	479.69
606.543	473.69
606.751	461.69
606.96	481.69
607.168	470.69
607.376	481.69
607.585	481.69
607.793	474.69
608.001	483.69
608.21	476.69
608.418	449.69
608.626	472.69
608.834	472.69
609.043	458.69
609.251	447.69
609.459	454.69
609.667	478.69
609.875	466.69
610.083	462.69
610.291	434.69
610.499	436.69
610.707	450.69
610.916	451.69
611.124	447.69
611.332	453.69
611.54	458.69
611.748	462.69
611.955	444.69
612.163	453.69
612.371	449.69
612.579	441.69
612.787	438.69
612.995	458.69
613.203	451.69
613.411	456.69
613.618	439.69
613.826	439.69
614.034	456.69
614.242	436.69
614.449	431.69
614.657	429.69
614.865	429.69
615.072	441.69
615.28	422.69
615.488	421.69
615.695	432.69
615.903	445.69
616.111	442.69
616.318	437.69
616.526	460.69
616.733	440.69
616.941	438.69
617.148	449.69
617.356	442.69
617.563	433.69
617.771	463.69
617.978	423.69
618.185	415.69
618.393	432.69
618.6	441.69
618.807	429.69
619.015	429.69
619.222	424.69
619.429	436.69
619.637	403.69
619.844	408.69
620.051	409.69
620.258	439.69
620.466	399.69
620.673	411.69
620.88	381.69
621.087	394.69
621.294	398.69
621.501	409.69
621.708	425.69
621.915	394.69
622.122	394.69
622.329	414.69
622.536	413.69
622.743	399.69
622.95	380.69
623.157	391.69
623.364	377.69
623.571	383.69
623.778	377.69
623.985	379.69
624.192	398.69
624.399	380.69
624.606	382.69
624.812	401.69
625.019	354.69
625.226	385.69
625.433	393.69
625.639	381.69
625.846	376.69
626.053	373.69
626.259	370.69
626.466	367.69
626.673	379.69
626.879	360.69
627.086	352.69
627.293	372.69
627.499	353.69
627.706	367.69
627.912	382.69
628.119	372.69
628.325	381.69
628.532	377.69
628.738	346.69
628.945	355.69
629.151	357.69
629.357	342.69
629.564	326.69
629.77	354.69
629.976	339.69
630.183	346.69
630.389	342.69
630.595	341.69
630.802	322.69
631.008	322.69
631.214	331.69
631.42	342.69
631.627	329.69
631.833	313.69
632.039	343.69
632.245	343.69
632.451	331.69
632.657	332.69
632.863	319.69
633.069	326.69
633.275	336.69
633.481	331.69
633.688	313.69
633.893	316.69
634.099	299.69
634.305	322.69
634.511	318.69
634.717	318.69
634.923	315.69
635.129	310.69
635.335	298.69
635.541	319.69
635.747	313.69
635.952	322.69
636.158	315.69
636.364	313.69
636.57	311.69
636.775	319.69
636.981	306.69
637.187	317.69
637.392	311.69
637.598	320.69
637.804	301.69
638.009	330.69
638.215	311.69
638.421	300.69
638.626	298.69
638.832	305.69
639.037	295.69
639.243	299.69
639.448	304.69
639.654	301.69
639.859	293.69
640.065	279.69
640.27	312.69
640.475	287.69
640.681	304.69
640.886	298.69
641.091	298.69
641.297	292.69
641.502	301.69
641.707	275.69
641.913	289.69
642.118	303.69
642.323	271.69
642.528	308.69
642.733	302.69
642.939	296.69
643.144	297.69
643.349	302.69
643.554	310.69
643.759	293.69
643.964	285.69
644.169	290.69
644.374	308.69
644.579	277.69
644.784	288.69
644.989	294.69
645.194	301.69
645.399	294.69
645.604	296.69
645.809	281.69
646.014	277.69
646.219	287.69
646.423	311.69
646.628	315.69
646.833	297.69
647.038	304.69
647.243	306.69
647.447	312.69
647.652	310.69
647.857	330.69
648.062	305.69
648.266	313.69
648.471	311.69
648.676	313.69
648.88	314.69
649.085	307.69
649.289	314.69
649.494	308.69
649.698	282.69
649.903	314.69
650.107	312.69
650.312	305.69
650.516	290.69
650.721	298.69
650.925	290.69
651.13	286.69
651.334	286.69
651.539	274.69
651.743	309.69
651.947	297.69
652.152	283.69
652.356	294.69
652.56	277.69
652.764	273.69
652.969	270.69
653.173	272.69
653.377	287.69
653.581	275.69
653.785	267.69
653.99	289.69
654.194	274.69
654.398	308.69
654.602	298.69
654.806	290.69
655.01	295.69
655.214	287.69
655.418	308.69
655.622	310.69
655.826	323.69
656.03	313.69
656.234	342.69
656.438	355.69
656.642	360.69
656.846	363.69
657.049	321.69
657.253	303.69
657.457	253.69
657.661	251.69
657.865	225.69
658.068	209.69
658.272	194.69
658.476	186.69
658.68	188.69
658.883	179.69
659.087	160.69
659.291	157.69
659.494	145.69
659.698	138.69
659.901	136.69
660.105	137.69
660.309	125.69
660.512	131.69
660.716	120.69
660.919	113.69
661.123	99.69
661.326	118.69
661.53	97.69
661.733	101.69
661.936	105.69
662.14	96.69
662.343	101.69
662.546	87.69
662.75	93.69
662.953	89.69
663.156	81.69
663.36	89.69
663.563	90.69
663.766	78.69
663.969	95.69
664.173	79.69
664.376	71.69
664.579	75.69
664.782	81.69
664.985	83.69
665.188	74.69
665.391	86.69
665.594	82.69
665.797	84.69
666	64.69
666.203	80.69
666.406	82.69
666.609	81.69
666.812	85.69
667.015	70.69
667.218	90.69
667.421	76.69
667.624	79.69
667.827	93.69
668.03	80.69
668.232	83.69
668.435	77.69
668.638	80.69
668.841	68.69
669.043	78.69
669.246	75.69
669.449	76.69
669.651	89.69
669.854	90.69
670.057	85.69
670.259	71.69
670.462	78.69
670.665	81.69
670.867	73.69
671.07	81.69
671.272	72.69
671.475	87.69
671.677	83.69
671.88	79.69
672.082	82.69
672.284	69.69
672.487	69.69
672.689	74.69
672.892	90.69
