Data from NiCl2@0.125M.TitratingCurve.Agarose3%dH2O.NegLispCup.LampEnergy10.LIBS07252019_HRD10591_18-28-23-574.txt Node
Date: Thu Jul 25 18:28:23 EDT 2019
User: cochatt
Spectrometer: HR+D1059
Trigger mode: 1
Integration Time (sec): 1.000000E-1
Scans to average: 1
Electric dark correction enabled: true
Nonlinearity correction enabled: false
Boxcar width: 0
XAxis mode: Wavelengths
Number of Pixels in Spectrum: 2048
>>>>>Begin Spectral Data<<<<<
223.165	-11.44
223.4	-11.44
223.635	-11.44
223.869	-15.44
224.104	-18.44
224.338	-19.44
224.573	-11.44
224.808	-9.44
225.042	-13.44
225.277	-7.44
225.511	-12.44
225.746	2.56
225.98	5.56
226.215	-3.44
226.449	23.56
226.683	22.56
226.918	36.56
227.152	31.56
227.387	31.56
227.621	45.56
227.856	45.56
228.09	47.56
228.324	57.56
228.559	56.56
228.793	62.56
229.027	125.56
229.262	121.56
229.496	134.56
229.73	125.56
229.964	141.56
230.199	135.56
230.433	139.56
230.667	143.56
230.901	141.56
231.136	160.56
231.37	170.56
231.604	144.56
231.838	143.56
232.072	154.56
232.306	176.56
232.541	162.56
232.775	168.56
233.009	193.56
233.243	165.56
233.477	176.56
233.711	188.56
233.945	174.56
234.179	179.56
234.413	178.56
234.647	176.56
234.881	175.56
235.115	180.56
235.349	186.56
235.583	176.56
235.817	183.56
236.051	184.56
236.285	176.56
236.519	177.56
236.753	182.56
236.987	191.56
237.221	194.56
237.455	172.56
237.689	191.56
237.922	192.56
238.156	206.56
238.39	180.56
238.624	214.56
238.858	204.56
239.091	194.56
239.325	199.56
239.559	232.56
239.793	203.56
240.027	200.56
240.26	220.56
240.494	221.56
240.728	226.56
240.961	198.56
241.195	228.56
241.429	238.56
241.662	221.56
241.896	238.56
242.13	237.56
242.363	239.56
242.597	243.56
242.83	234.56
243.064	223.56
243.298	263.56
243.531	258.56
243.765	245.56
243.998	232.56
244.232	260.56
244.465	247.56
244.699	265.56
244.932	285.56
245.166	266.56
245.399	272.56
245.633	270.56
245.866	286.56
246.099	292.56
246.333	267.56
246.566	269.56
246.8	264.56
247.033	284.56
247.266	274.56
247.5	276.56
247.733	279.56
247.966	277.56
248.2	316.56
248.433	294.56
248.666	306.56
248.899	289.56
249.133	306.56
249.366	303.56
249.599	318.56
249.832	291.56
250.066	301.56
250.299	306.56
250.532	332.56
250.765	313.56
250.998	297.56
251.231	314.56
251.465	318.56
251.698	333.56
251.931	317.56
252.164	319.56
252.397	343.56
252.63	331.56
252.863	338.56
253.096	343.56
253.329	344.56
253.562	358.56
253.795	358.56
254.028	352.56
254.261	361.56
254.494	329.56
254.727	348.56
254.96	344.56
255.193	355.56
255.426	343.56
255.659	346.56
255.892	358.56
256.124	356.56
256.357	342.56
256.59	367.56
256.823	373.56
257.056	361.56
257.289	365.56
257.521	380.56
257.754	376.56
257.987	380.56
258.22	376.56
258.452	381.56
258.685	393.56
258.918	381.56
259.151	386.56
259.383	375.56
259.616	366.56
259.849	384.56
260.081	396.56
260.314	399.56
260.547	401.56
260.779	380.56
261.012	383.56
261.244	398.56
261.477	406.56
261.71	407.56
261.942	408.56
262.175	410.56
262.407	412.56
262.64	414.56
262.872	418.56
263.105	398.56
263.337	410.56
263.57	424.56
263.802	407.56
264.035	415.56
264.267	447.56
264.499	442.56
264.732	430.56
264.964	448.56
265.197	451.56
265.429	421.56
265.661	431.56
265.894	458.56
266.126	464.56
266.358	456.56
266.591	453.56
266.823	465.56
267.055	459.56
267.287	461.56
267.52	442.56
267.752	463.56
267.984	448.56
268.216	447.56
268.448	457.56
268.681	452.56
268.913	465.56
269.145	459.56
269.377	467.56
269.609	465.56
269.841	462.56
270.073	475.56
270.306	485.56
270.538	463.56
270.77	477.56
271.002	465.56
271.234	488.56
271.466	486.56
271.698	514.56
271.93	499.56
272.162	495.56
272.394	506.56
272.626	491.56
272.858	494.56
273.09	515.56
273.322	501.56
273.553	486.56
273.785	536.56
274.017	519.56
274.249	512.56
274.481	523.56
274.713	519.56
274.945	508.56
275.176	548.56
275.408	512.56
275.64	509.56
275.872	553.56
276.104	543.56
276.335	540.56
276.567	556.56
276.799	563.56
277.031	565.56
277.262	528.56
277.494	540.56
277.726	542.56
277.957	552.56
278.189	545.56
278.421	543.56
278.652	545.56
278.884	564.56
279.115	536.56
279.347	543.56
279.579	555.56
279.81	597.56
280.042	564.56
280.273	561.56
280.505	565.56
280.736	570.56
280.968	574.56
281.199	582.56
281.431	580.56
281.662	589.56
281.894	581.56
282.125	610.56
282.356	596.56
282.588	606.56
282.819	602.56
283.051	622.56
283.282	589.56
283.513	622.56
283.745	614.56
283.976	630.56
284.207	603.56
284.439	630.56
284.67	629.56
284.901	613.56
285.132	641.56
285.364	606.56
285.595	628.56
285.826	628.56
286.057	627.56
286.288	630.56
286.52	644.56
286.751	667.56
286.982	641.56
287.213	632.56
287.444	626.56
287.675	651.56
287.906	647.56
288.138	642.56
288.369	652.56
288.6	658.56
288.831	655.56
289.062	644.56
289.293	671.56
289.524	670.56
289.755	667.56
289.986	666.56
290.217	648.56
290.448	666.56
290.679	667.56
290.91	643.56
291.141	650.56
291.371	662.56
291.602	656.56
291.833	666.56
292.064	674.56
292.295	686.56
292.526	668.56
292.757	672.56
292.987	661.56
293.218	630.56
293.449	676.56
293.68	686.56
293.91	689.56
294.141	663.56
294.372	668.56
294.603	687.56
294.833	720.56
295.064	685.56
295.295	659.56
295.525	679.56
295.756	680.56
295.987	700.56
296.217	690.56
296.448	710.56
296.679	708.56
296.909	701.56
297.14	698.56
297.37	709.56
297.601	726.56
297.831	724.56
298.062	720.56
298.292	737.56
298.523	753.56
298.753	740.56
298.984	758.56
299.214	747.56
299.445	762.56
299.675	740.56
299.905	740.56
300.136	726.56
300.366	728.56
300.597	736.56
300.827	766.56
301.057	774.56
301.288	764.56
301.518	779.56
301.748	766.56
301.979	799.56
302.209	781.56
302.439	776.56
302.669	778.56
302.9	750.56
303.13	750.56
303.36	746.56
303.59	742.56
303.82	757.56
304.051	771.56
304.281	752.56
304.511	764.56
304.741	767.56
304.971	762.56
305.201	777.56
305.431	755.56
305.661	760.56
305.891	744.56
306.121	772.56
306.352	754.56
306.582	723.56
306.812	724.56
307.042	742.56
307.272	748.56
307.502	743.56
307.731	739.56
307.961	720.56
308.191	702.56
308.421	706.56
308.651	747.56
308.881	732.56
309.111	743.56
309.341	725.56
309.571	750.56
309.8	759.56
310.03	757.56
310.26	746.56
310.49	776.56
310.72	735.56
310.949	768.56
311.179	762.56
311.409	754.56
311.639	746.56
311.868	760.56
312.098	783.56
312.328	783.56
312.557	773.56
312.787	782.56
313.017	798.56
313.246	780.56
313.476	802.56
313.706	795.56
313.935	797.56
314.165	804.56
314.394	818.56
314.624	829.56
314.853	796.56
315.083	814.56
315.312	802.56
315.542	812.56
315.771	828.56
316.001	805.56
316.23	785.56
316.46	785.56
316.689	775.56
316.919	797.56
317.148	772.56
317.377	758.56
317.607	773.56
317.836	777.56
318.065	789.56
318.295	779.56
318.524	776.56
318.753	758.56
318.983	794.56
319.212	801.56
319.441	784.56
319.67	788.56
319.9	781.56
320.129	794.56
320.358	802.56
320.587	796.56
320.816	777.56
321.046	794.56
321.275	771.56
321.504	799.56
321.733	790.56
321.962	805.56
322.191	806.56
322.42	800.56
322.649	741.56
322.878	789.56
323.108	793.56
323.337	831.56
323.566	807.56
323.795	845.56
324.024	805.56
324.253	821.56
324.482	815.56
324.71	808.56
324.939	807.56
325.168	810.56
325.397	838.56
325.626	839.56
325.855	831.56
326.084	849.56
326.313	879.56
326.542	881.56
326.77	864.56
326.999	863.56
327.228	836.56
327.457	849.56
327.686	854.56
327.914	847.56
328.143	846.56
328.372	854.56
328.6	844.56
328.829	854.56
329.058	872.56
329.287	882.56
329.515	870.56
329.744	843.56
329.972	852.56
330.201	854.56
330.43	884.56
330.658	886.56
330.887	874.56
331.115	882.56
331.344	894.56
331.572	911.56
331.801	936.56
332.03	955.56
332.258	963.56
332.486	1024.56
332.715	1060.56
332.943	1067.56
333.172	1151.56
333.4	1188.56
333.629	1212.56
333.857	1212.56
334.085	1175.56
334.314	1200.56
334.542	1133.56
334.771	1130.56
334.999	1129.56
335.227	1087.56
335.455	1072.56
335.684	1082.56
335.912	1060.56
336.14	1047.56
336.369	1048.56
336.597	1047.56
336.825	1032.56
337.053	1024.56
337.281	1027.56
337.51	1023.56
337.738	994.56
337.966	964.56
338.194	949.56
338.422	927.56
338.65	944.56
338.878	935.56
339.106	928.56
339.334	925.56
339.562	922.56
339.79	927.56
340.018	892.56
340.246	875.56
340.474	900.56
340.702	888.56
340.93	914.56
341.158	933.56
341.386	899.56
341.614	889.56
341.842	912.56
342.07	910.56
342.298	863.56
342.526	868.56
342.754	904.56
342.981	908.56
343.209	923.56
343.437	953.56
343.665	1041.56
343.893	1115.56
344.12	1160.56
344.348	1094.56
344.576	1000.56
344.804	971.56
345.031	943.56
345.259	914.56
345.487	911.56
345.714	908.56
345.942	894.56
346.17	872.56
346.397	915.56
346.625	896.56
346.853	886.56
347.08	873.56
347.308	879.56
347.535	870.56
347.763	882.56
347.99	916.56
348.218	864.56
348.445	854.56
348.673	861.56
348.9	874.56
349.128	861.56
349.355	836.56
349.583	847.56
349.81	841.56
350.037	857.56
350.265	848.56
350.492	813.56
350.72	832.56
350.947	834.56
351.174	810.56
351.402	848.56
351.629	785.56
351.856	835.56
352.083	813.56
352.311	826.56
352.538	848.56
352.765	840.56
352.992	826.56
353.22	823.56
353.447	811.56
353.674	837.56
353.901	821.56
354.128	832.56
354.355	844.56
354.583	803.56
354.81	805.56
355.037	835.56
355.264	852.56
355.491	838.56
355.718	853.56
355.945	859.56
356.172	856.56
356.399	844.56
356.626	851.56
356.853	856.56
357.08	855.56
357.307	835.56
357.534	838.56
357.761	849.56
357.988	828.56
358.215	798.56
358.441	831.56
358.668	826.56
358.895	826.56
359.122	818.56
359.349	835.56
359.576	854.56
359.802	841.56
360.029	823.56
360.256	860.56
360.483	808.56
360.709	831.56
360.936	834.56
361.163	855.56
361.39	815.56
361.616	836.56
361.843	844.56
362.07	830.56
362.296	843.56
362.523	823.56
362.749	858.56
362.976	857.56
363.203	808.56
363.429	816.56
363.656	855.56
363.882	826.56
364.109	818.56
364.335	827.56
364.562	842.56
364.788	811.56
365.015	836.56
365.241	808.56
365.468	825.56
365.694	802.56
365.92	826.56
366.147	850.56
366.373	828.56
366.599	831.56
366.826	847.56
367.052	845.56
367.278	822.56
367.505	834.56
367.731	843.56
367.957	840.56
368.184	847.56
368.41	845.56
368.636	847.56
368.862	857.56
369.089	848.56
369.315	864.56
369.541	849.56
369.767	877.56
369.993	855.56
370.219	870.56
370.445	884.56
370.672	871.56
370.898	886.56
371.124	852.56
371.35	919.56
371.576	900.56
371.802	905.56
372.028	918.56
372.254	920.56
372.48	939.56
372.706	952.56
372.932	980.56
373.158	931.56
373.384	939.56
373.61	889.56
373.835	925.56
374.061	921.56
374.287	918.56
374.513	910.56
374.739	982.56
374.965	989.56
375.191	1007.56
375.416	990.56
375.642	966.56
375.868	984.56
376.094	956.56
376.319	950.56
376.545	936.56
376.771	940.56
376.997	906.56
377.222	914.56
377.448	893.56
377.674	902.56
377.899	906.56
378.125	914.56
378.35	890.56
378.576	893.56
378.802	909.56
379.027	903.56
379.253	892.56
379.478	908.56
379.704	899.56
379.929	899.56
380.155	873.56
380.38	889.56
380.606	908.56
380.831	905.56
381.057	920.56
381.282	904.56
381.507	910.56
381.733	926.56
381.958	933.56
382.184	925.56
382.409	972.56
382.634	948.56
382.86	959.56
383.085	968.56
383.31	973.56
383.535	968.56
383.761	1034.56
383.986	1050.56
384.211	1055.56
384.436	1118.56
384.662	1096.56
384.887	1097.56
385.112	1088.56
385.337	1105.56
385.562	1128.56
385.787	1103.56
386.013	1126.56
386.238	1123.56
386.463	1145.56
386.688	1127.56
386.913	1074.56
387.138	1100.56
387.363	1103.56
387.588	1070.56
387.813	1078.56
388.038	1104.56
388.263	1056.56
388.488	1112.56
388.713	1117.56
388.938	1086.56
389.163	1080.56
389.387	1056.56
389.612	1064.56
389.837	1064.56
390.062	1095.56
390.287	1083.56
390.512	1070.56
390.736	1089.56
390.961	1130.56
391.186	1142.56
391.411	1154.56
391.636	1183.56
391.86	1220.56
392.085	1262.56
392.31	1269.56
392.534	1210.56
392.759	1180.56
392.984	1143.56
393.208	1149.56
393.433	1157.56
393.658	1148.56
393.882	1160.56
394.107	1199.56
394.331	1156.56
394.556	1166.56
394.78	1195.56
395.005	1192.56
395.229	1177.56
395.454	1214.56
395.678	1263.56
395.903	1232.56
396.127	1239.56
396.352	1170.56
396.576	1148.56
396.801	1134.56
397.025	1189.56
397.249	1193.56
397.474	1246.56
397.698	1199.56
397.922	1246.56
398.147	1232.56
398.371	1257.56
398.595	1296.56
398.82	1377.56
399.044	1488.56
399.268	1628.56
399.492	1977.56
399.717	2239.56
399.941	2183.56
400.165	1914.56
400.389	1683.56
400.613	1517.56
400.837	1461.56
401.062	1415.56
401.286	1405.56
401.51	1397.56
401.734	1382.56
401.958	1396.56
402.182	1398.56
402.406	1427.56
402.63	1464.56
402.854	1485.56
403.078	1520.56
403.302	1585.56
403.526	1583.56
403.75	1653.56
403.974	1639.56
404.198	1631.56
404.422	1699.56
404.645	1674.56
404.869	1615.56
405.093	1561.56
405.317	1571.56
405.541	1561.56
405.765	1579.56
405.988	1550.56
406.212	1504.56
406.436	1519.56
406.66	1549.56
406.883	1606.56
407.107	1687.56
407.331	1755.56
407.555	1796.56
407.778	1835.56
408.002	1756.56
408.226	1744.56
408.449	1706.56
408.673	1605.56
408.896	1591.56
409.12	1579.56
409.344	1567.56
409.567	1565.56
409.791	1595.56
410.014	1567.56
410.238	1594.56
410.461	1590.56
410.685	1548.56
410.908	1468.56
411.132	1491.56
411.355	1442.56
411.578	1450.56
411.802	1418.56
412.025	1481.56
412.249	1452.56
412.472	1451.56
412.695	1465.56
412.919	1418.56
413.142	1357.56
413.365	1390.56
413.589	1374.56
413.812	1360.56
414.035	1346.56
414.258	1392.56
414.482	1400.56
414.705	1456.56
414.928	1432.56
415.151	1402.56
415.374	1388.56
415.597	1360.56
415.821	1356.56
416.044	1348.56
416.267	1365.56
416.49	1360.56
416.713	1352.56
416.936	1353.56
417.159	1366.56
417.382	1350.56
417.605	1349.56
417.828	1370.56
418.051	1382.56
418.274	1374.56
418.497	1401.56
418.72	1412.56
418.943	1396.56
419.166	1459.56
419.389	1603.56
419.611	1589.56
419.834	1506.56
420.057	1474.56
420.28	1420.56
420.503	1371.56
420.726	1319.56
420.948	1354.56
421.171	1358.56
421.394	1365.56
421.617	1361.56
421.839	1402.56
422.062	1398.56
422.285	1378.56
422.507	1400.56
422.73	1402.56
422.953	1431.56
423.175	1419.56
423.398	1481.56
423.621	1460.56
423.843	1538.56
424.066	1510.56
424.288	1476.56
424.511	1396.56
424.733	1411.56
424.956	1398.56
425.178	1402.56
425.401	1409.56
425.623	1372.56
425.846	1310.56
426.068	1334.56
426.291	1334.56
426.513	1289.56
426.735	1297.56
426.958	1258.56
427.18	1215.56
427.402	1213.56
427.625	1205.56
427.847	1234.56
428.069	1264.56
428.292	1225.56
428.514	1213.56
428.736	1191.56
428.958	1223.56
429.181	1180.56
429.403	1160.56
429.625	1182.56
429.847	1180.56
430.069	1154.56
430.292	1158.56
430.514	1179.56
430.736	1151.56
430.958	1146.56
431.18	1182.56
431.402	1190.56
431.624	1177.56
431.846	1187.56
432.068	1218.56
432.29	1249.56
432.512	1183.56
432.734	1190.56
432.956	1183.56
433.178	1221.56
433.4	1230.56
433.622	1210.56
433.844	1234.56
434.066	1225.56
434.287	1259.56
434.509	1314.56
434.731	1304.56
434.953	1406.56
435.175	1428.56
435.397	1343.56
435.618	1272.56
435.84	1245.56
436.062	1239.56
436.284	1228.56
436.505	1225.56
436.727	1219.56
436.949	1221.56
437.17	1170.56
437.392	1174.56
437.614	1157.56
437.835	1148.56
438.057	1164.56
438.278	1142.56
438.5	1151.56
438.721	1149.56
438.943	1173.56
439.165	1152.56
439.386	1195.56
439.608	1206.56
439.829	1199.56
440.05	1195.56
440.272	1224.56
440.493	1224.56
440.715	1207.56
440.936	1269.56
441.158	1268.56
441.379	1303.56
441.6	1402.56
441.822	1402.56
442.043	1405.56
442.264	1380.56
442.486	1352.56
442.707	1330.56
442.928	1382.56
443.149	1369.56
443.371	1338.56
443.592	1355.56
443.813	1383.56
444.034	1399.56
444.255	1448.56
444.476	1477.56
444.698	1603.56
444.919	1687.56
445.14	1764.56
445.361	1526.56
445.582	1406.56
445.803	1345.56
446.024	1287.56
446.245	1271.56
446.466	1261.56
446.687	1204.56
446.908	1224.56
447.129	1186.56
447.35	1150.56
447.571	1156.56
447.792	1132.56
448.013	1158.56
448.234	1121.56
448.455	1127.56
448.675	1090.56
448.896	1091.56
449.117	1096.56
449.338	1081.56
449.559	1081.56
449.779	1103.56
450	1070.56
450.221	1086.56
450.442	1122.56
450.662	1140.56
450.883	1105.56
451.104	1148.56
451.324	1122.56
451.545	1116.56
451.766	1135.56
451.986	1138.56
452.207	1128.56
452.428	1092.56
452.648	1088.56
452.869	1073.56
453.089	1076.56
453.31	1093.56
453.53	1104.56
453.751	1056.56
453.971	1064.56
454.192	1066.56
454.412	1071.56
454.633	1053.56
454.853	1067.56
455.073	1050.56
455.294	1062.56
455.514	987.56
455.734	1007.56
455.955	1036.56
456.175	1012.56
456.395	1005.56
456.616	1002.56
456.836	1026.56
457.056	1005.56
457.276	1010.56
457.497	1036.56
457.717	1013.56
457.937	1026.56
458.157	1058.56
458.377	1066.56
458.598	1056.56
458.818	1138.56
459.038	1128.56
459.258	1200.56
459.478	1211.56
459.698	1226.56
459.918	1253.56
460.138	1352.56
460.358	1459.56
460.578	1448.56
460.798	1446.56
461.018	1500.56
461.238	1418.56
461.458	1438.56
461.678	1478.56
461.898	1439.56
462.118	1429.56
462.338	1504.56
462.558	1558.56
462.777	1595.56
462.997	1793.56
463.217	2000.56
463.437	1986.56
463.657	1812.56
463.876	1694.56
464.096	1706.56
464.316	1668.56
464.536	1698.56
464.755	1655.56
464.975	1565.56
465.195	1512.56
465.414	1410.56
465.634	1309.56
465.854	1242.56
466.073	1204.56
466.293	1194.56
466.512	1159.56
466.732	1153.56
466.951	1176.56
467.171	1136.56
467.391	1172.56
467.61	1166.56
467.829	1147.56
468.049	1144.56
468.268	1115.56
468.488	1095.56
468.707	1068.56
468.927	1112.56
469.146	1057.56
469.365	1108.56
469.585	1113.56
469.804	1155.56
470.023	1180.56
470.243	1154.56
470.462	1190.56
470.681	1187.56
470.901	1200.56
471.12	1167.56
471.339	1141.56
471.558	1143.56
471.777	1124.56
471.997	1106.56
472.216	1087.56
472.435	1115.56
472.654	1087.56
472.873	1075.56
473.092	1054.56
473.311	1071.56
473.53	1063.56
473.749	1061.56
473.968	1064.56
474.187	1028.56
474.406	1045.56
474.625	1047.56
474.844	1036.56
475.063	1094.56
475.282	1074.56
475.501	1060.56
475.72	1088.56
475.939	1108.56
476.158	1102.56
476.377	1109.56
476.596	1108.56
476.814	1110.56
477.033	1102.56
477.252	1145.56
477.471	1148.56
477.69	1198.56
477.908	1235.56
478.127	1276.56
478.346	1308.56
478.564	1294.56
478.783	1314.56
479.002	1352.56
479.22	1368.56
479.439	1303.56
479.658	1294.56
479.876	1328.56
480.095	1358.56
480.313	1436.56
480.532	1474.56
480.751	1444.56
480.969	1382.56
481.188	1302.56
481.406	1285.56
481.624	1231.56
481.843	1234.56
482.061	1195.56
482.28	1185.56
482.498	1203.56
482.717	1208.56
482.935	1167.56
483.153	1195.56
483.372	1208.56
483.59	1161.56
483.808	1205.56
484.027	1209.56
484.245	1237.56
484.463	1245.56
484.681	1230.56
484.9	1257.56
485.118	1243.56
485.336	1212.56
485.554	1236.56
485.772	1271.56
485.99	1263.56
486.209	1300.56
486.427	1293.56
486.645	1278.56
486.863	1287.56
487.081	1300.56
487.299	1272.56
487.517	1288.56
487.735	1254.56
487.953	1299.56
488.171	1262.56
488.389	1220.56
488.607	1239.56
488.825	1239.56
489.043	1226.56
489.261	1222.56
489.479	1257.56
489.696	1245.56
489.914	1269.56
490.132	1273.56
490.35	1269.56
490.568	1276.56
490.786	1260.56
491.003	1252.56
491.221	1255.56
491.439	1286.56
491.657	1277.56
491.874	1280.56
492.092	1254.56
492.31	1326.56
492.527	1294.56
492.745	1287.56
492.963	1306.56
493.18	1318.56
493.398	1308.56
493.615	1325.56
493.833	1320.56
494.05	1340.56
494.268	1352.56
494.485	1343.56
494.703	1360.56
494.92	1350.56
495.138	1305.56
495.355	1322.56
495.573	1313.56
495.79	1331.56
496.008	1332.56
496.225	1334.56
496.442	1356.56
496.66	1385.56
496.877	1378.56
497.094	1407.56
497.312	1468.56
497.529	1520.56
497.746	1506.56
497.963	1557.56
498.181	1610.56
498.398	1716.56
498.615	1791.56
498.832	1935.56
499.049	2107.56
499.267	2301.56
499.484	2535.56
499.701	2800.56
499.918	3172.56
500.135	3613.56
500.352	4248.56
500.569	4491.56
500.786	4391.56
501.003	4036.56
501.22	3555.56
501.437	3097.56
501.654	2655.56
501.871	2399.56
502.088	2235.56
502.305	2082.56
502.522	1912.56
502.739	1900.56
502.956	1792.56
503.172	1679.56
503.389	1609.56
503.606	1560.56
503.823	1512.56
504.04	1532.56
504.256	1570.56
504.473	1607.56
504.69	1633.56
504.907	1602.56
505.123	1519.56
505.34	1365.56
505.557	1330.56
505.773	1315.56
505.99	1282.56
506.207	1238.56
506.423	1232.56
506.64	1227.56
506.856	1194.56
507.073	1186.56
507.289	1193.56
507.506	1189.56
507.722	1184.56
507.939	1141.56
508.155	1175.56
508.372	1123.56
508.588	1146.56
508.805	1100.56
509.021	1092.56
509.238	1126.56
509.454	1118.56
509.67	1087.56
509.887	1116.56
510.103	1104.56
510.319	1100.56
510.536	1075.56
510.752	1039.56
510.968	1077.56
511.184	1036.56
511.401	1056.56
511.617	1097.56
511.833	1080.56
512.049	1061.56
512.265	1066.56
512.481	1058.56
512.698	1071.56
512.914	1043.56
513.13	1065.56
513.346	1090.56
513.562	1055.56
513.778	1080.56
513.994	1076.56
514.21	1103.56
514.426	1082.56
514.642	1076.56
514.858	1099.56
515.074	1115.56
515.29	1144.56
515.506	1152.56
515.721	1169.56
515.937	1162.56
516.153	1175.56
516.369	1196.56
516.585	1266.56
516.801	1286.56
517.016	1346.56
517.232	1445.56
517.448	1483.56
517.664	1529.56
517.879	1582.56
518.095	1557.56
518.311	1543.56
518.527	1463.56
518.742	1398.56
518.958	1324.56
519.173	1268.56
519.389	1240.56
519.605	1164.56
519.82	1148.56
520.036	1147.56
520.251	1133.56
520.467	1102.56
520.682	1105.56
520.898	1099.56
521.113	1051.56
521.329	1067.56
521.544	1008.56
521.76	1039.56
521.975	1041.56
522.19	1034.56
522.406	1026.56
522.621	1039.56
522.836	1003.56
523.052	1006.56
523.267	983.56
523.482	1003.56
523.698	1002.56
523.913	1015.56
524.128	1019.56
524.343	994.56
524.559	983.56
524.774	992.56
524.989	1002.56
525.204	968.56
525.419	984.56
525.634	967.56
525.849	991.56
526.064	970.56
526.28	961.56
526.495	963.56
526.71	950.56
526.925	949.56
527.14	978.56
527.355	940.56
527.57	981.56
527.785	950.56
527.999	973.56
528.214	953.56
528.429	994.56
528.644	974.56
528.859	993.56
529.074	966.56
529.289	976.56
529.503	981.56
529.718	988.56
529.933	943.56
530.148	968.56
530.363	977.56
530.577	971.56
530.792	972.56
531.007	946.56
531.221	957.56
531.436	960.56
531.651	957.56
531.865	961.56
532.08	966.56
532.295	976.56
532.509	973.56
532.724	1006.56
532.938	1001.56
533.153	993.56
533.367	973.56
533.582	969.56
533.796	968.56
534.011	952.56
534.225	949.56
534.44	943.56
534.654	932.56
534.868	934.56
535.083	947.56
535.297	945.56
535.511	914.56
535.726	940.56
535.94	902.56
536.154	924.56
536.369	944.56
536.583	903.56
536.797	898.56
537.011	895.56
537.225	902.56
537.44	888.56
537.654	906.56
537.868	871.56
538.082	868.56
538.296	885.56
538.51	896.56
538.724	862.56
538.938	876.56
539.153	862.56
539.367	863.56
539.581	878.56
539.795	864.56
540.009	852.56
540.222	879.56
540.436	875.56
540.65	859.56
540.864	883.56
541.078	870.56
541.292	879.56
541.506	858.56
541.72	871.56
541.934	829.56
542.147	900.56
542.361	864.56
542.575	860.56
542.789	836.56
543.002	841.56
543.216	848.56
543.43	871.56
543.644	840.56
543.857	854.56
544.071	859.56
544.285	860.56
544.498	856.56
544.712	848.56
544.925	862.56
545.139	892.56
545.352	897.56
545.566	867.56
545.779	887.56
545.993	904.56
546.206	895.56
546.42	864.56
546.633	909.56
546.847	884.56
547.06	872.56
547.274	871.56
547.487	867.56
547.7	893.56
547.914	886.56
548.127	903.56
548.34	889.56
548.554	891.56
548.767	902.56
548.98	885.56
549.193	870.56
549.407	923.56
549.62	938.56
549.833	941.56
550.046	922.56
550.259	929.56
550.473	880.56
550.686	868.56
550.899	880.56
551.112	870.56
551.325	851.56
551.538	856.56
551.751	842.56
551.964	858.56
552.177	871.56
552.39	912.56
552.603	914.56
552.816	930.56
553.029	956.56
553.242	980.56
553.455	987.56
553.667	986.56
553.88	980.56
554.093	948.56
554.306	919.56
554.519	891.56
554.732	884.56
554.944	882.56
555.157	847.56
555.37	831.56
555.583	835.56
555.795	802.56
556.008	815.56
556.221	798.56
556.433	769.56
556.646	771.56
556.859	765.56
557.071	764.56
557.284	763.56
557.496	766.56
557.709	739.56
557.921	742.56
558.134	729.56
558.346	748.56
558.559	747.56
558.771	751.56
558.984	708.56
559.196	730.56
559.409	766.56
559.621	745.56
559.833	707.56
560.046	725.56
560.258	712.56
560.47	695.56
560.683	731.56
560.895	708.56
561.107	706.56
561.32	714.56
561.532	721.56
561.744	720.56
561.956	743.56
562.168	731.56
562.381	743.56
562.593	744.56
562.805	736.56
563.017	730.56
563.229	725.56
563.441	719.56
563.653	733.56
563.865	747.56
564.077	727.56
564.289	735.56
564.501	756.56
564.713	772.56
564.925	749.56
565.137	792.56
565.349	803.56
565.561	859.56
565.773	853.56
565.985	906.56
566.197	928.56
566.408	1007.56
566.62	1150.56
566.832	1250.56
567.044	1246.56
567.255	1236.56
567.467	1280.56
567.679	1355.56
567.891	1450.56
568.102	1560.56
568.314	1511.56
568.526	1285.56
568.737	1144.56
568.949	1031.56
569.161	934.56
569.372	890.56
569.584	811.56
569.795	827.56
570.007	800.56
570.218	743.56
570.43	747.56
570.641	756.56
570.853	743.56
571.064	801.56
571.276	795.56
571.487	755.56
571.698	722.56
571.91	687.56
572.121	653.56
572.333	670.56
572.544	633.56
572.755	611.56
572.966	628.56
573.178	622.56
573.389	602.56
573.6	578.56
573.811	608.56
574.023	591.56
574.234	594.56
574.445	589.56
574.656	594.56
574.867	600.56
575.078	601.56
575.289	595.56
575.501	580.56
575.712	560.56
575.923	563.56
576.134	554.56
576.345	539.56
576.556	582.56
576.767	570.56
576.978	569.56
577.188	535.56
577.399	557.56
577.61	548.56
577.821	540.56
578.032	519.56
578.243	527.56
578.454	529.56
578.665	532.56
578.875	543.56
579.086	537.56
579.297	532.56
579.508	521.56
579.718	528.56
579.929	533.56
580.14	530.56
580.35	527.56
580.561	517.56
580.772	520.56
580.982	510.56
581.193	495.56
581.403	499.56
581.614	506.56
581.825	525.56
582.035	496.56
582.246	522.56
582.456	509.56
582.667	500.56
582.877	492.56
583.087	488.56
583.298	524.56
583.508	495.56
583.719	522.56
583.929	521.56
584.139	484.56
584.35	489.56
584.56	488.56
584.77	467.56
584.981	469.56
585.191	489.56
585.401	490.56
585.611	492.56
585.821	485.56
586.032	494.56
586.242	474.56
586.452	460.56
586.662	476.56
586.872	502.56
587.082	468.56
587.292	474.56
587.502	462.56
587.713	463.56
587.923	462.56
588.133	460.56
588.343	476.56
588.553	470.56
588.762	498.56
588.972	466.56
589.182	473.56
589.392	466.56
589.602	462.56
589.812	492.56
590.022	475.56
590.232	476.56
590.441	489.56
590.651	487.56
590.861	477.56
591.071	506.56
591.281	462.56
591.49	502.56
591.7	491.56
591.91	487.56
592.119	506.56
592.329	542.56
592.539	546.56
592.748	540.56
592.958	575.56
593.167	596.56
593.377	604.56
593.587	632.56
593.796	638.56
594.006	635.56
594.215	654.56
594.424	650.56
594.634	629.56
594.843	591.56
595.053	560.56
595.262	553.56
595.472	521.56
595.681	491.56
595.89	508.56
596.1	497.56
596.309	486.56
596.518	459.56
596.727	468.56
596.937	454.56
597.146	451.56
597.355	436.56
597.564	431.56
597.774	428.56
597.983	429.56
598.192	392.56
598.401	420.56
598.61	441.56
598.819	423.56
599.028	426.56
599.237	394.56
599.446	411.56
599.655	399.56
599.864	404.56
600.073	386.56
600.282	412.56
600.491	390.56
600.7	401.56
600.909	375.56
601.118	390.56
601.327	404.56
601.536	390.56
601.745	409.56
601.953	395.56
602.162	399.56
602.371	384.56
602.58	392.56
602.789	392.56
602.997	388.56
603.206	370.56
603.415	381.56
603.623	380.56
603.832	395.56
604.041	386.56
604.249	360.56
604.458	376.56
604.666	367.56
604.875	367.56
605.084	371.56
605.292	396.56
605.501	356.56
605.709	380.56
605.918	363.56
606.126	376.56
606.334	362.56
606.543	345.56
606.751	360.56
606.96	375.56
607.168	357.56
607.376	365.56
607.585	365.56
607.793	361.56
608.001	366.56
608.21	359.56
608.418	363.56
608.626	367.56
608.834	361.56
609.043	356.56
609.251	366.56
609.459	363.56
609.667	364.56
609.875	350.56
610.083	351.56
610.291	340.56
610.499	351.56
610.707	328.56
610.916	362.56
611.124	350.56
611.332	349.56
611.54	352.56
611.748	336.56
611.955	340.56
612.163	334.56
612.371	348.56
612.579	340.56
612.787	365.56
612.995	352.56
613.203	344.56
613.411	345.56
613.618	351.56
613.826	349.56
614.034	353.56
614.242	348.56
614.449	334.56
614.657	338.56
614.865	331.56
615.072	341.56
615.28	342.56
615.488	341.56
615.695	351.56
615.903	349.56
616.111	342.56
616.318	357.56
616.526	362.56
616.733	332.56
616.941	347.56
617.148	357.56
617.356	349.56
617.563	347.56
617.771	340.56
617.978	324.56
618.185	325.56
618.393	320.56
618.6	307.56
618.807	351.56
619.015	334.56
619.222	333.56
619.429	314.56
619.637	347.56
619.844	335.56
620.051	329.56
620.258	314.56
620.466	331.56
620.673	327.56
620.88	332.56
621.087	316.56
621.294	303.56
621.501	322.56
621.708	303.56
621.915	324.56
622.122	306.56
622.329	322.56
622.536	314.56
622.743	322.56
622.95	314.56
623.157	310.56
623.364	297.56
623.571	308.56
623.778	312.56
623.985	307.56
624.192	301.56
624.399	282.56
624.606	279.56
624.812	306.56
625.019	285.56
625.226	292.56
625.433	298.56
625.639	300.56
625.846	276.56
626.053	286.56
626.259	286.56
626.466	290.56
626.673	287.56
626.879	274.56
627.086	278.56
627.293	295.56
627.499	287.56
627.706	285.56
627.912	287.56
628.119	290.56
628.325	294.56
628.532	272.56
628.738	267.56
628.945	273.56
629.151	281.56
629.357	262.56
629.564	264.56
629.77	276.56
629.976	271.56
630.183	278.56
630.389	268.56
630.595	278.56
630.802	263.56
631.008	238.56
631.214	255.56
631.42	263.56
631.627	276.56
631.833	274.56
632.039	259.56
632.245	268.56
632.451	252.56
632.657	248.56
632.863	254.56
633.069	255.56
633.275	263.56
633.481	244.56
633.688	250.56
633.893	229.56
634.099	258.56
634.305	252.56
634.511	247.56
634.717	260.56
634.923	246.56
635.129	249.56
635.335	238.56
635.541	242.56
635.747	254.56
635.952	254.56
636.158	235.56
636.364	255.56
636.57	250.56
636.775	238.56
636.981	260.56
637.187	255.56
637.392	246.56
637.598	228.56
637.804	245.56
638.009	246.56
638.215	252.56
638.421	206.56
638.626	217.56
638.832	239.56
639.037	221.56
639.243	214.56
639.448	239.56
639.654	248.56
639.859	222.56
640.065	228.56
640.27	232.56
640.475	227.56
640.681	217.56
640.886	235.56
641.091	223.56
641.297	228.56
641.502	220.56
641.707	208.56
641.913	239.56
642.118	220.56
642.323	239.56
642.528	232.56
642.733	219.56
642.939	219.56
643.144	205.56
643.349	205.56
643.554	225.56
643.759	219.56
643.964	211.56
644.169	213.56
644.374	220.56
644.579	214.56
644.784	213.56
644.989	220.56
645.194	218.56
645.399	234.56
645.604	204.56
645.809	213.56
646.014	209.56
646.219	219.56
646.423	225.56
646.628	229.56
646.833	223.56
647.038	219.56
647.243	214.56
647.447	220.56
647.652	234.56
647.857	248.56
648.062	228.56
648.266	233.56
648.471	248.56
648.676	230.56
648.88	227.56
649.085	226.56
649.289	212.56
649.494	226.56
649.698	225.56
649.903	217.56
650.107	217.56
650.312	226.56
650.516	200.56
650.721	194.56
650.925	198.56
651.13	204.56
651.334	190.56
651.539	215.56
651.743	189.56
651.947	184.56
652.152	199.56
652.356	182.56
652.56	179.56
652.764	169.56
652.969	170.56
653.173	173.56
653.377	174.56
653.581	157.56
653.785	178.56
653.99	175.56
654.194	158.56
654.398	162.56
654.602	142.56
654.806	160.56
655.01	150.56
655.214	146.56
655.418	124.56
655.622	152.56
655.826	164.56
656.03	162.56
656.234	144.56
656.438	138.56
656.642	150.56
656.846	160.56
657.049	135.56
657.253	142.56
657.457	148.56
657.661	133.56
657.865	124.56
658.068	128.56
658.272	131.56
658.476	118.56
658.68	119.56
658.883	126.56
659.087	118.56
659.291	111.56
659.494	126.56
659.698	112.56
659.901	101.56
660.105	107.56
660.309	114.56
660.512	110.56
660.716	110.56
660.919	97.56
661.123	96.56
661.326	97.56
661.53	97.56
661.733	101.56
661.936	79.56
662.14	90.56
662.343	77.56
662.546	86.56
662.75	89.56
662.953	94.56
663.156	85.56
663.36	87.56
663.563	87.56
663.766	80.56
663.969	78.56
664.173	93.56
664.376	93.56
664.579	88.56
664.782	99.56
664.985	92.56
665.188	84.56
665.391	94.56
665.594	89.56
665.797	80.56
666	86.56
666.203	76.56
666.406	85.56
666.609	77.56
666.812	72.56
667.015	87.56
667.218	82.56
667.421	95.56
667.624	89.56
667.827	78.56
668.03	78.56
668.232	84.56
668.435	80.56
668.638	82.56
668.841	84.56
669.043	75.56
669.246	85.56
669.449	87.56
669.651	90.56
669.854	94.56
670.057	91.56
670.259	75.56
670.462	84.56
670.665	90.56
670.867	84.56
671.07	92.56
671.272	79.56
671.475	90.56
671.677	70.56
671.88	83.56
672.082	75.56
672.284	80.56
672.487	96.56
672.689	80.56
672.892	85.56
