Data from NiCl2@0.25M.TitratingCurve.Agarose3%dH2O.NegLispCup.LampEnergy10.LIBS07252019_HRD10591_18-26-19-574.txt Node
Date: Thu Jul 25 18:26:19 EDT 2019
User: cochatt
Spectrometer: HR+D1059
Trigger mode: 1
Integration Time (sec): 1.000000E-1
Scans to average: 1
Electric dark correction enabled: true
Nonlinearity correction enabled: false
Boxcar width: 0
XAxis mode: Wavelengths
Number of Pixels in Spectrum: 2048
>>>>>Begin Spectral Data<<<<<
223.165	-7.19
223.4	-7.19
223.635	-7.19
223.869	-12.19
224.104	-5.19
224.338	-17.19
224.573	-18.19
224.808	-16.19
225.042	-3.19
225.277	7.81
225.511	-12.19
225.746	-1.19
225.98	11.81
226.215	6.81
226.449	19.81
226.683	-0.19
226.918	19.81
227.152	26.81
227.387	37.81
227.621	38.81
227.856	41.81
228.09	48.81
228.324	63.81
228.559	53.81
228.793	62.81
229.027	111.81
229.262	114.81
229.496	119.81
229.73	132.81
229.964	138.81
230.199	145.81
230.433	145.81
230.667	152.81
230.901	141.81
231.136	129.81
231.37	146.81
231.604	154.81
231.838	162.81
232.072	165.81
232.306	159.81
232.541	160.81
232.775	152.81
233.009	154.81
233.243	160.81
233.477	166.81
233.711	173.81
233.945	162.81
234.179	162.81
234.413	161.81
234.647	166.81
234.881	162.81
235.115	158.81
235.349	181.81
235.583	162.81
235.817	163.81
236.051	169.81
236.285	181.81
236.519	169.81
236.753	191.81
236.987	193.81
237.221	177.81
237.455	178.81
237.689	163.81
237.922	187.81
238.156	176.81
238.39	204.81
238.624	177.81
238.858	202.81
239.091	199.81
239.325	211.81
239.559	183.81
239.793	200.81
240.027	201.81
240.26	184.81
240.494	205.81
240.728	190.81
240.961	178.81
241.195	196.81
241.429	210.81
241.662	218.81
241.896	208.81
242.13	214.81
242.363	219.81
242.597	215.81
242.83	202.81
243.064	231.81
243.298	230.81
243.531	235.81
243.765	254.81
243.998	239.81
244.232	220.81
244.465	232.81
244.699	241.81
244.932	250.81
245.166	250.81
245.399	247.81
245.633	239.81
245.866	250.81
246.099	238.81
246.333	245.81
246.566	239.81
246.8	259.81
247.033	242.81
247.266	269.81
247.5	246.81
247.733	259.81
247.966	266.81
248.2	282.81
248.433	253.81
248.666	257.81
248.899	279.81
249.133	294.81
249.366	289.81
249.599	271.81
249.832	273.81
250.066	288.81
250.299	277.81
250.532	287.81
250.765	284.81
250.998	297.81
251.231	297.81
251.465	299.81
251.698	297.81
251.931	298.81
252.164	307.81
252.397	306.81
252.63	304.81
252.863	308.81
253.096	320.81
253.329	325.81
253.562	291.81
253.795	304.81
254.028	320.81
254.261	318.81
254.494	328.81
254.727	325.81
254.96	326.81
255.193	356.81
255.426	343.81
255.659	336.81
255.892	313.81
256.124	327.81
256.357	344.81
256.59	345.81
256.823	347.81
257.056	358.81
257.289	346.81
257.521	325.81
257.754	337.81
257.987	343.81
258.22	362.81
258.452	345.81
258.685	373.81
258.918	353.81
259.151	350.81
259.383	363.81
259.616	360.81
259.849	361.81
260.081	372.81
260.314	364.81
260.547	360.81
260.779	370.81
261.012	362.81
261.244	373.81
261.477	393.81
261.71	362.81
261.942	379.81
262.175	386.81
262.407	386.81
262.64	382.81
262.872	402.81
263.105	392.81
263.337	389.81
263.57	387.81
263.802	386.81
264.035	387.81
264.267	386.81
264.499	404.81
264.732	406.81
264.964	394.81
265.197	421.81
265.429	407.81
265.661	404.81
265.894	394.81
266.126	390.81
266.358	415.81
266.591	412.81
266.823	400.81
267.055	410.81
267.287	417.81
267.52	405.81
267.752	445.81
267.984	426.81
268.216	416.81
268.448	411.81
268.681	433.81
268.913	432.81
269.145	425.81
269.377	424.81
269.609	420.81
269.841	430.81
270.073	442.81
270.306	430.81
270.538	464.81
270.77	423.81
271.002	434.81
271.234	436.81
271.466	443.81
271.698	415.81
271.93	443.81
272.162	450.81
272.394	453.81
272.626	445.81
272.858	453.81
273.09	460.81
273.322	460.81
273.553	480.81
273.785	473.81
274.017	465.81
274.249	486.81
274.481	465.81
274.713	473.81
274.945	466.81
275.176	487.81
275.408	484.81
275.64	497.81
275.872	480.81
276.104	488.81
276.335	474.81
276.567	507.81
276.799	483.81
277.031	510.81
277.262	495.81
277.494	508.81
277.726	499.81
277.957	511.81
278.189	507.81
278.421	503.81
278.652	498.81
278.884	509.81
279.115	522.81
279.347	539.81
279.579	516.81
279.81	531.81
280.042	515.81
280.273	536.81
280.505	522.81
280.736	523.81
280.968	513.81
281.199	529.81
281.431	526.81
281.662	529.81
281.894	524.81
282.125	543.81
282.356	549.81
282.588	537.81
282.819	562.81
283.051	526.81
283.282	568.81
283.513	559.81
283.745	561.81
283.976	551.81
284.207	559.81
284.439	550.81
284.67	561.81
284.901	561.81
285.132	551.81
285.364	569.81
285.595	562.81
285.826	578.81
286.057	568.81
286.288	576.81
286.52	570.81
286.751	613.81
286.982	574.81
287.213	587.81
287.444	574.81
287.675	610.81
287.906	599.81
288.138	604.81
288.369	588.81
288.6	612.81
288.831	601.81
289.062	631.81
289.293	585.81
289.524	601.81
289.755	587.81
289.986	587.81
290.217	600.81
290.448	626.81
290.679	593.81
290.91	597.81
291.141	592.81
291.371	616.81
291.602	611.81
291.833	622.81
292.064	613.81
292.295	612.81
292.526	608.81
292.757	611.81
292.987	600.81
293.218	604.81
293.449	615.81
293.68	635.81
293.91	621.81
294.141	611.81
294.372	619.81
294.603	639.81
294.833	608.81
295.064	605.81
295.295	626.81
295.525	645.81
295.756	617.81
295.987	612.81
296.217	642.81
296.448	620.81
296.679	634.81
296.909	641.81
297.14	627.81
297.37	667.81
297.601	650.81
297.831	647.81
298.062	650.81
298.292	665.81
298.523	687.81
298.753	691.81
298.984	650.81
299.214	691.81
299.445	681.81
299.675	677.81
299.905	657.81
300.136	673.81
300.366	680.81
300.597	710.81
300.827	683.81
301.057	685.81
301.288	701.81
301.518	708.81
301.748	709.81
301.979	695.81
302.209	696.81
302.439	707.81
302.669	669.81
302.9	717.81
303.13	690.81
303.36	704.81
303.59	714.81
303.82	704.81
304.051	704.81
304.281	727.81
304.511	714.81
304.741	706.81
304.971	693.81
305.201	689.81
305.431	675.81
305.661	721.81
305.891	705.81
306.121	710.81
306.352	702.81
306.582	696.81
306.812	701.81
307.042	706.81
307.272	694.81
307.502	697.81
307.731	677.81
307.961	671.81
308.191	685.81
308.421	692.81
308.651	703.81
308.881	675.81
309.111	687.81
309.341	679.81
309.571	691.81
309.8	695.81
310.03	698.81
310.26	676.81
310.49	685.81
310.72	714.81
310.949	633.81
311.179	705.81
311.409	702.81
311.639	726.81
311.868	697.81
312.098	717.81
312.328	701.81
312.557	735.81
312.787	725.81
313.017	695.81
313.246	718.81
313.476	688.81
313.706	740.81
313.935	724.81
314.165	735.81
314.394	738.81
314.624	733.81
314.853	733.81
315.083	747.81
315.312	757.81
315.542	744.81
315.771	708.81
316.001	721.81
316.23	729.81
316.46	707.81
316.689	732.81
316.919	711.81
317.148	737.81
317.377	736.81
317.607	713.81
317.836	736.81
318.065	711.81
318.295	693.81
318.524	702.81
318.753	718.81
318.983	704.81
319.212	710.81
319.441	714.81
319.67	714.81
319.9	733.81
320.129	725.81
320.358	714.81
320.587	742.81
320.816	718.81
321.046	730.81
321.275	728.81
321.504	733.81
321.733	725.81
321.962	715.81
322.191	737.81
322.42	718.81
322.649	734.81
322.878	737.81
323.108	722.81
323.337	745.81
323.566	731.81
323.795	769.81
324.024	747.81
324.253	735.81
324.482	746.81
324.71	730.81
324.939	750.81
325.168	751.81
325.397	735.81
325.626	725.81
325.855	779.81
326.084	767.81
326.313	801.81
326.542	799.81
326.77	833.81
326.999	791.81
327.228	793.81
327.457	788.81
327.686	769.81
327.914	803.81
328.143	790.81
328.372	808.81
328.6	795.81
328.829	771.81
329.058	781.81
329.287	820.81
329.515	779.81
329.744	810.81
329.972	821.81
330.201	803.81
330.43	813.81
330.658	810.81
330.887	785.81
331.115	807.81
331.344	816.81
331.572	821.81
331.801	834.81
332.03	852.81
332.258	894.81
332.486	898.81
332.715	917.81
332.943	953.81
333.172	964.81
333.4	1013.81
333.629	1022.81
333.857	1030.81
334.085	1043.81
334.314	1049.81
334.542	1026.81
334.771	1034.81
334.999	1016.81
335.227	1018.81
335.455	1017.81
335.684	990.81
335.912	962.81
336.14	963.81
336.369	967.81
336.597	951.81
336.825	931.81
337.053	939.81
337.281	914.81
337.51	892.81
337.738	911.81
337.966	848.81
338.194	893.81
338.422	885.81
338.65	837.81
338.878	865.81
339.106	843.81
339.334	851.81
339.562	864.81
339.79	851.81
340.018	830.81
340.246	815.81
340.474	813.81
340.702	809.81
340.93	822.81
341.158	865.81
341.386	817.81
341.614	821.81
341.842	825.81
342.07	817.81
342.298	822.81
342.526	839.81
342.754	824.81
342.981	837.81
343.209	850.81
343.437	865.81
343.665	897.81
343.893	979.81
344.12	1028.81
344.348	984.81
344.576	922.81
344.804	908.81
345.031	901.81
345.259	851.81
345.487	833.81
345.714	804.81
345.942	825.81
346.17	798.81
346.397	824.81
346.625	795.81
346.853	812.81
347.08	829.81
347.308	807.81
347.535	787.81
347.763	796.81
347.99	834.81
348.218	816.81
348.445	822.81
348.673	781.81
348.9	790.81
349.128	787.81
349.355	816.81
349.583	806.81
349.81	787.81
350.037	783.81
350.265	751.81
350.492	776.81
350.72	780.81
350.947	744.81
351.174	787.81
351.402	759.81
351.629	765.81
351.856	770.81
352.083	748.81
352.311	769.81
352.538	786.81
352.765	775.81
352.992	735.81
353.22	772.81
353.447	750.81
353.674	746.81
353.901	756.81
354.128	746.81
354.355	737.81
354.583	746.81
354.81	768.81
355.037	805.81
355.264	767.81
355.491	763.81
355.718	745.81
355.945	765.81
356.172	750.81
356.399	778.81
356.626	758.81
356.853	761.81
357.08	772.81
357.307	774.81
357.534	752.81
357.761	752.81
357.988	776.81
358.215	773.81
358.441	767.81
358.668	772.81
358.895	744.81
359.122	755.81
359.349	789.81
359.576	761.81
359.802	734.81
360.029	741.81
360.256	746.81
360.483	752.81
360.709	774.81
360.936	767.81
361.163	786.81
361.39	773.81
361.616	797.81
361.843	772.81
362.07	778.81
362.296	781.81
362.523	773.81
362.749	803.81
362.976	747.81
363.203	789.81
363.429	753.81
363.656	746.81
363.882	771.81
364.109	787.81
364.335	763.81
364.562	774.81
364.788	758.81
365.015	752.81
365.241	772.81
365.468	766.81
365.694	736.81
365.92	743.81
366.147	777.81
366.373	773.81
366.599	783.81
366.826	754.81
367.052	765.81
367.278	765.81
367.505	760.81
367.731	774.81
367.957	779.81
368.184	761.81
368.41	787.81
368.636	800.81
368.862	769.81
369.089	784.81
369.315	789.81
369.541	810.81
369.767	791.81
369.993	793.81
370.219	784.81
370.445	805.81
370.672	817.81
370.898	823.81
371.124	829.81
371.35	832.81
371.576	840.81
371.802	838.81
372.028	815.81
372.254	822.81
372.48	840.81
372.706	867.81
372.932	872.81
373.158	872.81
373.384	843.81
373.61	834.81
373.835	831.81
374.061	835.81
374.287	842.81
374.513	845.81
374.739	904.81
374.965	919.81
375.191	925.81
375.416	927.81
375.642	888.81
375.868	889.81
376.094	864.81
376.319	881.81
376.545	843.81
376.771	829.81
376.997	835.81
377.222	823.81
377.448	840.81
377.674	833.81
377.899	830.81
378.125	833.81
378.35	835.81
378.576	808.81
378.802	845.81
379.027	831.81
379.253	848.81
379.478	843.81
379.704	811.81
379.929	814.81
380.155	838.81
380.38	818.81
380.606	842.81
380.831	849.81
381.057	817.81
381.282	821.81
381.507	834.81
381.733	846.81
381.958	883.81
382.184	828.81
382.409	841.81
382.634	860.81
382.86	868.81
383.085	876.81
383.31	909.81
383.535	894.81
383.761	914.81
383.986	910.81
384.211	934.81
384.436	962.81
384.662	963.81
384.887	981.81
385.112	974.81
385.337	997.81
385.562	971.81
385.787	978.81
386.013	982.81
386.238	1003.81
386.463	1018.81
386.688	1033.81
386.913	992.81
387.138	996.81
387.363	971.81
387.588	1017.81
387.813	980.81
388.038	1028.81
388.263	993.81
388.488	1013.81
388.713	997.81
388.938	1002.81
389.163	967.81
389.387	979.81
389.612	966.81
389.837	994.81
390.062	986.81
390.287	994.81
390.512	983.81
390.736	1001.81
390.961	1025.81
391.186	1035.81
391.411	1043.81
391.636	1102.81
391.86	1085.81
392.085	1125.81
392.31	1121.81
392.534	1084.81
392.759	1097.81
392.984	1060.81
393.208	1058.81
393.433	1047.81
393.658	1066.81
393.882	1077.81
394.107	1071.81
394.331	1059.81
394.556	1086.81
394.78	1042.81
395.005	1065.81
395.229	1051.81
395.454	1076.81
395.678	1109.81
395.903	1103.81
396.127	1154.81
396.352	1111.81
396.576	1077.81
396.801	1085.81
397.025	1126.81
397.249	1120.81
397.474	1141.81
397.698	1104.81
397.922	1135.81
398.147	1147.81
398.371	1186.81
398.595	1165.81
398.82	1237.81
399.044	1338.81
399.268	1433.81
399.492	1641.81
399.717	1804.81
399.941	1813.81
400.165	1683.81
400.389	1591.81
400.613	1423.81
400.837	1350.81
401.062	1310.81
401.286	1308.81
401.51	1296.81
401.734	1277.81
401.958	1294.81
402.182	1285.81
402.406	1301.81
402.63	1306.81
402.854	1333.81
403.078	1334.81
403.302	1375.81
403.526	1382.81
403.75	1374.81
403.974	1411.81
404.198	1404.81
404.422	1456.81
404.645	1392.81
404.869	1396.81
405.093	1410.81
405.317	1375.81
405.541	1423.81
405.765	1402.81
405.988	1370.81
406.212	1401.81
406.436	1405.81
406.66	1398.81
406.883	1427.81
407.107	1488.81
407.331	1580.81
407.555	1585.81
407.778	1592.81
408.002	1572.81
408.226	1584.81
408.449	1535.81
408.673	1475.81
408.896	1446.81
409.12	1425.81
409.344	1426.81
409.567	1394.81
409.791	1441.81
410.014	1425.81
410.238	1395.81
410.461	1413.81
410.685	1390.81
410.908	1331.81
411.132	1329.81
411.355	1309.81
411.578	1317.81
411.802	1291.81
412.025	1363.81
412.249	1366.81
412.472	1319.81
412.695	1314.81
412.919	1279.81
413.142	1269.81
413.365	1278.81
413.589	1252.81
413.812	1271.81
414.035	1250.81
414.258	1224.81
414.482	1261.81
414.705	1282.81
414.928	1306.81
415.151	1282.81
415.374	1258.81
415.597	1235.81
415.821	1200.81
416.044	1235.81
416.267	1189.81
416.49	1201.81
416.713	1209.81
416.936	1221.81
417.159	1197.81
417.382	1192.81
417.605	1218.81
417.828	1208.81
418.051	1259.81
418.274	1253.81
418.497	1251.81
418.72	1265.81
418.943	1285.81
419.166	1368.81
419.389	1429.81
419.611	1405.81
419.834	1333.81
420.057	1302.81
420.28	1270.81
420.503	1232.81
420.726	1240.81
420.948	1222.81
421.171	1240.81
421.394	1240.81
421.617	1235.81
421.839	1242.81
422.062	1233.81
422.285	1204.81
422.507	1248.81
422.73	1266.81
422.953	1255.81
423.175	1277.81
423.398	1342.81
423.621	1226.81
423.843	1279.81
424.066	1302.81
424.288	1257.81
424.511	1234.81
424.733	1272.81
424.956	1249.81
425.178	1255.81
425.401	1243.81
425.623	1245.81
425.846	1221.81
426.068	1199.81
426.291	1196.81
426.513	1190.81
426.735	1184.81
426.958	1174.81
427.18	1138.81
427.402	1151.81
427.625	1134.81
427.847	1131.81
428.069	1104.81
428.292	1122.81
428.514	1095.81
428.736	1127.81
428.958	1114.81
429.181	1086.81
429.403	1063.81
429.625	1117.81
429.847	1079.81
430.069	1064.81
430.292	1095.81
430.514	1061.81
430.736	1066.81
430.958	1066.81
431.18	1075.81
431.402	1087.81
431.624	1078.81
431.846	1108.81
432.068	1127.81
432.29	1139.81
432.512	1114.81
432.734	1121.81
432.956	1118.81
433.178	1130.81
433.4	1120.81
433.622	1111.81
433.844	1142.81
434.066	1121.81
434.287	1133.81
434.509	1174.81
434.731	1193.81
434.953	1216.81
435.175	1251.81
435.397	1238.81
435.618	1188.81
435.84	1161.81
436.062	1118.81
436.284	1143.81
436.505	1081.81
436.727	1089.81
436.949	1108.81
437.17	1093.81
437.392	1099.81
437.614	1089.81
437.835	1062.81
438.057	1055.81
438.278	1040.81
438.5	1033.81
438.721	1067.81
438.943	1106.81
439.165	1081.81
439.386	1067.81
439.608	1075.81
439.829	1116.81
440.05	1111.81
440.272	1106.81
440.493	1094.81
440.715	1119.81
440.936	1125.81
441.158	1128.81
441.379	1169.81
441.6	1216.81
441.822	1212.81
442.043	1254.81
442.264	1194.81
442.486	1201.81
442.707	1200.81
442.928	1176.81
443.149	1173.81
443.371	1179.81
443.592	1210.81
443.813	1234.81
444.034	1229.81
444.255	1288.81
444.476	1295.81
444.698	1391.81
444.919	1409.81
445.14	1473.81
445.361	1349.81
445.582	1299.81
445.803	1208.81
446.024	1183.81
446.245	1175.81
446.466	1133.81
446.687	1149.81
446.908	1114.81
447.129	1091.81
447.35	1098.81
447.571	1074.81
447.792	1016.81
448.013	1051.81
448.234	1021.81
448.455	1019.81
448.675	984.81
448.896	1009.81
449.117	1003.81
449.338	1005.81
449.559	985.81
449.779	1002.81
450	1012.81
450.221	1002.81
450.442	1006.81
450.662	1048.81
450.883	1026.81
451.104	1028.81
451.324	1011.81
451.545	1021.81
451.766	1020.81
451.986	1018.81
452.207	986.81
452.428	969.81
452.648	977.81
452.869	967.81
453.089	981.81
453.31	992.81
453.53	978.81
453.751	971.81
453.971	1002.81
454.192	999.81
454.412	963.81
454.633	949.81
454.853	970.81
455.073	953.81
455.294	964.81
455.514	962.81
455.734	932.81
455.955	941.81
456.175	931.81
456.395	938.81
456.616	918.81
456.836	948.81
457.056	955.81
457.276	940.81
457.497	976.81
457.717	936.81
457.937	976.81
458.157	982.81
458.377	1005.81
458.598	966.81
458.818	1053.81
459.038	1031.81
459.258	1097.81
459.478	1149.81
459.698	1149.81
459.918	1157.81
460.138	1246.81
460.358	1283.81
460.578	1277.81
460.798	1318.81
461.018	1322.81
461.238	1307.81
461.458	1295.81
461.678	1305.81
461.898	1311.81
462.118	1353.81
462.338	1401.81
462.558	1413.81
462.777	1476.81
462.997	1614.81
463.217	1645.81
463.437	1704.81
463.657	1622.81
463.876	1547.81
464.096	1549.81
464.316	1558.81
464.536	1524.81
464.755	1501.81
464.975	1465.81
465.195	1365.81
465.414	1285.81
465.634	1203.81
465.854	1171.81
466.073	1133.81
466.293	1113.81
466.512	1073.81
466.732	1059.81
466.951	1057.81
467.171	1071.81
467.391	1051.81
467.61	1060.81
467.829	1073.81
468.049	1029.81
468.268	1023.81
468.488	1014.81
468.707	1019.81
468.927	997.81
469.146	1029.81
469.365	1058.81
469.585	1037.81
469.804	1077.81
470.023	1052.81
470.243	1079.81
470.462	1095.81
470.681	1103.81
470.901	1072.81
471.12	1093.81
471.339	1049.81
471.558	1039.81
471.777	1027.81
471.997	1042.81
472.216	1033.81
472.435	987.81
472.654	1001.81
472.873	1022.81
473.092	1011.81
473.311	1014.81
473.53	996.81
473.749	997.81
473.968	989.81
474.187	978.81
474.406	962.81
474.625	1009.81
474.844	1017.81
475.063	1034.81
475.282	1019.81
475.501	1049.81
475.72	977.81
475.939	1028.81
476.158	1032.81
476.377	1076.81
476.596	1062.81
476.814	1066.81
477.033	1056.81
477.252	1102.81
477.471	1119.81
477.69	1152.81
477.908	1151.81
478.127	1164.81
478.346	1171.81
478.564	1204.81
478.783	1203.81
479.002	1263.81
479.22	1258.81
479.439	1271.81
479.658	1237.81
479.876	1266.81
480.095	1253.81
480.313	1333.81
480.532	1357.81
480.751	1310.81
480.969	1284.81
481.188	1251.81
481.406	1211.81
481.624	1238.81
481.843	1154.81
482.061	1183.81
482.28	1142.81
482.498	1156.81
482.717	1158.81
482.935	1158.81
483.153	1147.81
483.372	1173.81
483.59	1172.81
483.808	1157.81
484.027	1152.81
484.245	1174.81
484.463	1157.81
484.681	1194.81
484.9	1202.81
485.118	1219.81
485.336	1190.81
485.554	1185.81
485.772	1243.81
485.99	1238.81
486.209	1185.81
486.427	1241.81
486.645	1242.81
486.863	1229.81
487.081	1208.81
487.299	1207.81
487.517	1209.81
487.735	1170.81
487.953	1198.81
488.171	1219.81
488.389	1217.81
488.607	1208.81
488.825	1205.81
489.043	1210.81
489.261	1210.81
489.479	1186.81
489.696	1193.81
489.914	1231.81
490.132	1213.81
490.35	1218.81
490.568	1192.81
490.786	1251.81
491.003	1196.81
491.221	1239.81
491.439	1222.81
491.657	1238.81
491.874	1238.81
492.092	1235.81
492.31	1246.81
492.527	1258.81
492.745	1229.81
492.963	1237.81
493.18	1243.81
493.398	1268.81
493.615	1249.81
493.833	1288.81
494.05	1292.81
494.268	1246.81
494.485	1289.81
494.703	1306.81
494.92	1279.81
495.138	1302.81
495.355	1280.81
495.573	1286.81
495.79	1283.81
496.008	1338.81
496.225	1355.81
496.442	1353.81
496.66	1361.81
496.877	1383.81
497.094	1414.81
497.312	1406.81
497.529	1433.81
497.746	1495.81
497.963	1545.81
498.181	1616.81
498.398	1674.81
498.615	1752.81
498.832	1891.81
499.049	2042.81
499.267	2173.81
499.484	2406.81
499.701	2630.81
499.918	2877.81
500.135	3228.81
500.352	3569.81
500.569	3666.81
500.786	3645.81
501.003	3482.81
501.22	3217.81
501.437	2872.81
501.654	2566.81
501.871	2374.81
502.088	2192.81
502.305	2031.81
502.522	1904.81
502.739	1838.81
502.956	1705.81
503.172	1689.81
503.389	1540.81
503.606	1550.81
503.823	1549.81
504.04	1489.81
504.256	1508.81
504.473	1542.81
504.69	1535.81
504.907	1494.81
505.123	1433.81
505.34	1367.81
505.557	1312.81
505.773	1287.81
505.99	1272.81
506.207	1241.81
506.423	1235.81
506.64	1210.81
506.856	1178.81
507.073	1166.81
507.289	1141.81
507.506	1152.81
507.722	1152.81
507.939	1134.81
508.155	1107.81
508.372	1123.81
508.588	1089.81
508.805	1094.81
509.021	1089.81
509.238	1105.81
509.454	1082.81
509.67	1087.81
509.887	1087.81
510.103	1095.81
510.319	1032.81
510.536	1065.81
510.752	1051.81
510.968	1064.81
511.184	1029.81
511.401	1035.81
511.617	1047.81
511.833	1032.81
512.049	1071.81
512.265	1051.81
512.481	1035.81
512.698	1057.81
512.914	1062.81
513.13	1062.81
513.346	1020.81
513.562	1068.81
513.778	1058.81
513.994	1023.81
514.21	1042.81
514.426	1048.81
514.642	1073.81
514.858	1089.81
515.074	1079.81
515.29	1089.81
515.506	1109.81
515.721	1117.81
515.937	1137.81
516.153	1118.81
516.369	1162.81
516.585	1229.81
516.801	1263.81
517.016	1270.81
517.232	1318.81
517.448	1400.81
517.664	1465.81
517.879	1464.81
518.095	1448.81
518.311	1409.81
518.527	1365.81
518.742	1324.81
518.958	1241.81
519.173	1267.81
519.389	1211.81
519.605	1145.81
519.82	1105.81
520.036	1145.81
520.251	1094.81
520.467	1074.81
520.682	1034.81
520.898	1048.81
521.113	1042.81
521.329	1033.81
521.544	1019.81
521.76	1009.81
521.975	996.81
522.19	997.81
522.406	996.81
522.621	979.81
522.836	968.81
523.052	987.81
523.267	977.81
523.482	965.81
523.698	933.81
523.913	967.81
524.128	987.81
524.343	962.81
524.559	947.81
524.774	964.81
524.989	955.81
525.204	938.81
525.419	933.81
525.634	951.81
525.849	944.81
526.064	971.81
526.28	931.81
526.495	960.81
526.71	971.81
526.925	948.81
527.14	949.81
527.355	932.81
527.57	912.81
527.785	931.81
527.999	918.81
528.214	937.81
528.429	928.81
528.644	945.81
528.859	930.81
529.074	944.81
529.289	957.81
529.503	980.81
529.718	938.81
529.933	922.81
530.148	916.81
530.363	911.81
530.577	948.81
530.792	930.81
531.007	944.81
531.221	945.81
531.436	905.81
531.651	947.81
531.865	933.81
532.08	929.81
532.295	923.81
532.509	937.81
532.724	905.81
532.938	925.81
533.153	987.81
533.367	919.81
533.582	957.81
533.796	923.81
534.011	949.81
534.225	925.81
534.44	903.81
534.654	909.81
534.868	922.81
535.083	916.81
535.297	925.81
535.511	887.81
535.726	903.81
535.94	869.81
536.154	898.81
536.369	878.81
536.583	860.81
536.797	875.81
537.011	864.81
537.225	877.81
537.44	852.81
537.654	880.81
537.868	873.81
538.082	869.81
538.296	859.81
538.51	841.81
538.724	859.81
538.938	866.81
539.153	863.81
539.367	825.81
539.581	847.81
539.795	840.81
540.009	847.81
540.222	861.81
540.436	839.81
540.65	826.81
540.864	845.81
541.078	837.81
541.292	827.81
541.506	837.81
541.72	830.81
541.934	842.81
542.147	845.81
542.361	833.81
542.575	841.81
542.789	819.81
543.002	798.81
543.216	810.81
543.43	829.81
543.644	831.81
543.857	802.81
544.071	817.81
544.285	835.81
544.498	828.81
544.712	857.81
544.925	838.81
545.139	837.81
545.352	823.81
545.566	851.81
545.779	830.81
545.993	858.81
546.206	861.81
546.42	862.81
546.633	836.81
546.847	857.81
547.06	866.81
547.274	861.81
547.487	840.81
547.7	854.81
547.914	847.81
548.127	871.81
548.34	882.81
548.554	880.81
548.767	851.81
548.98	881.81
549.193	860.81
549.407	860.81
549.62	891.81
549.833	884.81
550.046	855.81
550.259	884.81
550.473	838.81
550.686	872.81
550.899	872.81
551.112	842.81
551.325	837.81
551.538	831.81
551.751	844.81
551.964	846.81
552.177	855.81
552.39	873.81
552.603	877.81
552.816	932.81
553.029	893.81
553.242	942.81
553.455	946.81
553.667	947.81
553.88	915.81
554.093	903.81
554.306	850.81
554.519	862.81
554.732	857.81
554.944	833.81
555.157	832.81
555.37	819.81
555.583	807.81
555.795	808.81
556.008	759.81
556.221	754.81
556.433	755.81
556.646	770.81
556.859	735.81
557.071	738.81
557.284	766.81
557.496	732.81
557.709	708.81
557.921	729.81
558.134	686.81
558.346	736.81
558.559	730.81
558.771	707.81
558.984	735.81
559.196	727.81
559.409	693.81
559.621	705.81
559.833	697.81
560.046	720.81
560.258	709.81
560.47	689.81
560.683	705.81
560.895	694.81
561.107	715.81
561.32	695.81
561.532	709.81
561.744	689.81
561.956	703.81
562.168	687.81
562.381	673.81
562.593	719.81
562.805	710.81
563.017	717.81
563.229	704.81
563.441	707.81
563.653	733.81
563.865	715.81
564.077	716.81
564.289	736.81
564.501	727.81
564.713	733.81
564.925	760.81
565.137	787.81
565.349	797.81
565.561	833.81
565.773	828.81
565.985	878.81
566.197	947.81
566.408	1008.81
566.62	1048.81
566.832	1146.81
567.044	1144.81
567.255	1162.81
567.467	1188.81
567.679	1217.81
567.891	1273.81
568.102	1280.81
568.314	1230.81
568.526	1149.81
568.737	1057.81
568.949	985.81
569.161	898.81
569.372	839.81
569.584	805.81
569.795	791.81
570.007	765.81
570.218	758.81
570.43	742.81
570.641	715.81
570.853	722.81
571.064	746.81
571.276	733.81
571.487	735.81
571.698	669.81
571.91	671.81
572.121	658.81
572.333	658.81
572.544	602.81
572.755	615.81
572.966	611.81
573.178	586.81
573.389	596.81
573.6	585.81
573.811	590.81
574.023	610.81
574.234	591.81
574.445	571.81
574.656	580.81
574.867	591.81
575.078	588.81
575.289	598.81
575.501	564.81
575.712	563.81
575.923	551.81
576.134	547.81
576.345	564.81
576.556	552.81
576.767	542.81
576.978	542.81
577.188	539.81
577.399	549.81
577.61	525.81
577.821	534.81
578.032	534.81
578.243	523.81
578.454	507.81
578.665	498.81
578.875	538.81
579.086	530.81
579.297	514.81
579.508	502.81
579.718	521.81
579.929	508.81
580.14	501.81
580.35	499.81
580.561	496.81
580.772	497.81
580.982	493.81
581.193	502.81
581.403	505.81
581.614	494.81
581.825	487.81
582.035	478.81
582.246	487.81
582.456	486.81
582.667	496.81
582.877	490.81
583.087	454.81
583.298	469.81
583.508	496.81
583.719	487.81
583.929	511.81
584.139	484.81
584.35	467.81
584.56	498.81
584.77	472.81
584.981	458.81
585.191	471.81
585.401	472.81
585.611	450.81
585.821	454.81
586.032	454.81
586.242	462.81
586.452	467.81
586.662	480.81
586.872	469.81
587.082	486.81
587.292	457.81
587.502	446.81
587.713	465.81
587.923	462.81
588.133	441.81
588.343	466.81
588.553	468.81
588.762	460.81
588.972	481.81
589.182	458.81
589.392	486.81
589.602	474.81
589.812	478.81
590.022	468.81
590.232	454.81
590.441	475.81
590.651	459.81
590.861	470.81
591.071	462.81
591.281	488.81
591.49	483.81
591.7	485.81
591.91	496.81
592.119	521.81
592.329	519.81
592.539	521.81
592.748	543.81
592.958	564.81
593.167	577.81
593.377	576.81
593.587	590.81
593.796	586.81
594.006	603.81
594.215	602.81
594.424	608.81
594.634	576.81
594.843	564.81
595.053	537.81
595.262	526.81
595.472	496.81
595.681	453.81
595.89	478.81
596.1	455.81
596.309	471.81
596.518	454.81
596.727	463.81
596.937	436.81
597.146	446.81
597.355	442.81
597.564	414.81
597.774	420.81
597.983	424.81
598.192	418.81
598.401	412.81
598.61	400.81
598.819	398.81
599.028	413.81
599.237	389.81
599.446	411.81
599.655	405.81
599.864	378.81
600.073	396.81
600.282	380.81
600.491	394.81
600.7	377.81
600.909	400.81
601.118	393.81
601.327	379.81
601.536	383.81
601.745	388.81
601.953	368.81
602.162	379.81
602.371	373.81
602.58	387.81
602.789	371.81
602.997	376.81
603.206	375.81
603.415	375.81
603.623	367.81
603.832	342.81
604.041	370.81
604.249	365.81
604.458	380.81
604.666	364.81
604.875	377.81
605.084	358.81
605.292	369.81
605.501	371.81
605.709	352.81
605.918	329.81
606.126	345.81
606.334	357.81
606.543	349.81
606.751	352.81
606.96	355.81
607.168	339.81
607.376	341.81
607.585	353.81
607.793	338.81
608.001	331.81
608.21	368.81
608.418	358.81
608.626	333.81
608.834	319.81
609.043	340.81
609.251	339.81
609.459	349.81
609.667	341.81
609.875	341.81
610.083	350.81
610.291	328.81
610.499	338.81
610.707	321.81
610.916	343.81
611.124	310.81
611.332	308.81
611.54	342.81
611.748	345.81
611.955	345.81
612.163	306.81
612.371	325.81
612.579	335.81
612.787	337.81
612.995	331.81
613.203	331.81
613.411	325.81
613.618	322.81
613.826	310.81
614.034	336.81
614.242	327.81
614.449	327.81
614.657	317.81
614.865	336.81
615.072	331.81
615.28	329.81
615.488	313.81
615.695	321.81
615.903	327.81
616.111	313.81
616.318	331.81
616.526	321.81
616.733	306.81
616.941	338.81
617.148	331.81
617.356	322.81
617.563	319.81
617.771	326.81
617.978	317.81
618.185	305.81
618.393	313.81
618.6	307.81
618.807	321.81
619.015	333.81
619.222	304.81
619.429	319.81
619.637	317.81
619.844	312.81
620.051	312.81
620.258	307.81
620.466	315.81
620.673	295.81
620.88	295.81
621.087	299.81
621.294	293.81
621.501	311.81
621.708	281.81
621.915	305.81
622.122	313.81
622.329	317.81
622.536	321.81
622.743	303.81
622.95	319.81
623.157	289.81
623.364	296.81
623.571	289.81
623.778	306.81
623.985	300.81
624.192	287.81
624.399	304.81
624.606	285.81
624.812	285.81
625.019	281.81
625.226	271.81
625.433	291.81
625.639	273.81
625.846	284.81
626.053	276.81
626.259	280.81
626.466	271.81
626.673	277.81
626.879	264.81
627.086	281.81
627.293	290.81
627.499	268.81
627.706	272.81
627.912	267.81
628.119	281.81
628.325	269.81
628.532	281.81
628.738	258.81
628.945	257.81
629.151	258.81
629.357	261.81
629.564	260.81
629.77	235.81
629.976	271.81
630.183	275.81
630.389	272.81
630.595	266.81
630.802	253.81
631.008	255.81
631.214	249.81
631.42	246.81
631.627	253.81
631.833	262.81
632.039	257.81
632.245	253.81
632.451	249.81
632.657	247.81
632.863	238.81
633.069	253.81
633.275	249.81
633.481	243.81
633.688	246.81
633.893	245.81
634.099	245.81
634.305	238.81
634.511	252.81
634.717	233.81
634.923	244.81
635.129	237.81
635.335	241.81
635.541	250.81
635.747	228.81
635.952	234.81
636.158	217.81
636.364	256.81
636.57	249.81
636.775	228.81
636.981	222.81
637.187	230.81
637.392	222.81
637.598	242.81
637.804	255.81
638.009	230.81
638.215	222.81
638.421	225.81
638.626	207.81
638.832	223.81
639.037	234.81
639.243	219.81
639.448	237.81
639.654	239.81
639.859	219.81
640.065	226.81
640.27	222.81
640.475	203.81
640.681	226.81
640.886	232.81
641.091	227.81
641.297	226.81
641.502	217.81
641.707	207.81
641.913	206.81
642.118	208.81
642.323	215.81
642.528	221.81
642.733	215.81
642.939	213.81
643.144	212.81
643.349	202.81
643.554	230.81
643.759	212.81
643.964	207.81
644.169	223.81
644.374	192.81
644.579	213.81
644.784	219.81
644.989	221.81
645.194	199.81
645.399	214.81
645.604	211.81
645.809	199.81
646.014	216.81
646.219	218.81
646.423	216.81
646.628	208.81
646.833	188.81
647.038	196.81
647.243	212.81
647.447	200.81
647.652	215.81
647.857	222.81
648.062	218.81
648.266	208.81
648.471	217.81
648.676	218.81
648.88	219.81
649.085	205.81
649.289	209.81
649.494	199.81
649.698	200.81
649.903	192.81
650.107	199.81
650.312	193.81
650.516	217.81
650.721	193.81
650.925	202.81
651.13	177.81
651.334	183.81
651.539	195.81
651.743	168.81
651.947	190.81
652.152	198.81
652.356	175.81
652.56	173.81
652.764	177.81
652.969	194.81
653.173	173.81
653.377	184.81
653.581	178.81
653.785	170.81
653.99	158.81
654.194	168.81
654.398	174.81
654.602	165.81
654.806	140.81
655.01	145.81
655.214	152.81
655.418	152.81
655.622	159.81
655.826	151.81
656.03	150.81
656.234	159.81
656.438	146.81
656.642	138.81
656.846	146.81
657.049	140.81
657.253	142.81
657.457	118.81
657.661	133.81
657.865	129.81
658.068	124.81
658.272	117.81
658.476	107.81
658.68	118.81
658.883	122.81
659.087	115.81
659.291	105.81
659.494	104.81
659.698	108.81
659.901	102.81
660.105	105.81
660.309	105.81
660.512	79.81
660.716	95.81
660.919	105.81
661.123	97.81
661.326	74.81
661.53	77.81
661.733	95.81
661.936	83.81
662.14	91.81
662.343	74.81
662.546	86.81
662.75	87.81
662.953	88.81
663.156	80.81
663.36	94.81
663.563	80.81
663.766	77.81
663.969	78.81
664.173	76.81
664.376	85.81
664.579	78.81
664.782	83.81
664.985	75.81
665.188	78.81
665.391	81.81
665.594	75.81
665.797	73.81
666	79.81
666.203	81.81
666.406	66.81
666.609	72.81
666.812	74.81
667.015	80.81
667.218	82.81
667.421	79.81
667.624	66.81
667.827	79.81
668.03	81.81
668.232	91.81
668.435	79.81
668.638	76.81
668.841	78.81
669.043	74.81
669.246	76.81
669.449	78.81
669.651	86.81
669.854	76.81
670.057	82.81
670.259	69.81
670.462	79.81
670.665	79.81
670.867	80.81
671.07	75.81
671.272	88.81
671.475	83.81
671.677	88.81
671.88	91.81
672.082	78.81
672.284	70.81
672.487	80.81
672.689	81.81
672.892	79.81
