Data from NiCl2@0.0625M.TitratingCurve.Agarose3%dH2O.NegLispCup.LampEnergy10.LIBS07252019_HRD10591_18-33-43-576.txt Node
Date: Thu Jul 25 18:33:43 EDT 2019
User: cochatt
Spectrometer: HR+D1059
Trigger mode: 1
Integration Time (sec): 1.000000E-1
Scans to average: 1
Electric dark correction enabled: true
Nonlinearity correction enabled: false
Boxcar width: 0
XAxis mode: Wavelengths
Number of Pixels in Spectrum: 2048
>>>>>Begin Spectral Data<<<<<
223.165	-5.88
223.4	-5.88
223.635	-5.88
223.869	-24.88
224.104	-29.88
224.338	-9.88
224.573	-11.88
224.808	-5.88
225.042	-6.88
225.277	-8.88
225.511	1.12
225.746	-3.88
225.98	12.12
226.215	15.12
226.449	7.12
226.683	16.12
226.918	26.12
227.152	30.12
227.387	22.12
227.621	31.12
227.856	46.12
228.09	52.12
228.324	58.12
228.559	64.12
228.793	66.12
229.027	127.12
229.262	137.12
229.496	171.12
229.73	156.12
229.964	180.12
230.199	178.12
230.433	182.12
230.667	181.12
230.901	182.12
231.136	178.12
231.37	183.12
231.604	200.12
231.838	200.12
232.072	209.12
232.306	213.12
232.541	184.12
232.775	214.12
233.009	186.12
233.243	210.12
233.477	220.12
233.711	219.12
233.945	230.12
234.179	200.12
234.413	213.12
234.647	222.12
234.881	210.12
235.115	210.12
235.349	232.12
235.583	215.12
235.817	231.12
236.051	218.12
236.285	225.12
236.519	233.12
236.753	244.12
236.987	223.12
237.221	242.12
237.455	227.12
237.689	233.12
237.922	239.12
238.156	244.12
238.39	250.12
238.624	255.12
238.858	256.12
239.091	257.12
239.325	248.12
239.559	245.12
239.793	277.12
240.027	277.12
240.26	271.12
240.494	276.12
240.728	269.12
240.961	290.12
241.195	286.12
241.429	283.12
241.662	302.12
241.896	291.12
242.13	312.12
242.363	310.12
242.597	290.12
242.83	301.12
243.064	291.12
243.298	319.12
243.531	321.12
243.765	320.12
243.998	325.12
244.232	326.12
244.465	324.12
244.699	340.12
244.932	325.12
245.166	330.12
245.399	341.12
245.633	334.12
245.866	335.12
246.099	334.12
246.333	352.12
246.566	347.12
246.8	375.12
247.033	363.12
247.266	351.12
247.5	353.12
247.733	350.12
247.966	406.12
248.2	380.12
248.433	386.12
248.666	386.12
248.899	392.12
249.133	378.12
249.366	399.12
249.599	405.12
249.832	372.12
250.066	379.12
250.299	401.12
250.532	394.12
250.765	408.12
250.998	403.12
251.231	384.12
251.465	414.12
251.698	411.12
251.931	427.12
252.164	410.12
252.397	442.12
252.63	437.12
252.863	426.12
253.096	431.12
253.329	442.12
253.562	439.12
253.795	464.12
254.028	446.12
254.261	454.12
254.494	452.12
254.727	447.12
254.96	463.12
255.193	488.12
255.426	455.12
255.659	456.12
255.892	465.12
256.124	478.12
256.357	476.12
256.59	487.12
256.823	488.12
257.056	492.12
257.289	463.12
257.521	522.12
257.754	496.12
257.987	509.12
258.22	496.12
258.452	486.12
258.685	494.12
258.918	501.12
259.151	505.12
259.383	504.12
259.616	525.12
259.849	531.12
260.081	534.12
260.314	518.12
260.547	500.12
260.779	543.12
261.012	552.12
261.244	522.12
261.477	560.12
261.71	532.12
261.942	550.12
262.175	558.12
262.407	546.12
262.64	546.12
262.872	564.12
263.105	553.12
263.337	566.12
263.57	554.12
263.802	572.12
264.035	579.12
264.267	569.12
264.499	582.12
264.732	561.12
264.964	582.12
265.197	555.12
265.429	587.12
265.661	584.12
265.894	589.12
266.126	596.12
266.358	598.12
266.591	604.12
266.823	608.12
267.055	605.12
267.287	601.12
267.52	604.12
267.752	599.12
267.984	628.12
268.216	607.12
268.448	642.12
268.681	630.12
268.913	616.12
269.145	609.12
269.377	619.12
269.609	615.12
269.841	626.12
270.073	657.12
270.306	647.12
270.538	642.12
270.77	642.12
271.002	637.12
271.234	654.12
271.466	630.12
271.698	662.12
271.93	678.12
272.162	670.12
272.394	664.12
272.626	671.12
272.858	680.12
273.09	670.12
273.322	686.12
273.553	695.12
273.785	687.12
274.017	673.12
274.249	700.12
274.481	686.12
274.713	674.12
274.945	713.12
275.176	715.12
275.408	707.12
275.64	690.12
275.872	731.12
276.104	728.12
276.335	697.12
276.567	720.12
276.799	712.12
277.031	737.12
277.262	727.12
277.494	735.12
277.726	740.12
277.957	747.12
278.189	734.12
278.421	742.12
278.652	743.12
278.884	740.12
279.115	762.12
279.347	783.12
279.579	758.12
279.81	779.12
280.042	768.12
280.273	790.12
280.505	796.12
280.736	765.12
280.968	778.12
281.199	787.12
281.431	814.12
281.662	786.12
281.894	799.12
282.125	790.12
282.356	802.12
282.588	799.12
282.819	816.12
283.051	802.12
283.282	794.12
283.513	836.12
283.745	816.12
283.976	828.12
284.207	836.12
284.439	829.12
284.67	843.12
284.901	844.12
285.132	829.12
285.364	800.12
285.595	841.12
285.826	821.12
286.057	841.12
286.288	856.12
286.52	839.12
286.751	858.12
286.982	862.12
287.213	867.12
287.444	862.12
287.675	873.12
287.906	853.12
288.138	882.12
288.369	884.12
288.6	898.12
288.831	883.12
289.062	893.12
289.293	867.12
289.524	883.12
289.755	911.12
289.986	870.12
290.217	876.12
290.448	900.12
290.679	885.12
290.91	952.12
291.141	893.12
291.371	904.12
291.602	926.12
291.833	893.12
292.064	889.12
292.295	888.12
292.526	901.12
292.757	883.12
292.987	888.12
293.218	901.12
293.449	923.12
293.68	915.12
293.91	926.12
294.141	888.12
294.372	889.12
294.603	942.12
294.833	918.12
295.064	927.12
295.295	955.12
295.525	922.12
295.756	922.12
295.987	926.12
296.217	946.12
296.448	950.12
296.679	957.12
296.909	940.12
297.14	961.12
297.37	955.12
297.601	981.12
297.831	984.12
298.062	950.12
298.292	989.12
298.523	1007.12
298.753	990.12
298.984	987.12
299.214	1000.12
299.445	989.12
299.675	979.12
299.905	978.12
300.136	971.12
300.366	997.12
300.597	1000.12
300.827	1024.12
301.057	1035.12
301.288	1023.12
301.518	1026.12
301.748	1049.12
301.979	1073.12
302.209	1053.12
302.439	1058.12
302.669	1047.12
302.9	1033.12
303.13	1006.12
303.36	1024.12
303.59	1041.12
303.82	1028.12
304.051	1064.12
304.281	1019.12
304.511	1042.12
304.741	1034.12
304.971	1056.12
305.201	1038.12
305.431	1042.12
305.661	1021.12
305.891	1041.12
306.121	1006.12
306.352	1039.12
306.582	1014.12
306.812	1034.12
307.042	1046.12
307.272	1031.12
307.502	1029.12
307.731	1043.12
307.961	1001.12
308.191	1035.12
308.421	1027.12
308.651	1020.12
308.881	1031.12
309.111	1013.12
309.341	1022.12
309.571	1024.12
309.8	1030.12
310.03	1048.12
310.26	1006.12
310.49	1031.12
310.72	1048.12
310.949	1050.12
311.179	1052.12
311.409	1031.12
311.639	1054.12
311.868	1039.12
312.098	1070.12
312.328	1034.12
312.557	1061.12
312.787	1077.12
313.017	1106.12
313.246	1074.12
313.476	1079.12
313.706	1094.12
313.935	1089.12
314.165	1120.12
314.394	1119.12
314.624	1105.12
314.853	1063.12
315.083	1119.12
315.312	1108.12
315.542	1136.12
315.771	1134.12
316.001	1096.12
316.23	1094.12
316.46	1092.12
316.689	1103.12
316.919	1097.12
317.148	1076.12
317.377	1107.12
317.607	1068.12
317.836	1100.12
318.065	1107.12
318.295	1077.12
318.524	1102.12
318.753	1095.12
318.983	1081.12
319.212	1090.12
319.441	1111.12
319.67	1084.12
319.9	1094.12
320.129	1108.12
320.358	1100.12
320.587	1087.12
320.816	1136.12
321.046	1095.12
321.275	1076.12
321.504	1104.12
321.733	1089.12
321.962	1102.12
322.191	1089.12
322.42	1091.12
322.649	1118.12
322.878	1124.12
323.108	1095.12
323.337	1135.12
323.566	1130.12
323.795	1134.12
324.024	1135.12
324.253	1128.12
324.482	1132.12
324.71	1130.12
324.939	1126.12
325.168	1175.12
325.397	1157.12
325.626	1193.12
325.855	1192.12
326.084	1194.12
326.313	1199.12
326.542	1186.12
326.77	1203.12
326.999	1160.12
327.228	1179.12
327.457	1166.12
327.686	1192.12
327.914	1179.12
328.143	1234.12
328.372	1218.12
328.6	1173.12
328.829	1205.12
329.058	1164.12
329.287	1196.12
329.515	1224.12
329.744	1214.12
329.972	1223.12
330.201	1259.12
330.43	1235.12
330.658	1267.12
330.887	1227.12
331.115	1274.12
331.344	1262.12
331.572	1250.12
331.801	1292.12
332.03	1297.12
332.258	1344.12
332.486	1347.12
332.715	1364.12
332.943	1420.12
333.172	1451.12
333.4	1494.12
333.629	1545.12
333.857	1538.12
334.085	1575.12
334.314	1522.12
334.542	1554.12
334.771	1546.12
334.999	1481.12
335.227	1505.12
335.455	1449.12
335.684	1505.12
335.912	1520.12
336.14	1464.12
336.369	1469.12
336.597	1460.12
336.825	1434.12
337.053	1412.12
337.281	1438.12
337.51	1387.12
337.738	1382.12
337.966	1370.12
338.194	1331.12
338.422	1323.12
338.65	1324.12
338.878	1331.12
339.106	1350.12
339.334	1323.12
339.562	1272.12
339.79	1294.12
340.018	1280.12
340.246	1284.12
340.474	1276.12
340.702	1253.12
340.93	1228.12
341.158	1297.12
341.386	1264.12
341.614	1252.12
341.842	1232.12
342.07	1248.12
342.298	1221.12
342.526	1254.12
342.754	1251.12
342.981	1260.12
343.209	1280.12
343.437	1356.12
343.665	1403.12
343.893	1470.12
344.12	1478.12
344.348	1476.12
344.576	1402.12
344.804	1353.12
345.031	1334.12
345.259	1298.12
345.487	1286.12
345.714	1235.12
345.942	1249.12
346.17	1241.12
346.397	1236.12
346.625	1225.12
346.853	1214.12
347.08	1226.12
347.308	1205.12
347.535	1223.12
347.763	1223.12
347.99	1187.12
348.218	1201.12
348.445	1182.12
348.673	1189.12
348.9	1210.12
349.128	1211.12
349.355	1202.12
349.583	1180.12
349.81	1167.12
350.037	1183.12
350.265	1165.12
350.492	1142.12
350.72	1174.12
350.947	1160.12
351.174	1179.12
351.402	1178.12
351.629	1180.12
351.856	1146.12
352.083	1161.12
352.311	1152.12
352.538	1168.12
352.765	1148.12
352.992	1154.12
353.22	1158.12
353.447	1160.12
353.674	1174.12
353.901	1154.12
354.128	1152.12
354.355	1151.12
354.583	1175.12
354.81	1147.12
355.037	1189.12
355.264	1165.12
355.491	1190.12
355.718	1161.12
355.945	1173.12
356.172	1179.12
356.399	1180.12
356.626	1180.12
356.853	1189.12
357.08	1150.12
357.307	1158.12
357.534	1184.12
357.761	1186.12
357.988	1167.12
358.215	1170.12
358.441	1158.12
358.668	1180.12
358.895	1164.12
359.122	1136.12
359.349	1144.12
359.576	1145.12
359.802	1166.12
360.029	1156.12
360.256	1170.12
360.483	1157.12
360.709	1167.12
360.936	1157.12
361.163	1183.12
361.39	1150.12
361.616	1192.12
361.843	1196.12
362.07	1171.12
362.296	1164.12
362.523	1144.12
362.749	1207.12
362.976	1194.12
363.203	1179.12
363.429	1148.12
363.656	1186.12
363.882	1171.12
364.109	1128.12
364.335	1134.12
364.562	1168.12
364.788	1153.12
365.015	1174.12
365.241	1166.12
365.468	1152.12
365.694	1153.12
365.92	1182.12
366.147	1155.12
366.373	1181.12
366.599	1188.12
366.826	1174.12
367.052	1138.12
367.278	1169.12
367.505	1155.12
367.731	1182.12
367.957	1190.12
368.184	1213.12
368.41	1173.12
368.636	1180.12
368.862	1179.12
369.089	1214.12
369.315	1210.12
369.541	1203.12
369.767	1232.12
369.993	1182.12
370.219	1199.12
370.445	1248.12
370.672	1279.12
370.898	1254.12
371.124	1248.12
371.35	1238.12
371.576	1273.12
371.802	1259.12
372.028	1266.12
372.254	1268.12
372.48	1255.12
372.706	1278.12
372.932	1316.12
373.158	1318.12
373.384	1272.12
373.61	1290.12
373.835	1282.12
374.061	1237.12
374.287	1332.12
374.513	1329.12
374.739	1329.12
374.965	1370.12
375.191	1406.12
375.416	1394.12
375.642	1352.12
375.868	1323.12
376.094	1310.12
376.319	1284.12
376.545	1291.12
376.771	1282.12
376.997	1302.12
377.222	1289.12
377.448	1272.12
377.674	1240.12
377.899	1266.12
378.125	1252.12
378.35	1264.12
378.576	1210.12
378.802	1219.12
379.027	1280.12
379.253	1268.12
379.478	1272.12
379.704	1230.12
379.929	1223.12
380.155	1255.12
380.38	1255.12
380.606	1233.12
380.831	1256.12
381.057	1263.12
381.282	1251.12
381.507	1241.12
381.733	1281.12
381.958	1250.12
382.184	1287.12
382.409	1307.12
382.634	1349.12
382.86	1348.12
383.085	1346.12
383.31	1364.12
383.535	1370.12
383.761	1400.12
383.986	1410.12
384.211	1405.12
384.436	1446.12
384.662	1425.12
384.887	1490.12
385.112	1456.12
385.337	1536.12
385.562	1475.12
385.787	1489.12
386.013	1566.12
386.238	1538.12
386.463	1523.12
386.688	1545.12
386.913	1487.12
387.138	1533.12
387.363	1508.12
387.588	1496.12
387.813	1505.12
388.038	1521.12
388.263	1493.12
388.488	1522.12
388.713	1502.12
388.938	1522.12
389.163	1526.12
389.387	1486.12
389.612	1489.12
389.837	1494.12
390.062	1472.12
390.287	1495.12
390.512	1460.12
390.736	1539.12
390.961	1528.12
391.186	1544.12
391.411	1554.12
391.636	1634.12
391.86	1654.12
392.085	1665.12
392.31	1686.12
392.534	1638.12
392.759	1618.12
392.984	1614.12
393.208	1607.12
393.433	1637.12
393.658	1633.12
393.882	1596.12
394.107	1603.12
394.331	1610.12
394.556	1597.12
394.78	1635.12
395.005	1604.12
395.229	1646.12
395.454	1672.12
395.678	1694.12
395.903	1686.12
396.127	1682.12
396.352	1669.12
396.576	1614.12
396.801	1614.12
397.025	1647.12
397.249	1696.12
397.474	1679.12
397.698	1696.12
397.922	1718.12
398.147	1732.12
398.371	1747.12
398.595	1822.12
398.82	1868.12
399.044	2014.12
399.268	2108.12
399.492	2358.12
399.717	2607.12
399.941	2622.12
400.165	2410.12
400.389	2239.12
400.613	2101.12
400.837	2032.12
401.062	1959.12
401.286	1868.12
401.51	1861.12
401.734	1867.12
401.958	1913.12
402.182	1901.12
402.406	1938.12
402.63	1932.12
402.854	1945.12
403.078	1943.12
403.302	2027.12
403.526	2030.12
403.75	2055.12
403.974	2102.12
404.198	2049.12
404.422	2100.12
404.645	2054.12
404.869	2055.12
405.093	2079.12
405.317	2074.12
405.541	2056.12
405.765	2057.12
405.988	2027.12
406.212	2026.12
406.436	2037.12
406.66	2107.12
406.883	2115.12
407.107	2241.12
407.331	2327.12
407.555	2384.12
407.778	2378.12
408.002	2344.12
408.226	2295.12
408.449	2232.12
408.673	2145.12
408.896	2124.12
409.12	2130.12
409.344	2142.12
409.567	2113.12
409.791	2155.12
410.014	2110.12
410.238	2122.12
410.461	2068.12
410.685	2053.12
410.908	2037.12
411.132	1980.12
411.355	1943.12
411.578	1954.12
411.802	1948.12
412.025	1975.12
412.249	1999.12
412.472	1943.12
412.695	1949.12
412.919	1895.12
413.142	1922.12
413.365	1934.12
413.589	1869.12
413.812	1889.12
414.035	1872.12
414.258	1838.12
414.482	1874.12
414.705	1887.12
414.928	1907.12
415.151	1895.12
415.374	1895.12
415.597	1884.12
415.821	1839.12
416.044	1806.12
416.267	1810.12
416.49	1798.12
416.713	1834.12
416.936	1828.12
417.159	1814.12
417.382	1800.12
417.605	1795.12
417.828	1798.12
418.051	1811.12
418.274	1826.12
418.497	1819.12
418.72	1860.12
418.943	1855.12
419.166	1955.12
419.389	2082.12
419.611	2060.12
419.834	1974.12
420.057	1915.12
420.28	1864.12
420.503	1791.12
420.726	1802.12
420.948	1762.12
421.171	1803.12
421.394	1801.12
421.617	1803.12
421.839	1808.12
422.062	1814.12
422.285	1803.12
422.507	1883.12
422.73	1855.12
422.953	1820.12
423.175	1876.12
423.398	1859.12
423.621	1854.12
423.843	1858.12
424.066	1873.12
424.288	1856.12
424.511	1848.12
424.733	1840.12
424.956	1821.12
425.178	1841.12
425.401	1824.12
425.623	1799.12
425.846	1749.12
426.068	1776.12
426.291	1751.12
426.513	1748.12
426.735	1722.12
426.958	1728.12
427.18	1728.12
427.402	1698.12
427.625	1679.12
427.847	1650.12
428.069	1646.12
428.292	1679.12
428.514	1634.12
428.736	1654.12
428.958	1674.12
429.181	1656.12
429.403	1642.12
429.625	1590.12
429.847	1596.12
430.069	1626.12
430.292	1611.12
430.514	1612.12
430.736	1616.12
430.958	1640.12
431.18	1642.12
431.402	1677.12
431.624	1624.12
431.846	1689.12
432.068	1640.12
432.29	1674.12
432.512	1659.12
432.734	1676.12
432.956	1661.12
433.178	1677.12
433.4	1681.12
433.622	1719.12
433.844	1716.12
434.066	1709.12
434.287	1727.12
434.509	1766.12
434.731	1797.12
434.953	1858.12
435.175	1813.12
435.397	1829.12
435.618	1765.12
435.84	1730.12
436.062	1693.12
436.284	1666.12
436.505	1653.12
436.727	1660.12
436.949	1646.12
437.17	1641.12
437.392	1655.12
437.614	1584.12
437.835	1532.12
438.057	1551.12
438.278	1573.12
438.5	1571.12
438.721	1564.12
438.943	1614.12
439.165	1537.12
439.386	1577.12
439.608	1608.12
439.829	1609.12
440.05	1577.12
440.272	1635.12
440.493	1636.12
440.715	1655.12
440.936	1662.12
441.158	1703.12
441.379	1698.12
441.6	1738.12
441.822	1756.12
442.043	1812.12
442.264	1759.12
442.486	1735.12
442.707	1752.12
442.928	1746.12
443.149	1783.12
443.371	1757.12
443.592	1802.12
443.813	1787.12
444.034	1802.12
444.255	1832.12
444.476	1907.12
444.698	2006.12
444.919	2073.12
445.14	2133.12
445.361	1996.12
445.582	1890.12
445.803	1808.12
446.024	1739.12
446.245	1674.12
446.466	1684.12
446.687	1607.12
446.908	1656.12
447.129	1603.12
447.35	1565.12
447.571	1568.12
447.792	1489.12
448.013	1538.12
448.234	1526.12
448.455	1514.12
448.675	1524.12
448.896	1500.12
449.117	1446.12
449.338	1484.12
449.559	1456.12
449.779	1456.12
450	1461.12
450.221	1461.12
450.442	1460.12
450.662	1468.12
450.883	1481.12
451.104	1520.12
451.324	1496.12
451.545	1498.12
451.766	1480.12
451.986	1442.12
452.207	1439.12
452.428	1447.12
452.648	1410.12
452.869	1428.12
453.089	1429.12
453.31	1436.12
453.53	1396.12
453.751	1416.12
453.971	1410.12
454.192	1427.12
454.412	1394.12
454.633	1425.12
454.853	1381.12
455.073	1398.12
455.294	1410.12
455.514	1365.12
455.734	1380.12
455.955	1377.12
456.175	1398.12
456.395	1400.12
456.616	1369.12
456.836	1384.12
457.056	1363.12
457.276	1336.12
457.497	1404.12
457.717	1400.12
457.937	1431.12
458.157	1415.12
458.377	1412.12
458.598	1487.12
458.818	1507.12
459.038	1538.12
459.258	1558.12
459.478	1645.12
459.698	1663.12
459.918	1685.12
460.138	1764.12
460.358	1806.12
460.578	1855.12
460.798	1846.12
461.018	1852.12
461.238	1845.12
461.458	1847.12
461.678	1824.12
461.898	1841.12
462.118	1901.12
462.338	1933.12
462.558	2012.12
462.777	2076.12
462.997	2224.12
463.217	2343.12
463.437	2405.12
463.657	2258.12
463.876	2144.12
464.096	2162.12
464.316	2124.12
464.536	2129.12
464.755	2074.12
464.975	1956.12
465.195	1870.12
465.414	1825.12
465.634	1728.12
465.854	1680.12
466.073	1671.12
466.293	1619.12
466.512	1609.12
466.732	1552.12
466.951	1552.12
467.171	1563.12
467.391	1586.12
467.61	1526.12
467.829	1531.12
468.049	1502.12
468.268	1501.12
468.488	1481.12
468.707	1462.12
468.927	1519.12
469.146	1500.12
469.365	1490.12
469.585	1495.12
469.804	1556.12
470.023	1569.12
470.243	1592.12
470.462	1543.12
470.681	1585.12
470.901	1601.12
471.12	1568.12
471.339	1543.12
471.558	1531.12
471.777	1517.12
471.997	1531.12
472.216	1494.12
472.435	1493.12
472.654	1483.12
472.873	1485.12
473.092	1476.12
473.311	1478.12
473.53	1454.12
473.749	1470.12
473.968	1455.12
474.187	1448.12
474.406	1474.12
474.625	1480.12
474.844	1469.12
475.063	1467.12
475.282	1488.12
475.501	1473.12
475.72	1484.12
475.939	1527.12
476.158	1522.12
476.377	1591.12
476.596	1530.12
476.814	1528.12
477.033	1578.12
477.252	1611.12
477.471	1604.12
477.69	1688.12
477.908	1658.12
478.127	1728.12
478.346	1748.12
478.564	1775.12
478.783	1848.12
479.002	1815.12
479.22	1822.12
479.439	1854.12
479.658	1813.12
479.876	1856.12
480.095	1892.12
480.313	1977.12
480.532	1979.12
480.751	1968.12
480.969	1940.12
481.188	1906.12
481.406	1816.12
481.624	1853.12
481.843	1802.12
482.061	1796.12
482.28	1798.12
482.498	1794.12
482.717	1800.12
482.935	1795.12
483.153	1798.12
483.372	1823.12
483.59	1843.12
483.808	1845.12
484.027	1858.12
484.245	1892.12
484.463	1892.12
484.681	1970.12
484.9	1939.12
485.118	1955.12
485.336	1928.12
485.554	1968.12
485.772	1991.12
485.99	1974.12
486.209	1982.12
486.427	1983.12
486.645	1984.12
486.863	1983.12
487.081	1948.12
487.299	1956.12
487.517	1934.12
487.735	1952.12
487.953	1949.12
488.171	1943.12
488.389	1953.12
488.607	1898.12
488.825	1870.12
489.043	1834.12
489.261	1863.12
489.479	1854.12
489.696	1879.12
489.914	1882.12
490.132	1883.12
490.35	1882.12
490.568	1863.12
490.786	1835.12
491.003	1865.12
491.221	1906.12
491.439	1867.12
491.657	1864.12
491.874	1869.12
492.092	1856.12
492.31	1848.12
492.527	1849.12
492.745	1883.12
492.963	1878.12
493.18	1877.12
493.398	1852.12
493.615	1862.12
493.833	1912.12
494.05	1909.12
494.268	1890.12
494.485	1909.12
494.703	1888.12
494.92	1924.12
495.138	1874.12
495.355	1908.12
495.573	1932.12
495.79	1919.12
496.008	1955.12
496.225	1960.12
496.442	1962.12
496.66	1957.12
496.877	1984.12
497.094	2052.12
497.312	2058.12
497.529	2106.12
497.746	2129.12
497.963	2214.12
498.181	2307.12
498.398	2408.12
498.615	2488.12
498.832	2649.12
499.049	2780.12
499.267	3054.12
499.484	3306.12
499.701	3530.12
499.918	3825.12
500.135	4246.12
500.352	4639.12
500.569	4815.12
500.786	4782.12
501.003	4585.12
501.22	4198.12
501.437	3778.12
501.654	3466.12
501.871	3156.12
502.088	2936.12
502.305	2756.12
502.522	2628.12
502.739	2565.12
502.956	2453.12
503.172	2339.12
503.389	2230.12
503.606	2193.12
503.823	2120.12
504.04	2150.12
504.256	2119.12
504.473	2111.12
504.69	2121.12
504.907	2080.12
505.123	1988.12
505.34	1925.12
505.557	1824.12
505.773	1792.12
505.99	1764.12
506.207	1728.12
506.423	1705.12
506.64	1688.12
506.856	1680.12
507.073	1659.12
507.289	1596.12
507.506	1610.12
507.722	1646.12
507.939	1640.12
508.155	1586.12
508.372	1612.12
508.588	1554.12
508.805	1547.12
509.021	1576.12
509.238	1531.12
509.454	1506.12
509.67	1522.12
509.887	1511.12
510.103	1504.12
510.319	1496.12
510.536	1465.12
510.752	1482.12
510.968	1472.12
511.184	1492.12
511.401	1488.12
511.617	1446.12
511.833	1456.12
512.049	1500.12
512.265	1447.12
512.481	1470.12
512.698	1455.12
512.914	1482.12
513.13	1494.12
513.346	1494.12
513.562	1458.12
513.778	1468.12
513.994	1477.12
514.21	1463.12
514.426	1497.12
514.642	1508.12
514.858	1544.12
515.074	1520.12
515.29	1537.12
515.506	1565.12
515.721	1582.12
515.937	1609.12
516.153	1623.12
516.369	1670.12
516.585	1669.12
516.801	1723.12
517.016	1733.12
517.232	1856.12
517.448	1908.12
517.664	1930.12
517.879	1931.12
518.095	1957.12
518.311	1910.12
518.527	1836.12
518.742	1788.12
518.958	1734.12
519.173	1698.12
519.389	1671.12
519.605	1604.12
519.82	1546.12
520.036	1568.12
520.251	1530.12
520.467	1496.12
520.682	1496.12
520.898	1490.12
521.113	1471.12
521.329	1432.12
521.544	1443.12
521.76	1424.12
521.975	1405.12
522.19	1390.12
522.406	1381.12
522.621	1387.12
522.836	1351.12
523.052	1360.12
523.267	1352.12
523.482	1362.12
523.698	1328.12
523.913	1371.12
524.128	1345.12
524.343	1385.12
524.559	1301.12
524.774	1343.12
524.989	1284.12
525.204	1326.12
525.419	1329.12
525.634	1290.12
525.849	1302.12
526.064	1308.12
526.28	1295.12
526.495	1290.12
526.71	1288.12
526.925	1315.12
527.14	1309.12
527.355	1270.12
527.57	1323.12
527.785	1286.12
527.999	1283.12
528.214	1267.12
528.429	1307.12
528.644	1314.12
528.859	1334.12
529.074	1305.12
529.289	1265.12
529.503	1272.12
529.718	1266.12
529.933	1296.12
530.148	1315.12
530.363	1297.12
530.577	1294.12
530.792	1294.12
531.007	1284.12
531.221	1305.12
531.436	1273.12
531.651	1312.12
531.865	1290.12
532.08	1304.12
532.295	1271.12
532.509	1331.12
532.724	1296.12
532.938	1296.12
533.153	1308.12
533.367	1262.12
533.582	1256.12
533.796	1248.12
534.011	1277.12
534.225	1287.12
534.44	1251.12
534.654	1236.12
534.868	1244.12
535.083	1257.12
535.297	1246.12
535.511	1252.12
535.726	1259.12
535.94	1208.12
536.154	1205.12
536.369	1194.12
536.583	1188.12
536.797	1190.12
537.011	1189.12
537.225	1190.12
537.44	1189.12
537.654	1225.12
537.868	1202.12
538.082	1147.12
538.296	1175.12
538.51	1188.12
538.724	1173.12
538.938	1157.12
539.153	1186.12
539.367	1173.12
539.581	1154.12
539.795	1162.12
540.009	1143.12
540.222	1144.12
540.436	1141.12
540.65	1115.12
540.864	1145.12
541.078	1158.12
541.292	1132.12
541.506	1128.12
541.72	1136.12
541.934	1139.12
542.147	1150.12
542.361	1124.12
542.575	1127.12
542.789	1119.12
543.002	1129.12
543.216	1113.12
543.43	1138.12
543.644	1125.12
543.857	1122.12
544.071	1158.12
544.285	1126.12
544.498	1123.12
544.712	1116.12
544.925	1155.12
545.139	1145.12
545.352	1169.12
545.566	1166.12
545.779	1161.12
545.993	1125.12
546.206	1174.12
546.42	1150.12
546.633	1139.12
546.847	1150.12
547.06	1140.12
547.274	1166.12
547.487	1136.12
547.7	1138.12
547.914	1136.12
548.127	1171.12
548.34	1162.12
548.554	1153.12
548.767	1132.12
548.98	1131.12
549.193	1210.12
549.407	1168.12
549.62	1175.12
549.833	1192.12
550.046	1192.12
550.259	1142.12
550.473	1128.12
550.686	1124.12
550.899	1138.12
551.112	1105.12
551.325	1130.12
551.538	1140.12
551.751	1108.12
551.964	1127.12
552.177	1130.12
552.39	1159.12
552.603	1174.12
552.816	1209.12
553.029	1234.12
553.242	1240.12
553.455	1212.12
553.667	1234.12
553.88	1194.12
554.093	1194.12
554.306	1141.12
554.519	1170.12
554.732	1151.12
554.944	1097.12
555.157	1092.12
555.37	1063.12
555.583	1076.12
555.795	1064.12
556.008	1042.12
556.221	1000.12
556.433	1020.12
556.646	1012.12
556.859	1031.12
557.071	1001.12
557.284	982.12
557.496	994.12
557.709	986.12
557.921	976.12
558.134	971.12
558.346	977.12
558.559	986.12
558.771	985.12
558.984	964.12
559.196	977.12
559.409	942.12
559.621	948.12
559.833	945.12
560.046	915.12
560.258	928.12
560.47	946.12
560.683	945.12
560.895	955.12
561.107	950.12
561.32	942.12
561.532	936.12
561.744	935.12
561.956	933.12
562.168	942.12
562.381	946.12
562.593	970.12
562.805	960.12
563.017	966.12
563.229	981.12
563.441	966.12
563.653	954.12
563.865	943.12
564.077	979.12
564.289	994.12
564.501	1001.12
564.713	1004.12
564.925	1009.12
565.137	1034.12
565.349	1064.12
565.561	1079.12
565.773	1137.12
565.985	1183.12
566.197	1217.12
566.408	1310.12
566.62	1362.12
566.832	1446.12
567.044	1476.12
567.255	1467.12
567.467	1518.12
567.679	1560.12
567.891	1632.12
568.102	1675.12
568.314	1624.12
568.526	1464.12
568.737	1391.12
568.949	1285.12
569.161	1174.12
569.372	1136.12
569.584	1079.12
569.795	1050.12
570.007	1022.12
570.218	987.12
570.43	972.12
570.641	984.12
570.853	965.12
571.064	990.12
571.276	979.12
571.487	956.12
571.698	890.12
571.91	908.12
572.121	862.12
572.333	846.12
572.544	841.12
572.755	825.12
572.966	806.12
573.178	808.12
573.389	812.12
573.6	794.12
573.811	790.12
574.023	810.12
574.234	806.12
574.445	778.12
574.656	764.12
574.867	793.12
575.078	765.12
575.289	758.12
575.501	764.12
575.712	747.12
575.923	731.12
576.134	732.12
576.345	722.12
576.556	734.12
576.767	706.12
576.978	728.12
577.188	725.12
577.399	720.12
577.61	711.12
577.821	713.12
578.032	670.12
578.243	668.12
578.454	697.12
578.665	680.12
578.875	673.12
579.086	664.12
579.297	672.12
579.508	655.12
579.718	691.12
579.929	665.12
580.14	644.12
580.35	696.12
580.561	656.12
580.772	667.12
580.982	676.12
581.193	671.12
581.403	668.12
581.614	666.12
581.825	657.12
582.035	638.12
582.246	640.12
582.456	643.12
582.667	622.12
582.877	652.12
583.087	641.12
583.298	629.12
583.508	615.12
583.719	632.12
583.929	637.12
584.139	644.12
584.35	628.12
584.56	638.12
584.77	603.12
584.981	626.12
585.191	628.12
585.401	624.12
585.611	619.12
585.821	643.12
586.032	618.12
586.242	606.12
586.452	633.12
586.662	623.12
586.872	604.12
587.082	595.12
587.292	620.12
587.502	620.12
587.713	613.12
587.923	606.12
588.133	600.12
588.343	616.12
588.553	602.12
588.762	615.12
588.972	632.12
589.182	609.12
589.392	617.12
589.602	583.12
589.812	654.12
590.022	602.12
590.232	621.12
590.441	602.12
590.651	635.12
590.861	632.12
591.071	626.12
591.281	612.12
591.49	630.12
591.7	644.12
591.91	646.12
592.119	662.12
592.329	653.12
592.539	672.12
592.748	716.12
592.958	686.12
593.167	708.12
593.377	725.12
593.587	755.12
593.796	726.12
594.006	755.12
594.215	724.12
594.424	759.12
594.634	754.12
594.843	743.12
595.053	682.12
595.262	710.12
595.472	659.12
595.681	630.12
595.89	619.12
596.1	611.12
596.309	596.12
596.518	593.12
596.727	566.12
596.937	571.12
597.146	562.12
597.355	577.12
597.564	559.12
597.774	547.12
597.983	567.12
598.192	526.12
598.401	545.12
598.61	532.12
598.819	537.12
599.028	530.12
599.237	528.12
599.446	518.12
599.655	518.12
599.864	512.12
600.073	523.12
600.282	520.12
600.491	520.12
600.7	512.12
600.909	490.12
601.118	517.12
601.327	520.12
601.536	484.12
601.745	518.12
601.953	488.12
602.162	496.12
602.371	478.12
602.58	493.12
602.789	474.12
602.997	473.12
603.206	492.12
603.415	479.12
603.623	494.12
603.832	470.12
604.041	478.12
604.249	488.12
604.458	477.12
604.666	458.12
604.875	468.12
605.084	452.12
605.292	457.12
605.501	450.12
605.709	449.12
605.918	478.12
606.126	441.12
606.334	453.12
606.543	455.12
606.751	439.12
606.96	452.12
607.168	464.12
607.376	443.12
607.585	449.12
607.793	426.12
608.001	445.12
608.21	462.12
608.418	438.12
608.626	455.12
608.834	445.12
609.043	443.12
609.251	443.12
609.459	459.12
609.667	447.12
609.875	435.12
610.083	443.12
610.291	439.12
610.499	447.12
610.707	434.12
610.916	422.12
611.124	438.12
611.332	436.12
611.54	422.12
611.748	435.12
611.955	450.12
612.163	444.12
612.371	455.12
612.579	422.12
612.787	419.12
612.995	431.12
613.203	426.12
613.411	416.12
613.618	435.12
613.826	432.12
614.034	434.12
614.242	423.12
614.449	420.12
614.657	432.12
614.865	424.12
615.072	419.12
615.28	438.12
615.488	422.12
615.695	415.12
615.903	435.12
616.111	436.12
616.318	430.12
616.526	452.12
616.733	418.12
616.941	437.12
617.148	425.12
617.356	428.12
617.563	436.12
617.771	416.12
617.978	410.12
618.185	434.12
618.393	426.12
618.6	433.12
618.807	418.12
619.015	414.12
619.222	426.12
619.429	416.12
619.637	412.12
619.844	421.12
620.051	416.12
620.258	404.12
620.466	400.12
620.673	383.12
620.88	372.12
621.087	386.12
621.294	383.12
621.501	391.12
621.708	380.12
621.915	401.12
622.122	379.12
622.329	387.12
622.536	373.12
622.743	380.12
622.95	387.12
623.157	382.12
623.364	376.12
623.571	366.12
623.778	387.12
623.985	367.12
624.192	364.12
624.399	357.12
624.606	368.12
624.812	363.12
625.019	381.12
625.226	373.12
625.433	362.12
625.639	352.12
625.846	368.12
626.053	354.12
626.259	356.12
626.466	362.12
626.673	366.12
626.879	370.12
627.086	353.12
627.293	361.12
627.499	357.12
627.706	354.12
627.912	348.12
628.119	357.12
628.325	344.12
628.532	343.12
628.738	330.12
628.945	346.12
629.151	334.12
629.357	338.12
629.564	333.12
629.77	347.12
629.976	337.12
630.183	321.12
630.389	340.12
630.595	346.12
630.802	330.12
631.008	344.12
631.214	328.12
631.42	316.12
631.627	338.12
631.833	334.12
632.039	313.12
632.245	324.12
632.451	337.12
632.657	325.12
632.863	343.12
633.069	316.12
633.275	312.12
633.481	308.12
633.688	315.12
633.893	310.12
634.099	311.12
634.305	317.12
634.511	323.12
634.717	306.12
634.923	314.12
635.129	309.12
635.335	282.12
635.541	302.12
635.747	305.12
635.952	310.12
636.158	292.12
636.364	283.12
636.57	321.12
636.775	307.12
636.981	320.12
637.187	311.12
637.392	310.12
637.598	309.12
637.804	302.12
638.009	285.12
638.215	293.12
638.421	282.12
638.626	282.12
638.832	286.12
639.037	294.12
639.243	277.12
639.448	296.12
639.654	298.12
639.859	297.12
640.065	271.12
640.27	292.12
640.475	294.12
640.681	278.12
640.886	284.12
641.091	282.12
641.297	276.12
641.502	267.12
641.707	268.12
641.913	282.12
642.118	282.12
642.323	288.12
642.528	289.12
642.733	278.12
642.939	286.12
643.144	275.12
643.349	287.12
643.554	295.12
643.759	295.12
643.964	271.12
644.169	284.12
644.374	288.12
644.579	279.12
644.784	290.12
644.989	292.12
645.194	297.12
645.399	286.12
645.604	278.12
645.809	276.12
646.014	287.12
646.219	274.12
646.423	299.12
646.628	285.12
646.833	288.12
647.038	304.12
647.243	289.12
647.447	293.12
647.652	304.12
647.857	302.12
648.062	285.12
648.266	291.12
648.471	307.12
648.676	327.12
648.88	330.12
649.085	314.12
649.289	312.12
649.494	322.12
649.698	284.12
649.903	295.12
650.107	282.12
650.312	282.12
650.516	279.12
650.721	298.12
650.925	286.12
651.13	286.12
651.334	273.12
651.539	284.12
651.743	283.12
651.947	271.12
652.152	247.12
652.356	273.12
652.56	289.12
652.764	278.12
652.969	271.12
653.173	276.12
653.377	271.12
653.581	282.12
653.785	282.12
653.99	269.12
654.194	279.12
654.398	281.12
654.602	295.12
654.806	295.12
655.01	299.12
655.214	307.12
655.418	312.12
655.622	328.12
655.826	347.12
656.03	353.12
656.234	366.12
656.438	397.12
656.642	411.12
656.846	404.12
657.049	314.12
657.253	309.12
657.457	281.12
657.661	261.12
657.865	240.12
658.068	212.12
658.272	213.12
658.476	207.12
658.68	178.12
658.883	160.12
659.087	166.12
659.291	160.12
659.494	135.12
659.698	131.12
659.901	126.12
660.105	120.12
660.309	124.12
660.512	110.12
660.716	116.12
660.919	120.12
661.123	100.12
661.326	101.12
661.53	97.12
661.733	96.12
661.936	87.12
662.14	101.12
662.343	106.12
662.546	78.12
662.75	93.12
662.953	104.12
663.156	83.12
663.36	93.12
663.563	74.12
663.766	74.12
663.969	94.12
664.173	76.12
664.376	80.12
664.579	85.12
664.782	74.12
664.985	72.12
665.188	71.12
665.391	68.12
665.594	82.12
665.797	90.12
666	74.12
666.203	82.12
666.406	67.12
666.609	81.12
666.812	63.12
667.015	84.12
667.218	76.12
667.421	71.12
667.624	79.12
667.827	80.12
668.03	76.12
668.232	76.12
668.435	72.12
668.638	71.12
668.841	78.12
669.043	66.12
669.246	74.12
669.449	86.12
669.651	95.12
669.854	72.12
670.057	76.12
670.259	76.12
670.462	56.12
670.665	80.12
670.867	67.12
671.07	98.12
671.272	91.12
671.475	68.12
671.677	65.12
671.88	98.12
672.082	85.12
672.284	86.12
672.487	96.12
672.689	94.12
672.892	71.12
