Data from NiCl2@0.0625M.TitratingCurve.Agarose3%dH2O.NegLispCup.LampEnergy10.LIBS07252019_HRD10591_18-34-45-577.txt Node
Date: Thu Jul 25 18:34:45 EDT 2019
User: cochatt
Spectrometer: HR+D1059
Trigger mode: 1
Integration Time (sec): 1.000000E-1
Scans to average: 1
Electric dark correction enabled: true
Nonlinearity correction enabled: false
Boxcar width: 0
XAxis mode: Wavelengths
Number of Pixels in Spectrum: 2048
>>>>>Begin Spectral Data<<<<<
223.165	-15.44
223.4	-15.44
223.635	-15.44
223.869	-20.44
224.104	-5.44
224.338	-10.44
224.573	-31.44
224.808	-15.44
225.042	-13.44
225.277	-5.44
225.511	-11.44
225.746	18.56
225.98	2.56
226.215	3.56
226.449	7.56
226.683	20.56
226.918	36.56
227.152	39.56
227.387	43.56
227.621	34.56
227.856	46.56
228.09	35.56
228.324	41.56
228.559	65.56
228.793	75.56
229.027	136.56
229.262	148.56
229.496	138.56
229.73	154.56
229.964	176.56
230.199	168.56
230.433	165.56
230.667	178.56
230.901	173.56
231.136	168.56
231.37	183.56
231.604	197.56
231.838	193.56
232.072	192.56
232.306	194.56
232.541	204.56
232.775	199.56
233.009	200.56
233.243	191.56
233.477	201.56
233.711	195.56
233.945	210.56
234.179	205.56
234.413	218.56
234.647	208.56
234.881	221.56
235.115	199.56
235.349	204.56
235.583	197.56
235.817	212.56
236.051	215.56
236.285	218.56
236.519	225.56
236.753	212.56
236.987	222.56
237.221	220.56
237.455	222.56
237.689	215.56
237.922	217.56
238.156	240.56
238.39	243.56
238.624	238.56
238.858	232.56
239.091	237.56
239.325	237.56
239.559	253.56
239.793	254.56
240.027	256.56
240.26	244.56
240.494	260.56
240.728	262.56
240.961	261.56
241.195	261.56
241.429	262.56
241.662	277.56
241.896	264.56
242.13	313.56
242.363	300.56
242.597	301.56
242.83	280.56
243.064	285.56
243.298	298.56
243.531	304.56
243.765	296.56
243.998	332.56
244.232	313.56
244.465	295.56
244.699	319.56
244.932	338.56
245.166	321.56
245.399	340.56
245.633	341.56
245.866	330.56
246.099	323.56
246.333	326.56
246.566	347.56
246.8	338.56
247.033	336.56
247.266	313.56
247.5	332.56
247.733	332.56
247.966	348.56
248.2	368.56
248.433	386.56
248.666	362.56
248.899	359.56
249.133	363.56
249.366	381.56
249.599	374.56
249.832	381.56
250.066	380.56
250.299	395.56
250.532	368.56
250.765	383.56
250.998	377.56
251.231	379.56
251.465	408.56
251.698	417.56
251.931	413.56
252.164	416.56
252.397	403.56
252.63	415.56
252.863	410.56
253.096	415.56
253.329	402.56
253.562	438.56
253.795	427.56
254.028	445.56
254.261	450.56
254.494	436.56
254.727	435.56
254.96	427.56
255.193	428.56
255.426	438.56
255.659	434.56
255.892	467.56
256.124	429.56
256.357	436.56
256.59	479.56
256.823	455.56
257.056	466.56
257.289	488.56
257.521	460.56
257.754	484.56
257.987	476.56
258.22	466.56
258.452	468.56
258.685	489.56
258.918	471.56
259.151	470.56
259.383	489.56
259.616	490.56
259.849	473.56
260.081	496.56
260.314	501.56
260.547	484.56
260.779	494.56
261.012	506.56
261.244	506.56
261.477	490.56
261.71	517.56
261.942	516.56
262.175	527.56
262.407	521.56
262.64	508.56
262.872	521.56
263.105	540.56
263.337	524.56
263.57	538.56
263.802	535.56
264.035	546.56
264.267	552.56
264.499	546.56
264.732	534.56
264.964	540.56
265.197	551.56
265.429	570.56
265.661	563.56
265.894	558.56
266.126	554.56
266.358	598.56
266.591	590.56
266.823	582.56
267.055	557.56
267.287	595.56
267.52	557.56
267.752	570.56
267.984	598.56
268.216	573.56
268.448	593.56
268.681	593.56
268.913	603.56
269.145	592.56
269.377	612.56
269.609	612.56
269.841	597.56
270.073	613.56
270.306	620.56
270.538	637.56
270.77	597.56
271.002	586.56
271.234	633.56
271.466	630.56
271.698	619.56
271.93	644.56
272.162	632.56
272.394	611.56
272.626	636.56
272.858	626.56
273.09	639.56
273.322	648.56
273.553	658.56
273.785	670.56
274.017	669.56
274.249	652.56
274.481	677.56
274.713	692.56
274.945	670.56
275.176	686.56
275.408	681.56
275.64	677.56
275.872	658.56
276.104	676.56
276.335	680.56
276.567	673.56
276.799	674.56
277.031	705.56
277.262	692.56
277.494	688.56
277.726	696.56
277.957	717.56
278.189	724.56
278.421	705.56
278.652	726.56
278.884	737.56
279.115	716.56
279.347	732.56
279.579	722.56
279.81	736.56
280.042	733.56
280.273	734.56
280.505	746.56
280.736	741.56
280.968	726.56
281.199	746.56
281.431	780.56
281.662	788.56
281.894	764.56
282.125	739.56
282.356	762.56
282.588	784.56
282.819	768.56
283.051	756.56
283.282	778.56
283.513	780.56
283.745	770.56
283.976	781.56
284.207	778.56
284.439	798.56
284.67	784.56
284.901	808.56
285.132	790.56
285.364	802.56
285.595	798.56
285.826	797.56
286.057	817.56
286.288	805.56
286.52	838.56
286.751	787.56
286.982	819.56
287.213	826.56
287.444	838.56
287.675	831.56
287.906	832.56
288.138	840.56
288.369	837.56
288.6	810.56
288.831	820.56
289.062	844.56
289.293	859.56
289.524	839.56
289.755	816.56
289.986	842.56
290.217	843.56
290.448	848.56
290.679	877.56
290.91	853.56
291.141	851.56
291.371	845.56
291.602	872.56
291.833	869.56
292.064	850.56
292.295	849.56
292.526	882.56
292.757	854.56
292.987	836.56
293.218	866.56
293.449	861.56
293.68	883.56
293.91	838.56
294.141	860.56
294.372	841.56
294.603	864.56
294.833	881.56
295.064	896.56
295.295	888.56
295.525	874.56
295.756	878.56
295.987	878.56
296.217	894.56
296.448	882.56
296.679	901.56
296.909	910.56
297.14	908.56
297.37	917.56
297.601	924.56
297.831	886.56
298.062	931.56
298.292	913.56
298.523	962.56
298.753	964.56
298.984	948.56
299.214	965.56
299.445	947.56
299.675	927.56
299.905	920.56
300.136	935.56
300.366	942.56
300.597	953.56
300.827	946.56
301.057	964.56
301.288	945.56
301.518	987.56
301.748	985.56
301.979	1003.56
302.209	952.56
302.439	990.56
302.669	995.56
302.9	978.56
303.13	966.56
303.36	999.56
303.59	982.56
303.82	1002.56
304.051	962.56
304.281	980.56
304.511	988.56
304.741	985.56
304.971	991.56
305.201	972.56
305.431	1003.56
305.661	1020.56
305.891	994.56
306.121	996.56
306.352	954.56
306.582	990.56
306.812	965.56
307.042	995.56
307.272	947.56
307.502	953.56
307.731	933.56
307.961	953.56
308.191	939.56
308.421	993.56
308.651	984.56
308.881	982.56
309.111	973.56
309.341	946.56
309.571	980.56
309.8	968.56
310.03	968.56
310.26	968.56
310.49	966.56
310.72	990.56
310.949	956.56
311.179	980.56
311.409	977.56
311.639	1010.56
311.868	973.56
312.098	1013.56
312.328	1006.56
312.557	1046.56
312.787	986.56
313.017	1023.56
313.246	1028.56
313.476	1030.56
313.706	1052.56
313.935	1079.56
314.165	1046.56
314.394	1048.56
314.624	1061.56
314.853	1037.56
315.083	1061.56
315.312	1056.56
315.542	1054.56
315.771	1052.56
316.001	1020.56
316.23	1038.56
316.46	1047.56
316.689	1060.56
316.919	1024.56
317.148	1032.56
317.377	1043.56
317.607	1064.56
317.836	1033.56
318.065	1013.56
318.295	1028.56
318.524	1062.56
318.753	1011.56
318.983	1019.56
319.212	1034.56
319.441	1028.56
319.67	1030.56
319.9	1041.56
320.129	1068.56
320.358	1040.56
320.587	1048.56
320.816	1053.56
321.046	1058.56
321.275	1058.56
321.504	1054.56
321.733	1020.56
321.962	1069.56
322.191	1074.56
322.42	1060.56
322.649	1080.56
322.878	1056.56
323.108	1078.56
323.337	1076.56
323.566	1053.56
323.795	1095.56
324.024	1060.56
324.253	1056.56
324.482	1083.56
324.71	1093.56
324.939	1085.56
325.168	1091.56
325.397	1078.56
325.626	1120.56
325.855	1114.56
326.084	1154.56
326.313	1153.56
326.542	1122.56
326.77	1125.56
326.999	1156.56
327.228	1128.56
327.457	1125.56
327.686	1115.56
327.914	1127.56
328.143	1164.56
328.372	1136.56
328.6	1142.56
328.829	1136.56
329.058	1118.56
329.287	1154.56
329.515	1144.56
329.744	1162.56
329.972	1171.56
330.201	1179.56
330.43	1148.56
330.658	1161.56
330.887	1174.56
331.115	1173.56
331.344	1204.56
331.572	1198.56
331.801	1202.56
332.03	1280.56
332.258	1246.56
332.486	1275.56
332.715	1293.56
332.943	1337.56
333.172	1382.56
333.4	1418.56
333.629	1449.56
333.857	1493.56
334.085	1484.56
334.314	1468.56
334.542	1471.56
334.771	1436.56
334.999	1400.56
335.227	1425.56
335.455	1386.56
335.684	1392.56
335.912	1397.56
336.14	1398.56
336.369	1390.56
336.597	1365.56
336.825	1353.56
337.053	1338.56
337.281	1355.56
337.51	1332.56
337.738	1289.56
337.966	1257.56
338.194	1282.56
338.422	1253.56
338.65	1246.56
338.878	1226.56
339.106	1230.56
339.334	1233.56
339.562	1231.56
339.79	1216.56
340.018	1239.56
340.246	1209.56
340.474	1204.56
340.702	1172.56
340.93	1165.56
341.158	1196.56
341.386	1190.56
341.614	1221.56
341.842	1196.56
342.07	1204.56
342.298	1186.56
342.526	1157.56
342.754	1189.56
342.981	1165.56
343.209	1210.56
343.437	1234.56
343.665	1328.56
343.893	1380.56
344.12	1420.56
344.348	1366.56
344.576	1348.56
344.804	1280.56
345.031	1221.56
345.259	1214.56
345.487	1161.56
345.714	1174.56
345.942	1190.56
346.17	1161.56
346.397	1156.56
346.625	1166.56
346.853	1150.56
347.08	1141.56
347.308	1130.56
347.535	1166.56
347.763	1143.56
347.99	1140.56
348.218	1145.56
348.445	1133.56
348.673	1146.56
348.9	1149.56
349.128	1138.56
349.355	1142.56
349.583	1143.56
349.81	1128.56
350.037	1153.56
350.265	1124.56
350.492	1107.56
350.72	1124.56
350.947	1081.56
351.174	1123.56
351.402	1094.56
351.629	1101.56
351.856	1096.56
352.083	1104.56
352.311	1086.56
352.538	1084.56
352.765	1117.56
352.992	1104.56
353.22	1086.56
353.447	1074.56
353.674	1077.56
353.901	1085.56
354.128	1114.56
354.355	1102.56
354.583	1101.56
354.81	1099.56
355.037	1096.56
355.264	1103.56
355.491	1108.56
355.718	1117.56
355.945	1089.56
356.172	1108.56
356.399	1120.56
356.626	1088.56
356.853	1110.56
357.08	1127.56
357.307	1126.56
357.534	1093.56
357.761	1107.56
357.988	1108.56
358.215	1112.56
358.441	1105.56
358.668	1099.56
358.895	1088.56
359.122	1117.56
359.349	1104.56
359.576	1116.56
359.802	1133.56
360.029	1110.56
360.256	1113.56
360.483	1093.56
360.709	1106.56
360.936	1123.56
361.163	1088.56
361.39	1122.56
361.616	1120.56
361.843	1097.56
362.07	1128.56
362.296	1108.56
362.523	1113.56
362.749	1093.56
362.976	1096.56
363.203	1118.56
363.429	1100.56
363.656	1090.56
363.882	1099.56
364.109	1126.56
364.335	1131.56
364.562	1092.56
364.788	1105.56
365.015	1124.56
365.241	1128.56
365.468	1115.56
365.694	1138.56
365.92	1104.56
366.147	1110.56
366.373	1087.56
366.599	1124.56
366.826	1100.56
367.052	1127.56
367.278	1136.56
367.505	1118.56
367.731	1162.56
367.957	1104.56
368.184	1114.56
368.41	1165.56
368.636	1144.56
368.862	1127.56
369.089	1144.56
369.315	1160.56
369.541	1181.56
369.767	1130.56
369.993	1143.56
370.219	1136.56
370.445	1129.56
370.672	1166.56
370.898	1196.56
371.124	1160.56
371.35	1182.56
371.576	1194.56
371.802	1227.56
372.028	1198.56
372.254	1202.56
372.48	1200.56
372.706	1222.56
372.932	1254.56
373.158	1277.56
373.384	1238.56
373.61	1210.56
373.835	1202.56
374.061	1182.56
374.287	1240.56
374.513	1235.56
374.739	1285.56
374.965	1258.56
375.191	1300.56
375.416	1309.56
375.642	1299.56
375.868	1247.56
376.094	1234.56
376.319	1274.56
376.545	1233.56
376.771	1210.56
376.997	1205.56
377.222	1196.56
377.448	1196.56
377.674	1185.56
377.899	1173.56
378.125	1172.56
378.35	1201.56
378.576	1175.56
378.802	1200.56
379.027	1195.56
379.253	1172.56
379.478	1164.56
379.704	1168.56
379.929	1189.56
380.155	1154.56
380.38	1164.56
380.606	1186.56
380.831	1163.56
381.057	1191.56
381.282	1217.56
381.507	1210.56
381.733	1216.56
381.958	1232.56
382.184	1262.56
382.409	1220.56
382.634	1234.56
382.86	1272.56
383.085	1278.56
383.31	1265.56
383.535	1284.56
383.761	1298.56
383.986	1316.56
384.211	1350.56
384.436	1334.56
384.662	1381.56
384.887	1384.56
385.112	1370.56
385.337	1416.56
385.562	1420.56
385.787	1410.56
386.013	1432.56
386.238	1440.56
386.463	1412.56
386.688	1444.56
386.913	1400.56
387.138	1410.56
387.363	1424.56
387.588	1450.56
387.813	1434.56
388.038	1436.56
388.263	1466.56
388.488	1423.56
388.713	1440.56
388.938	1420.56
389.163	1412.56
389.387	1427.56
389.612	1382.56
389.837	1420.56
390.062	1444.56
390.287	1423.56
390.512	1424.56
390.736	1419.56
390.961	1480.56
391.186	1470.56
391.411	1482.56
391.636	1517.56
391.86	1581.56
392.085	1585.56
392.31	1577.56
392.534	1570.56
392.759	1519.56
392.984	1506.56
393.208	1514.56
393.433	1509.56
393.658	1504.56
393.882	1503.56
394.107	1502.56
394.331	1520.56
394.556	1528.56
394.78	1498.56
395.005	1550.56
395.229	1558.56
395.454	1588.56
395.678	1584.56
395.903	1593.56
396.127	1568.56
396.352	1558.56
396.576	1501.56
396.801	1474.56
397.025	1594.56
397.249	1622.56
397.474	1612.56
397.698	1593.56
397.922	1645.56
398.147	1651.56
398.371	1636.56
398.595	1734.56
398.82	1746.56
399.044	1885.56
399.268	2016.56
399.492	2195.56
399.717	2446.56
399.941	2472.56
400.165	2237.56
400.389	2120.56
400.613	1977.56
400.837	1896.56
401.062	1827.56
401.286	1819.56
401.51	1762.56
401.734	1772.56
401.958	1803.56
402.182	1794.56
402.406	1822.56
402.63	1814.56
402.854	1851.56
403.078	1824.56
403.302	1902.56
403.526	1869.56
403.75	1936.56
403.974	1972.56
404.198	1929.56
404.422	1932.56
404.645	1940.56
404.869	1924.56
405.093	1928.56
405.317	1907.56
405.541	1913.56
405.765	1928.56
405.988	1910.56
406.212	1933.56
406.436	1965.56
406.66	1950.56
406.883	2006.56
407.107	2113.56
407.331	2144.56
407.555	2228.56
407.778	2226.56
408.002	2174.56
408.226	2170.56
408.449	2087.56
408.673	2069.56
408.896	2014.56
409.12	1974.56
409.344	1997.56
409.567	1963.56
409.791	1988.56
410.014	2012.56
410.238	1948.56
410.461	1924.56
410.685	1941.56
410.908	1916.56
411.132	1881.56
411.355	1870.56
411.578	1847.56
411.802	1816.56
412.025	1870.56
412.249	1887.56
412.472	1906.56
412.695	1810.56
412.919	1790.56
413.142	1814.56
413.365	1793.56
413.589	1832.56
413.812	1775.56
414.035	1748.56
414.258	1786.56
414.482	1774.56
414.705	1805.56
414.928	1750.56
415.151	1790.56
415.374	1785.56
415.597	1751.56
415.821	1714.56
416.044	1701.56
416.267	1708.56
416.49	1708.56
416.713	1702.56
416.936	1693.56
417.159	1694.56
417.382	1660.56
417.605	1674.56
417.828	1714.56
418.051	1744.56
418.274	1714.56
418.497	1718.56
418.72	1765.56
418.943	1729.56
419.166	1860.56
419.389	1984.56
419.611	1936.56
419.834	1833.56
420.057	1778.56
420.28	1734.56
420.503	1712.56
420.726	1666.56
420.948	1700.56
421.171	1679.56
421.394	1712.56
421.617	1692.56
421.839	1678.56
422.062	1737.56
422.285	1702.56
422.507	1754.56
422.73	1716.56
422.953	1718.56
423.175	1712.56
423.398	1772.56
423.621	1728.56
423.843	1739.56
424.066	1730.56
424.288	1714.56
424.511	1736.56
424.733	1694.56
424.956	1720.56
425.178	1734.56
425.401	1716.56
425.623	1690.56
425.846	1646.56
426.068	1665.56
426.291	1626.56
426.513	1625.56
426.735	1613.56
426.958	1650.56
427.18	1580.56
427.402	1609.56
427.625	1588.56
427.847	1554.56
428.069	1554.56
428.292	1613.56
428.514	1560.56
428.736	1548.56
428.958	1548.56
429.181	1537.56
429.403	1548.56
429.625	1540.56
429.847	1529.56
430.069	1550.56
430.292	1580.56
430.514	1492.56
430.736	1527.56
430.958	1556.56
431.18	1560.56
431.402	1557.56
431.624	1556.56
431.846	1571.56
432.068	1571.56
432.29	1639.56
432.512	1586.56
432.734	1582.56
432.956	1548.56
433.178	1579.56
433.4	1548.56
433.622	1581.56
433.844	1619.56
434.066	1597.56
434.287	1619.56
434.509	1641.56
434.731	1716.56
434.953	1726.56
435.175	1700.56
435.397	1741.56
435.618	1648.56
435.84	1596.56
436.062	1635.56
436.284	1579.56
436.505	1574.56
436.727	1565.56
436.949	1551.56
437.17	1520.56
437.392	1483.56
437.614	1518.56
437.835	1483.56
438.057	1489.56
438.278	1434.56
438.5	1498.56
438.721	1492.56
438.943	1528.56
439.165	1464.56
439.386	1500.56
439.608	1511.56
439.829	1521.56
440.05	1502.56
440.272	1532.56
440.493	1521.56
440.715	1557.56
440.936	1577.56
441.158	1581.56
441.379	1619.56
441.6	1686.56
441.822	1689.56
442.043	1649.56
442.264	1616.56
442.486	1660.56
442.707	1655.56
442.928	1656.56
443.149	1662.56
443.371	1663.56
443.592	1675.56
443.813	1688.56
444.034	1743.56
444.255	1703.56
444.476	1812.56
444.698	1871.56
444.919	1919.56
445.14	1979.56
445.361	1835.56
445.582	1755.56
445.803	1684.56
446.024	1642.56
446.245	1590.56
446.466	1595.56
446.687	1502.56
446.908	1590.56
447.129	1487.56
447.35	1492.56
447.571	1500.56
447.792	1437.56
448.013	1456.56
448.234	1430.56
448.455	1412.56
448.675	1392.56
448.896	1403.56
449.117	1380.56
449.338	1409.56
449.559	1403.56
449.779	1361.56
450	1350.56
450.221	1402.56
450.442	1370.56
450.662	1388.56
450.883	1405.56
451.104	1403.56
451.324	1430.56
451.545	1381.56
451.766	1411.56
451.986	1348.56
452.207	1378.56
452.428	1370.56
452.648	1355.56
452.869	1356.56
453.089	1324.56
453.31	1321.56
453.53	1311.56
453.751	1359.56
453.971	1342.56
454.192	1324.56
454.412	1302.56
454.633	1335.56
454.853	1322.56
455.073	1302.56
455.294	1314.56
455.514	1275.56
455.734	1295.56
455.955	1295.56
456.175	1264.56
456.395	1296.56
456.616	1286.56
456.836	1313.56
457.056	1292.56
457.276	1319.56
457.497	1326.56
457.717	1304.56
457.937	1346.56
458.157	1332.56
458.377	1342.56
458.598	1404.56
458.818	1405.56
459.038	1429.56
459.258	1493.56
459.478	1523.56
459.698	1556.56
459.918	1600.56
460.138	1626.56
460.358	1703.56
460.578	1709.56
460.798	1765.56
461.018	1738.56
461.238	1755.56
461.458	1741.56
461.678	1725.56
461.898	1763.56
462.118	1808.56
462.338	1887.56
462.558	1883.56
462.777	1997.56
462.997	2074.56
463.217	2224.56
463.437	2232.56
463.657	2097.56
463.876	2052.56
464.096	2023.56
464.316	1986.56
464.536	2034.56
464.755	1928.56
464.975	1909.56
465.195	1812.56
465.414	1769.56
465.634	1616.56
465.854	1608.56
466.073	1600.56
466.293	1566.56
466.512	1476.56
466.732	1481.56
466.951	1474.56
467.171	1463.56
467.391	1479.56
467.61	1461.56
467.829	1431.56
468.049	1428.56
468.268	1413.56
468.488	1407.56
468.707	1423.56
468.927	1402.56
469.146	1376.56
469.365	1426.56
469.585	1416.56
469.804	1452.56
470.023	1479.56
470.243	1492.56
470.462	1528.56
470.681	1486.56
470.901	1444.56
471.12	1470.56
471.339	1449.56
471.558	1477.56
471.777	1465.56
471.997	1422.56
472.216	1387.56
472.435	1388.56
472.654	1411.56
472.873	1373.56
473.092	1386.56
473.311	1364.56
473.53	1376.56
473.749	1374.56
473.968	1372.56
474.187	1386.56
474.406	1358.56
474.625	1412.56
474.844	1396.56
475.063	1410.56
475.282	1411.56
475.501	1447.56
475.72	1429.56
475.939	1454.56
476.158	1398.56
476.377	1444.56
476.596	1460.56
476.814	1466.56
477.033	1469.56
477.252	1507.56
477.471	1518.56
477.69	1556.56
477.908	1576.56
478.127	1578.56
478.346	1637.56
478.564	1673.56
478.783	1701.56
479.002	1733.56
479.22	1709.56
479.439	1715.56
479.658	1781.56
479.876	1763.56
480.095	1786.56
480.313	1852.56
480.532	1848.56
480.751	1853.56
480.969	1798.56
481.188	1788.56
481.406	1743.56
481.624	1716.56
481.843	1675.56
482.061	1672.56
482.28	1716.56
482.498	1706.56
482.717	1744.56
482.935	1712.56
483.153	1664.56
483.372	1766.56
483.59	1735.56
483.808	1743.56
484.027	1758.56
484.245	1793.56
484.463	1776.56
484.681	1800.56
484.9	1854.56
485.118	1854.56
485.336	1844.56
485.554	1854.56
485.772	1892.56
485.99	1891.56
486.209	1884.56
486.427	1869.56
486.645	1862.56
486.863	1829.56
487.081	1829.56
487.299	1901.56
487.517	1841.56
487.735	1856.56
487.953	1821.56
488.171	1844.56
488.389	1833.56
488.607	1778.56
488.825	1804.56
489.043	1733.56
489.261	1765.56
489.479	1750.56
489.696	1760.56
489.914	1758.56
490.132	1752.56
490.35	1775.56
490.568	1709.56
490.786	1747.56
491.003	1751.56
491.221	1753.56
491.439	1758.56
491.657	1784.56
491.874	1744.56
492.092	1770.56
492.31	1737.56
492.527	1732.56
492.745	1765.56
492.963	1724.56
493.18	1720.56
493.398	1783.56
493.615	1749.56
493.833	1754.56
494.05	1794.56
494.268	1794.56
494.485	1768.56
494.703	1777.56
494.92	1813.56
495.138	1803.56
495.355	1820.56
495.573	1806.56
495.79	1826.56
496.008	1808.56
496.225	1825.56
496.442	1866.56
496.66	1884.56
496.877	1870.56
497.094	1895.56
497.312	1930.56
497.529	1976.56
497.746	2017.56
497.963	2078.56
498.181	2145.56
498.398	2234.56
498.615	2386.56
498.832	2492.56
499.049	2621.56
499.267	2836.56
499.484	3072.56
499.701	3269.56
499.918	3612.56
500.135	3986.56
500.352	4403.56
500.569	4496.56
500.786	4406.56
501.003	4276.56
501.22	3898.56
501.437	3560.56
501.654	3224.56
501.871	2962.56
502.088	2742.56
502.305	2616.56
502.522	2519.56
502.739	2398.56
502.956	2281.56
503.172	2232.56
503.389	2128.56
503.606	2059.56
503.823	2017.56
504.04	2028.56
504.256	1991.56
504.473	2003.56
504.69	2030.56
504.907	1941.56
505.123	1900.56
505.34	1812.56
505.557	1782.56
505.773	1710.56
505.99	1701.56
506.207	1640.56
506.423	1606.56
506.64	1572.56
506.856	1570.56
507.073	1596.56
507.289	1548.56
507.506	1557.56
507.722	1495.56
507.939	1540.56
508.155	1477.56
508.372	1502.56
508.588	1505.56
508.805	1472.56
509.021	1433.56
509.238	1439.56
509.454	1444.56
509.67	1415.56
509.887	1407.56
510.103	1405.56
510.319	1387.56
510.536	1396.56
510.752	1354.56
510.968	1404.56
511.184	1384.56
511.401	1405.56
511.617	1370.56
511.833	1375.56
512.049	1360.56
512.265	1362.56
512.481	1384.56
512.698	1384.56
512.914	1362.56
513.13	1353.56
513.346	1395.56
513.562	1390.56
513.778	1416.56
513.994	1388.56
514.21	1430.56
514.426	1400.56
514.642	1409.56
514.858	1438.56
515.074	1483.56
515.29	1452.56
515.506	1424.56
515.721	1468.56
515.937	1507.56
516.153	1531.56
516.369	1522.56
516.585	1594.56
516.801	1628.56
517.016	1686.56
517.232	1757.56
517.448	1771.56
517.664	1772.56
517.879	1806.56
518.095	1818.56
518.311	1792.56
518.527	1766.56
518.742	1729.56
518.958	1616.56
519.173	1582.56
519.389	1553.56
519.605	1529.56
519.82	1486.56
520.036	1439.56
520.251	1416.56
520.467	1421.56
520.682	1388.56
520.898	1375.56
521.113	1400.56
521.329	1342.56
521.544	1336.56
521.76	1341.56
521.975	1293.56
522.19	1341.56
522.406	1297.56
522.621	1310.56
522.836	1261.56
523.052	1300.56
523.267	1262.56
523.482	1289.56
523.698	1246.56
523.913	1243.56
524.128	1242.56
524.343	1280.56
524.559	1265.56
524.774	1226.56
524.989	1247.56
525.204	1257.56
525.419	1258.56
525.634	1252.56
525.849	1207.56
526.064	1243.56
526.28	1247.56
526.495	1234.56
526.71	1216.56
526.925	1258.56
527.14	1198.56
527.355	1196.56
527.57	1218.56
527.785	1237.56
527.999	1259.56
528.214	1240.56
528.429	1217.56
528.644	1238.56
528.859	1208.56
529.074	1211.56
529.289	1225.56
529.503	1221.56
529.718	1228.56
529.933	1197.56
530.148	1177.56
530.363	1218.56
530.577	1198.56
530.792	1201.56
531.007	1221.56
531.221	1234.56
531.436	1201.56
531.651	1256.56
531.865	1198.56
532.08	1194.56
532.295	1220.56
532.509	1193.56
532.724	1229.56
532.938	1216.56
533.153	1208.56
533.367	1214.56
533.582	1203.56
533.796	1197.56
534.011	1184.56
534.225	1210.56
534.44	1186.56
534.654	1172.56
534.868	1174.56
535.083	1155.56
535.297	1156.56
535.511	1192.56
535.726	1137.56
535.94	1198.56
536.154	1136.56
536.369	1124.56
536.583	1158.56
536.797	1125.56
537.011	1134.56
537.225	1121.56
537.44	1132.56
537.654	1132.56
537.868	1148.56
538.082	1096.56
538.296	1109.56
538.51	1107.56
538.724	1124.56
538.938	1115.56
539.153	1108.56
539.367	1082.56
539.581	1088.56
539.795	1090.56
540.009	1101.56
540.222	1110.56
540.436	1072.56
540.65	1089.56
540.864	1077.56
541.078	1085.56
541.292	1100.56
541.506	1050.56
541.72	1072.56
541.934	1076.56
542.147	1074.56
542.361	1089.56
542.575	1042.56
542.789	1075.56
543.002	1067.56
543.216	1068.56
543.43	1077.56
543.644	1057.56
543.857	1064.56
544.071	1073.56
544.285	1075.56
544.498	1034.56
544.712	1058.56
544.925	1077.56
545.139	1068.56
545.352	1090.56
545.566	1072.56
545.779	1069.56
545.993	1106.56
546.206	1063.56
546.42	1094.56
546.633	1094.56
546.847	1105.56
547.06	1106.56
547.274	1086.56
547.487	1105.56
547.7	1074.56
547.914	1086.56
548.127	1089.56
548.34	1092.56
548.554	1081.56
548.767	1102.56
548.98	1116.56
549.193	1089.56
549.407	1081.56
549.62	1092.56
549.833	1114.56
550.046	1126.56
550.259	1127.56
550.473	1086.56
550.686	1105.56
550.899	1076.56
551.112	1072.56
551.325	1062.56
551.538	1060.56
551.751	1082.56
551.964	1085.56
552.177	1092.56
552.39	1106.56
552.603	1130.56
552.816	1126.56
553.029	1112.56
553.242	1130.56
553.455	1141.56
553.667	1194.56
553.88	1160.56
554.093	1117.56
554.306	1116.56
554.519	1098.56
554.732	1052.56
554.944	1040.56
555.157	1025.56
555.37	1058.56
555.583	1053.56
555.795	990.56
556.008	1018.56
556.221	996.56
556.433	953.56
556.646	965.56
556.859	952.56
557.071	958.56
557.284	949.56
557.496	946.56
557.709	903.56
557.921	930.56
558.134	915.56
558.346	931.56
558.559	914.56
558.771	937.56
558.984	917.56
559.196	864.56
559.409	889.56
559.621	918.56
559.833	902.56
560.046	869.56
560.258	902.56
560.47	900.56
560.683	893.56
560.895	859.56
561.107	890.56
561.32	891.56
561.532	900.56
561.744	898.56
561.956	905.56
562.168	911.56
562.381	911.56
562.593	923.56
562.805	918.56
563.017	911.56
563.229	930.56
563.441	900.56
563.653	906.56
563.865	909.56
564.077	922.56
564.289	945.56
564.501	958.56
564.713	957.56
564.925	973.56
565.137	1009.56
565.349	1005.56
565.561	1004.56
565.773	1071.56
565.985	1115.56
566.197	1148.56
566.408	1212.56
566.62	1315.56
566.832	1342.56
567.044	1377.56
567.255	1392.56
567.467	1420.56
567.679	1491.56
567.891	1587.56
568.102	1568.56
568.314	1478.56
568.526	1406.56
568.737	1288.56
568.949	1185.56
569.161	1122.56
569.372	1089.56
569.584	1032.56
569.795	989.56
570.007	950.56
570.218	925.56
570.43	906.56
570.641	922.56
570.853	937.56
571.064	940.56
571.276	911.56
571.487	892.56
571.698	857.56
571.91	859.56
572.121	808.56
572.333	823.56
572.544	778.56
572.755	786.56
572.966	780.56
573.178	758.56
573.389	743.56
573.6	774.56
573.811	752.56
574.023	756.56
574.234	740.56
574.445	723.56
574.656	715.56
574.867	696.56
575.078	733.56
575.289	714.56
575.501	715.56
575.712	701.56
575.923	709.56
576.134	688.56
576.345	700.56
576.556	722.56
576.767	688.56
576.978	706.56
577.188	670.56
577.399	675.56
577.61	680.56
577.821	674.56
578.032	647.56
578.243	666.56
578.454	677.56
578.665	662.56
578.875	640.56
579.086	652.56
579.297	652.56
579.508	685.56
579.718	660.56
579.929	625.56
580.14	614.56
580.35	644.56
580.561	648.56
580.772	632.56
580.982	620.56
581.193	624.56
581.403	630.56
581.614	632.56
581.825	627.56
582.035	608.56
582.246	616.56
582.456	603.56
582.667	612.56
582.877	614.56
583.087	593.56
583.298	593.56
583.508	604.56
583.719	644.56
583.929	606.56
584.139	638.56
584.35	589.56
584.56	594.56
584.77	609.56
584.981	596.56
585.191	584.56
585.401	581.56
585.611	592.56
585.821	581.56
586.032	589.56
586.242	589.56
586.452	580.56
586.662	586.56
586.872	598.56
587.082	577.56
587.292	598.56
587.502	603.56
587.713	613.56
587.923	593.56
588.133	568.56
588.343	581.56
588.553	582.56
588.762	579.56
588.972	588.56
589.182	614.56
589.392	592.56
589.602	582.56
589.812	579.56
590.022	587.56
590.232	582.56
590.441	583.56
590.651	588.56
590.861	605.56
591.071	577.56
591.281	604.56
591.49	618.56
591.7	614.56
591.91	605.56
592.119	642.56
592.329	646.56
592.539	631.56
592.748	660.56
592.958	670.56
593.167	698.56
593.377	694.56
593.587	712.56
593.796	690.56
594.006	686.56
594.215	703.56
594.424	718.56
594.634	696.56
594.843	642.56
595.053	645.56
595.262	635.56
595.472	605.56
595.681	596.56
595.89	607.56
596.1	578.56
596.309	569.56
596.518	579.56
596.727	542.56
596.937	546.56
597.146	526.56
597.355	553.56
597.564	513.56
597.774	494.56
597.983	525.56
598.192	513.56
598.401	532.56
598.61	492.56
598.819	503.56
599.028	488.56
599.237	496.56
599.446	481.56
599.655	499.56
599.864	495.56
600.073	494.56
600.282	496.56
600.491	476.56
600.7	491.56
600.909	450.56
601.118	466.56
601.327	466.56
601.536	483.56
601.745	473.56
601.953	500.56
602.162	483.56
602.371	464.56
602.58	455.56
602.789	457.56
602.997	458.56
603.206	466.56
603.415	448.56
603.623	466.56
603.832	452.56
604.041	467.56
604.249	448.56
604.458	478.56
604.666	456.56
604.875	458.56
605.084	446.56
605.292	440.56
605.501	462.56
605.709	419.56
605.918	442.56
606.126	429.56
606.334	440.56
606.543	442.56
606.751	433.56
606.96	428.56
607.168	424.56
607.376	422.56
607.585	416.56
607.793	429.56
608.001	432.56
608.21	423.56
608.418	424.56
608.626	442.56
608.834	413.56
609.043	444.56
609.251	433.56
609.459	422.56
609.667	438.56
609.875	418.56
610.083	434.56
610.291	425.56
610.499	428.56
610.707	423.56
610.916	398.56
611.124	415.56
611.332	385.56
611.54	420.56
611.748	409.56
611.955	400.56
612.163	408.56
612.371	402.56
612.579	396.56
612.787	406.56
612.995	396.56
613.203	408.56
613.411	398.56
613.618	405.56
613.826	419.56
614.034	412.56
614.242	399.56
614.449	397.56
614.657	378.56
614.865	386.56
615.072	390.56
615.28	413.56
615.488	404.56
615.695	411.56
615.903	405.56
616.111	393.56
616.318	431.56
616.526	420.56
616.733	424.56
616.941	422.56
617.148	402.56
617.356	404.56
617.563	418.56
617.771	402.56
617.978	380.56
618.185	402.56
618.393	381.56
618.6	389.56
618.807	408.56
619.015	400.56
619.222	394.56
619.429	386.56
619.637	408.56
619.844	402.56
620.051	396.56
620.258	382.56
620.466	386.56
620.673	355.56
620.88	375.56
621.087	373.56
621.294	363.56
621.501	396.56
621.708	344.56
621.915	365.56
622.122	365.56
622.329	372.56
622.536	362.56
622.743	377.56
622.95	364.56
623.157	351.56
623.364	353.56
623.571	355.56
623.778	378.56
623.985	368.56
624.192	350.56
624.399	352.56
624.606	347.56
624.812	356.56
625.019	337.56
625.226	349.56
625.433	360.56
625.639	351.56
625.846	340.56
626.053	359.56
626.259	330.56
626.466	348.56
626.673	338.56
626.879	349.56
627.086	347.56
627.293	334.56
627.499	344.56
627.706	343.56
627.912	329.56
628.119	320.56
628.325	331.56
628.532	326.56
628.738	333.56
628.945	328.56
629.151	332.56
629.357	323.56
629.564	329.56
629.77	308.56
629.976	330.56
630.183	344.56
630.389	346.56
630.595	333.56
630.802	313.56
631.008	308.56
631.214	317.56
631.42	330.56
631.627	325.56
631.833	323.56
632.039	313.56
632.245	308.56
632.451	334.56
632.657	308.56
632.863	303.56
633.069	313.56
633.275	305.56
633.481	293.56
633.688	295.56
633.893	310.56
634.099	292.56
634.305	290.56
634.511	305.56
634.717	297.56
634.923	297.56
635.129	299.56
635.335	320.56
635.541	293.56
635.747	301.56
635.952	289.56
636.158	309.56
636.364	305.56
636.57	304.56
636.775	290.56
636.981	298.56
637.187	276.56
637.392	290.56
637.598	294.56
637.804	287.56
638.009	291.56
638.215	288.56
638.421	300.56
638.626	281.56
638.832	282.56
639.037	281.56
639.243	269.56
639.448	287.56
639.654	291.56
639.859	299.56
640.065	259.56
640.27	282.56
640.475	267.56
640.681	267.56
640.886	272.56
641.091	284.56
641.297	280.56
641.502	270.56
641.707	281.56
641.913	268.56
642.118	280.56
642.323	296.56
642.528	281.56
642.733	266.56
642.939	270.56
643.144	278.56
643.349	279.56
643.554	275.56
643.759	275.56
643.964	286.56
644.169	276.56
644.374	275.56
644.579	270.56
644.784	274.56
644.989	264.56
645.194	260.56
645.399	267.56
645.604	273.56
645.809	280.56
646.014	282.56
646.219	279.56
646.423	277.56
646.628	277.56
646.833	289.56
647.038	275.56
647.243	278.56
647.447	278.56
647.652	297.56
647.857	277.56
648.062	294.56
648.266	306.56
648.471	283.56
648.676	310.56
648.88	297.56
649.085	300.56
649.289	292.56
649.494	283.56
649.698	272.56
649.903	272.56
650.107	296.56
650.312	280.56
650.516	279.56
650.721	270.56
650.925	274.56
651.13	283.56
651.334	269.56
651.539	264.56
651.743	265.56
651.947	270.56
652.152	263.56
652.356	243.56
652.56	267.56
652.764	253.56
652.969	257.56
653.173	268.56
653.377	260.56
653.581	248.56
653.785	262.56
653.99	279.56
654.194	268.56
654.398	266.56
654.602	266.56
654.806	270.56
655.01	271.56
655.214	294.56
655.418	304.56
655.622	308.56
655.826	326.56
656.03	365.56
656.234	388.56
656.438	397.56
656.642	414.56
656.846	357.56
657.049	330.56
657.253	306.56
657.457	261.56
657.661	238.56
657.865	225.56
658.068	204.56
658.272	193.56
658.476	181.56
658.68	171.56
658.883	157.56
659.087	164.56
659.291	151.56
659.494	142.56
659.698	124.56
659.901	124.56
660.105	135.56
660.309	125.56
660.512	130.56
660.716	114.56
660.919	111.56
661.123	119.56
661.326	101.56
661.53	107.56
661.733	99.56
661.936	103.56
662.14	94.56
662.343	94.56
662.546	85.56
662.75	96.56
662.953	92.56
663.156	92.56
663.36	76.56
663.563	83.56
663.766	98.56
663.969	86.56
664.173	73.56
664.376	73.56
664.579	93.56
664.782	80.56
664.985	84.56
665.188	89.56
665.391	79.56
665.594	82.56
665.797	82.56
666	78.56
666.203	96.56
666.406	89.56
666.609	91.56
666.812	93.56
667.015	84.56
667.218	91.56
667.421	73.56
667.624	101.56
667.827	74.56
668.03	89.56
668.232	94.56
668.435	82.56
668.638	93.56
668.841	87.56
669.043	75.56
669.246	76.56
669.449	81.56
669.651	104.56
669.854	105.56
670.057	77.56
670.259	74.56
670.462	69.56
670.665	86.56
670.867	87.56
671.07	86.56
671.272	76.56
671.475	98.56
671.677	69.56
671.88	92.56
672.082	72.56
672.284	85.56
672.487	68.56
672.689	73.56
672.892	71.56
