Data from NiCl2@0.25M.TitratingCurve.Agarose3%dH2O.NegLispCup.LampEnergy10.LIBS07252019_HRD10591_18-25-43-573.txt Node
Date: Thu Jul 25 18:25:43 EDT 2019
User: cochatt
Spectrometer: HR+D1059
Trigger mode: 1
Integration Time (sec): 1.000000E-1
Scans to average: 1
Electric dark correction enabled: true
Nonlinearity correction enabled: false
Boxcar width: 0
XAxis mode: Wavelengths
Number of Pixels in Spectrum: 2048
>>>>>Begin Spectral Data<<<<<
223.165	-25.25
223.4	-25.25
223.635	-25.25
223.869	-22.25
224.104	-20.25
224.338	-6.25
224.573	-10.25
224.808	-12.25
225.042	-9.25
225.277	-3.25
225.511	10.75
225.746	4.75
225.98	7.75
226.215	2.75
226.449	18.75
226.683	10.75
226.918	24.75
227.152	28.75
227.387	27.75
227.621	43.75
227.856	38.75
228.09	46.75
228.324	56.75
228.559	50.75
228.793	69.75
229.027	98.75
229.262	119.75
229.496	112.75
229.73	98.75
229.964	124.75
230.199	140.75
230.433	101.75
230.667	123.75
230.901	138.75
231.136	130.75
231.37	124.75
231.604	139.75
231.838	138.75
232.072	142.75
232.306	153.75
232.541	145.75
232.775	145.75
233.009	152.75
233.243	160.75
233.477	155.75
233.711	148.75
233.945	148.75
234.179	147.75
234.413	149.75
234.647	150.75
234.881	146.75
235.115	149.75
235.349	148.75
235.583	160.75
235.817	151.75
236.051	139.75
236.285	151.75
236.519	164.75
236.753	156.75
236.987	143.75
237.221	150.75
237.455	150.75
237.689	169.75
237.922	153.75
238.156	148.75
238.39	164.75
238.624	173.75
238.858	168.75
239.091	185.75
239.325	166.75
239.559	164.75
239.793	168.75
240.027	170.75
240.26	164.75
240.494	177.75
240.728	188.75
240.961	188.75
241.195	190.75
241.429	182.75
241.662	181.75
241.896	178.75
242.13	206.75
242.363	189.75
242.597	188.75
242.83	188.75
243.064	183.75
243.298	193.75
243.531	196.75
243.765	209.75
243.998	195.75
244.232	220.75
244.465	206.75
244.699	188.75
244.932	226.75
245.166	205.75
245.399	203.75
245.633	217.75
245.866	225.75
246.099	220.75
246.333	208.75
246.566	220.75
246.8	200.75
247.033	248.75
247.266	221.75
247.5	216.75
247.733	220.75
247.966	222.75
248.2	230.75
248.433	234.75
248.666	229.75
248.899	226.75
249.133	245.75
249.366	245.75
249.599	230.75
249.832	240.75
250.066	251.75
250.299	249.75
250.532	234.75
250.765	258.75
250.998	242.75
251.231	259.75
251.465	265.75
251.698	267.75
251.931	260.75
252.164	235.75
252.397	265.75
252.63	253.75
252.863	256.75
253.096	258.75
253.329	271.75
253.562	269.75
253.795	268.75
254.028	267.75
254.261	280.75
254.494	271.75
254.727	262.75
254.96	278.75
255.193	270.75
255.426	272.75
255.659	275.75
255.892	293.75
256.124	285.75
256.357	278.75
256.59	289.75
256.823	268.75
257.056	290.75
257.289	288.75
257.521	285.75
257.754	292.75
257.987	288.75
258.22	281.75
258.452	301.75
258.685	281.75
258.918	291.75
259.151	288.75
259.383	293.75
259.616	300.75
259.849	300.75
260.081	302.75
260.314	311.75
260.547	316.75
260.779	300.75
261.012	304.75
261.244	310.75
261.477	298.75
261.71	315.75
261.942	296.75
262.175	319.75
262.407	338.75
262.64	317.75
262.872	333.75
263.105	326.75
263.337	339.75
263.57	311.75
263.802	326.75
264.035	333.75
264.267	340.75
264.499	331.75
264.732	332.75
264.964	338.75
265.197	360.75
265.429	341.75
265.661	338.75
265.894	316.75
266.126	334.75
266.358	352.75
266.591	348.75
266.823	345.75
267.055	360.75
267.287	342.75
267.52	356.75
267.752	347.75
267.984	343.75
268.216	347.75
268.448	364.75
268.681	340.75
268.913	351.75
269.145	359.75
269.377	373.75
269.609	364.75
269.841	368.75
270.073	362.75
270.306	360.75
270.538	375.75
270.77	360.75
271.002	384.75
271.234	370.75
271.466	372.75
271.698	363.75
271.93	371.75
272.162	392.75
272.394	385.75
272.626	384.75
272.858	378.75
273.09	387.75
273.322	373.75
273.553	392.75
273.785	396.75
274.017	385.75
274.249	388.75
274.481	400.75
274.713	388.75
274.945	392.75
275.176	396.75
275.408	388.75
275.64	408.75
275.872	402.75
276.104	426.75
276.335	378.75
276.567	392.75
276.799	410.75
277.031	393.75
277.262	412.75
277.494	430.75
277.726	428.75
277.957	413.75
278.189	416.75
278.421	410.75
278.652	420.75
278.884	434.75
279.115	442.75
279.347	440.75
279.579	439.75
279.81	434.75
280.042	405.75
280.273	444.75
280.505	438.75
280.736	448.75
280.968	437.75
281.199	427.75
281.431	455.75
281.662	462.75
281.894	442.75
282.125	448.75
282.356	458.75
282.588	445.75
282.819	448.75
283.051	455.75
283.282	445.75
283.513	464.75
283.745	448.75
283.976	460.75
284.207	447.75
284.439	469.75
284.67	451.75
284.901	476.75
285.132	480.75
285.364	482.75
285.595	475.75
285.826	461.75
286.057	456.75
286.288	467.75
286.52	485.75
286.751	498.75
286.982	484.75
287.213	486.75
287.444	480.75
287.675	474.75
287.906	465.75
288.138	496.75
288.369	489.75
288.6	496.75
288.831	485.75
289.062	502.75
289.293	493.75
289.524	499.75
289.755	504.75
289.986	500.75
290.217	499.75
290.448	514.75
290.679	512.75
290.91	503.75
291.141	502.75
291.371	506.75
291.602	507.75
291.833	502.75
292.064	498.75
292.295	496.75
292.526	509.75
292.757	514.75
292.987	532.75
293.218	477.75
293.449	491.75
293.68	498.75
293.91	507.75
294.141	519.75
294.372	516.75
294.603	500.75
294.833	517.75
295.064	541.75
295.295	546.75
295.525	521.75
295.756	518.75
295.987	525.75
296.217	523.75
296.448	534.75
296.679	528.75
296.909	541.75
297.14	556.75
297.37	548.75
297.601	545.75
297.831	545.75
298.062	540.75
298.292	564.75
298.523	571.75
298.753	581.75
298.984	537.75
299.214	571.75
299.445	562.75
299.675	562.75
299.905	566.75
300.136	562.75
300.366	569.75
300.597	562.75
300.827	590.75
301.057	555.75
301.288	583.75
301.518	588.75
301.748	597.75
301.979	578.75
302.209	578.75
302.439	577.75
302.669	595.75
302.9	573.75
303.13	579.75
303.36	573.75
303.59	600.75
303.82	578.75
304.051	578.75
304.281	588.75
304.511	572.75
304.741	595.75
304.971	595.75
305.201	577.75
305.431	576.75
305.661	575.75
305.891	565.75
306.121	582.75
306.352	576.75
306.582	564.75
306.812	537.75
307.042	570.75
307.272	577.75
307.502	556.75
307.731	556.75
307.961	568.75
308.191	568.75
308.421	547.75
308.651	554.75
308.881	548.75
309.111	581.75
309.341	566.75
309.571	539.75
309.8	550.75
310.03	568.75
310.26	567.75
310.49	574.75
310.72	582.75
310.949	550.75
311.179	562.75
311.409	598.75
311.639	552.75
311.868	612.75
312.098	604.75
312.328	593.75
312.557	587.75
312.787	592.75
313.017	585.75
313.246	624.75
313.476	600.75
313.706	619.75
313.935	613.75
314.165	617.75
314.394	602.75
314.624	618.75
314.853	612.75
315.083	584.75
315.312	608.75
315.542	616.75
315.771	620.75
316.001	602.75
316.23	596.75
316.46	597.75
316.689	577.75
316.919	596.75
317.148	601.75
317.377	595.75
317.607	602.75
317.836	592.75
318.065	599.75
318.295	609.75
318.524	599.75
318.753	609.75
318.983	581.75
319.212	602.75
319.441	596.75
319.67	591.75
319.9	602.75
320.129	599.75
320.358	585.75
320.587	582.75
320.816	590.75
321.046	601.75
321.275	593.75
321.504	605.75
321.733	611.75
321.962	590.75
322.191	597.75
322.42	588.75
322.649	610.75
322.878	594.75
323.108	608.75
323.337	631.75
323.566	613.75
323.795	636.75
324.024	612.75
324.253	610.75
324.482	617.75
324.71	617.75
324.939	617.75
325.168	602.75
325.397	620.75
325.626	636.75
325.855	618.75
326.084	661.75
326.313	656.75
326.542	674.75
326.77	658.75
326.999	642.75
327.228	642.75
327.457	668.75
327.686	649.75
327.914	647.75
328.143	653.75
328.372	650.75
328.6	667.75
328.829	652.75
329.058	651.75
329.287	665.75
329.515	653.75
329.744	658.75
329.972	682.75
330.201	671.75
330.43	667.75
330.658	678.75
330.887	685.75
331.115	664.75
331.344	690.75
331.572	712.75
331.801	694.75
332.03	738.75
332.258	725.75
332.486	765.75
332.715	769.75
332.943	813.75
333.172	828.75
333.4	891.75
333.629	893.75
333.857	891.75
334.085	880.75
334.314	853.75
334.542	858.75
334.771	847.75
334.999	847.75
335.227	818.75
335.455	813.75
335.684	840.75
335.912	813.75
336.14	805.75
336.369	795.75
336.597	774.75
336.825	806.75
337.053	809.75
337.281	797.75
337.51	736.75
337.738	752.75
337.966	756.75
338.194	714.75
338.422	717.75
338.65	719.75
338.878	708.75
339.106	723.75
339.334	713.75
339.562	700.75
339.79	673.75
340.018	712.75
340.246	691.75
340.474	676.75
340.702	665.75
340.93	700.75
341.158	706.75
341.386	705.75
341.614	690.75
341.842	703.75
342.07	665.75
342.298	678.75
342.526	665.75
342.754	704.75
342.981	718.75
343.209	725.75
343.437	731.75
343.665	760.75
343.893	814.75
344.12	842.75
344.348	797.75
344.576	768.75
344.804	755.75
345.031	731.75
345.259	700.75
345.487	684.75
345.714	702.75
345.942	683.75
346.17	680.75
346.397	693.75
346.625	661.75
346.853	659.75
347.08	666.75
347.308	680.75
347.535	646.75
347.763	678.75
347.99	659.75
348.218	705.75
348.445	657.75
348.673	668.75
348.9	648.75
349.128	673.75
349.355	654.75
349.583	646.75
349.81	657.75
350.037	639.75
350.265	633.75
350.492	618.75
350.72	646.75
350.947	611.75
351.174	638.75
351.402	634.75
351.629	631.75
351.856	645.75
352.083	623.75
352.311	631.75
352.538	626.75
352.765	645.75
352.992	637.75
353.22	624.75
353.447	630.75
353.674	631.75
353.901	636.75
354.128	636.75
354.355	644.75
354.583	613.75
354.81	649.75
355.037	640.75
355.264	647.75
355.491	637.75
355.718	648.75
355.945	654.75
356.172	668.75
356.399	642.75
356.626	648.75
356.853	648.75
357.08	652.75
357.307	645.75
357.534	643.75
357.761	645.75
357.988	658.75
358.215	644.75
358.441	635.75
358.668	630.75
358.895	625.75
359.122	647.75
359.349	638.75
359.576	656.75
359.802	621.75
360.029	612.75
360.256	636.75
360.483	641.75
360.709	615.75
360.936	633.75
361.163	634.75
361.39	638.75
361.616	618.75
361.843	664.75
362.07	663.75
362.296	650.75
362.523	611.75
362.749	633.75
362.976	649.75
363.203	643.75
363.429	650.75
363.656	651.75
363.882	637.75
364.109	634.75
364.335	644.75
364.562	621.75
364.788	648.75
365.015	618.75
365.241	638.75
365.468	626.75
365.694	652.75
365.92	644.75
366.147	659.75
366.373	620.75
366.599	626.75
366.826	646.75
367.052	638.75
367.278	667.75
367.505	648.75
367.731	645.75
367.957	646.75
368.184	666.75
368.41	645.75
368.636	632.75
368.862	654.75
369.089	672.75
369.315	674.75
369.541	677.75
369.767	658.75
369.993	674.75
370.219	673.75
370.445	678.75
370.672	688.75
370.898	704.75
371.124	698.75
371.35	695.75
371.576	690.75
371.802	709.75
372.028	711.75
372.254	685.75
372.48	692.75
372.706	729.75
372.932	734.75
373.158	729.75
373.384	710.75
373.61	692.75
373.835	702.75
374.061	706.75
374.287	718.75
374.513	723.75
374.739	728.75
374.965	762.75
375.191	750.75
375.416	791.75
375.642	740.75
375.868	743.75
376.094	754.75
376.319	712.75
376.545	710.75
376.771	732.75
376.997	724.75
377.222	695.75
377.448	709.75
377.674	690.75
377.899	698.75
378.125	713.75
378.35	684.75
378.576	695.75
378.802	705.75
379.027	670.75
379.253	702.75
379.478	698.75
379.704	689.75
379.929	688.75
380.155	685.75
380.38	684.75
380.606	702.75
380.831	678.75
381.057	698.75
381.282	698.75
381.507	685.75
381.733	695.75
381.958	734.75
382.184	692.75
382.409	728.75
382.634	708.75
382.86	722.75
383.085	734.75
383.31	750.75
383.535	761.75
383.761	778.75
383.986	773.75
384.211	785.75
384.436	826.75
384.662	824.75
384.887	823.75
385.112	826.75
385.337	841.75
385.562	845.75
385.787	840.75
386.013	854.75
386.238	842.75
386.463	858.75
386.688	853.75
386.913	837.75
387.138	829.75
387.363	803.75
387.588	808.75
387.813	828.75
388.038	802.75
388.263	838.75
388.488	832.75
388.713	822.75
388.938	824.75
389.163	808.75
389.387	820.75
389.612	798.75
389.837	810.75
390.062	841.75
390.287	822.75
390.512	839.75
390.736	850.75
390.961	833.75
391.186	858.75
391.411	859.75
391.636	909.75
391.86	921.75
392.085	944.75
392.31	963.75
392.534	922.75
392.759	924.75
392.984	872.75
393.208	890.75
393.433	873.75
393.658	914.75
393.882	904.75
394.107	886.75
394.331	922.75
394.556	881.75
394.78	894.75
395.005	901.75
395.229	903.75
395.454	961.75
395.678	956.75
395.903	962.75
396.127	909.75
396.352	912.75
396.576	896.75
396.801	898.75
397.025	900.75
397.249	905.75
397.474	955.75
397.698	931.75
397.922	960.75
398.147	935.75
398.371	989.75
398.595	992.75
398.82	1068.75
399.044	1102.75
399.268	1224.75
399.492	1386.75
399.717	1574.75
399.941	1585.75
400.165	1390.75
400.389	1318.75
400.613	1170.75
400.837	1115.75
401.062	1095.75
401.286	1077.75
401.51	1083.75
401.734	1055.75
401.958	1090.75
402.182	1076.75
402.406	1091.75
402.63	1133.75
402.854	1122.75
403.078	1158.75
403.302	1144.75
403.526	1180.75
403.75	1197.75
403.974	1222.75
404.198	1179.75
404.422	1204.75
404.645	1190.75
404.869	1162.75
405.093	1191.75
405.317	1158.75
405.541	1168.75
405.765	1146.75
405.988	1148.75
406.212	1146.75
406.436	1165.75
406.66	1177.75
406.883	1182.75
407.107	1260.75
407.331	1350.75
407.555	1361.75
407.778	1389.75
408.002	1321.75
408.226	1328.75
408.449	1287.75
408.673	1239.75
408.896	1204.75
409.12	1209.75
409.344	1210.75
409.567	1182.75
409.791	1212.75
410.014	1184.75
410.238	1222.75
410.461	1169.75
410.685	1136.75
410.908	1130.75
411.132	1116.75
411.355	1094.75
411.578	1096.75
411.802	1073.75
412.025	1111.75
412.249	1107.75
412.472	1144.75
412.695	1093.75
412.919	1064.75
413.142	1049.75
413.365	1063.75
413.589	1071.75
413.812	1070.75
414.035	1014.75
414.258	1042.75
414.482	1055.75
414.705	1073.75
414.928	1075.75
415.151	1091.75
415.374	1063.75
415.597	1016.75
415.821	1059.75
416.044	1034.75
416.267	1014.75
416.49	1029.75
416.713	1039.75
416.936	1067.75
417.159	1032.75
417.382	1022.75
417.605	1006.75
417.828	1058.75
418.051	1043.75
418.274	1044.75
418.497	1036.75
418.72	1038.75
418.943	1069.75
419.166	1138.75
419.389	1181.75
419.611	1198.75
419.834	1125.75
420.057	1115.75
420.28	1063.75
420.503	1054.75
420.726	1031.75
420.948	1037.75
421.171	1028.75
421.394	1031.75
421.617	1030.75
421.839	1032.75
422.062	1033.75
422.285	1028.75
422.507	1046.75
422.73	1037.75
422.953	1054.75
423.175	1075.75
423.398	1079.75
423.621	1105.75
423.843	1127.75
424.066	1098.75
424.288	1105.75
424.511	1101.75
424.733	1065.75
424.956	1070.75
425.178	1057.75
425.401	1052.75
425.623	1076.75
425.846	1000.75
426.068	982.75
426.291	1024.75
426.513	972.75
426.735	964.75
426.958	974.75
427.18	956.75
427.402	955.75
427.625	953.75
427.847	927.75
428.069	949.75
428.292	908.75
428.514	918.75
428.736	937.75
428.958	920.75
429.181	925.75
429.403	900.75
429.625	894.75
429.847	914.75
430.069	905.75
430.292	883.75
430.514	890.75
430.736	899.75
430.958	891.75
431.18	917.75
431.402	918.75
431.624	932.75
431.846	916.75
432.068	933.75
432.29	958.75
432.512	928.75
432.734	939.75
432.956	903.75
433.178	946.75
433.4	914.75
433.622	928.75
433.844	969.75
434.066	962.75
434.287	956.75
434.509	987.75
434.731	997.75
434.953	1031.75
435.175	1027.75
435.397	1052.75
435.618	1008.75
435.84	958.75
436.062	928.75
436.284	955.75
436.505	924.75
436.727	935.75
436.949	948.75
437.17	911.75
437.392	893.75
437.614	908.75
437.835	891.75
438.057	890.75
438.278	871.75
438.5	889.75
438.721	876.75
438.943	902.75
439.165	886.75
439.386	886.75
439.608	900.75
439.829	939.75
440.05	937.75
440.272	919.75
440.493	893.75
440.715	923.75
440.936	977.75
441.158	968.75
441.379	996.75
441.6	1030.75
441.822	1057.75
442.043	1042.75
442.264	1021.75
442.486	990.75
442.707	1017.75
442.928	1017.75
443.149	995.75
443.371	1030.75
443.592	1026.75
443.813	1056.75
444.034	1031.75
444.255	1088.75
444.476	1123.75
444.698	1164.75
444.919	1226.75
445.14	1281.75
445.361	1164.75
445.582	1078.75
445.803	1016.75
446.024	962.75
446.245	992.75
446.466	966.75
446.687	939.75
446.908	953.75
447.129	934.75
447.35	933.75
447.571	900.75
447.792	878.75
448.013	875.75
448.234	853.75
448.455	851.75
448.675	822.75
448.896	850.75
449.117	829.75
449.338	834.75
449.559	834.75
449.779	796.75
450	845.75
450.221	849.75
450.442	842.75
450.662	859.75
450.883	873.75
451.104	885.75
451.324	876.75
451.545	873.75
451.766	864.75
451.986	845.75
452.207	849.75
452.428	866.75
452.648	851.75
452.869	830.75
453.089	829.75
453.31	813.75
453.53	805.75
453.751	826.75
453.971	829.75
454.192	818.75
454.412	782.75
454.633	804.75
454.853	796.75
455.073	808.75
455.294	794.75
455.514	787.75
455.734	797.75
455.955	786.75
456.175	796.75
456.395	786.75
456.616	781.75
456.836	792.75
457.056	794.75
457.276	753.75
457.497	788.75
457.717	786.75
457.937	790.75
458.157	801.75
458.377	810.75
458.598	833.75
458.818	847.75
459.038	880.75
459.258	900.75
459.478	930.75
459.698	962.75
459.918	1020.75
460.138	1021.75
460.358	1120.75
460.578	1080.75
460.798	1113.75
461.018	1140.75
461.238	1082.75
461.458	1090.75
461.678	1076.75
461.898	1114.75
462.118	1112.75
462.338	1168.75
462.558	1189.75
462.777	1221.75
462.997	1322.75
463.217	1451.75
463.437	1484.75
463.657	1350.75
463.876	1326.75
464.096	1311.75
464.316	1295.75
464.536	1286.75
464.755	1237.75
464.975	1181.75
465.195	1137.75
465.414	1077.75
465.634	989.75
465.854	964.75
466.073	960.75
466.293	954.75
466.512	904.75
466.732	904.75
466.951	878.75
467.171	894.75
467.391	877.75
467.61	886.75
467.829	892.75
468.049	882.75
468.268	861.75
468.488	836.75
468.707	846.75
468.927	854.75
469.146	855.75
469.365	872.75
469.585	888.75
469.804	902.75
470.023	890.75
470.243	882.75
470.462	903.75
470.681	932.75
470.901	918.75
471.12	912.75
471.339	914.75
471.558	899.75
471.777	877.75
471.997	861.75
472.216	870.75
472.435	857.75
472.654	856.75
472.873	822.75
473.092	843.75
473.311	827.75
473.53	843.75
473.749	809.75
473.968	806.75
474.187	829.75
474.406	812.75
474.625	819.75
474.844	845.75
475.063	820.75
475.282	826.75
475.501	859.75
475.72	847.75
475.939	860.75
476.158	844.75
476.377	865.75
476.596	873.75
476.814	892.75
477.033	868.75
477.252	884.75
477.471	922.75
477.69	937.75
477.908	953.75
478.127	992.75
478.346	1015.75
478.564	1013.75
478.783	1006.75
479.002	1048.75
479.22	1036.75
479.439	1061.75
479.658	1060.75
479.876	1044.75
480.095	1069.75
480.313	1069.75
480.532	1102.75
480.751	1097.75
480.969	1091.75
481.188	1024.75
481.406	1014.75
481.624	1002.75
481.843	958.75
482.061	948.75
482.28	918.75
482.498	953.75
482.717	933.75
482.935	911.75
483.153	923.75
483.372	950.75
483.59	916.75
483.808	951.75
484.027	951.75
484.245	939.75
484.463	971.75
484.681	988.75
484.9	999.75
485.118	995.75
485.336	942.75
485.554	979.75
485.772	987.75
485.99	1025.75
486.209	1018.75
486.427	1017.75
486.645	1026.75
486.863	1006.75
487.081	995.75
487.299	980.75
487.517	1008.75
487.735	1001.75
487.953	1008.75
488.171	999.75
488.389	971.75
488.607	960.75
488.825	966.75
489.043	970.75
489.261	979.75
489.479	998.75
489.696	1008.75
489.914	1003.75
490.132	997.75
490.35	1009.75
490.568	984.75
490.786	1011.75
491.003	1016.75
491.221	1023.75
491.439	996.75
491.657	1018.75
491.874	1004.75
492.092	1042.75
492.31	1037.75
492.527	1040.75
492.745	1028.75
492.963	993.75
493.18	1041.75
493.398	1019.75
493.615	1062.75
493.833	1020.75
494.05	1056.75
494.268	1070.75
494.485	1088.75
494.703	1100.75
494.92	1056.75
495.138	1063.75
495.355	1030.75
495.573	1059.75
495.79	1101.75
496.008	1062.75
496.225	1087.75
496.442	1120.75
496.66	1121.75
496.877	1138.75
497.094	1156.75
497.312	1188.75
497.529	1180.75
497.746	1225.75
497.963	1257.75
498.181	1300.75
498.398	1370.75
498.615	1435.75
498.832	1538.75
499.049	1653.75
499.267	1788.75
499.484	1986.75
499.701	2210.75
499.918	2365.75
500.135	2781.75
500.352	3078.75
500.569	3254.75
500.786	3224.75
501.003	2996.75
501.22	2738.75
501.437	2381.75
501.654	2139.75
501.871	1909.75
502.088	1734.75
502.305	1645.75
502.522	1560.75
502.739	1486.75
502.956	1410.75
503.172	1362.75
503.389	1268.75
503.606	1270.75
503.823	1220.75
504.04	1224.75
504.256	1254.75
504.473	1270.75
504.69	1294.75
504.907	1228.75
505.123	1197.75
505.34	1102.75
505.557	1064.75
505.773	1036.75
505.99	1059.75
506.207	1004.75
506.423	968.75
506.64	989.75
506.856	938.75
507.073	936.75
507.289	925.75
507.506	960.75
507.722	948.75
507.939	909.75
508.155	939.75
508.372	900.75
508.588	881.75
508.805	892.75
509.021	872.75
509.238	900.75
509.454	894.75
509.67	905.75
509.887	876.75
510.103	876.75
510.319	870.75
510.536	896.75
510.752	858.75
510.968	871.75
511.184	834.75
511.401	857.75
511.617	887.75
511.833	857.75
512.049	861.75
512.265	864.75
512.481	865.75
512.698	843.75
512.914	858.75
513.13	871.75
513.346	870.75
513.562	858.75
513.778	843.75
513.994	862.75
514.21	855.75
514.426	891.75
514.642	874.75
514.858	870.75
515.074	905.75
515.29	880.75
515.506	888.75
515.721	909.75
515.937	930.75
516.153	949.75
516.369	960.75
516.585	1017.75
516.801	1016.75
517.016	1063.75
517.232	1089.75
517.448	1175.75
517.664	1200.75
517.879	1235.75
518.095	1182.75
518.311	1163.75
518.527	1126.75
518.742	1072.75
518.958	1055.75
519.173	1030.75
519.389	1004.75
519.605	935.75
519.82	948.75
520.036	925.75
520.251	892.75
520.467	896.75
520.682	861.75
520.898	824.75
521.113	862.75
521.329	839.75
521.544	831.75
521.76	845.75
521.975	850.75
522.19	828.75
522.406	802.75
522.621	807.75
522.836	808.75
523.052	808.75
523.267	810.75
523.482	795.75
523.698	785.75
523.913	814.75
524.128	792.75
524.343	783.75
524.559	800.75
524.774	772.75
524.989	790.75
525.204	780.75
525.419	789.75
525.634	786.75
525.849	781.75
526.064	783.75
526.28	772.75
526.495	781.75
526.71	792.75
526.925	766.75
527.14	761.75
527.355	756.75
527.57	755.75
527.785	789.75
527.999	778.75
528.214	738.75
528.429	763.75
528.644	769.75
528.859	786.75
529.074	789.75
529.289	765.75
529.503	773.75
529.718	753.75
529.933	763.75
530.148	771.75
530.363	766.75
530.577	780.75
530.792	752.75
531.007	748.75
531.221	774.75
531.436	786.75
531.651	766.75
531.865	774.75
532.08	753.75
532.295	772.75
532.509	765.75
532.724	773.75
532.938	748.75
533.153	745.75
533.367	762.75
533.582	779.75
533.796	772.75
534.011	767.75
534.225	757.75
534.44	768.75
534.654	726.75
534.868	763.75
535.083	738.75
535.297	763.75
535.511	749.75
535.726	736.75
535.94	712.75
536.154	735.75
536.369	721.75
536.583	704.75
536.797	738.75
537.011	702.75
537.225	700.75
537.44	745.75
537.654	700.75
537.868	695.75
538.082	698.75
538.296	693.75
538.51	696.75
538.724	727.75
538.938	720.75
539.153	691.75
539.367	710.75
539.581	673.75
539.795	690.75
540.009	685.75
540.222	690.75
540.436	690.75
540.65	680.75
540.864	716.75
541.078	695.75
541.292	689.75
541.506	683.75
541.72	704.75
541.934	698.75
542.147	716.75
542.361	683.75
542.575	703.75
542.789	690.75
543.002	678.75
543.216	680.75
543.43	691.75
543.644	674.75
543.857	683.75
544.071	664.75
544.285	661.75
544.498	682.75
544.712	690.75
544.925	699.75
545.139	704.75
545.352	718.75
545.566	702.75
545.779	701.75
545.993	712.75
546.206	727.75
546.42	710.75
546.633	682.75
546.847	706.75
547.06	721.75
547.274	714.75
547.487	707.75
547.7	695.75
547.914	733.75
548.127	726.75
548.34	734.75
548.554	702.75
548.767	692.75
548.98	723.75
549.193	719.75
549.407	713.75
549.62	736.75
549.833	730.75
550.046	731.75
550.259	713.75
550.473	678.75
550.686	709.75
550.899	706.75
551.112	703.75
551.325	685.75
551.538	672.75
551.751	713.75
551.964	699.75
552.177	685.75
552.39	733.75
552.603	733.75
552.816	739.75
553.029	762.75
553.242	745.75
553.455	776.75
553.667	800.75
553.88	767.75
554.093	756.75
554.306	752.75
554.519	725.75
554.732	726.75
554.944	697.75
555.157	680.75
555.37	658.75
555.583	656.75
555.795	668.75
556.008	653.75
556.221	624.75
556.433	615.75
556.646	598.75
556.859	618.75
557.071	621.75
557.284	602.75
557.496	611.75
557.709	614.75
557.921	593.75
558.134	609.75
558.346	605.75
558.559	595.75
558.771	605.75
558.984	594.75
559.196	577.75
559.409	555.75
559.621	598.75
559.833	612.75
560.046	568.75
560.258	586.75
560.47	567.75
560.683	585.75
560.895	581.75
561.107	589.75
561.32	591.75
561.532	582.75
561.744	591.75
561.956	580.75
562.168	589.75
562.381	591.75
562.593	580.75
562.805	583.75
563.017	572.75
563.229	558.75
563.441	606.75
563.653	598.75
563.865	589.75
564.077	596.75
564.289	609.75
564.501	604.75
564.713	633.75
564.925	627.75
565.137	627.75
565.349	640.75
565.561	655.75
565.773	709.75
565.985	726.75
566.197	754.75
566.408	829.75
566.62	868.75
566.832	931.75
567.044	966.75
567.255	944.75
567.467	996.75
567.679	1048.75
567.891	1113.75
568.102	1108.75
568.314	1081.75
568.526	948.75
568.737	880.75
568.949	791.75
569.161	748.75
569.372	704.75
569.584	661.75
569.795	637.75
570.007	618.75
570.218	600.75
570.43	592.75
570.641	600.75
570.853	595.75
571.064	597.75
571.276	595.75
571.487	602.75
571.698	577.75
571.91	541.75
572.121	541.75
572.333	517.75
572.544	514.75
572.755	500.75
572.966	505.75
573.178	477.75
573.389	516.75
573.6	511.75
573.811	498.75
574.023	505.75
574.234	466.75
574.445	463.75
574.656	480.75
574.867	481.75
575.078	482.75
575.289	483.75
575.501	459.75
575.712	449.75
575.923	440.75
576.134	469.75
576.345	462.75
576.556	477.75
576.767	441.75
576.978	452.75
577.188	443.75
577.399	462.75
577.61	434.75
577.821	442.75
578.032	425.75
578.243	420.75
578.454	420.75
578.665	428.75
578.875	426.75
579.086	420.75
579.297	430.75
579.508	412.75
579.718	436.75
579.929	436.75
580.14	396.75
580.35	440.75
580.561	407.75
580.772	405.75
580.982	427.75
581.193	410.75
581.403	415.75
581.614	434.75
581.825	406.75
582.035	402.75
582.246	407.75
582.456	398.75
582.667	410.75
582.877	401.75
583.087	412.75
583.298	391.75
583.508	421.75
583.719	387.75
583.929	402.75
584.139	405.75
584.35	394.75
584.56	398.75
584.77	401.75
584.981	388.75
585.191	373.75
585.401	388.75
585.611	403.75
585.821	380.75
586.032	384.75
586.242	384.75
586.452	408.75
586.662	395.75
586.872	386.75
587.082	393.75
587.292	381.75
587.502	378.75
587.713	370.75
587.923	390.75
588.133	383.75
588.343	394.75
588.553	375.75
588.762	373.75
588.972	406.75
589.182	403.75
589.392	400.75
589.602	408.75
589.812	377.75
590.022	380.75
590.232	400.75
590.441	407.75
590.651	380.75
590.861	400.75
591.071	376.75
591.281	393.75
591.49	410.75
591.7	407.75
591.91	440.75
592.119	422.75
592.329	418.75
592.539	442.75
592.748	441.75
592.958	461.75
593.167	474.75
593.377	490.75
593.587	485.75
593.796	490.75
594.006	491.75
594.215	517.75
594.424	500.75
594.634	461.75
594.843	451.75
595.053	432.75
595.262	427.75
595.472	424.75
595.681	410.75
595.89	410.75
596.1	381.75
596.309	378.75
596.518	389.75
596.727	378.75
596.937	369.75
597.146	358.75
597.355	368.75
597.564	352.75
597.774	360.75
597.983	356.75
598.192	349.75
598.401	342.75
598.61	343.75
598.819	360.75
599.028	339.75
599.237	338.75
599.446	328.75
599.655	338.75
599.864	346.75
600.073	317.75
600.282	336.75
600.491	329.75
600.7	312.75
600.909	308.75
601.118	306.75
601.327	317.75
601.536	314.75
601.745	299.75
601.953	337.75
602.162	321.75
602.371	326.75
602.58	323.75
602.789	311.75
602.997	310.75
603.206	318.75
603.415	308.75
603.623	307.75
603.832	304.75
604.041	318.75
604.249	318.75
604.458	293.75
604.666	298.75
604.875	306.75
605.084	274.75
605.292	296.75
605.501	297.75
605.709	307.75
605.918	306.75
606.126	304.75
606.334	285.75
606.543	297.75
606.751	289.75
606.96	305.75
607.168	300.75
607.376	296.75
607.585	310.75
607.793	298.75
608.001	304.75
608.21	283.75
608.418	286.75
608.626	306.75
608.834	281.75
609.043	290.75
609.251	284.75
609.459	296.75
609.667	292.75
609.875	277.75
610.083	279.75
610.291	294.75
610.499	296.75
610.707	284.75
610.916	259.75
611.124	280.75
611.332	277.75
611.54	279.75
611.748	284.75
611.955	277.75
612.163	293.75
612.371	282.75
612.579	275.75
612.787	281.75
612.995	295.75
613.203	287.75
613.411	268.75
613.618	281.75
613.826	278.75
614.034	289.75
614.242	282.75
614.449	280.75
614.657	288.75
614.865	277.75
615.072	262.75
615.28	278.75
615.488	258.75
615.695	290.75
615.903	289.75
616.111	291.75
616.318	269.75
616.526	273.75
616.733	277.75
616.941	262.75
617.148	288.75
617.356	285.75
617.563	281.75
617.771	267.75
617.978	277.75
618.185	273.75
618.393	270.75
618.6	264.75
618.807	264.75
619.015	270.75
619.222	273.75
619.429	266.75
619.637	280.75
619.844	254.75
620.051	276.75
620.258	281.75
620.466	265.75
620.673	265.75
620.88	238.75
621.087	244.75
621.294	271.75
621.501	281.75
621.708	266.75
621.915	260.75
622.122	252.75
622.329	252.75
622.536	268.75
622.743	256.75
622.95	259.75
623.157	253.75
623.364	247.75
623.571	263.75
623.778	246.75
623.985	252.75
624.192	242.75
624.399	241.75
624.606	246.75
624.812	250.75
625.019	266.75
625.226	248.75
625.433	253.75
625.639	227.75
625.846	249.75
626.053	248.75
626.259	228.75
626.466	242.75
626.673	227.75
626.879	241.75
627.086	237.75
627.293	242.75
627.499	234.75
627.706	246.75
627.912	233.75
628.119	237.75
628.325	250.75
628.532	232.75
628.738	234.75
628.945	230.75
629.151	230.75
629.357	221.75
629.564	230.75
629.77	214.75
629.976	234.75
630.183	212.75
630.389	220.75
630.595	218.75
630.802	227.75
631.008	221.75
631.214	228.75
631.42	221.75
631.627	219.75
631.833	202.75
632.039	206.75
632.245	211.75
632.451	216.75
632.657	205.75
632.863	212.75
633.069	214.75
633.275	198.75
633.481	199.75
633.688	206.75
633.893	218.75
634.099	198.75
634.305	212.75
634.511	214.75
634.717	219.75
634.923	204.75
635.129	206.75
635.335	213.75
635.541	198.75
635.747	202.75
635.952	200.75
636.158	196.75
636.364	206.75
636.57	183.75
636.775	218.75
636.981	218.75
637.187	202.75
637.392	208.75
637.598	209.75
637.804	180.75
638.009	198.75
638.215	206.75
638.421	213.75
638.626	179.75
638.832	201.75
639.037	201.75
639.243	205.75
639.448	185.75
639.654	199.75
639.859	190.75
640.065	177.75
640.27	200.75
640.475	183.75
640.681	200.75
640.886	189.75
641.091	193.75
641.297	192.75
641.502	206.75
641.707	187.75
641.913	189.75
642.118	182.75
642.323	177.75
642.528	191.75
642.733	184.75
642.939	174.75
643.144	178.75
643.349	196.75
643.554	177.75
643.759	182.75
643.964	188.75
644.169	180.75
644.374	176.75
644.579	180.75
644.784	192.75
644.989	179.75
645.194	181.75
645.399	197.75
645.604	172.75
645.809	178.75
646.014	174.75
646.219	184.75
646.423	182.75
646.628	188.75
646.833	190.75
647.038	176.75
647.243	186.75
647.447	187.75
647.652	186.75
647.857	189.75
648.062	196.75
648.266	200.75
648.471	196.75
648.676	189.75
648.88	211.75
649.085	180.75
649.289	187.75
649.494	184.75
649.698	184.75
649.903	161.75
650.107	176.75
650.312	176.75
650.516	180.75
650.721	164.75
650.925	173.75
651.13	169.75
651.334	166.75
651.539	157.75
651.743	162.75
651.947	173.75
652.152	166.75
652.356	167.75
652.56	160.75
652.764	154.75
652.969	165.75
653.173	144.75
653.377	149.75
653.581	149.75
653.785	150.75
653.99	158.75
654.194	146.75
654.398	155.75
654.602	152.75
654.806	139.75
655.01	130.75
655.214	133.75
655.418	136.75
655.622	132.75
655.826	147.75
656.03	128.75
656.234	140.75
656.438	130.75
656.642	126.75
656.846	140.75
657.049	115.75
657.253	127.75
657.457	125.75
657.661	131.75
657.865	105.75
658.068	116.75
658.272	124.75
658.476	101.75
658.68	108.75
658.883	106.75
659.087	103.75
659.291	117.75
659.494	99.75
659.698	104.75
659.901	96.75
660.105	108.75
660.309	91.75
660.512	95.75
660.716	109.75
660.919	88.75
661.123	93.75
661.326	72.75
661.53	95.75
661.733	85.75
661.936	100.75
662.14	86.75
662.343	78.75
662.546	92.75
662.75	85.75
662.953	80.75
663.156	90.75
663.36	67.75
663.563	72.75
663.766	82.75
663.969	88.75
664.173	93.75
664.376	84.75
664.579	71.75
664.782	68.75
664.985	77.75
665.188	89.75
665.391	80.75
665.594	88.75
665.797	68.75
666	68.75
666.203	80.75
666.406	88.75
666.609	93.75
666.812	91.75
667.015	76.75
667.218	100.75
667.421	73.75
667.624	84.75
667.827	70.75
668.03	81.75
668.232	95.75
668.435	85.75
668.638	94.75
668.841	77.75
669.043	78.75
669.246	72.75
669.449	76.75
669.651	76.75
669.854	71.75
670.057	65.75
670.259	94.75
670.462	88.75
670.665	88.75
670.867	89.75
671.07	86.75
671.272	74.75
671.475	72.75
671.677	85.75
671.88	78.75
672.082	64.75
672.284	90.75
672.487	95.75
672.689	90.75
672.892	80.75
