Data from NiCl2@0.25M.TitratingCurve.Agarose3%dH2O.NegLispCup.LampEnergy10.LIBS07252019_HRD10591_18-25-53-573.txt Node
Date: Thu Jul 25 18:25:53 EDT 2019
User: cochatt
Spectrometer: HR+D1059
Trigger mode: 1
Integration Time (sec): 1.000000E-1
Scans to average: 1
Electric dark correction enabled: true
Nonlinearity correction enabled: false
Boxcar width: 0
XAxis mode: Wavelengths
Number of Pixels in Spectrum: 2048
>>>>>Begin Spectral Data<<<<<
223.165	-19.31
223.4	-19.31
223.635	-19.31
223.869	-21.31
224.104	-17.31
224.338	1.69
224.573	-1.31
224.808	-9.31
225.042	-6.31
225.277	-9.31
225.511	-7.31
225.746	-10.31
225.98	7.69
226.215	20.69
226.449	12.69
226.683	7.69
226.918	26.69
227.152	24.69
227.387	31.69
227.621	29.69
227.856	52.69
228.09	43.69
228.324	48.69
228.559	57.69
228.793	63.69
229.027	124.69
229.262	139.69
229.496	141.69
229.73	135.69
229.964	138.69
230.199	141.69
230.433	155.69
230.667	170.69
230.901	173.69
231.136	165.69
231.37	158.69
231.604	162.69
231.838	166.69
232.072	148.69
232.306	162.69
232.541	174.69
232.775	199.69
233.009	175.69
233.243	183.69
233.477	179.69
233.711	169.69
233.945	173.69
234.179	178.69
234.413	190.69
234.647	191.69
234.881	182.69
235.115	182.69
235.349	188.69
235.583	177.69
235.817	171.69
236.051	189.69
236.285	196.69
236.519	179.69
236.753	190.69
236.987	180.69
237.221	173.69
237.455	199.69
237.689	191.69
237.922	192.69
238.156	204.69
238.39	192.69
238.624	190.69
238.858	206.69
239.091	212.69
239.325	212.69
239.559	221.69
239.793	227.69
240.027	188.69
240.26	218.69
240.494	220.69
240.728	216.69
240.961	228.69
241.195	229.69
241.429	226.69
241.662	212.69
241.896	229.69
242.13	226.69
242.363	237.69
242.597	244.69
242.83	241.69
243.064	249.69
243.298	247.69
243.531	259.69
243.765	242.69
243.998	269.69
244.232	264.69
244.465	265.69
244.699	273.69
244.932	285.69
245.166	262.69
245.399	271.69
245.633	260.69
245.866	278.69
246.099	269.69
246.333	273.69
246.566	295.69
246.8	274.69
247.033	278.69
247.266	282.69
247.5	285.69
247.733	278.69
247.966	292.69
248.2	287.69
248.433	292.69
248.666	296.69
248.899	295.69
249.133	290.69
249.366	286.69
249.599	320.69
249.832	304.69
250.066	312.69
250.299	303.69
250.532	315.69
250.765	323.69
250.998	344.69
251.231	302.69
251.465	325.69
251.698	336.69
251.931	324.69
252.164	320.69
252.397	355.69
252.63	332.69
252.863	339.69
253.096	354.69
253.329	342.69
253.562	364.69
253.795	376.69
254.028	358.69
254.261	345.69
254.494	338.69
254.727	362.69
254.96	346.69
255.193	355.69
255.426	367.69
255.659	341.69
255.892	354.69
256.124	372.69
256.357	348.69
256.59	368.69
256.823	364.69
257.056	354.69
257.289	370.69
257.521	371.69
257.754	387.69
257.987	397.69
258.22	382.69
258.452	379.69
258.685	384.69
258.918	396.69
259.151	388.69
259.383	406.69
259.616	370.69
259.849	406.69
260.081	389.69
260.314	418.69
260.547	406.69
260.779	404.69
261.012	398.69
261.244	410.69
261.477	404.69
261.71	386.69
261.942	420.69
262.175	402.69
262.407	418.69
262.64	412.69
262.872	407.69
263.105	421.69
263.337	412.69
263.57	412.69
263.802	432.69
264.035	430.69
264.267	407.69
264.499	431.69
264.732	418.69
264.964	436.69
265.197	422.69
265.429	441.69
265.661	430.69
265.894	444.69
266.126	447.69
266.358	464.69
266.591	440.69
266.823	457.69
267.055	462.69
267.287	468.69
267.52	461.69
267.752	474.69
267.984	466.69
268.216	463.69
268.448	468.69
268.681	492.69
268.913	467.69
269.145	484.69
269.377	464.69
269.609	482.69
269.841	486.69
270.073	491.69
270.306	479.69
270.538	486.69
270.77	490.69
271.002	474.69
271.234	488.69
271.466	483.69
271.698	492.69
271.93	476.69
272.162	487.69
272.394	511.69
272.626	500.69
272.858	489.69
273.09	511.69
273.322	495.69
273.553	493.69
273.785	507.69
274.017	522.69
274.249	523.69
274.481	532.69
274.713	500.69
274.945	532.69
275.176	510.69
275.408	522.69
275.64	504.69
275.872	515.69
276.104	537.69
276.335	544.69
276.567	527.69
276.799	548.69
277.031	542.69
277.262	556.69
277.494	547.69
277.726	542.69
277.957	554.69
278.189	573.69
278.421	564.69
278.652	558.69
278.884	556.69
279.115	562.69
279.347	529.69
279.579	558.69
279.81	567.69
280.042	580.69
280.273	574.69
280.505	592.69
280.736	581.69
280.968	557.69
281.199	585.69
281.431	602.69
281.662	586.69
281.894	605.69
282.125	598.69
282.356	593.69
282.588	596.69
282.819	611.69
283.051	595.69
283.282	610.69
283.513	615.69
283.745	645.69
283.976	613.69
284.207	611.69
284.439	612.69
284.67	614.69
284.901	626.69
285.132	642.69
285.364	645.69
285.595	630.69
285.826	621.69
286.057	639.69
286.288	623.69
286.52	645.69
286.751	644.69
286.982	631.69
287.213	650.69
287.444	622.69
287.675	639.69
287.906	662.69
288.138	638.69
288.369	650.69
288.6	650.69
288.831	655.69
289.062	662.69
289.293	671.69
289.524	659.69
289.755	644.69
289.986	669.69
290.217	676.69
290.448	648.69
290.679	677.69
290.91	664.69
291.141	666.69
291.371	656.69
291.602	658.69
291.833	665.69
292.064	684.69
292.295	666.69
292.526	701.69
292.757	671.69
292.987	657.69
293.218	654.69
293.449	670.69
293.68	671.69
293.91	680.69
294.141	685.69
294.372	682.69
294.603	675.69
294.833	704.69
295.064	697.69
295.295	701.69
295.525	691.69
295.756	735.69
295.987	690.69
296.217	730.69
296.448	714.69
296.679	733.69
296.909	714.69
297.14	699.69
297.37	726.69
297.601	717.69
297.831	708.69
298.062	749.69
298.292	737.69
298.523	748.69
298.753	764.69
298.984	751.69
299.214	740.69
299.445	768.69
299.675	738.69
299.905	747.69
300.136	725.69
300.366	738.69
300.597	738.69
300.827	782.69
301.057	782.69
301.288	800.69
301.518	754.69
301.748	741.69
301.979	781.69
302.209	784.69
302.439	781.69
302.669	762.69
302.9	750.69
303.13	760.69
303.36	791.69
303.59	789.69
303.82	783.69
304.051	789.69
304.281	773.69
304.511	768.69
304.741	776.69
304.971	778.69
305.201	771.69
305.431	771.69
305.661	759.69
305.891	766.69
306.121	770.69
306.352	747.69
306.582	746.69
306.812	759.69
307.042	758.69
307.272	777.69
307.502	738.69
307.731	739.69
307.961	735.69
308.191	730.69
308.421	738.69
308.651	755.69
308.881	723.69
309.111	749.69
309.341	734.69
309.571	754.69
309.8	744.69
310.03	754.69
310.26	766.69
310.49	758.69
310.72	743.69
310.949	746.69
311.179	762.69
311.409	786.69
311.639	781.69
311.868	747.69
312.098	795.69
312.328	775.69
312.557	799.69
312.787	771.69
313.017	781.69
313.246	806.69
313.476	774.69
313.706	804.69
313.935	800.69
314.165	812.69
314.394	809.69
314.624	828.69
314.853	822.69
315.083	809.69
315.312	812.69
315.542	805.69
315.771	803.69
316.001	785.69
316.23	803.69
316.46	800.69
316.689	806.69
316.919	782.69
317.148	800.69
317.377	785.69
317.607	774.69
317.836	774.69
318.065	769.69
318.295	742.69
318.524	770.69
318.753	791.69
318.983	779.69
319.212	772.69
319.441	770.69
319.67	804.69
319.9	775.69
320.129	774.69
320.358	788.69
320.587	786.69
320.816	770.69
321.046	776.69
321.275	764.69
321.504	819.69
321.733	805.69
321.962	822.69
322.191	823.69
322.42	796.69
322.649	819.69
322.878	804.69
323.108	802.69
323.337	808.69
323.566	808.69
323.795	794.69
324.024	823.69
324.253	826.69
324.482	815.69
324.71	821.69
324.939	828.69
325.168	822.69
325.397	831.69
325.626	841.69
325.855	846.69
326.084	888.69
326.313	902.69
326.542	853.69
326.77	868.69
326.999	869.69
327.228	830.69
327.457	848.69
327.686	866.69
327.914	839.69
328.143	886.69
328.372	893.69
328.6	863.69
328.829	876.69
329.058	851.69
329.287	870.69
329.515	863.69
329.744	883.69
329.972	892.69
330.201	888.69
330.43	904.69
330.658	872.69
330.887	906.69
331.115	925.69
331.344	924.69
331.572	935.69
331.801	954.69
332.03	954.69
332.258	936.69
332.486	1038.69
332.715	1040.69
332.943	1066.69
333.172	1121.69
333.4	1163.69
333.629	1198.69
333.857	1200.69
334.085	1204.69
334.314	1183.69
334.542	1146.69
334.771	1118.69
334.999	1143.69
335.227	1116.69
335.455	1090.69
335.684	1097.69
335.912	1071.69
336.14	1044.69
336.369	1068.69
336.597	1072.69
336.825	1044.69
337.053	1051.69
337.281	991.69
337.51	1028.69
337.738	1010.69
337.966	994.69
338.194	974.69
338.422	951.69
338.65	960.69
338.878	934.69
339.106	931.69
339.334	959.69
339.562	942.69
339.79	924.69
340.018	932.69
340.246	900.69
340.474	919.69
340.702	879.69
340.93	892.69
341.158	908.69
341.386	920.69
341.614	935.69
341.842	917.69
342.07	895.69
342.298	903.69
342.526	905.69
342.754	913.69
342.981	907.69
343.209	908.69
343.437	987.69
343.665	1015.69
343.893	1100.69
344.12	1166.69
344.348	1126.69
344.576	1038.69
344.804	1000.69
345.031	949.69
345.259	925.69
345.487	923.69
345.714	898.69
345.942	888.69
346.17	913.69
346.397	901.69
346.625	890.69
346.853	902.69
347.08	860.69
347.308	882.69
347.535	890.69
347.763	874.69
347.99	895.69
348.218	879.69
348.445	884.69
348.673	864.69
348.9	857.69
349.128	878.69
349.355	867.69
349.583	854.69
349.81	863.69
350.037	857.69
350.265	844.69
350.492	861.69
350.72	868.69
350.947	844.69
351.174	837.69
351.402	852.69
351.629	845.69
351.856	860.69
352.083	836.69
352.311	840.69
352.538	857.69
352.765	853.69
352.992	839.69
353.22	816.69
353.447	823.69
353.674	811.69
353.901	835.69
354.128	823.69
354.355	828.69
354.583	848.69
354.81	847.69
355.037	831.69
355.264	839.69
355.491	848.69
355.718	848.69
355.945	841.69
356.172	852.69
356.399	863.69
356.626	856.69
356.853	828.69
357.08	835.69
357.307	850.69
357.534	854.69
357.761	857.69
357.988	818.69
358.215	832.69
358.441	830.69
358.668	844.69
358.895	831.69
359.122	842.69
359.349	848.69
359.576	852.69
359.802	837.69
360.029	838.69
360.256	842.69
360.483	867.69
360.709	835.69
360.936	844.69
361.163	852.69
361.39	848.69
361.616	820.69
361.843	842.69
362.07	844.69
362.296	834.69
362.523	820.69
362.749	831.69
362.976	834.69
363.203	844.69
363.429	851.69
363.656	820.69
363.882	867.69
364.109	822.69
364.335	836.69
364.562	831.69
364.788	830.69
365.015	844.69
365.241	845.69
365.468	851.69
365.694	830.69
365.92	849.69
366.147	839.69
366.373	830.69
366.599	823.69
366.826	836.69
367.052	816.69
367.278	834.69
367.505	852.69
367.731	842.69
367.957	846.69
368.184	852.69
368.41	820.69
368.636	867.69
368.862	843.69
369.089	856.69
369.315	865.69
369.541	873.69
369.767	868.69
369.993	892.69
370.219	851.69
370.445	898.69
370.672	875.69
370.898	893.69
371.124	900.69
371.35	896.69
371.576	924.69
371.802	910.69
372.028	905.69
372.254	932.69
372.48	906.69
372.706	935.69
372.932	964.69
373.158	955.69
373.384	939.69
373.61	923.69
373.835	935.69
374.061	898.69
374.287	928.69
374.513	928.69
374.739	967.69
374.965	1016.69
375.191	1034.69
375.416	1016.69
375.642	991.69
375.868	972.69
376.094	994.69
376.319	976.69
376.545	937.69
376.771	911.69
376.997	902.69
377.222	921.69
377.448	897.69
377.674	924.69
377.899	903.69
378.125	902.69
378.35	909.69
378.576	922.69
378.802	911.69
379.027	912.69
379.253	916.69
379.478	896.69
379.704	907.69
379.929	911.69
380.155	894.69
380.38	928.69
380.606	929.69
380.831	897.69
381.057	923.69
381.282	892.69
381.507	878.69
381.733	920.69
381.958	929.69
382.184	919.69
382.409	952.69
382.634	942.69
382.86	973.69
383.085	985.69
383.31	979.69
383.535	997.69
383.761	1001.69
383.986	1014.69
384.211	1047.69
384.436	1051.69
384.662	1110.69
384.887	1092.69
385.112	1093.69
385.337	1122.69
385.562	1118.69
385.787	1117.69
386.013	1133.69
386.238	1141.69
386.463	1132.69
386.688	1126.69
386.913	1128.69
387.138	1125.69
387.363	1097.69
387.588	1086.69
387.813	1118.69
388.038	1098.69
388.263	1114.69
388.488	1110.69
388.713	1101.69
388.938	1121.69
389.163	1088.69
389.387	1096.69
389.612	1033.69
389.837	1095.69
390.062	1096.69
390.287	1092.69
390.512	1097.69
390.736	1124.69
390.961	1118.69
391.186	1145.69
391.411	1167.69
391.636	1203.69
391.86	1241.69
392.085	1286.69
392.31	1244.69
392.534	1240.69
392.759	1237.69
392.984	1211.69
393.208	1196.69
393.433	1219.69
393.658	1186.69
393.882	1197.69
394.107	1171.69
394.331	1183.69
394.556	1174.69
394.78	1218.69
395.005	1194.69
395.229	1231.69
395.454	1228.69
395.678	1256.69
395.903	1272.69
396.127	1231.69
396.352	1212.69
396.576	1178.69
396.801	1186.69
397.025	1188.69
397.249	1238.69
397.474	1274.69
397.698	1252.69
397.922	1268.69
398.147	1251.69
398.371	1269.69
398.595	1316.69
398.82	1405.69
399.044	1508.69
399.268	1674.69
399.492	1891.69
399.717	2117.69
399.941	2207.69
400.165	1976.69
400.389	1775.69
400.613	1620.69
400.837	1533.69
401.062	1494.69
401.286	1452.69
401.51	1422.69
401.734	1415.69
401.958	1424.69
402.182	1468.69
402.406	1474.69
402.63	1473.69
402.854	1518.69
403.078	1563.69
403.302	1555.69
403.526	1619.69
403.75	1629.69
403.974	1693.69
404.198	1648.69
404.422	1644.69
404.645	1657.69
404.869	1623.69
405.093	1635.69
405.317	1594.69
405.541	1587.69
405.765	1565.69
405.988	1568.69
406.212	1567.69
406.436	1558.69
406.66	1606.69
406.883	1625.69
407.107	1738.69
407.331	1760.69
407.555	1892.69
407.778	1858.69
408.002	1823.69
408.226	1758.69
408.449	1736.69
408.673	1666.69
408.896	1591.69
409.12	1573.69
409.344	1598.69
409.567	1627.69
409.791	1617.69
410.014	1583.69
410.238	1565.69
410.461	1543.69
410.685	1513.69
410.908	1498.69
411.132	1465.69
411.355	1452.69
411.578	1449.69
411.802	1445.69
412.025	1468.69
412.249	1514.69
412.472	1496.69
412.695	1448.69
412.919	1383.69
413.142	1423.69
413.365	1434.69
413.589	1420.69
413.812	1409.69
414.035	1387.69
414.258	1391.69
414.482	1399.69
414.705	1459.69
414.928	1441.69
415.151	1438.69
415.374	1406.69
415.597	1388.69
415.821	1390.69
416.044	1374.69
416.267	1380.69
416.49	1373.69
416.713	1336.69
416.936	1359.69
417.159	1362.69
417.382	1372.69
417.605	1355.69
417.828	1370.69
418.051	1376.69
418.274	1395.69
418.497	1375.69
418.72	1456.69
418.943	1452.69
419.166	1566.69
419.389	1622.69
419.611	1599.69
419.834	1512.69
420.057	1463.69
420.28	1423.69
420.503	1398.69
420.726	1389.69
420.948	1381.69
421.171	1399.69
421.394	1362.69
421.617	1396.69
421.839	1376.69
422.062	1382.69
422.285	1383.69
422.507	1414.69
422.73	1432.69
422.953	1438.69
423.175	1450.69
423.398	1398.69
423.621	1451.69
423.843	1467.69
424.066	1443.69
424.288	1455.69
424.511	1422.69
424.733	1435.69
424.956	1412.69
425.178	1383.69
425.401	1412.69
425.623	1402.69
425.846	1348.69
426.068	1362.69
426.291	1333.69
426.513	1328.69
426.735	1319.69
426.958	1305.69
427.18	1252.69
427.402	1271.69
427.625	1273.69
427.847	1223.69
428.069	1237.69
428.292	1246.69
428.514	1217.69
428.736	1232.69
428.958	1250.69
429.181	1207.69
429.403	1179.69
429.625	1179.69
429.847	1186.69
430.069	1173.69
430.292	1184.69
430.514	1212.69
430.736	1208.69
430.958	1228.69
431.18	1204.69
431.402	1219.69
431.624	1216.69
431.846	1242.69
432.068	1244.69
432.29	1251.69
432.512	1187.69
432.734	1202.69
432.956	1202.69
433.178	1246.69
433.4	1212.69
433.622	1208.69
433.844	1255.69
434.066	1248.69
434.287	1273.69
434.509	1336.69
434.731	1332.69
434.953	1371.69
435.175	1382.69
435.397	1367.69
435.618	1295.69
435.84	1282.69
436.062	1240.69
436.284	1197.69
436.505	1214.69
436.727	1202.69
436.949	1200.69
437.17	1166.69
437.392	1183.69
437.614	1170.69
437.835	1173.69
438.057	1175.69
438.278	1140.69
438.5	1188.69
438.721	1158.69
438.943	1176.69
439.165	1166.69
439.386	1187.69
439.608	1178.69
439.829	1204.69
440.05	1212.69
440.272	1254.69
440.493	1220.69
440.715	1240.69
440.936	1252.69
441.158	1270.69
441.379	1295.69
441.6	1407.69
441.822	1416.69
442.043	1399.69
442.264	1382.69
442.486	1319.69
442.707	1350.69
442.928	1340.69
443.149	1348.69
443.371	1346.69
443.592	1361.69
443.813	1398.69
444.034	1410.69
444.255	1445.69
444.476	1468.69
444.698	1604.69
444.919	1620.69
445.14	1675.69
445.361	1565.69
445.582	1435.69
445.803	1352.69
446.024	1282.69
446.245	1282.69
446.466	1273.69
446.687	1210.69
446.908	1256.69
447.129	1196.69
447.35	1181.69
447.571	1178.69
447.792	1145.69
448.013	1154.69
448.234	1110.69
448.455	1129.69
448.675	1145.69
448.896	1092.69
449.117	1103.69
449.338	1109.69
449.559	1114.69
449.779	1088.69
450	1069.69
450.221	1093.69
450.442	1116.69
450.662	1092.69
450.883	1114.69
451.104	1127.69
451.324	1132.69
451.545	1112.69
451.766	1145.69
451.986	1106.69
452.207	1145.69
452.428	1123.69
452.648	1094.69
452.869	1101.69
453.089	1087.69
453.31	1093.69
453.53	1057.69
453.751	1070.69
453.971	1069.69
454.192	1049.69
454.412	1052.69
454.633	1046.69
454.853	1038.69
455.073	1033.69
455.294	1071.69
455.514	1038.69
455.734	1049.69
455.955	1008.69
456.175	1012.69
456.395	1031.69
456.616	1014.69
456.836	1008.69
457.056	1040.69
457.276	1038.69
457.497	1029.69
457.717	1008.69
457.937	1024.69
458.157	1048.69
458.377	1048.69
458.598	1077.69
458.818	1101.69
459.038	1149.69
459.258	1204.69
459.478	1198.69
459.698	1261.69
459.918	1301.69
460.138	1360.69
460.358	1473.69
460.578	1432.69
460.798	1478.69
461.018	1496.69
461.238	1480.69
461.458	1428.69
461.678	1430.69
461.898	1499.69
462.118	1439.69
462.338	1574.69
462.558	1594.69
462.777	1638.69
462.997	1833.69
463.217	1930.69
463.437	1959.69
463.657	1846.69
463.876	1764.69
464.096	1724.69
464.316	1709.69
464.536	1722.69
464.755	1679.69
464.975	1596.69
465.195	1500.69
465.414	1420.69
465.634	1306.69
465.854	1239.69
466.073	1221.69
466.293	1218.69
466.512	1218.69
466.732	1174.69
466.951	1141.69
467.171	1154.69
467.391	1152.69
467.61	1158.69
467.829	1116.69
468.049	1152.69
468.268	1130.69
468.488	1113.69
468.707	1115.69
468.927	1101.69
469.146	1141.69
469.365	1109.69
469.585	1158.69
469.804	1146.69
470.023	1192.69
470.243	1202.69
470.462	1231.69
470.681	1218.69
470.901	1234.69
471.12	1174.69
471.339	1155.69
471.558	1150.69
471.777	1144.69
471.997	1111.69
472.216	1142.69
472.435	1125.69
472.654	1095.69
472.873	1088.69
473.092	1095.69
473.311	1111.69
473.53	1087.69
473.749	1079.69
473.968	1067.69
474.187	1082.69
474.406	1071.69
474.625	1093.69
474.844	1068.69
475.063	1096.69
475.282	1103.69
475.501	1115.69
475.72	1101.69
475.939	1133.69
476.158	1104.69
476.377	1130.69
476.596	1134.69
476.814	1153.69
477.033	1141.69
477.252	1183.69
477.471	1194.69
477.69	1239.69
477.908	1254.69
478.127	1303.69
478.346	1330.69
478.564	1358.69
478.783	1358.69
479.002	1402.69
479.22	1378.69
479.439	1391.69
479.658	1395.69
479.876	1366.69
480.095	1374.69
480.313	1425.69
480.532	1470.69
480.751	1475.69
480.969	1428.69
481.188	1400.69
481.406	1335.69
481.624	1287.69
481.843	1288.69
482.061	1261.69
482.28	1240.69
482.498	1231.69
482.717	1259.69
482.935	1220.69
483.153	1237.69
483.372	1253.69
483.59	1247.69
483.808	1240.69
484.027	1241.69
484.245	1261.69
484.463	1227.69
484.681	1267.69
484.9	1275.69
485.118	1287.69
485.336	1293.69
485.554	1304.69
485.772	1331.69
485.99	1336.69
486.209	1296.69
486.427	1366.69
486.645	1324.69
486.863	1316.69
487.081	1307.69
487.299	1310.69
487.517	1295.69
487.735	1300.69
487.953	1287.69
488.171	1304.69
488.389	1310.69
488.607	1294.69
488.825	1298.69
489.043	1269.69
489.261	1311.69
489.479	1297.69
489.696	1311.69
489.914	1306.69
490.132	1318.69
490.35	1314.69
490.568	1302.69
490.786	1360.69
491.003	1341.69
491.221	1320.69
491.439	1328.69
491.657	1315.69
491.874	1323.69
492.092	1343.69
492.31	1314.69
492.527	1385.69
492.745	1333.69
492.963	1366.69
493.18	1307.69
493.398	1360.69
493.615	1356.69
493.833	1356.69
494.05	1384.69
494.268	1386.69
494.485	1394.69
494.703	1446.69
494.92	1402.69
495.138	1402.69
495.355	1413.69
495.573	1405.69
495.79	1410.69
496.008	1421.69
496.225	1418.69
496.442	1454.69
496.66	1467.69
496.877	1487.69
497.094	1508.69
497.312	1586.69
497.529	1589.69
497.746	1590.69
497.963	1652.69
498.181	1744.69
498.398	1892.69
498.615	1966.69
498.832	2116.69
499.049	2272.69
499.267	2436.69
499.484	2669.69
499.701	3017.69
499.918	3290.69
500.135	3768.69
500.352	4196.69
500.569	4420.69
500.786	4382.69
501.003	4158.69
501.22	3741.69
501.437	3297.69
501.654	2969.69
501.871	2646.69
502.088	2396.69
502.305	2236.69
502.522	2098.69
502.739	2017.69
502.956	1886.69
503.172	1803.69
503.389	1746.69
503.606	1680.69
503.823	1654.69
504.04	1656.69
504.256	1667.69
504.473	1672.69
504.69	1752.69
504.907	1677.69
505.123	1544.69
505.34	1500.69
505.557	1403.69
505.773	1380.69
505.99	1357.69
506.207	1327.69
506.423	1282.69
506.64	1313.69
506.856	1295.69
507.073	1255.69
507.289	1240.69
507.506	1259.69
507.722	1254.69
507.939	1251.69
508.155	1229.69
508.372	1178.69
508.588	1198.69
508.805	1186.69
509.021	1183.69
509.238	1162.69
509.454	1136.69
509.67	1144.69
509.887	1170.69
510.103	1112.69
510.319	1113.69
510.536	1152.69
510.752	1132.69
510.968	1113.69
511.184	1119.69
511.401	1120.69
511.617	1159.69
511.833	1122.69
512.049	1115.69
512.265	1111.69
512.481	1147.69
512.698	1138.69
512.914	1139.69
513.13	1134.69
513.346	1132.69
513.562	1144.69
513.778	1116.69
513.994	1124.69
514.21	1159.69
514.426	1130.69
514.642	1136.69
514.858	1142.69
515.074	1167.69
515.29	1203.69
515.506	1186.69
515.721	1201.69
515.937	1223.69
516.153	1248.69
516.369	1280.69
516.585	1325.69
516.801	1341.69
517.016	1443.69
517.232	1460.69
517.448	1550.69
517.664	1596.69
517.879	1626.69
518.095	1604.69
518.311	1604.69
518.527	1526.69
518.742	1420.69
518.958	1414.69
519.173	1339.69
519.389	1299.69
519.605	1254.69
519.82	1224.69
520.036	1212.69
520.251	1150.69
520.467	1144.69
520.682	1145.69
520.898	1149.69
521.113	1090.69
521.329	1082.69
521.544	1075.69
521.76	1101.69
521.975	1081.69
522.19	1087.69
522.406	1071.69
522.621	1078.69
522.836	1083.69
523.052	1075.69
523.267	1065.69
523.482	1031.69
523.698	1056.69
523.913	1011.69
524.128	1042.69
524.343	1043.69
524.559	1039.69
524.774	1014.69
524.989	1015.69
525.204	1068.69
525.419	1022.69
525.634	1041.69
525.849	997.69
526.064	1016.69
526.28	1010.69
526.495	1059.69
526.71	1010.69
526.925	1015.69
527.14	1003.69
527.355	1014.69
527.57	1003.69
527.785	1022.69
527.999	1018.69
528.214	1008.69
528.429	1019.69
528.644	1013.69
528.859	1004.69
529.074	992.69
529.289	980.69
529.503	1032.69
529.718	1040.69
529.933	1018.69
530.148	994.69
530.363	1000.69
530.577	1035.69
530.792	989.69
531.007	981.69
531.221	968.69
531.436	983.69
531.651	1011.69
531.865	1000.69
532.08	1028.69
532.295	1002.69
532.509	1040.69
532.724	989.69
532.938	998.69
533.153	1000.69
533.367	1021.69
533.582	988.69
533.796	1017.69
534.011	1008.69
534.225	984.69
534.44	948.69
534.654	996.69
534.868	974.69
535.083	1006.69
535.297	993.69
535.511	976.69
535.726	943.69
535.94	992.69
536.154	925.69
536.369	950.69
536.583	954.69
536.797	922.69
537.011	949.69
537.225	966.69
537.44	902.69
537.654	948.69
537.868	940.69
538.082	900.69
538.296	919.69
538.51	906.69
538.724	946.69
538.938	900.69
539.153	960.69
539.367	913.69
539.581	891.69
539.795	907.69
540.009	893.69
540.222	923.69
540.436	896.69
540.65	886.69
540.864	885.69
541.078	902.69
541.292	893.69
541.506	919.69
541.72	902.69
541.934	896.69
542.147	919.69
542.361	893.69
542.575	917.69
542.789	860.69
543.002	904.69
543.216	912.69
543.43	911.69
543.644	875.69
543.857	890.69
544.071	904.69
544.285	890.69
544.498	925.69
544.712	886.69
544.925	909.69
545.139	943.69
545.352	911.69
545.566	926.69
545.779	930.69
545.993	918.69
546.206	909.69
546.42	910.69
546.633	939.69
546.847	907.69
547.06	909.69
547.274	911.69
547.487	931.69
547.7	925.69
547.914	952.69
548.127	946.69
548.34	941.69
548.554	905.69
548.767	917.69
548.98	931.69
549.193	941.69
549.407	932.69
549.62	916.69
549.833	953.69
550.046	957.69
550.259	938.69
550.473	910.69
550.686	917.69
550.899	882.69
551.112	890.69
551.325	890.69
551.538	899.69
551.751	908.69
551.964	902.69
552.177	895.69
552.39	940.69
552.603	966.69
552.816	971.69
553.029	968.69
553.242	1018.69
553.455	1031.69
553.667	1032.69
553.88	1004.69
554.093	974.69
554.306	948.69
554.519	947.69
554.732	933.69
554.944	883.69
555.157	902.69
555.37	874.69
555.583	868.69
555.795	863.69
556.008	831.69
556.221	836.69
556.433	813.69
556.646	814.69
556.859	810.69
557.071	796.69
557.284	808.69
557.496	771.69
557.709	790.69
557.921	797.69
558.134	766.69
558.346	796.69
558.559	779.69
558.771	802.69
558.984	758.69
559.196	757.69
559.409	780.69
559.621	767.69
559.833	757.69
560.046	763.69
560.258	748.69
560.47	766.69
560.683	771.69
560.895	731.69
561.107	739.69
561.32	744.69
561.532	757.69
561.744	757.69
561.956	754.69
562.168	764.69
562.381	742.69
562.593	774.69
562.805	738.69
563.017	790.69
563.229	765.69
563.441	763.69
563.653	761.69
563.865	769.69
564.077	785.69
564.289	792.69
564.501	807.69
564.713	809.69
564.925	829.69
565.137	839.69
565.349	845.69
565.561	887.69
565.773	916.69
565.985	944.69
566.197	1024.69
566.408	1090.69
566.62	1198.69
566.832	1259.69
567.044	1272.69
567.255	1332.69
567.467	1342.69
567.679	1402.69
567.891	1477.69
568.102	1492.69
568.314	1445.69
568.526	1327.69
568.737	1183.69
568.949	1104.69
569.161	1003.69
569.372	938.69
569.584	891.69
569.795	804.69
570.007	822.69
570.218	803.69
570.43	784.69
570.641	793.69
570.853	796.69
571.064	800.69
571.276	799.69
571.487	772.69
571.698	733.69
571.91	707.69
572.121	719.69
572.333	682.69
572.544	671.69
572.755	650.69
572.966	662.69
573.178	658.69
573.389	649.69
573.6	639.69
573.811	618.69
574.023	642.69
574.234	629.69
574.445	621.69
574.656	610.69
574.867	617.69
575.078	614.69
575.289	624.69
575.501	610.69
575.712	604.69
575.923	581.69
576.134	565.69
576.345	600.69
576.556	584.69
576.767	606.69
576.978	589.69
577.188	582.69
577.399	585.69
577.61	573.69
577.821	582.69
578.032	554.69
578.243	566.69
578.454	559.69
578.665	539.69
578.875	560.69
579.086	563.69
579.297	554.69
579.508	544.69
579.718	542.69
579.929	564.69
580.14	540.69
580.35	537.69
580.561	534.69
580.772	525.69
580.982	522.69
581.193	514.69
581.403	518.69
581.614	549.69
581.825	536.69
582.035	529.69
582.246	499.69
582.456	545.69
582.667	519.69
582.877	518.69
583.087	530.69
583.298	518.69
583.508	531.69
583.719	524.69
583.929	520.69
584.139	498.69
584.35	486.69
584.56	501.69
584.77	479.69
584.981	491.69
585.191	534.69
585.401	492.69
585.611	503.69
585.821	467.69
586.032	493.69
586.242	492.69
586.452	509.69
586.662	507.69
586.872	487.69
587.082	509.69
587.292	494.69
587.502	466.69
587.713	493.69
587.923	498.69
588.133	485.69
588.343	485.69
588.553	493.69
588.762	489.69
588.972	494.69
589.182	510.69
589.392	512.69
589.602	495.69
589.812	520.69
590.022	518.69
590.232	494.69
590.441	493.69
590.651	510.69
590.861	498.69
591.071	529.69
591.281	528.69
591.49	497.69
591.7	500.69
591.91	542.69
592.119	554.69
592.329	567.69
592.539	577.69
592.748	584.69
592.958	606.69
593.167	628.69
593.377	644.69
593.587	657.69
593.796	640.69
594.006	652.69
594.215	629.69
594.424	630.69
594.634	640.69
594.843	619.69
595.053	596.69
595.262	571.69
595.472	551.69
595.681	530.69
595.89	529.69
596.1	492.69
596.309	501.69
596.518	475.69
596.727	492.69
596.937	474.69
597.146	484.69
597.355	441.69
597.564	464.69
597.774	467.69
597.983	452.69
598.192	444.69
598.401	422.69
598.61	422.69
598.819	445.69
599.028	416.69
599.237	428.69
599.446	394.69
599.655	411.69
599.864	393.69
600.073	410.69
600.282	431.69
600.491	415.69
600.7	406.69
600.909	426.69
601.118	428.69
601.327	397.69
601.536	412.69
601.745	404.69
601.953	408.69
602.162	404.69
602.371	387.69
602.58	391.69
602.789	396.69
602.997	414.69
603.206	392.69
603.415	394.69
603.623	396.69
603.832	362.69
604.041	412.69
604.249	388.69
604.458	371.69
604.666	370.69
604.875	401.69
605.084	390.69
605.292	384.69
605.501	386.69
605.709	387.69
605.918	363.69
606.126	376.69
606.334	378.69
606.543	365.69
606.751	377.69
606.96	378.69
607.168	355.69
607.376	363.69
607.585	381.69
607.793	389.69
608.001	367.69
608.21	357.69
608.418	352.69
608.626	368.69
608.834	385.69
609.043	356.69
609.251	358.69
609.459	356.69
609.667	373.69
609.875	361.69
610.083	354.69
610.291	370.69
610.499	390.69
610.707	367.69
610.916	354.69
611.124	365.69
611.332	359.69
611.54	362.69
611.748	366.69
611.955	357.69
612.163	348.69
612.371	359.69
612.579	342.69
612.787	350.69
612.995	374.69
613.203	356.69
613.411	358.69
613.618	352.69
613.826	347.69
614.034	335.69
614.242	358.69
614.449	359.69
614.657	342.69
614.865	360.69
615.072	348.69
615.28	337.69
615.488	359.69
615.695	360.69
615.903	336.69
616.111	342.69
616.318	348.69
616.526	343.69
616.733	347.69
616.941	355.69
617.148	348.69
617.356	349.69
617.563	325.69
617.771	336.69
617.978	344.69
618.185	352.69
618.393	341.69
618.6	347.69
618.807	344.69
619.015	352.69
619.222	341.69
619.429	331.69
619.637	314.69
619.844	341.69
620.051	348.69
620.258	329.69
620.466	342.69
620.673	336.69
620.88	320.69
621.087	326.69
621.294	328.69
621.501	334.69
621.708	328.69
621.915	308.69
622.122	320.69
622.329	327.69
622.536	317.69
622.743	320.69
622.95	328.69
623.157	311.69
623.364	327.69
623.571	318.69
623.778	311.69
623.985	323.69
624.192	318.69
624.399	295.69
624.606	298.69
624.812	300.69
625.019	288.69
625.226	302.69
625.433	303.69
625.639	300.69
625.846	308.69
626.053	301.69
626.259	296.69
626.466	291.69
626.673	293.69
626.879	285.69
627.086	294.69
627.293	303.69
627.499	302.69
627.706	289.69
627.912	308.69
628.119	296.69
628.325	288.69
628.532	282.69
628.738	291.69
628.945	295.69
629.151	280.69
629.357	284.69
629.564	276.69
629.77	299.69
629.976	290.69
630.183	278.69
630.389	277.69
630.595	294.69
630.802	258.69
631.008	268.69
631.214	269.69
631.42	287.69
631.627	271.69
631.833	278.69
632.039	263.69
632.245	256.69
632.451	274.69
632.657	253.69
632.863	267.69
633.069	274.69
633.275	282.69
633.481	246.69
633.688	233.69
633.893	258.69
634.099	287.69
634.305	272.69
634.511	251.69
634.717	247.69
634.923	245.69
635.129	246.69
635.335	247.69
635.541	250.69
635.747	263.69
635.952	258.69
636.158	246.69
636.364	235.69
636.57	238.69
636.775	253.69
636.981	271.69
637.187	241.69
637.392	248.69
637.598	244.69
637.804	235.69
638.009	259.69
638.215	251.69
638.421	251.69
638.626	244.69
638.832	251.69
639.037	237.69
639.243	215.69
639.448	221.69
639.654	237.69
639.859	247.69
640.065	214.69
640.27	254.69
640.475	225.69
640.681	243.69
640.886	227.69
641.091	221.69
641.297	221.69
641.502	242.69
641.707	217.69
641.913	234.69
642.118	236.69
642.323	218.69
642.528	234.69
642.733	219.69
642.939	226.69
643.144	218.69
643.349	212.69
643.554	243.69
643.759	211.69
643.964	223.69
644.169	232.69
644.374	230.69
644.579	197.69
644.784	219.69
644.989	205.69
645.194	199.69
645.399	215.69
645.604	235.69
645.809	218.69
646.014	221.69
646.219	214.69
646.423	237.69
646.628	211.69
646.833	222.69
647.038	201.69
647.243	222.69
647.447	237.69
647.652	221.69
647.857	235.69
648.062	218.69
648.266	237.69
648.471	236.69
648.676	233.69
648.88	229.69
649.085	235.69
649.289	225.69
649.494	196.69
649.698	237.69
649.903	225.69
650.107	206.69
650.312	219.69
650.516	205.69
650.721	200.69
650.925	194.69
651.13	215.69
651.334	190.69
651.539	193.69
651.743	190.69
651.947	179.69
652.152	197.69
652.356	205.69
652.56	170.69
652.764	174.69
652.969	172.69
653.173	175.69
653.377	189.69
653.581	173.69
653.785	196.69
653.99	169.69
654.194	169.69
654.398	163.69
654.602	167.69
654.806	162.69
655.01	160.69
655.214	165.69
655.418	164.69
655.622	183.69
655.826	156.69
656.03	159.69
656.234	146.69
656.438	150.69
656.642	152.69
656.846	145.69
657.049	162.69
657.253	146.69
657.457	143.69
657.661	127.69
657.865	122.69
658.068	112.69
658.272	127.69
658.476	137.69
658.68	116.69
658.883	114.69
659.087	117.69
659.291	114.69
659.494	122.69
659.698	106.69
659.901	98.69
660.105	123.69
660.309	109.69
660.512	112.69
660.716	105.69
660.919	101.69
661.123	102.69
661.326	96.69
661.53	91.69
661.733	96.69
661.936	88.69
662.14	98.69
662.343	98.69
662.546	87.69
662.75	99.69
662.953	101.69
663.156	80.69
663.36	87.69
663.563	87.69
663.766	82.69
663.969	97.69
664.173	91.69
664.376	69.69
664.579	82.69
664.782	80.69
664.985	69.69
665.188	90.69
665.391	82.69
665.594	75.69
665.797	77.69
666	85.69
666.203	100.69
666.406	87.69
666.609	75.69
666.812	86.69
667.015	84.69
667.218	87.69
667.421	86.69
667.624	90.69
667.827	88.69
668.03	78.69
668.232	81.69
668.435	87.69
668.638	80.69
668.841	79.69
669.043	78.69
669.246	87.69
669.449	78.69
669.651	80.69
669.854	92.69
670.057	85.69
670.259	72.69
670.462	94.69
670.665	83.69
670.867	78.69
671.07	72.69
671.272	92.69
671.475	89.69
671.677	91.69
671.88	91.69
672.082	95.69
672.284	85.69
672.487	74.69
672.689	88.69
672.892	87.69
