Data from NiCl2@0.5M.TitratingCurve.Agarose3%dH2O.NegLispCup.LampEnergy10.LIBS07252019_HRD10591_18-18-51-571.txt Node
Date: Thu Jul 25 18:18:51 EDT 2019
User: cochatt
Spectrometer: HR+D1059
Trigger mode: 1
Integration Time (sec): 1.000000E-1
Scans to average: 1
Electric dark correction enabled: true
Nonlinearity correction enabled: false
Boxcar width: 0
XAxis mode: Wavelengths
Number of Pixels in Spectrum: 2048
>>>>>Begin Spectral Data<<<<<
223.165	-18.19
223.4	-18.19
223.635	-18.19
223.869	-22.19
224.104	-13.19
224.338	-17.19
224.573	-25.19
224.808	-3.19
225.042	-18.19
225.277	-4.19
225.511	-21.19
225.746	-7.19
225.98	26.81
226.215	11.81
226.449	26.81
226.683	21.81
226.918	23.81
227.152	38.81
227.387	30.81
227.621	35.81
227.856	43.81
228.09	47.81
228.324	47.81
228.559	49.81
228.793	54.81
229.027	103.81
229.262	117.81
229.496	130.81
229.73	112.81
229.964	129.81
230.199	130.81
230.433	131.81
230.667	139.81
230.901	143.81
231.136	123.81
231.37	135.81
231.604	138.81
231.838	134.81
232.072	147.81
232.306	158.81
232.541	126.81
232.775	130.81
233.009	136.81
233.243	141.81
233.477	150.81
233.711	137.81
233.945	144.81
234.179	156.81
234.413	151.81
234.647	129.81
234.881	144.81
235.115	130.81
235.349	140.81
235.583	138.81
235.817	134.81
236.051	143.81
236.285	143.81
236.519	121.81
236.753	130.81
236.987	141.81
237.221	166.81
237.455	143.81
237.689	142.81
237.922	161.81
238.156	159.81
238.39	154.81
238.624	144.81
238.858	153.81
239.091	168.81
239.325	160.81
239.559	160.81
239.793	179.81
240.027	184.81
240.26	159.81
240.494	163.81
240.728	157.81
240.961	155.81
241.195	152.81
241.429	170.81
241.662	179.81
241.896	171.81
242.13	199.81
242.363	178.81
242.597	164.81
242.83	172.81
243.064	187.81
243.298	196.81
243.531	173.81
243.765	199.81
243.998	202.81
244.232	201.81
244.465	179.81
244.699	186.81
244.932	185.81
245.166	190.81
245.399	196.81
245.633	192.81
245.866	186.81
246.099	193.81
246.333	201.81
246.566	193.81
246.8	204.81
247.033	219.81
247.266	199.81
247.5	204.81
247.733	198.81
247.966	210.81
248.2	217.81
248.433	192.81
248.666	214.81
248.899	213.81
249.133	220.81
249.366	222.81
249.599	217.81
249.832	208.81
250.066	225.81
250.299	216.81
250.532	239.81
250.765	211.81
250.998	208.81
251.231	223.81
251.465	238.81
251.698	242.81
251.931	235.81
252.164	228.81
252.397	235.81
252.63	243.81
252.863	242.81
253.096	235.81
253.329	232.81
253.562	247.81
253.795	240.81
254.028	245.81
254.261	258.81
254.494	248.81
254.727	258.81
254.96	233.81
255.193	242.81
255.426	248.81
255.659	254.81
255.892	246.81
256.124	265.81
256.357	268.81
256.59	237.81
256.823	254.81
257.056	264.81
257.289	244.81
257.521	262.81
257.754	260.81
257.987	273.81
258.22	276.81
258.452	276.81
258.685	264.81
258.918	282.81
259.151	276.81
259.383	258.81
259.616	267.81
259.849	290.81
260.081	287.81
260.314	285.81
260.547	289.81
260.779	281.81
261.012	284.81
261.244	287.81
261.477	290.81
261.71	290.81
261.942	282.81
262.175	275.81
262.407	279.81
262.64	277.81
262.872	291.81
263.105	291.81
263.337	303.81
263.57	292.81
263.802	315.81
264.035	321.81
264.267	307.81
264.499	303.81
264.732	320.81
264.964	305.81
265.197	319.81
265.429	293.81
265.661	308.81
265.894	323.81
266.126	325.81
266.358	314.81
266.591	329.81
266.823	316.81
267.055	322.81
267.287	309.81
267.52	324.81
267.752	322.81
267.984	335.81
268.216	329.81
268.448	340.81
268.681	350.81
268.913	336.81
269.145	339.81
269.377	345.81
269.609	345.81
269.841	343.81
270.073	324.81
270.306	323.81
270.538	349.81
270.77	331.81
271.002	356.81
271.234	354.81
271.466	356.81
271.698	366.81
271.93	342.81
272.162	346.81
272.394	353.81
272.626	350.81
272.858	363.81
273.09	378.81
273.322	359.81
273.553	356.81
273.785	378.81
274.017	370.81
274.249	368.81
274.481	375.81
274.713	363.81
274.945	354.81
275.176	375.81
275.408	362.81
275.64	355.81
275.872	387.81
276.104	371.81
276.335	385.81
276.567	361.81
276.799	378.81
277.031	394.81
277.262	396.81
277.494	386.81
277.726	380.81
277.957	409.81
278.189	386.81
278.421	390.81
278.652	410.81
278.884	399.81
279.115	382.81
279.347	408.81
279.579	389.81
279.81	402.81
280.042	400.81
280.273	407.81
280.505	394.81
280.736	395.81
280.968	400.81
281.199	431.81
281.431	436.81
281.662	419.81
281.894	415.81
282.125	415.81
282.356	418.81
282.588	425.81
282.819	426.81
283.051	423.81
283.282	410.81
283.513	420.81
283.745	425.81
283.976	438.81
284.207	422.81
284.439	434.81
284.67	456.81
284.901	446.81
285.132	434.81
285.364	443.81
285.595	431.81
285.826	430.81
286.057	435.81
286.288	457.81
286.52	430.81
286.751	438.81
286.982	465.81
287.213	469.81
287.444	463.81
287.675	455.81
287.906	469.81
288.138	465.81
288.369	451.81
288.6	465.81
288.831	450.81
289.062	465.81
289.293	459.81
289.524	453.81
289.755	470.81
289.986	468.81
290.217	459.81
290.448	442.81
290.679	468.81
290.91	486.81
291.141	466.81
291.371	456.81
291.602	469.81
291.833	460.81
292.064	483.81
292.295	495.81
292.526	459.81
292.757	467.81
292.987	469.81
293.218	457.81
293.449	481.81
293.68	488.81
293.91	485.81
294.141	476.81
294.372	496.81
294.603	473.81
294.833	477.81
295.064	471.81
295.295	472.81
295.525	490.81
295.756	482.81
295.987	487.81
296.217	493.81
296.448	495.81
296.679	489.81
296.909	488.81
297.14	507.81
297.37	516.81
297.601	506.81
297.831	520.81
298.062	486.81
298.292	532.81
298.523	526.81
298.753	511.81
298.984	523.81
299.214	531.81
299.445	504.81
299.675	511.81
299.905	531.81
300.136	528.81
300.366	546.81
300.597	545.81
300.827	539.81
301.057	531.81
301.288	531.81
301.518	565.81
301.748	548.81
301.979	536.81
302.209	537.81
302.439	544.81
302.669	548.81
302.9	546.81
303.13	535.81
303.36	538.81
303.59	538.81
303.82	548.81
304.051	568.81
304.281	560.81
304.511	563.81
304.741	556.81
304.971	546.81
305.201	560.81
305.431	570.81
305.661	572.81
305.891	555.81
306.121	549.81
306.352	535.81
306.582	544.81
306.812	550.81
307.042	543.81
307.272	559.81
307.502	548.81
307.731	544.81
307.961	519.81
308.191	551.81
308.421	554.81
308.651	565.81
308.881	569.81
309.111	564.81
309.341	551.81
309.571	560.81
309.8	572.81
310.03	573.81
310.26	562.81
310.49	576.81
310.72	572.81
310.949	540.81
311.179	585.81
311.409	579.81
311.639	576.81
311.868	542.81
312.098	573.81
312.328	580.81
312.557	580.81
312.787	562.81
313.017	552.81
313.246	573.81
313.476	593.81
313.706	602.81
313.935	596.81
314.165	608.81
314.394	580.81
314.624	586.81
314.853	605.81
315.083	589.81
315.312	584.81
315.542	578.81
315.771	568.81
316.001	585.81
316.23	590.81
316.46	604.81
316.689	569.81
316.919	591.81
317.148	587.81
317.377	596.81
317.607	600.81
317.836	593.81
318.065	602.81
318.295	604.81
318.524	599.81
318.753	592.81
318.983	583.81
319.212	574.81
319.441	613.81
319.67	586.81
319.9	606.81
320.129	582.81
320.358	601.81
320.587	588.81
320.816	592.81
321.046	622.81
321.275	587.81
321.504	616.81
321.733	618.81
321.962	613.81
322.191	602.81
322.42	615.81
322.649	609.81
322.878	611.81
323.108	597.81
323.337	636.81
323.566	631.81
323.795	632.81
324.024	607.81
324.253	638.81
324.482	609.81
324.71	606.81
324.939	629.81
325.168	614.81
325.397	634.81
325.626	610.81
325.855	624.81
326.084	646.81
326.313	659.81
326.542	665.81
326.77	665.81
326.999	658.81
327.228	625.81
327.457	650.81
327.686	650.81
327.914	657.81
328.143	652.81
328.372	643.81
328.6	660.81
328.829	640.81
329.058	670.81
329.287	660.81
329.515	676.81
329.744	650.81
329.972	652.81
330.201	662.81
330.43	649.81
330.658	665.81
330.887	643.81
331.115	660.81
331.344	682.81
331.572	681.81
331.801	675.81
332.03	678.81
332.258	708.81
332.486	706.81
332.715	707.81
332.943	723.81
333.172	775.81
333.4	760.81
333.629	774.81
333.857	804.81
334.085	780.81
334.314	806.81
334.542	778.81
334.771	806.81
334.999	770.81
335.227	768.81
335.455	800.81
335.684	784.81
335.912	793.81
336.14	771.81
336.369	787.81
336.597	806.81
336.825	792.81
337.053	784.81
337.281	778.81
337.51	768.81
337.738	755.81
337.966	720.81
338.194	743.81
338.422	724.81
338.65	712.81
338.878	688.81
339.106	716.81
339.334	735.81
339.562	724.81
339.79	683.81
340.018	683.81
340.246	700.81
340.474	699.81
340.702	695.81
340.93	696.81
341.158	663.81
341.386	681.81
341.614	737.81
341.842	728.81
342.07	690.81
342.298	673.81
342.526	698.81
342.754	716.81
342.981	695.81
343.209	690.81
343.437	744.81
343.665	724.81
343.893	750.81
344.12	755.81
344.348	757.81
344.576	777.81
344.804	766.81
345.031	710.81
345.259	709.81
345.487	711.81
345.714	681.81
345.942	722.81
346.17	735.81
346.397	684.81
346.625	692.81
346.853	670.81
347.08	650.81
347.308	699.81
347.535	674.81
347.763	653.81
347.99	668.81
348.218	658.81
348.445	651.81
348.673	642.81
348.9	642.81
349.128	655.81
349.355	654.81
349.583	669.81
349.81	634.81
350.037	654.81
350.265	666.81
350.492	663.81
350.72	645.81
350.947	631.81
351.174	667.81
351.402	667.81
351.629	663.81
351.856	646.81
352.083	636.81
352.311	665.81
352.538	674.81
352.765	680.81
352.992	636.81
353.22	619.81
353.447	620.81
353.674	612.81
353.901	619.81
354.128	634.81
354.355	614.81
354.583	633.81
354.81	617.81
355.037	634.81
355.264	642.81
355.491	614.81
355.718	615.81
355.945	622.81
356.172	627.81
356.399	677.81
356.626	635.81
356.853	636.81
357.08	648.81
357.307	639.81
357.534	650.81
357.761	650.81
357.988	629.81
358.215	636.81
358.441	637.81
358.668	622.81
358.895	619.81
359.122	620.81
359.349	636.81
359.576	638.81
359.802	648.81
360.029	645.81
360.256	622.81
360.483	619.81
360.709	625.81
360.936	625.81
361.163	642.81
361.39	658.81
361.616	620.81
361.843	636.81
362.07	692.81
362.296	660.81
362.523	655.81
362.749	632.81
362.976	608.81
363.203	585.81
363.429	631.81
363.656	638.81
363.882	650.81
364.109	648.81
364.335	623.81
364.562	615.81
364.788	615.81
365.015	618.81
365.241	608.81
365.468	628.81
365.694	632.81
365.92	619.81
366.147	627.81
366.373	639.81
366.599	612.81
366.826	619.81
367.052	632.81
367.278	664.81
367.505	640.81
367.731	619.81
367.957	640.81
368.184	639.81
368.41	646.81
368.636	645.81
368.862	634.81
369.089	643.81
369.315	633.81
369.541	651.81
369.767	663.81
369.993	641.81
370.219	639.81
370.445	666.81
370.672	670.81
370.898	658.81
371.124	662.81
371.35	664.81
371.576	651.81
371.802	677.81
372.028	649.81
372.254	672.81
372.48	675.81
372.706	661.81
372.932	694.81
373.158	660.81
373.384	662.81
373.61	670.81
373.835	657.81
374.061	664.81
374.287	686.81
374.513	681.81
374.739	678.81
374.965	696.81
375.191	711.81
375.416	693.81
375.642	660.81
375.868	690.81
376.094	665.81
376.319	694.81
376.545	651.81
376.771	670.81
376.997	676.81
377.222	665.81
377.448	658.81
377.674	672.81
377.899	666.81
378.125	637.81
378.35	649.81
378.576	675.81
378.802	657.81
379.027	653.81
379.253	652.81
379.478	640.81
379.704	643.81
379.929	644.81
380.155	645.81
380.38	660.81
380.606	662.81
380.831	655.81
381.057	645.81
381.282	652.81
381.507	624.81
381.733	682.81
381.958	647.81
382.184	666.81
382.409	676.81
382.634	696.81
382.86	670.81
383.085	670.81
383.31	683.81
383.535	698.81
383.761	696.81
383.986	717.81
384.211	731.81
384.436	697.81
384.662	720.81
384.887	728.81
385.112	729.81
385.337	742.81
385.562	771.81
385.787	773.81
386.013	758.81
386.238	757.81
386.463	736.81
386.688	754.81
386.913	741.81
387.138	751.81
387.363	776.81
387.588	769.81
387.813	788.81
388.038	757.81
388.263	774.81
388.488	774.81
388.713	754.81
388.938	784.81
389.163	768.81
389.387	786.81
389.612	758.81
389.837	765.81
390.062	791.81
390.287	762.81
390.512	760.81
390.736	760.81
390.961	747.81
391.186	774.81
391.411	786.81
391.636	834.81
391.86	799.81
392.085	827.81
392.31	828.81
392.534	814.81
392.759	802.81
392.984	807.81
393.208	812.81
393.433	818.81
393.658	802.81
393.882	792.81
394.107	799.81
394.331	834.81
394.556	820.81
394.78	834.81
395.005	857.81
395.229	818.81
395.454	844.81
395.678	859.81
395.903	815.81
396.127	847.81
396.352	847.81
396.576	809.81
396.801	809.81
397.025	866.81
397.249	856.81
397.474	883.81
397.698	834.81
397.922	888.81
398.147	854.81
398.371	912.81
398.595	906.81
398.82	936.81
399.044	968.81
399.268	1059.81
399.492	1122.81
399.717	1182.81
399.941	1167.81
400.165	1131.81
400.389	1078.81
400.613	1048.81
400.837	1000.81
401.062	994.81
401.286	977.81
401.51	987.81
401.734	931.81
401.958	971.81
402.182	956.81
402.406	984.81
402.63	954.81
402.854	935.81
403.078	941.81
403.302	977.81
403.526	997.81
403.75	985.81
403.974	991.81
404.198	987.81
404.422	1007.81
404.645	1028.81
404.869	982.81
405.093	995.81
405.317	965.81
405.541	985.81
405.765	983.81
405.988	992.81
406.212	1013.81
406.436	1012.81
406.66	1007.81
406.883	1025.81
407.107	1054.81
407.331	1115.81
407.555	1133.81
407.778	1100.81
408.002	1132.81
408.226	1087.81
408.449	1100.81
408.673	1071.81
408.896	1082.81
409.12	1046.81
409.344	1072.81
409.567	1029.81
409.791	1063.81
410.014	1037.81
410.238	1026.81
410.461	1033.81
410.685	1027.81
410.908	1048.81
411.132	1012.81
411.355	980.81
411.578	973.81
411.802	992.81
412.025	984.81
412.249	1021.81
412.472	1008.81
412.695	969.81
412.919	959.81
413.142	968.81
413.365	945.81
413.589	976.81
413.812	947.81
414.035	954.81
414.258	958.81
414.482	978.81
414.705	988.81
414.928	966.81
415.151	959.81
415.374	955.81
415.597	953.81
415.821	949.81
416.044	937.81
416.267	945.81
416.49	929.81
416.713	935.81
416.936	933.81
417.159	945.81
417.382	932.81
417.605	914.81
417.828	932.81
418.051	944.81
418.274	935.81
418.497	937.81
418.72	932.81
418.943	947.81
419.166	991.81
419.389	1063.81
419.611	1049.81
419.834	993.81
420.057	965.81
420.28	970.81
420.503	948.81
420.726	935.81
420.948	932.81
421.171	919.81
421.394	941.81
421.617	948.81
421.839	921.81
422.062	937.81
422.285	934.81
422.507	939.81
422.73	918.81
422.953	936.81
423.175	934.81
423.398	948.81
423.621	952.81
423.843	945.81
424.066	976.81
424.288	936.81
424.511	935.81
424.733	920.81
424.956	913.81
425.178	957.81
425.401	946.81
425.623	972.81
425.846	917.81
426.068	921.81
426.291	910.81
426.513	910.81
426.735	885.81
426.958	893.81
427.18	904.81
427.402	890.81
427.625	906.81
427.847	883.81
428.069	904.81
428.292	908.81
428.514	886.81
428.736	890.81
428.958	882.81
429.181	879.81
429.403	872.81
429.625	870.81
429.847	882.81
430.069	854.81
430.292	868.81
430.514	871.81
430.736	895.81
430.958	902.81
431.18	872.81
431.402	915.81
431.624	886.81
431.846	883.81
432.068	891.81
432.29	897.81
432.512	905.81
432.734	908.81
432.956	881.81
433.178	935.81
433.4	920.81
433.622	922.81
433.844	918.81
434.066	923.81
434.287	918.81
434.509	931.81
434.731	957.81
434.953	939.81
435.175	964.81
435.397	975.81
435.618	970.81
435.84	933.81
436.062	923.81
436.284	907.81
436.505	905.81
436.727	898.81
436.949	895.81
437.17	876.81
437.392	894.81
437.614	912.81
437.835	859.81
438.057	870.81
438.278	875.81
438.5	851.81
438.721	884.81
438.943	906.81
439.165	872.81
439.386	884.81
439.608	877.81
439.829	909.81
440.05	915.81
440.272	889.81
440.493	912.81
440.715	942.81
440.936	937.81
441.158	928.81
441.379	935.81
441.6	982.81
441.822	1004.81
442.043	985.81
442.264	985.81
442.486	939.81
442.707	985.81
442.928	956.81
443.149	963.81
443.371	982.81
443.592	984.81
443.813	1000.81
444.034	982.81
444.255	999.81
444.476	1009.81
444.698	1080.81
444.919	1072.81
445.14	1110.81
445.361	1060.81
445.582	995.81
445.803	954.81
446.024	945.81
446.245	931.81
446.466	953.81
446.687	899.81
446.908	938.81
447.129	868.81
447.35	903.81
447.571	880.81
447.792	878.81
448.013	898.81
448.234	862.81
448.455	849.81
448.675	856.81
448.896	864.81
449.117	825.81
449.338	850.81
449.559	864.81
449.779	855.81
450	832.81
450.221	855.81
450.442	834.81
450.662	830.81
450.883	830.81
451.104	858.81
451.324	857.81
451.545	862.81
451.766	853.81
451.986	832.81
452.207	824.81
452.428	816.81
452.648	831.81
452.869	819.81
453.089	829.81
453.31	821.81
453.53	811.81
453.751	810.81
453.971	842.81
454.192	815.81
454.412	810.81
454.633	819.81
454.853	784.81
455.073	801.81
455.294	787.81
455.514	819.81
455.734	823.81
455.955	820.81
456.175	770.81
456.395	793.81
456.616	801.81
456.836	805.81
457.056	807.81
457.276	774.81
457.497	836.81
457.717	802.81
457.937	799.81
458.157	812.81
458.377	818.81
458.598	833.81
458.818	823.81
459.038	876.81
459.258	922.81
459.478	930.81
459.698	957.81
459.918	970.81
460.138	1007.81
460.358	1010.81
460.578	999.81
460.798	1023.81
461.018	1064.81
461.238	1077.81
461.458	1040.81
461.678	1021.81
461.898	1049.81
462.118	1042.81
462.338	1083.81
462.558	1127.81
462.777	1131.81
462.997	1205.81
463.217	1234.81
463.437	1265.81
463.657	1203.81
463.876	1164.81
464.096	1186.81
464.316	1157.81
464.536	1159.81
464.755	1129.81
464.975	1099.81
465.195	1075.81
465.414	1028.81
465.634	978.81
465.854	970.81
466.073	942.81
466.293	942.81
466.512	922.81
466.732	924.81
466.951	928.81
467.171	930.81
467.391	903.81
467.61	906.81
467.829	890.81
468.049	899.81
468.268	882.81
468.488	859.81
468.707	890.81
468.927	882.81
469.146	879.81
469.365	897.81
469.585	869.81
469.804	904.81
470.023	909.81
470.243	873.81
470.462	913.81
470.681	908.81
470.901	920.81
471.12	893.81
471.339	914.81
471.558	922.81
471.777	928.81
471.997	895.81
472.216	880.81
472.435	863.81
472.654	864.81
472.873	850.81
473.092	869.81
473.311	863.81
473.53	837.81
473.749	869.81
473.968	854.81
474.187	884.81
474.406	855.81
474.625	876.81
474.844	873.81
475.063	860.81
475.282	899.81
475.501	879.81
475.72	889.81
475.939	899.81
476.158	919.81
476.377	918.81
476.596	913.81
476.814	925.81
477.033	893.81
477.252	935.81
477.471	948.81
477.69	1002.81
477.908	1007.81
478.127	1030.81
478.346	1013.81
478.564	1041.81
478.783	1059.81
479.002	1057.81
479.22	1073.81
479.439	1061.81
479.658	1061.81
479.876	1059.81
480.095	1075.81
480.313	1088.81
480.532	1083.81
480.751	1077.81
480.969	1060.81
481.188	1010.81
481.406	1042.81
481.624	1008.81
481.843	1022.81
482.061	1025.81
482.28	1044.81
482.498	1012.81
482.717	1019.81
482.935	1024.81
483.153	1053.81
483.372	1024.81
483.59	1041.81
483.808	1022.81
484.027	988.81
484.245	1014.81
484.463	1060.81
484.681	1051.81
484.9	1037.81
485.118	1050.81
485.336	1039.81
485.554	1035.81
485.772	1041.81
485.99	1024.81
486.209	1053.81
486.427	1025.81
486.645	1043.81
486.863	1087.81
487.081	1062.81
487.299	1015.81
487.517	1047.81
487.735	1070.81
487.953	1074.81
488.171	1108.81
488.389	1066.81
488.607	1068.81
488.825	1044.81
489.043	1011.81
489.261	1059.81
489.479	1068.81
489.696	1044.81
489.914	1037.81
490.132	1074.81
490.35	1064.81
490.568	1086.81
490.786	1075.81
491.003	1096.81
491.221	1089.81
491.439	1108.81
491.657	1056.81
491.874	1083.81
492.092	1114.81
492.31	1121.81
492.527	1107.81
492.745	1125.81
492.963	1102.81
493.18	1115.81
493.398	1101.81
493.615	1127.81
493.833	1155.81
494.05	1165.81
494.268	1150.81
494.485	1164.81
494.703	1149.81
494.92	1182.81
495.138	1145.81
495.355	1150.81
495.573	1184.81
495.79	1165.81
496.008	1176.81
496.225	1186.81
496.442	1161.81
496.66	1237.81
496.877	1198.81
497.094	1232.81
497.312	1270.81
497.529	1273.81
497.746	1307.81
497.963	1303.81
498.181	1376.81
498.398	1398.81
498.615	1510.81
498.832	1507.81
499.049	1572.81
499.267	1687.81
499.484	1800.81
499.701	1919.81
499.918	2017.81
500.135	2205.81
500.352	2318.81
500.569	2337.81
500.786	2321.81
501.003	2263.81
501.22	2128.81
501.437	2018.81
501.654	1867.81
501.871	1789.81
502.088	1700.81
502.305	1574.81
502.522	1536.81
502.739	1504.81
502.956	1402.81
503.172	1381.81
503.389	1339.81
503.606	1333.81
503.823	1276.81
504.04	1294.81
504.256	1251.81
504.473	1260.81
504.69	1249.81
504.907	1248.81
505.123	1182.81
505.34	1170.81
505.557	1118.81
505.773	1114.81
505.99	1074.81
506.207	1043.81
506.423	1064.81
506.64	1033.81
506.856	1047.81
507.073	1041.81
507.289	1012.81
507.506	1019.81
507.722	997.81
507.939	999.81
508.155	972.81
508.372	966.81
508.588	949.81
508.805	974.81
509.021	944.81
509.238	928.81
509.454	939.81
509.67	905.81
509.887	886.81
510.103	929.81
510.319	926.81
510.536	917.81
510.752	923.81
510.968	912.81
511.184	920.81
511.401	893.81
511.617	882.81
511.833	913.81
512.049	907.81
512.265	878.81
512.481	896.81
512.698	913.81
512.914	899.81
513.13	906.81
513.346	870.81
513.562	875.81
513.778	891.81
513.994	880.81
514.21	907.81
514.426	901.81
514.642	907.81
514.858	925.81
515.074	931.81
515.29	936.81
515.506	949.81
515.721	916.81
515.937	954.81
516.153	966.81
516.369	980.81
516.585	1017.81
516.801	982.81
517.016	1024.81
517.232	1059.81
517.448	1070.81
517.664	1067.81
517.879	1071.81
518.095	1066.81
518.311	1063.81
518.527	1011.81
518.742	1043.81
518.958	997.81
519.173	996.81
519.389	963.81
519.605	948.81
519.82	920.81
520.036	918.81
520.251	914.81
520.467	896.81
520.682	904.81
520.898	895.81
521.113	866.81
521.329	862.81
521.544	853.81
521.76	870.81
521.975	843.81
522.19	851.81
522.406	851.81
522.621	832.81
522.836	852.81
523.052	825.81
523.267	827.81
523.482	829.81
523.698	833.81
523.913	826.81
524.128	841.81
524.343	815.81
524.559	822.81
524.774	821.81
524.989	797.81
525.204	810.81
525.419	824.81
525.634	838.81
525.849	809.81
526.064	794.81
526.28	805.81
526.495	836.81
526.71	771.81
526.925	788.81
527.14	763.81
527.355	801.81
527.57	789.81
527.785	786.81
527.999	795.81
528.214	788.81
528.429	788.81
528.644	796.81
528.859	805.81
529.074	790.81
529.289	800.81
529.503	780.81
529.718	801.81
529.933	803.81
530.148	804.81
530.363	797.81
530.577	803.81
530.792	760.81
531.007	788.81
531.221	800.81
531.436	764.81
531.651	753.81
531.865	766.81
532.08	764.81
532.295	788.81
532.509	770.81
532.724	793.81
532.938	774.81
533.153	789.81
533.367	771.81
533.582	754.81
533.796	785.81
534.011	799.81
534.225	757.81
534.44	755.81
534.654	753.81
534.868	791.81
535.083	763.81
535.297	736.81
535.511	746.81
535.726	748.81
535.94	768.81
536.154	758.81
536.369	735.81
536.583	743.81
536.797	742.81
537.011	733.81
537.225	701.81
537.44	709.81
537.654	705.81
537.868	733.81
538.082	726.81
538.296	724.81
538.51	714.81
538.724	724.81
538.938	720.81
539.153	724.81
539.367	727.81
539.581	736.81
539.795	734.81
540.009	712.81
540.222	705.81
540.436	712.81
540.65	692.81
540.864	709.81
541.078	722.81
541.292	726.81
541.506	726.81
541.72	733.81
541.934	729.81
542.147	740.81
542.361	735.81
542.575	714.81
542.789	705.81
543.002	706.81
543.216	711.81
543.43	708.81
543.644	725.81
543.857	720.81
544.071	732.81
544.285	726.81
544.498	732.81
544.712	722.81
544.925	735.81
545.139	744.81
545.352	712.81
545.566	721.81
545.779	739.81
545.993	726.81
546.206	722.81
546.42	720.81
546.633	725.81
546.847	742.81
547.06	711.81
547.274	741.81
547.487	741.81
547.7	714.81
547.914	735.81
548.127	747.81
548.34	706.81
548.554	715.81
548.767	734.81
548.98	730.81
549.193	723.81
549.407	736.81
549.62	720.81
549.833	729.81
550.046	718.81
550.259	728.81
550.473	748.81
550.686	737.81
550.899	694.81
551.112	709.81
551.325	731.81
551.538	714.81
551.751	722.81
551.964	690.81
552.177	728.81
552.39	722.81
552.603	757.81
552.816	742.81
553.029	736.81
553.242	742.81
553.455	756.81
553.667	770.81
553.88	751.81
554.093	728.81
554.306	738.81
554.519	724.81
554.732	716.81
554.944	712.81
555.157	699.81
555.37	660.81
555.583	674.81
555.795	667.81
556.008	674.81
556.221	668.81
556.433	641.81
556.646	627.81
556.859	641.81
557.071	640.81
557.284	641.81
557.496	639.81
557.709	615.81
557.921	645.81
558.134	600.81
558.346	625.81
558.559	622.81
558.771	602.81
558.984	614.81
559.196	619.81
559.409	609.81
559.621	596.81
559.833	622.81
560.046	617.81
560.258	618.81
560.47	612.81
560.683	620.81
560.895	584.81
561.107	634.81
561.32	619.81
561.532	633.81
561.744	602.81
561.956	607.81
562.168	609.81
562.381	600.81
562.593	603.81
562.805	617.81
563.017	635.81
563.229	615.81
563.441	616.81
563.653	594.81
563.865	630.81
564.077	633.81
564.289	644.81
564.501	627.81
564.713	642.81
564.925	644.81
565.137	651.81
565.349	673.81
565.561	682.81
565.773	700.81
565.985	711.81
566.197	737.81
566.408	769.81
566.62	786.81
566.832	816.81
567.044	855.81
567.255	832.81
567.467	840.81
567.679	863.81
567.891	895.81
568.102	893.81
568.314	834.81
568.526	818.81
568.737	755.81
568.949	732.81
569.161	716.81
569.372	656.81
569.584	660.81
569.795	628.81
570.007	608.81
570.218	606.81
570.43	608.81
570.641	600.81
570.853	581.81
571.064	586.81
571.276	588.81
571.487	576.81
571.698	559.81
571.91	557.81
572.121	535.81
572.333	539.81
572.544	528.81
572.755	524.81
572.966	516.81
573.178	512.81
573.389	510.81
573.6	492.81
573.811	494.81
574.023	483.81
574.234	493.81
574.445	487.81
574.656	496.81
574.867	483.81
575.078	483.81
575.289	484.81
575.501	477.81
575.712	468.81
575.923	472.81
576.134	470.81
576.345	472.81
576.556	467.81
576.767	482.81
576.978	470.81
577.188	446.81
577.399	460.81
577.61	460.81
577.821	461.81
578.032	431.81
578.243	457.81
578.454	438.81
578.665	434.81
578.875	437.81
579.086	440.81
579.297	438.81
579.508	424.81
579.718	425.81
579.929	425.81
580.14	426.81
580.35	415.81
580.561	430.81
580.772	433.81
580.982	417.81
581.193	430.81
581.403	416.81
581.614	415.81
581.825	411.81
582.035	411.81
582.246	402.81
582.456	407.81
582.667	413.81
582.877	429.81
583.087	397.81
583.298	399.81
583.508	412.81
583.719	391.81
583.929	415.81
584.139	392.81
584.35	407.81
584.56	408.81
584.77	405.81
584.981	403.81
585.191	395.81
585.401	391.81
585.611	396.81
585.821	402.81
586.032	408.81
586.242	394.81
586.452	406.81
586.662	388.81
586.872	378.81
587.082	383.81
587.292	382.81
587.502	384.81
587.713	397.81
587.923	384.81
588.133	400.81
588.343	391.81
588.553	395.81
588.762	397.81
588.972	418.81
589.182	435.81
589.392	438.81
589.602	407.81
589.812	412.81
590.022	405.81
590.232	377.81
590.441	396.81
590.651	386.81
590.861	395.81
591.071	388.81
591.281	388.81
591.49	397.81
591.7	416.81
591.91	396.81
592.119	406.81
592.329	412.81
592.539	415.81
592.748	433.81
592.958	425.81
593.167	422.81
593.377	426.81
593.587	459.81
593.796	432.81
594.006	443.81
594.215	434.81
594.424	426.81
594.634	415.81
594.843	426.81
595.053	424.81
595.262	410.81
595.472	415.81
595.681	390.81
595.89	391.81
596.1	371.81
596.309	390.81
596.518	362.81
596.727	366.81
596.937	362.81
597.146	372.81
597.355	354.81
597.564	356.81
597.774	349.81
597.983	346.81
598.192	359.81
598.401	346.81
598.61	359.81
598.819	335.81
599.028	338.81
599.237	344.81
599.446	329.81
599.655	339.81
599.864	325.81
600.073	327.81
600.282	320.81
600.491	327.81
600.7	306.81
600.909	310.81
601.118	330.81
601.327	328.81
601.536	341.81
601.745	326.81
601.953	309.81
602.162	329.81
602.371	313.81
602.58	318.81
602.789	320.81
602.997	330.81
603.206	321.81
603.415	324.81
603.623	306.81
603.832	302.81
604.041	295.81
604.249	289.81
604.458	302.81
604.666	291.81
604.875	296.81
605.084	316.81
605.292	314.81
605.501	300.81
605.709	304.81
605.918	313.81
606.126	312.81
606.334	328.81
606.543	326.81
606.751	310.81
606.96	288.81
607.168	320.81
607.376	300.81
607.585	279.81
607.793	298.81
608.001	299.81
608.21	297.81
608.418	289.81
608.626	298.81
608.834	319.81
609.043	286.81
609.251	292.81
609.459	291.81
609.667	304.81
609.875	310.81
610.083	288.81
610.291	300.81
610.499	292.81
610.707	303.81
610.916	288.81
611.124	281.81
611.332	275.81
611.54	281.81
611.748	280.81
611.955	278.81
612.163	279.81
612.371	267.81
612.579	299.81
612.787	278.81
612.995	297.81
613.203	293.81
613.411	262.81
613.618	288.81
613.826	286.81
614.034	276.81
614.242	276.81
614.449	291.81
614.657	282.81
614.865	273.81
615.072	284.81
615.28	273.81
615.488	295.81
615.695	267.81
615.903	285.81
616.111	283.81
616.318	286.81
616.526	275.81
616.733	291.81
616.941	277.81
617.148	280.81
617.356	290.81
617.563	272.81
617.771	281.81
617.978	283.81
618.185	262.81
618.393	284.81
618.6	275.81
618.807	265.81
619.015	261.81
619.222	263.81
619.429	279.81
619.637	274.81
619.844	261.81
620.051	244.81
620.258	263.81
620.466	261.81
620.673	258.81
620.88	260.81
621.087	247.81
621.294	255.81
621.501	246.81
621.708	282.81
621.915	258.81
622.122	252.81
622.329	247.81
622.536	258.81
622.743	268.81
622.95	253.81
623.157	246.81
623.364	256.81
623.571	258.81
623.778	248.81
623.985	255.81
624.192	255.81
624.399	252.81
624.606	247.81
624.812	239.81
625.019	238.81
625.226	246.81
625.433	247.81
625.639	252.81
625.846	242.81
626.053	221.81
626.259	228.81
626.466	246.81
626.673	247.81
626.879	233.81
627.086	227.81
627.293	223.81
627.499	217.81
627.706	214.81
627.912	202.81
628.119	228.81
628.325	243.81
628.532	232.81
628.738	224.81
628.945	209.81
629.151	222.81
629.357	225.81
629.564	221.81
629.77	234.81
629.976	244.81
630.183	232.81
630.389	222.81
630.595	219.81
630.802	214.81
631.008	212.81
631.214	215.81
631.42	216.81
631.627	225.81
631.833	236.81
632.039	226.81
632.245	206.81
632.451	207.81
632.657	207.81
632.863	199.81
633.069	220.81
633.275	230.81
633.481	219.81
633.688	218.81
633.893	232.81
634.099	210.81
634.305	209.81
634.511	211.81
634.717	227.81
634.923	198.81
635.129	212.81
635.335	215.81
635.541	210.81
635.747	202.81
635.952	213.81
636.158	206.81
636.364	214.81
636.57	198.81
636.775	214.81
636.981	210.81
637.187	204.81
637.392	207.81
637.598	220.81
637.804	220.81
638.009	200.81
638.215	203.81
638.421	194.81
638.626	208.81
638.832	204.81
639.037	209.81
639.243	207.81
639.448	208.81
639.654	208.81
639.859	194.81
640.065	186.81
640.27	207.81
640.475	200.81
640.681	190.81
640.886	194.81
641.091	187.81
641.297	199.81
641.502	187.81
641.707	194.81
641.913	192.81
642.118	199.81
642.323	190.81
642.528	191.81
642.733	188.81
642.939	195.81
643.144	201.81
643.349	198.81
643.554	188.81
643.759	179.81
643.964	170.81
644.169	186.81
644.374	209.81
644.579	195.81
644.784	204.81
644.989	197.81
645.194	180.81
645.399	188.81
645.604	191.81
645.809	188.81
646.014	199.81
646.219	194.81
646.423	213.81
646.628	195.81
646.833	181.81
647.038	204.81
647.243	200.81
647.447	188.81
647.652	173.81
647.857	184.81
648.062	199.81
648.266	216.81
648.471	199.81
648.676	192.81
648.88	204.81
649.085	186.81
649.289	184.81
649.494	193.81
649.698	185.81
649.903	184.81
650.107	179.81
650.312	197.81
650.516	178.81
650.721	193.81
650.925	195.81
651.13	186.81
651.334	165.81
651.539	176.81
651.743	189.81
651.947	182.81
652.152	166.81
652.356	163.81
652.56	176.81
652.764	175.81
652.969	180.81
653.173	167.81
653.377	167.81
653.581	164.81
653.785	154.81
653.99	154.81
654.194	153.81
654.398	160.81
654.602	151.81
654.806	163.81
655.01	155.81
655.214	159.81
655.418	147.81
655.622	149.81
655.826	145.81
656.03	181.81
656.234	140.81
656.438	169.81
656.642	165.81
656.846	154.81
657.049	152.81
657.253	151.81
657.457	160.81
657.661	142.81
657.865	141.81
658.068	130.81
658.272	123.81
658.476	119.81
658.68	122.81
658.883	135.81
659.087	121.81
659.291	107.81
659.494	116.81
659.698	119.81
659.901	104.81
660.105	98.81
660.309	111.81
660.512	113.81
660.716	99.81
660.919	120.81
661.123	101.81
661.326	106.81
661.53	104.81
661.733	88.81
661.936	92.81
662.14	98.81
662.343	83.81
662.546	85.81
662.75	84.81
662.953	88.81
663.156	82.81
663.36	84.81
663.563	81.81
663.766	81.81
663.969	85.81
664.173	59.81
664.376	84.81
664.579	85.81
664.782	96.81
664.985	83.81
665.188	90.81
665.391	87.81
665.594	91.81
665.797	83.81
666	73.81
666.203	76.81
666.406	73.81
666.609	97.81
666.812	90.81
667.015	75.81
667.218	80.81
667.421	89.81
667.624	87.81
667.827	81.81
668.03	82.81
668.232	86.81
668.435	77.81
668.638	74.81
668.841	97.81
669.043	64.81
669.246	89.81
669.449	90.81
669.651	76.81
669.854	81.81
670.057	90.81
670.259	80.81
670.462	79.81
670.665	84.81
670.867	64.81
671.07	66.81
671.272	75.81
671.475	74.81
671.677	84.81
671.88	80.81
672.082	76.81
672.284	84.81
672.487	75.81
672.689	88.81
672.892	76.81
