Data from NiCl2@0.125M.TitratingCurve.Agarose3%dH2O.NegLispCup.LampEnergy10.LIBS07252019_HRD10591_18-27-52-574.txt Node
Date: Thu Jul 25 18:27:52 EDT 2019
User: cochatt
Spectrometer: HR+D1059
Trigger mode: 1
Integration Time (sec): 1.000000E-1
Scans to average: 1
Electric dark correction enabled: true
Nonlinearity correction enabled: false
Boxcar width: 0
XAxis mode: Wavelengths
Number of Pixels in Spectrum: 2048
>>>>>Begin Spectral Data<<<<<
223.165	-16.5
223.4	-16.5
223.635	-16.5
223.869	-13.5
224.104	-18.5
224.338	-20.5
224.573	-8.5
224.808	-13.5
225.042	5.5
225.277	-6.5
225.511	-13.5
225.746	4.5
225.98	7.5
226.215	4.5
226.449	18.5
226.683	28.5
226.918	16.5
227.152	25.5
227.387	21.5
227.621	29.5
227.856	40.5
228.09	49.5
228.324	44.5
228.559	56.5
228.793	55.5
229.027	124.5
229.262	115.5
229.496	124.5
229.73	118.5
229.964	135.5
230.199	146.5
230.433	138.5
230.667	136.5
230.901	144.5
231.136	135.5
231.37	147.5
231.604	152.5
231.838	156.5
232.072	144.5
232.306	157.5
232.541	165.5
232.775	155.5
233.009	168.5
233.243	160.5
233.477	152.5
233.711	165.5
233.945	162.5
234.179	166.5
234.413	159.5
234.647	175.5
234.881	184.5
235.115	157.5
235.349	154.5
235.583	158.5
235.817	180.5
236.051	168.5
236.285	177.5
236.519	165.5
236.753	154.5
236.987	176.5
237.221	188.5
237.455	167.5
237.689	184.5
237.922	179.5
238.156	173.5
238.39	191.5
238.624	204.5
238.858	195.5
239.091	180.5
239.325	191.5
239.559	181.5
239.793	188.5
240.027	195.5
240.26	189.5
240.494	182.5
240.728	208.5
240.961	206.5
241.195	216.5
241.429	199.5
241.662	205.5
241.896	215.5
242.13	219.5
242.363	222.5
242.597	217.5
242.83	211.5
243.064	207.5
243.298	224.5
243.531	218.5
243.765	220.5
243.998	249.5
244.232	234.5
244.465	239.5
244.699	224.5
244.932	239.5
245.166	233.5
245.399	213.5
245.633	242.5
245.866	233.5
246.099	234.5
246.333	257.5
246.566	248.5
246.8	245.5
247.033	263.5
247.266	275.5
247.5	273.5
247.733	263.5
247.966	263.5
248.2	269.5
248.433	265.5
248.666	278.5
248.899	276.5
249.133	267.5
249.366	287.5
249.599	271.5
249.832	283.5
250.066	284.5
250.299	276.5
250.532	279.5
250.765	263.5
250.998	288.5
251.231	291.5
251.465	284.5
251.698	299.5
251.931	305.5
252.164	307.5
252.397	305.5
252.63	286.5
252.863	307.5
253.096	312.5
253.329	312.5
253.562	303.5
253.795	311.5
254.028	315.5
254.261	301.5
254.494	318.5
254.727	307.5
254.96	308.5
255.193	323.5
255.426	316.5
255.659	311.5
255.892	341.5
256.124	313.5
256.357	313.5
256.59	334.5
256.823	335.5
257.056	335.5
257.289	327.5
257.521	343.5
257.754	337.5
257.987	329.5
258.22	336.5
258.452	328.5
258.685	344.5
258.918	356.5
259.151	364.5
259.383	359.5
259.616	340.5
259.849	351.5
260.081	337.5
260.314	367.5
260.547	363.5
260.779	372.5
261.012	373.5
261.244	372.5
261.477	373.5
261.71	352.5
261.942	348.5
262.175	349.5
262.407	382.5
262.64	372.5
262.872	361.5
263.105	377.5
263.337	389.5
263.57	383.5
263.802	376.5
264.035	370.5
264.267	392.5
264.499	381.5
264.732	401.5
264.964	408.5
265.197	395.5
265.429	412.5
265.661	379.5
265.894	396.5
266.126	401.5
266.358	379.5
266.591	395.5
266.823	396.5
267.055	402.5
267.287	406.5
267.52	426.5
267.752	419.5
267.984	424.5
268.216	408.5
268.448	411.5
268.681	407.5
268.913	417.5
269.145	432.5
269.377	423.5
269.609	408.5
269.841	420.5
270.073	425.5
270.306	423.5
270.538	426.5
270.77	421.5
271.002	425.5
271.234	425.5
271.466	466.5
271.698	456.5
271.93	428.5
272.162	429.5
272.394	450.5
272.626	438.5
272.858	456.5
273.09	447.5
273.322	454.5
273.553	449.5
273.785	450.5
274.017	456.5
274.249	453.5
274.481	468.5
274.713	441.5
274.945	478.5
275.176	462.5
275.408	465.5
275.64	488.5
275.872	476.5
276.104	462.5
276.335	492.5
276.567	485.5
276.799	482.5
277.031	471.5
277.262	465.5
277.494	467.5
277.726	472.5
277.957	481.5
278.189	480.5
278.421	486.5
278.652	507.5
278.884	499.5
279.115	497.5
279.347	496.5
279.579	493.5
279.81	517.5
280.042	516.5
280.273	499.5
280.505	522.5
280.736	517.5
280.968	529.5
281.199	544.5
281.431	530.5
281.662	534.5
281.894	523.5
282.125	518.5
282.356	514.5
282.588	528.5
282.819	540.5
283.051	556.5
283.282	555.5
283.513	535.5
283.745	536.5
283.976	533.5
284.207	552.5
284.439	541.5
284.67	559.5
284.901	575.5
285.132	512.5
285.364	544.5
285.595	576.5
285.826	547.5
286.057	572.5
286.288	571.5
286.52	549.5
286.751	573.5
286.982	576.5
287.213	569.5
287.444	576.5
287.675	593.5
287.906	579.5
288.138	584.5
288.369	568.5
288.6	608.5
288.831	612.5
289.062	586.5
289.293	592.5
289.524	599.5
289.755	577.5
289.986	584.5
290.217	590.5
290.448	573.5
290.679	602.5
290.91	588.5
291.141	597.5
291.371	599.5
291.602	606.5
291.833	603.5
292.064	637.5
292.295	615.5
292.526	595.5
292.757	584.5
292.987	565.5
293.218	601.5
293.449	625.5
293.68	633.5
293.91	609.5
294.141	614.5
294.372	584.5
294.603	614.5
294.833	580.5
295.064	628.5
295.295	601.5
295.525	609.5
295.756	609.5
295.987	627.5
296.217	631.5
296.448	637.5
296.679	630.5
296.909	618.5
297.14	615.5
297.37	629.5
297.601	663.5
297.831	642.5
298.062	666.5
298.292	659.5
298.523	663.5
298.753	682.5
298.984	655.5
299.214	689.5
299.445	624.5
299.675	646.5
299.905	645.5
300.136	641.5
300.366	670.5
300.597	660.5
300.827	675.5
301.057	716.5
301.288	676.5
301.518	689.5
301.748	693.5
301.979	705.5
302.209	688.5
302.439	688.5
302.669	687.5
302.9	691.5
303.13	678.5
303.36	667.5
303.59	691.5
303.82	672.5
304.051	682.5
304.281	673.5
304.511	673.5
304.741	673.5
304.971	672.5
305.201	702.5
305.431	683.5
305.661	699.5
305.891	668.5
306.121	674.5
306.352	650.5
306.582	673.5
306.812	669.5
307.042	679.5
307.272	648.5
307.502	632.5
307.731	681.5
307.961	674.5
308.191	664.5
308.421	649.5
308.651	652.5
308.881	653.5
309.111	669.5
309.341	661.5
309.571	646.5
309.8	672.5
310.03	656.5
310.26	651.5
310.49	677.5
310.72	642.5
310.949	670.5
311.179	688.5
311.409	704.5
311.639	670.5
311.868	680.5
312.098	693.5
312.328	720.5
312.557	699.5
312.787	727.5
313.017	711.5
313.246	713.5
313.476	719.5
313.706	727.5
313.935	688.5
314.165	714.5
314.394	723.5
314.624	724.5
314.853	728.5
315.083	717.5
315.312	707.5
315.542	720.5
315.771	714.5
316.001	690.5
316.23	689.5
316.46	682.5
316.689	715.5
316.919	708.5
317.148	687.5
317.377	689.5
317.607	730.5
317.836	697.5
318.065	714.5
318.295	714.5
318.524	716.5
318.753	709.5
318.983	695.5
319.212	715.5
319.441	689.5
319.67	715.5
319.9	716.5
320.129	695.5
320.358	690.5
320.587	700.5
320.816	705.5
321.046	710.5
321.275	710.5
321.504	690.5
321.733	701.5
321.962	706.5
322.191	724.5
322.42	718.5
322.649	733.5
322.878	708.5
323.108	708.5
323.337	727.5
323.566	728.5
323.795	732.5
324.024	739.5
324.253	723.5
324.482	706.5
324.71	751.5
324.939	758.5
325.168	743.5
325.397	752.5
325.626	751.5
325.855	749.5
326.084	778.5
326.313	778.5
326.542	792.5
326.77	823.5
326.999	767.5
327.228	760.5
327.457	752.5
327.686	760.5
327.914	761.5
328.143	771.5
328.372	778.5
328.6	765.5
328.829	764.5
329.058	781.5
329.287	768.5
329.515	775.5
329.744	761.5
329.972	769.5
330.201	779.5
330.43	802.5
330.658	821.5
330.887	807.5
331.115	819.5
331.344	826.5
331.572	832.5
331.801	842.5
332.03	882.5
332.258	872.5
332.486	889.5
332.715	930.5
332.943	986.5
333.172	1017.5
333.4	1044.5
333.629	1099.5
333.857	1081.5
334.085	1058.5
334.314	1048.5
334.542	1016.5
334.771	1017.5
334.999	984.5
335.227	972.5
335.455	998.5
335.684	984.5
335.912	919.5
336.14	940.5
336.369	935.5
336.597	940.5
336.825	962.5
337.053	935.5
337.281	935.5
337.51	899.5
337.738	868.5
337.966	857.5
338.194	867.5
338.422	861.5
338.65	856.5
338.878	866.5
339.106	841.5
339.334	842.5
339.562	854.5
339.79	813.5
340.018	823.5
340.246	825.5
340.474	824.5
340.702	801.5
340.93	812.5
341.158	816.5
341.386	819.5
341.614	818.5
341.842	824.5
342.07	806.5
342.298	804.5
342.526	797.5
342.754	805.5
342.981	819.5
343.209	825.5
343.437	867.5
343.665	929.5
343.893	1026.5
344.12	1004.5
344.348	968.5
344.576	928.5
344.804	872.5
345.031	830.5
345.259	831.5
345.487	806.5
345.714	807.5
345.942	779.5
346.17	771.5
346.397	815.5
346.625	769.5
346.853	789.5
347.08	795.5
347.308	783.5
347.535	791.5
347.763	811.5
347.99	780.5
348.218	789.5
348.445	767.5
348.673	769.5
348.9	791.5
349.128	785.5
349.355	760.5
349.583	762.5
349.81	767.5
350.037	775.5
350.265	752.5
350.492	747.5
350.72	755.5
350.947	752.5
351.174	756.5
351.402	772.5
351.629	744.5
351.856	748.5
352.083	757.5
352.311	745.5
352.538	721.5
352.765	763.5
352.992	740.5
353.22	723.5
353.447	736.5
353.674	715.5
353.901	748.5
354.128	735.5
354.355	736.5
354.583	758.5
354.81	753.5
355.037	729.5
355.264	752.5
355.491	763.5
355.718	747.5
355.945	732.5
356.172	777.5
356.399	769.5
356.626	765.5
356.853	759.5
357.08	753.5
357.307	759.5
357.534	740.5
357.761	752.5
357.988	763.5
358.215	771.5
358.441	770.5
358.668	732.5
358.895	737.5
359.122	762.5
359.349	748.5
359.576	729.5
359.802	755.5
360.029	763.5
360.256	745.5
360.483	752.5
360.709	748.5
360.936	749.5
361.163	757.5
361.39	755.5
361.616	740.5
361.843	728.5
362.07	738.5
362.296	754.5
362.523	773.5
362.749	779.5
362.976	751.5
363.203	708.5
363.429	747.5
363.656	748.5
363.882	747.5
364.109	735.5
364.335	749.5
364.562	732.5
364.788	759.5
365.015	744.5
365.241	724.5
365.468	731.5
365.694	737.5
365.92	749.5
366.147	725.5
366.373	739.5
366.599	749.5
366.826	765.5
367.052	745.5
367.278	758.5
367.505	747.5
367.731	769.5
367.957	763.5
368.184	751.5
368.41	763.5
368.636	763.5
368.862	787.5
369.089	776.5
369.315	777.5
369.541	779.5
369.767	771.5
369.993	785.5
370.219	786.5
370.445	775.5
370.672	820.5
370.898	802.5
371.124	810.5
371.35	808.5
371.576	835.5
371.802	831.5
372.028	828.5
372.254	800.5
372.48	828.5
372.706	815.5
372.932	846.5
373.158	845.5
373.384	821.5
373.61	821.5
373.835	822.5
374.061	837.5
374.287	834.5
374.513	838.5
374.739	890.5
374.965	882.5
375.191	919.5
375.416	907.5
375.642	884.5
375.868	904.5
376.094	840.5
376.319	828.5
376.545	848.5
376.771	833.5
376.997	812.5
377.222	835.5
377.448	827.5
377.674	808.5
377.899	812.5
378.125	808.5
378.35	851.5
378.576	825.5
378.802	817.5
379.027	808.5
379.253	785.5
379.478	815.5
379.704	797.5
379.929	831.5
380.155	802.5
380.38	816.5
380.606	812.5
380.831	795.5
381.057	808.5
381.282	812.5
381.507	825.5
381.733	841.5
381.958	818.5
382.184	832.5
382.409	886.5
382.634	851.5
382.86	873.5
383.085	850.5
383.31	893.5
383.535	893.5
383.761	929.5
383.986	943.5
384.211	952.5
384.436	970.5
384.662	973.5
384.887	1020.5
385.112	1018.5
385.337	997.5
385.562	999.5
385.787	1004.5
386.013	1026.5
386.238	1007.5
386.463	1001.5
386.688	1013.5
386.913	965.5
387.138	971.5
387.363	980.5
387.588	968.5
387.813	976.5
388.038	958.5
388.263	975.5
388.488	965.5
388.713	985.5
388.938	971.5
389.163	947.5
389.387	965.5
389.612	957.5
389.837	952.5
390.062	958.5
390.287	961.5
390.512	970.5
390.736	963.5
390.961	996.5
391.186	1014.5
391.411	1045.5
391.636	1053.5
391.86	1146.5
392.085	1149.5
392.31	1121.5
392.534	1073.5
392.759	1066.5
392.984	1043.5
393.208	1059.5
393.433	1048.5
393.658	1055.5
393.882	1061.5
394.107	1051.5
394.331	1050.5
394.556	1066.5
394.78	1073.5
395.005	1060.5
395.229	1063.5
395.454	1124.5
395.678	1132.5
395.903	1145.5
396.127	1109.5
396.352	1039.5
396.576	1027.5
396.801	1035.5
397.025	1064.5
397.249	1087.5
397.474	1084.5
397.698	1116.5
397.922	1133.5
398.147	1105.5
398.371	1135.5
398.595	1149.5
398.82	1209.5
399.044	1321.5
399.268	1480.5
399.492	1698.5
399.717	2006.5
399.941	2014.5
400.165	1694.5
400.389	1499.5
400.613	1383.5
400.837	1293.5
401.062	1267.5
401.286	1243.5
401.51	1239.5
401.734	1228.5
401.958	1297.5
402.182	1265.5
402.406	1260.5
402.63	1298.5
402.854	1356.5
403.078	1352.5
403.302	1396.5
403.526	1459.5
403.75	1448.5
403.974	1478.5
404.198	1529.5
404.422	1499.5
404.645	1480.5
404.869	1441.5
405.093	1407.5
405.317	1397.5
405.541	1387.5
405.765	1371.5
405.988	1384.5
406.212	1405.5
406.436	1368.5
406.66	1409.5
406.883	1445.5
407.107	1548.5
407.331	1628.5
407.555	1630.5
407.778	1671.5
408.002	1580.5
408.226	1546.5
408.449	1500.5
408.673	1428.5
408.896	1439.5
409.12	1441.5
409.344	1415.5
409.567	1433.5
409.791	1426.5
410.014	1427.5
410.238	1432.5
410.461	1414.5
410.685	1376.5
410.908	1359.5
411.132	1338.5
411.355	1289.5
411.578	1279.5
411.802	1285.5
412.025	1318.5
412.249	1318.5
412.472	1334.5
412.695	1275.5
412.919	1248.5
413.142	1269.5
413.365	1282.5
413.589	1245.5
413.812	1249.5
414.035	1248.5
414.258	1219.5
414.482	1217.5
414.705	1281.5
414.928	1287.5
415.151	1276.5
415.374	1253.5
415.597	1236.5
415.821	1239.5
416.044	1242.5
416.267	1200.5
416.49	1229.5
416.713	1237.5
416.936	1230.5
417.159	1215.5
417.382	1217.5
417.605	1229.5
417.828	1228.5
418.051	1225.5
418.274	1227.5
418.497	1267.5
418.72	1256.5
418.943	1283.5
419.166	1375.5
419.389	1441.5
419.611	1380.5
419.834	1308.5
420.057	1273.5
420.28	1279.5
420.503	1242.5
420.726	1222.5
420.948	1233.5
421.171	1245.5
421.394	1231.5
421.617	1221.5
421.839	1258.5
422.062	1210.5
422.285	1225.5
422.507	1287.5
422.73	1291.5
422.953	1313.5
423.175	1319.5
423.398	1355.5
423.621	1295.5
423.843	1333.5
424.066	1332.5
424.288	1311.5
424.511	1324.5
424.733	1300.5
424.956	1280.5
425.178	1263.5
425.401	1269.5
425.623	1241.5
425.846	1201.5
426.068	1204.5
426.291	1188.5
426.513	1183.5
426.735	1170.5
426.958	1155.5
427.18	1125.5
427.402	1142.5
427.625	1155.5
427.847	1102.5
428.069	1089.5
428.292	1113.5
428.514	1058.5
428.736	1073.5
428.958	1100.5
429.181	1095.5
429.403	1064.5
429.625	1068.5
429.847	1053.5
430.069	1078.5
430.292	1059.5
430.514	1021.5
430.736	1075.5
430.958	1066.5
431.18	1074.5
431.402	1113.5
431.624	1084.5
431.846	1092.5
432.068	1123.5
432.29	1110.5
432.512	1085.5
432.734	1107.5
432.956	1067.5
433.178	1098.5
433.4	1092.5
433.622	1086.5
433.844	1107.5
434.066	1085.5
434.287	1113.5
434.509	1139.5
434.731	1174.5
434.953	1240.5
435.175	1258.5
435.397	1234.5
435.618	1189.5
435.84	1142.5
436.062	1116.5
436.284	1076.5
436.505	1081.5
436.727	1097.5
436.949	1107.5
437.17	1101.5
437.392	1062.5
437.614	1085.5
437.835	1047.5
438.057	1046.5
438.278	1016.5
438.5	1032.5
438.721	1016.5
438.943	1089.5
439.165	1035.5
439.386	1045.5
439.608	1078.5
439.829	1100.5
440.05	1098.5
440.272	1112.5
440.493	1120.5
440.715	1102.5
440.936	1131.5
441.158	1148.5
441.379	1182.5
441.6	1251.5
441.822	1272.5
442.043	1255.5
442.264	1246.5
442.486	1207.5
442.707	1205.5
442.928	1220.5
443.149	1229.5
443.371	1221.5
443.592	1230.5
443.813	1233.5
444.034	1270.5
444.255	1305.5
444.476	1366.5
444.698	1449.5
444.919	1503.5
445.14	1620.5
445.361	1425.5
445.582	1288.5
445.803	1203.5
446.024	1153.5
446.245	1153.5
446.466	1141.5
446.687	1105.5
446.908	1124.5
447.129	1074.5
447.35	1036.5
447.571	1056.5
447.792	1034.5
448.013	1063.5
448.234	1015.5
448.455	984.5
448.675	961.5
448.896	1000.5
449.117	983.5
449.338	1009.5
449.559	986.5
449.779	983.5
450	996.5
450.221	1013.5
450.442	1013.5
450.662	997.5
450.883	1020.5
451.104	1025.5
451.324	1021.5
451.545	1021.5
451.766	1007.5
451.986	1012.5
452.207	1025.5
452.428	1024.5
452.648	983.5
452.869	980.5
453.089	963.5
453.31	988.5
453.53	972.5
453.751	974.5
453.971	943.5
454.192	941.5
454.412	941.5
454.633	959.5
454.853	955.5
455.073	955.5
455.294	932.5
455.514	946.5
455.734	945.5
455.955	913.5
456.175	950.5
456.395	913.5
456.616	924.5
456.836	929.5
457.056	932.5
457.276	914.5
457.497	947.5
457.717	939.5
457.937	935.5
458.157	926.5
458.377	965.5
458.598	965.5
458.818	970.5
459.038	1002.5
459.258	1066.5
459.478	1105.5
459.698	1107.5
459.918	1137.5
460.138	1181.5
460.358	1274.5
460.578	1285.5
460.798	1317.5
461.018	1313.5
461.238	1292.5
461.458	1267.5
461.678	1265.5
461.898	1301.5
462.118	1340.5
462.338	1393.5
462.558	1411.5
462.777	1465.5
462.997	1620.5
463.217	1768.5
463.437	1753.5
463.657	1596.5
463.876	1537.5
464.096	1511.5
464.316	1485.5
464.536	1501.5
464.755	1479.5
464.975	1406.5
465.195	1324.5
465.414	1221.5
465.634	1169.5
465.854	1147.5
466.073	1112.5
466.293	1076.5
466.512	1079.5
466.732	1045.5
466.951	1035.5
467.171	1076.5
467.391	1025.5
467.61	1055.5
467.829	1024.5
468.049	1025.5
468.268	1001.5
468.488	982.5
468.707	993.5
468.927	1017.5
469.146	1011.5
469.365	999.5
469.585	1027.5
469.804	1065.5
470.023	1088.5
470.243	1061.5
470.462	1059.5
470.681	1080.5
470.901	1105.5
471.12	1069.5
471.339	1019.5
471.558	1013.5
471.777	1002.5
471.997	986.5
472.216	998.5
472.435	962.5
472.654	948.5
472.873	940.5
473.092	973.5
473.311	996.5
473.53	972.5
473.749	934.5
473.968	963.5
474.187	946.5
474.406	946.5
474.625	966.5
474.844	977.5
475.063	954.5
475.282	938.5
475.501	953.5
475.72	1000.5
475.939	986.5
476.158	1005.5
476.377	1015.5
476.596	1021.5
476.814	1012.5
477.033	1010.5
477.252	1007.5
477.471	1059.5
477.69	1089.5
477.908	1123.5
478.127	1145.5
478.346	1179.5
478.564	1196.5
478.783	1178.5
479.002	1192.5
479.22	1236.5
479.439	1213.5
479.658	1181.5
479.876	1211.5
480.095	1223.5
480.313	1303.5
480.532	1323.5
480.751	1334.5
480.969	1227.5
481.188	1221.5
481.406	1155.5
481.624	1128.5
481.843	1093.5
482.061	1110.5
482.28	1099.5
482.498	1078.5
482.717	1054.5
482.935	1091.5
483.153	1082.5
483.372	1103.5
483.59	1096.5
483.808	1124.5
484.027	1097.5
484.245	1116.5
484.463	1113.5
484.681	1106.5
484.9	1130.5
485.118	1156.5
485.336	1136.5
485.554	1164.5
485.772	1170.5
485.99	1147.5
486.209	1176.5
486.427	1200.5
486.645	1160.5
486.863	1169.5
487.081	1149.5
487.299	1165.5
487.517	1151.5
487.735	1153.5
487.953	1146.5
488.171	1140.5
488.389	1115.5
488.607	1128.5
488.825	1157.5
489.043	1110.5
489.261	1133.5
489.479	1117.5
489.696	1151.5
489.914	1146.5
490.132	1141.5
490.35	1155.5
490.568	1157.5
490.786	1166.5
491.003	1131.5
491.221	1184.5
491.439	1161.5
491.657	1171.5
491.874	1161.5
492.092	1160.5
492.31	1184.5
492.527	1181.5
492.745	1173.5
492.963	1202.5
493.18	1188.5
493.398	1194.5
493.615	1205.5
493.833	1212.5
494.05	1220.5
494.268	1231.5
494.485	1244.5
494.703	1229.5
494.92	1230.5
495.138	1215.5
495.355	1223.5
495.573	1233.5
495.79	1201.5
496.008	1239.5
496.225	1231.5
496.442	1250.5
496.66	1267.5
496.877	1277.5
497.094	1310.5
497.312	1356.5
497.529	1376.5
497.746	1398.5
497.963	1427.5
498.181	1500.5
498.398	1559.5
498.615	1621.5
498.832	1757.5
499.049	1892.5
499.267	2053.5
499.484	2301.5
499.701	2504.5
499.918	2822.5
500.135	3194.5
500.352	3771.5
500.569	3921.5
500.786	3842.5
501.003	3627.5
501.22	3111.5
501.437	2765.5
501.654	2411.5
501.871	2172.5
502.088	2002.5
502.305	1835.5
502.522	1786.5
502.739	1712.5
502.956	1622.5
503.172	1538.5
503.389	1484.5
503.606	1437.5
503.823	1410.5
504.04	1353.5
504.256	1421.5
504.473	1443.5
504.69	1495.5
504.907	1475.5
505.123	1330.5
505.34	1289.5
505.557	1216.5
505.773	1201.5
505.99	1153.5
506.207	1093.5
506.423	1107.5
506.64	1083.5
506.856	1111.5
507.073	1092.5
507.289	1080.5
507.506	1071.5
507.722	1068.5
507.939	1059.5
508.155	1046.5
508.372	1044.5
508.588	1028.5
508.805	1037.5
509.021	1031.5
509.238	988.5
509.454	992.5
509.67	1013.5
509.887	969.5
510.103	990.5
510.319	970.5
510.536	985.5
510.752	958.5
510.968	979.5
511.184	971.5
511.401	937.5
511.617	968.5
511.833	978.5
512.049	981.5
512.265	1009.5
512.481	963.5
512.698	985.5
512.914	960.5
513.13	968.5
513.346	993.5
513.562	955.5
513.778	935.5
513.994	1012.5
514.21	987.5
514.426	993.5
514.642	986.5
514.858	990.5
515.074	998.5
515.29	1027.5
515.506	1035.5
515.721	1031.5
515.937	1022.5
516.153	1071.5
516.369	1058.5
516.585	1125.5
516.801	1138.5
517.016	1228.5
517.232	1219.5
517.448	1327.5
517.664	1387.5
517.879	1425.5
518.095	1392.5
518.311	1368.5
518.527	1305.5
518.742	1235.5
518.958	1188.5
519.173	1140.5
519.389	1124.5
519.605	1080.5
519.82	1019.5
520.036	1025.5
520.251	994.5
520.467	990.5
520.682	968.5
520.898	1005.5
521.113	951.5
521.329	938.5
521.544	947.5
521.76	953.5
521.975	962.5
522.19	928.5
522.406	921.5
522.621	928.5
522.836	917.5
523.052	891.5
523.267	895.5
523.482	874.5
523.698	896.5
523.913	895.5
524.128	920.5
524.343	895.5
524.559	899.5
524.774	897.5
524.989	907.5
525.204	876.5
525.419	891.5
525.634	865.5
525.849	917.5
526.064	897.5
526.28	925.5
526.495	896.5
526.71	869.5
526.925	873.5
527.14	874.5
527.355	853.5
527.57	874.5
527.785	884.5
527.999	884.5
528.214	909.5
528.429	877.5
528.644	881.5
528.859	897.5
529.074	896.5
529.289	889.5
529.503	882.5
529.718	876.5
529.933	874.5
530.148	872.5
530.363	874.5
530.577	869.5
530.792	847.5
531.007	854.5
531.221	882.5
531.436	861.5
531.651	868.5
531.865	902.5
532.08	876.5
532.295	879.5
532.509	885.5
532.724	864.5
532.938	873.5
533.153	874.5
533.367	877.5
533.582	852.5
533.796	888.5
534.011	879.5
534.225	856.5
534.44	861.5
534.654	879.5
534.868	864.5
535.083	855.5
535.297	879.5
535.511	833.5
535.726	838.5
535.94	863.5
536.154	815.5
536.369	811.5
536.583	790.5
536.797	804.5
537.011	807.5
537.225	811.5
537.44	809.5
537.654	820.5
537.868	796.5
538.082	762.5
538.296	792.5
538.51	786.5
538.724	788.5
538.938	806.5
539.153	797.5
539.367	780.5
539.581	774.5
539.795	777.5
540.009	792.5
540.222	766.5
540.436	766.5
540.65	759.5
540.864	780.5
541.078	788.5
541.292	803.5
541.506	802.5
541.72	811.5
541.934	785.5
542.147	785.5
542.361	774.5
542.575	787.5
542.789	787.5
543.002	762.5
543.216	783.5
543.43	781.5
543.644	756.5
543.857	777.5
544.071	776.5
544.285	791.5
544.498	787.5
544.712	801.5
544.925	812.5
545.139	806.5
545.352	836.5
545.566	818.5
545.779	798.5
545.993	811.5
546.206	804.5
546.42	793.5
546.633	812.5
546.847	796.5
547.06	794.5
547.274	793.5
547.487	810.5
547.7	804.5
547.914	809.5
548.127	837.5
548.34	856.5
548.554	802.5
548.767	810.5
548.98	821.5
549.193	809.5
549.407	810.5
549.62	845.5
549.833	856.5
550.046	861.5
550.259	833.5
550.473	811.5
550.686	813.5
550.899	785.5
551.112	768.5
551.325	755.5
551.538	801.5
551.751	769.5
551.964	773.5
552.177	791.5
552.39	785.5
552.603	820.5
552.816	871.5
553.029	868.5
553.242	875.5
553.455	884.5
553.667	938.5
553.88	893.5
554.093	835.5
554.306	863.5
554.519	851.5
554.732	812.5
554.944	797.5
555.157	784.5
555.37	753.5
555.583	747.5
555.795	744.5
556.008	702.5
556.221	696.5
556.433	720.5
556.646	727.5
556.859	722.5
557.071	687.5
557.284	678.5
557.496	689.5
557.709	683.5
557.921	687.5
558.134	667.5
558.346	673.5
558.559	679.5
558.771	668.5
558.984	653.5
559.196	649.5
559.409	660.5
559.621	674.5
559.833	666.5
560.046	645.5
560.258	651.5
560.47	676.5
560.683	644.5
560.895	662.5
561.107	647.5
561.32	659.5
561.532	669.5
561.744	649.5
561.956	632.5
562.168	647.5
562.381	666.5
562.593	661.5
562.805	663.5
563.017	666.5
563.229	676.5
563.441	666.5
563.653	661.5
563.865	684.5
564.077	677.5
564.289	684.5
564.501	663.5
564.713	699.5
564.925	712.5
565.137	703.5
565.349	733.5
565.561	775.5
565.773	784.5
565.985	791.5
566.197	880.5
566.408	905.5
566.62	981.5
566.832	1099.5
567.044	1124.5
567.255	1124.5
567.467	1150.5
567.679	1206.5
567.891	1316.5
568.102	1372.5
568.314	1304.5
568.526	1119.5
568.737	1023.5
568.949	913.5
569.161	861.5
569.372	805.5
569.584	739.5
569.795	711.5
570.007	737.5
570.218	700.5
570.43	687.5
570.641	681.5
570.853	676.5
571.064	692.5
571.276	714.5
571.487	675.5
571.698	647.5
571.91	613.5
572.121	590.5
572.333	606.5
572.544	587.5
572.755	580.5
572.966	575.5
573.178	547.5
573.389	549.5
573.6	564.5
573.811	543.5
574.023	553.5
574.234	559.5
574.445	540.5
574.656	545.5
574.867	542.5
575.078	540.5
575.289	539.5
575.501	536.5
575.712	501.5
575.923	502.5
576.134	516.5
576.345	507.5
576.556	529.5
576.767	508.5
576.978	514.5
577.188	513.5
577.399	486.5
577.61	491.5
577.821	502.5
578.032	491.5
578.243	474.5
578.454	509.5
578.665	490.5
578.875	483.5
579.086	474.5
579.297	467.5
579.508	489.5
579.718	472.5
579.929	466.5
580.14	453.5
580.35	481.5
580.561	471.5
580.772	476.5
580.982	481.5
581.193	451.5
581.403	468.5
581.614	468.5
581.825	470.5
582.035	436.5
582.246	471.5
582.456	449.5
582.667	456.5
582.877	448.5
583.087	461.5
583.298	439.5
583.508	451.5
583.719	433.5
583.929	428.5
584.139	457.5
584.35	435.5
584.56	442.5
584.77	436.5
584.981	456.5
585.191	445.5
585.401	426.5
585.611	441.5
585.821	451.5
586.032	446.5
586.242	433.5
586.452	437.5
586.662	439.5
586.872	428.5
587.082	427.5
587.292	428.5
587.502	424.5
587.713	412.5
587.923	413.5
588.133	439.5
588.343	428.5
588.553	449.5
588.762	437.5
588.972	434.5
589.182	426.5
589.392	419.5
589.602	439.5
589.812	413.5
590.022	424.5
590.232	429.5
590.441	434.5
590.651	443.5
590.861	438.5
591.071	403.5
591.281	452.5
591.49	448.5
591.7	475.5
591.91	462.5
592.119	469.5
592.329	475.5
592.539	501.5
592.748	523.5
592.958	514.5
593.167	548.5
593.377	560.5
593.587	569.5
593.796	553.5
594.006	579.5
594.215	557.5
594.424	590.5
594.634	541.5
594.843	537.5
595.053	505.5
595.262	477.5
595.472	475.5
595.681	451.5
595.89	467.5
596.1	432.5
596.309	455.5
596.518	428.5
596.727	419.5
596.937	408.5
597.146	407.5
597.355	394.5
597.564	384.5
597.774	423.5
597.983	394.5
598.192	388.5
598.401	385.5
598.61	383.5
598.819	377.5
599.028	356.5
599.237	385.5
599.446	389.5
599.655	372.5
599.864	369.5
600.073	360.5
600.282	373.5
600.491	363.5
600.7	359.5
600.909	360.5
601.118	352.5
601.327	352.5
601.536	370.5
601.745	375.5
601.953	352.5
602.162	355.5
602.371	363.5
602.58	352.5
602.789	364.5
602.997	355.5
603.206	356.5
603.415	376.5
603.623	348.5
603.832	347.5
604.041	350.5
604.249	328.5
604.458	338.5
604.666	327.5
604.875	328.5
605.084	327.5
605.292	311.5
605.501	333.5
605.709	337.5
605.918	332.5
606.126	337.5
606.334	334.5
606.543	328.5
606.751	329.5
606.96	343.5
607.168	334.5
607.376	329.5
607.585	343.5
607.793	336.5
608.001	325.5
608.21	342.5
608.418	335.5
608.626	319.5
608.834	319.5
609.043	325.5
609.251	309.5
609.459	331.5
609.667	332.5
609.875	324.5
610.083	321.5
610.291	322.5
610.499	310.5
610.707	313.5
610.916	313.5
611.124	323.5
611.332	313.5
611.54	336.5
611.748	323.5
611.955	324.5
612.163	317.5
612.371	334.5
612.579	307.5
612.787	319.5
612.995	306.5
613.203	328.5
613.411	315.5
613.618	311.5
613.826	327.5
614.034	315.5
614.242	316.5
614.449	303.5
614.657	315.5
614.865	312.5
615.072	313.5
615.28	326.5
615.488	313.5
615.695	315.5
615.903	319.5
616.111	317.5
616.318	325.5
616.526	320.5
616.733	316.5
616.941	326.5
617.148	296.5
617.356	307.5
617.563	316.5
617.771	324.5
617.978	303.5
618.185	311.5
618.393	321.5
618.6	298.5
618.807	311.5
619.015	328.5
619.222	311.5
619.429	317.5
619.637	295.5
619.844	315.5
620.051	313.5
620.258	289.5
620.466	286.5
620.673	276.5
620.88	296.5
621.087	300.5
621.294	311.5
621.501	278.5
621.708	290.5
621.915	308.5
622.122	284.5
622.329	283.5
622.536	290.5
622.743	295.5
622.95	299.5
623.157	286.5
623.364	291.5
623.571	284.5
623.778	291.5
623.985	277.5
624.192	289.5
624.399	289.5
624.606	279.5
624.812	269.5
625.019	279.5
625.226	271.5
625.433	280.5
625.639	271.5
625.846	256.5
626.053	264.5
626.259	247.5
626.466	243.5
626.673	266.5
626.879	265.5
627.086	263.5
627.293	269.5
627.499	277.5
627.706	278.5
627.912	264.5
628.119	259.5
628.325	264.5
628.532	254.5
628.738	259.5
628.945	240.5
629.151	251.5
629.357	245.5
629.564	262.5
629.77	250.5
629.976	247.5
630.183	247.5
630.389	231.5
630.595	247.5
630.802	255.5
631.008	242.5
631.214	241.5
631.42	263.5
631.627	241.5
631.833	243.5
632.039	247.5
632.245	252.5
632.451	236.5
632.657	256.5
632.863	245.5
633.069	239.5
633.275	220.5
633.481	236.5
633.688	213.5
633.893	226.5
634.099	236.5
634.305	235.5
634.511	228.5
634.717	236.5
634.923	225.5
635.129	217.5
635.335	214.5
635.541	227.5
635.747	229.5
635.952	225.5
636.158	228.5
636.364	230.5
636.57	230.5
636.775	236.5
636.981	210.5
637.187	234.5
637.392	211.5
637.598	226.5
637.804	242.5
638.009	235.5
638.215	220.5
638.421	215.5
638.626	217.5
638.832	209.5
639.037	233.5
639.243	229.5
639.448	223.5
639.654	228.5
639.859	212.5
640.065	205.5
640.27	222.5
640.475	214.5
640.681	201.5
640.886	214.5
641.091	213.5
641.297	199.5
641.502	213.5
641.707	197.5
641.913	205.5
642.118	201.5
642.323	212.5
642.528	201.5
642.733	195.5
642.939	212.5
643.144	207.5
643.349	210.5
643.554	206.5
643.759	203.5
643.964	201.5
644.169	199.5
644.374	193.5
644.579	205.5
644.784	191.5
644.989	194.5
645.194	189.5
645.399	205.5
645.604	191.5
645.809	203.5
646.014	208.5
646.219	188.5
646.423	209.5
646.628	216.5
646.833	196.5
647.038	209.5
647.243	214.5
647.447	196.5
647.652	206.5
647.857	216.5
648.062	201.5
648.266	216.5
648.471	224.5
648.676	215.5
648.88	226.5
649.085	212.5
649.289	210.5
649.494	196.5
649.698	204.5
649.903	218.5
650.107	204.5
650.312	211.5
650.516	180.5
650.721	182.5
650.925	188.5
651.13	196.5
651.334	175.5
651.539	190.5
651.743	181.5
651.947	167.5
652.152	180.5
652.356	165.5
652.56	177.5
652.764	177.5
652.969	162.5
653.173	177.5
653.377	161.5
653.581	152.5
653.785	163.5
653.99	159.5
654.194	157.5
654.398	163.5
654.602	161.5
654.806	149.5
655.01	159.5
655.214	149.5
655.418	131.5
655.622	145.5
655.826	169.5
656.03	155.5
656.234	150.5
656.438	139.5
656.642	137.5
656.846	135.5
657.049	151.5
657.253	137.5
657.457	123.5
657.661	120.5
657.865	111.5
658.068	123.5
658.272	122.5
658.476	122.5
658.68	98.5
658.883	113.5
659.087	109.5
659.291	109.5
659.494	98.5
659.698	102.5
659.901	108.5
660.105	101.5
660.309	95.5
660.512	95.5
660.716	104.5
660.919	89.5
661.123	107.5
661.326	105.5
661.53	90.5
661.733	95.5
661.936	96.5
662.14	83.5
662.343	90.5
662.546	87.5
662.75	89.5
662.953	65.5
663.156	88.5
663.36	90.5
663.563	77.5
663.766	100.5
663.969	74.5
664.173	90.5
664.376	79.5
664.579	89.5
664.782	90.5
664.985	78.5
665.188	87.5
665.391	84.5
665.594	83.5
665.797	85.5
666	80.5
666.203	82.5
666.406	88.5
666.609	91.5
666.812	98.5
667.015	88.5
667.218	81.5
667.421	73.5
667.624	69.5
667.827	73.5
668.03	79.5
668.232	76.5
668.435	76.5
668.638	76.5
668.841	105.5
669.043	71.5
669.246	96.5
669.449	73.5
669.651	95.5
669.854	89.5
670.057	84.5
670.259	85.5
670.462	86.5
670.665	87.5
670.867	84.5
671.07	78.5
671.272	89.5
671.475	73.5
671.677	67.5
671.88	80.5
672.082	84.5
672.284	71.5
672.487	95.5
672.689	73.5
672.892	83.5
