Data from NiCl2@0.25M.TitratingCurve.Agarose3%dH2O.NegLispCup.LampEnergy10.LIBS07252019_HRD10591_18-22-41-572.txt Node
Date: Thu Jul 25 18:22:41 EDT 2019
User: cochatt
Spectrometer: HR+D1059
Trigger mode: 1
Integration Time (sec): 1.000000E-1
Scans to average: 1
Electric dark correction enabled: true
Nonlinearity correction enabled: false
Boxcar width: 0
XAxis mode: Wavelengths
Number of Pixels in Spectrum: 2048
>>>>>Begin Spectral Data<<<<<
223.165	-12.5
223.4	-12.5
223.635	-12.5
223.869	-16.5
224.104	-25.5
224.338	-7.5
224.573	-15.5
224.808	-20.5
225.042	-19.5
225.277	3.5
225.511	1.5
225.746	7.5
225.98	1.5
226.215	15.5
226.449	4.5
226.683	22.5
226.918	31.5
227.152	29.5
227.387	38.5
227.621	36.5
227.856	52.5
228.09	49.5
228.324	48.5
228.559	45.5
228.793	66.5
229.027	106.5
229.262	120.5
229.496	131.5
229.73	128.5
229.964	142.5
230.199	140.5
230.433	147.5
230.667	148.5
230.901	151.5
231.136	136.5
231.37	141.5
231.604	131.5
231.838	140.5
232.072	162.5
232.306	164.5
232.541	161.5
232.775	166.5
233.009	180.5
233.243	156.5
233.477	148.5
233.711	154.5
233.945	162.5
234.179	145.5
234.413	156.5
234.647	152.5
234.881	160.5
235.115	160.5
235.349	163.5
235.583	179.5
235.817	174.5
236.051	167.5
236.285	164.5
236.519	176.5
236.753	172.5
236.987	164.5
237.221	174.5
237.455	189.5
237.689	185.5
237.922	168.5
238.156	178.5
238.39	180.5
238.624	181.5
238.858	184.5
239.091	167.5
239.325	190.5
239.559	187.5
239.793	195.5
240.027	200.5
240.26	169.5
240.494	186.5
240.728	205.5
240.961	197.5
241.195	189.5
241.429	205.5
241.662	203.5
241.896	197.5
242.13	212.5
242.363	204.5
242.597	197.5
242.83	216.5
243.064	198.5
243.298	207.5
243.531	223.5
243.765	218.5
243.998	222.5
244.232	225.5
244.465	212.5
244.699	226.5
244.932	224.5
245.166	263.5
245.399	232.5
245.633	242.5
245.866	262.5
246.099	244.5
246.333	264.5
246.566	247.5
246.8	247.5
247.033	252.5
247.266	236.5
247.5	248.5
247.733	249.5
247.966	246.5
248.2	254.5
248.433	273.5
248.666	243.5
248.899	261.5
249.133	267.5
249.366	267.5
249.599	261.5
249.832	270.5
250.066	273.5
250.299	292.5
250.532	295.5
250.765	263.5
250.998	269.5
251.231	281.5
251.465	283.5
251.698	304.5
251.931	289.5
252.164	297.5
252.397	304.5
252.63	299.5
252.863	288.5
253.096	290.5
253.329	296.5
253.562	313.5
253.795	310.5
254.028	330.5
254.261	312.5
254.494	310.5
254.727	305.5
254.96	299.5
255.193	322.5
255.426	345.5
255.659	329.5
255.892	318.5
256.124	311.5
256.357	314.5
256.59	309.5
256.823	321.5
257.056	322.5
257.289	330.5
257.521	348.5
257.754	335.5
257.987	331.5
258.22	348.5
258.452	322.5
258.685	326.5
258.918	339.5
259.151	356.5
259.383	346.5
259.616	336.5
259.849	335.5
260.081	353.5
260.314	351.5
260.547	352.5
260.779	355.5
261.012	359.5
261.244	356.5
261.477	361.5
261.71	373.5
261.942	360.5
262.175	360.5
262.407	353.5
262.64	372.5
262.872	368.5
263.105	375.5
263.337	375.5
263.57	365.5
263.802	364.5
264.035	347.5
264.267	383.5
264.499	368.5
264.732	386.5
264.964	387.5
265.197	376.5
265.429	363.5
265.661	386.5
265.894	381.5
266.126	387.5
266.358	409.5
266.591	394.5
266.823	406.5
267.055	415.5
267.287	407.5
267.52	394.5
267.752	407.5
267.984	392.5
268.216	405.5
268.448	415.5
268.681	418.5
268.913	409.5
269.145	411.5
269.377	420.5
269.609	410.5
269.841	414.5
270.073	416.5
270.306	406.5
270.538	422.5
270.77	412.5
271.002	413.5
271.234	420.5
271.466	422.5
271.698	447.5
271.93	455.5
272.162	429.5
272.394	467.5
272.626	448.5
272.858	442.5
273.09	447.5
273.322	456.5
273.553	447.5
273.785	458.5
274.017	442.5
274.249	483.5
274.481	448.5
274.713	449.5
274.945	436.5
275.176	467.5
275.408	469.5
275.64	484.5
275.872	460.5
276.104	474.5
276.335	449.5
276.567	454.5
276.799	460.5
277.031	472.5
277.262	476.5
277.494	472.5
277.726	478.5
277.957	483.5
278.189	501.5
278.421	484.5
278.652	487.5
278.884	504.5
279.115	493.5
279.347	496.5
279.579	472.5
279.81	477.5
280.042	478.5
280.273	499.5
280.505	524.5
280.736	506.5
280.968	508.5
281.199	496.5
281.431	521.5
281.662	538.5
281.894	525.5
282.125	518.5
282.356	534.5
282.588	549.5
282.819	541.5
283.051	541.5
283.282	530.5
283.513	540.5
283.745	531.5
283.976	551.5
284.207	517.5
284.439	550.5
284.67	555.5
284.901	540.5
285.132	546.5
285.364	565.5
285.595	544.5
285.826	571.5
286.057	551.5
286.288	547.5
286.52	570.5
286.751	564.5
286.982	564.5
287.213	576.5
287.444	553.5
287.675	557.5
287.906	579.5
288.138	572.5
288.369	576.5
288.6	578.5
288.831	592.5
289.062	564.5
289.293	566.5
289.524	558.5
289.755	589.5
289.986	580.5
290.217	596.5
290.448	597.5
290.679	602.5
290.91	588.5
291.141	586.5
291.371	591.5
291.602	612.5
291.833	609.5
292.064	575.5
292.295	570.5
292.526	589.5
292.757	590.5
292.987	579.5
293.218	583.5
293.449	579.5
293.68	610.5
293.91	599.5
294.141	602.5
294.372	605.5
294.603	593.5
294.833	600.5
295.064	606.5
295.295	597.5
295.525	596.5
295.756	607.5
295.987	604.5
296.217	609.5
296.448	605.5
296.679	606.5
296.909	598.5
297.14	622.5
297.37	645.5
297.601	636.5
297.831	656.5
298.062	641.5
298.292	633.5
298.523	674.5
298.753	670.5
298.984	643.5
299.214	667.5
299.445	658.5
299.675	643.5
299.905	642.5
300.136	651.5
300.366	658.5
300.597	690.5
300.827	650.5
301.057	652.5
301.288	677.5
301.518	677.5
301.748	704.5
301.979	679.5
302.209	690.5
302.439	688.5
302.669	680.5
302.9	690.5
303.13	645.5
303.36	665.5
303.59	670.5
303.82	677.5
304.051	682.5
304.281	685.5
304.511	699.5
304.741	674.5
304.971	681.5
305.201	677.5
305.431	682.5
305.661	697.5
305.891	677.5
306.121	670.5
306.352	657.5
306.582	671.5
306.812	650.5
307.042	680.5
307.272	670.5
307.502	668.5
307.731	663.5
307.961	670.5
308.191	638.5
308.421	661.5
308.651	654.5
308.881	672.5
309.111	678.5
309.341	680.5
309.571	679.5
309.8	673.5
310.03	706.5
310.26	703.5
310.49	658.5
310.72	678.5
310.949	677.5
311.179	676.5
311.409	666.5
311.639	684.5
311.868	694.5
312.098	692.5
312.328	696.5
312.557	692.5
312.787	677.5
313.017	692.5
313.246	712.5
313.476	734.5
313.706	724.5
313.935	725.5
314.165	728.5
314.394	730.5
314.624	725.5
314.853	718.5
315.083	719.5
315.312	732.5
315.542	709.5
315.771	713.5
316.001	710.5
316.23	722.5
316.46	712.5
316.689	702.5
316.919	705.5
317.148	710.5
317.377	683.5
317.607	696.5
317.836	704.5
318.065	690.5
318.295	690.5
318.524	714.5
318.753	686.5
318.983	687.5
319.212	688.5
319.441	696.5
319.67	695.5
319.9	721.5
320.129	709.5
320.358	735.5
320.587	713.5
320.816	692.5
321.046	698.5
321.275	698.5
321.504	713.5
321.733	714.5
321.962	726.5
322.191	715.5
322.42	728.5
322.649	726.5
322.878	726.5
323.108	708.5
323.337	736.5
323.566	746.5
323.795	727.5
324.024	745.5
324.253	729.5
324.482	760.5
324.71	742.5
324.939	749.5
325.168	759.5
325.397	740.5
325.626	764.5
325.855	774.5
326.084	771.5
326.313	778.5
326.542	783.5
326.77	780.5
326.999	777.5
327.228	762.5
327.457	759.5
327.686	760.5
327.914	776.5
328.143	796.5
328.372	790.5
328.6	781.5
328.829	780.5
329.058	812.5
329.287	769.5
329.515	779.5
329.744	780.5
329.972	780.5
330.201	789.5
330.43	820.5
330.658	811.5
330.887	818.5
331.115	836.5
331.344	834.5
331.572	844.5
331.801	831.5
332.03	841.5
332.258	870.5
332.486	928.5
332.715	907.5
332.943	957.5
333.172	994.5
333.4	1008.5
333.629	1069.5
333.857	1040.5
334.085	1032.5
334.314	1043.5
334.542	1008.5
334.771	1036.5
334.999	1003.5
335.227	982.5
335.455	989.5
335.684	988.5
335.912	971.5
336.14	980.5
336.369	939.5
336.597	952.5
336.825	948.5
337.053	958.5
337.281	945.5
337.51	927.5
337.738	901.5
337.966	897.5
338.194	881.5
338.422	897.5
338.65	851.5
338.878	859.5
339.106	836.5
339.334	888.5
339.562	901.5
339.79	853.5
340.018	836.5
340.246	835.5
340.474	839.5
340.702	806.5
340.93	847.5
341.158	855.5
341.386	875.5
341.614	887.5
341.842	859.5
342.07	804.5
342.298	826.5
342.526	820.5
342.754	836.5
342.981	838.5
343.209	841.5
343.437	908.5
343.665	941.5
343.893	990.5
344.12	1024.5
344.348	977.5
344.576	918.5
344.804	925.5
345.031	890.5
345.259	862.5
345.487	851.5
345.714	856.5
345.942	867.5
346.17	866.5
346.397	850.5
346.625	792.5
346.853	791.5
347.08	782.5
347.308	795.5
347.535	794.5
347.763	762.5
347.99	794.5
348.218	797.5
348.445	804.5
348.673	805.5
348.9	797.5
349.128	780.5
349.355	794.5
349.583	818.5
349.81	779.5
350.037	763.5
350.265	783.5
350.492	768.5
350.72	774.5
350.947	787.5
351.174	808.5
351.402	805.5
351.629	785.5
351.856	782.5
352.083	775.5
352.311	786.5
352.538	826.5
352.765	814.5
352.992	782.5
353.22	769.5
353.447	761.5
353.674	761.5
353.901	757.5
354.128	767.5
354.355	771.5
354.583	763.5
354.81	754.5
355.037	796.5
355.264	774.5
355.491	771.5
355.718	775.5
355.945	767.5
356.172	770.5
356.399	779.5
356.626	792.5
356.853	799.5
357.08	786.5
357.307	764.5
357.534	768.5
357.761	781.5
357.988	757.5
358.215	751.5
358.441	777.5
358.668	763.5
358.895	786.5
359.122	771.5
359.349	753.5
359.576	769.5
359.802	780.5
360.029	793.5
360.256	789.5
360.483	773.5
360.709	757.5
360.936	779.5
361.163	778.5
361.39	758.5
361.616	777.5
361.843	784.5
362.07	830.5
362.296	827.5
362.523	764.5
362.749	789.5
362.976	758.5
363.203	768.5
363.429	739.5
363.656	772.5
363.882	755.5
364.109	774.5
364.335	775.5
364.562	747.5
364.788	785.5
365.015	788.5
365.241	754.5
365.468	760.5
365.694	766.5
365.92	774.5
366.147	771.5
366.373	762.5
366.599	776.5
366.826	752.5
367.052	766.5
367.278	767.5
367.505	788.5
367.731	790.5
367.957	789.5
368.184	771.5
368.41	781.5
368.636	788.5
368.862	804.5
369.089	786.5
369.315	802.5
369.541	778.5
369.767	801.5
369.993	811.5
370.219	823.5
370.445	792.5
370.672	818.5
370.898	813.5
371.124	828.5
371.35	858.5
371.576	827.5
371.802	822.5
372.028	858.5
372.254	823.5
372.48	866.5
372.706	862.5
372.932	874.5
373.158	881.5
373.384	869.5
373.61	840.5
373.835	863.5
374.061	854.5
374.287	848.5
374.513	853.5
374.739	884.5
374.965	909.5
375.191	921.5
375.416	922.5
375.642	890.5
375.868	875.5
376.094	876.5
376.319	864.5
376.545	862.5
376.771	845.5
376.997	842.5
377.222	833.5
377.448	846.5
377.674	856.5
377.899	825.5
378.125	831.5
378.35	833.5
378.576	846.5
378.802	847.5
379.027	832.5
379.253	814.5
379.478	826.5
379.704	843.5
379.929	820.5
380.155	820.5
380.38	820.5
380.606	813.5
380.831	827.5
381.057	830.5
381.282	813.5
381.507	832.5
381.733	813.5
381.958	842.5
382.184	869.5
382.409	865.5
382.634	892.5
382.86	860.5
383.085	867.5
383.31	873.5
383.535	915.5
383.761	900.5
383.986	926.5
384.211	965.5
384.436	949.5
384.662	966.5
384.887	987.5
385.112	999.5
385.337	1020.5
385.562	1017.5
385.787	1024.5
386.013	1032.5
386.238	1007.5
386.463	1016.5
386.688	1015.5
386.913	1000.5
387.138	960.5
387.363	973.5
387.588	991.5
387.813	1020.5
388.038	1003.5
388.263	1018.5
388.488	1000.5
388.713	979.5
388.938	1020.5
389.163	1000.5
389.387	974.5
389.612	956.5
389.837	965.5
390.062	987.5
390.287	994.5
390.512	1011.5
390.736	995.5
390.961	1006.5
391.186	1029.5
391.411	1079.5
391.636	1065.5
391.86	1120.5
392.085	1159.5
392.31	1108.5
392.534	1128.5
392.759	1094.5
392.984	1094.5
393.208	1052.5
393.433	1094.5
393.658	1078.5
393.882	1097.5
394.107	1068.5
394.331	1069.5
394.556	1076.5
394.78	1096.5
395.005	1062.5
395.229	1097.5
395.454	1103.5
395.678	1114.5
395.903	1112.5
396.127	1137.5
396.352	1110.5
396.576	1072.5
396.801	1071.5
397.025	1112.5
397.249	1128.5
397.474	1140.5
397.698	1166.5
397.922	1165.5
398.147	1151.5
398.371	1168.5
398.595	1212.5
398.82	1254.5
399.044	1352.5
399.268	1483.5
399.492	1672.5
399.717	1844.5
399.941	1882.5
400.165	1712.5
400.389	1587.5
400.613	1486.5
400.837	1319.5
401.062	1349.5
401.286	1335.5
401.51	1290.5
401.734	1284.5
401.958	1260.5
402.182	1294.5
402.406	1304.5
402.63	1325.5
402.854	1351.5
403.078	1373.5
403.302	1374.5
403.526	1420.5
403.75	1422.5
403.974	1472.5
404.198	1439.5
404.422	1454.5
404.645	1430.5
404.869	1410.5
405.093	1435.5
405.317	1387.5
405.541	1400.5
405.765	1379.5
405.988	1386.5
406.212	1404.5
406.436	1400.5
406.66	1420.5
406.883	1439.5
407.107	1485.5
407.331	1570.5
407.555	1641.5
407.778	1644.5
408.002	1606.5
408.226	1524.5
408.449	1506.5
408.673	1492.5
408.896	1418.5
409.12	1377.5
409.344	1444.5
409.567	1398.5
409.791	1410.5
410.014	1408.5
410.238	1389.5
410.461	1392.5
410.685	1391.5
410.908	1367.5
411.132	1355.5
411.355	1350.5
411.578	1346.5
411.802	1316.5
412.025	1305.5
412.249	1368.5
412.472	1320.5
412.695	1325.5
412.919	1286.5
413.142	1307.5
413.365	1274.5
413.589	1289.5
413.812	1250.5
414.035	1252.5
414.258	1260.5
414.482	1237.5
414.705	1275.5
414.928	1257.5
415.151	1282.5
415.374	1291.5
415.597	1242.5
415.821	1252.5
416.044	1245.5
416.267	1232.5
416.49	1227.5
416.713	1244.5
416.936	1229.5
417.159	1258.5
417.382	1227.5
417.605	1218.5
417.828	1222.5
418.051	1257.5
418.274	1237.5
418.497	1228.5
418.72	1292.5
418.943	1268.5
419.166	1334.5
419.389	1444.5
419.611	1408.5
419.834	1340.5
420.057	1342.5
420.28	1300.5
420.503	1229.5
420.726	1262.5
420.948	1254.5
421.171	1237.5
421.394	1255.5
421.617	1201.5
421.839	1241.5
422.062	1251.5
422.285	1230.5
422.507	1273.5
422.73	1248.5
422.953	1278.5
423.175	1259.5
423.398	1287.5
423.621	1280.5
423.843	1302.5
424.066	1310.5
424.288	1299.5
424.511	1302.5
424.733	1283.5
424.956	1259.5
425.178	1251.5
425.401	1256.5
425.623	1287.5
425.846	1249.5
426.068	1202.5
426.291	1212.5
426.513	1188.5
426.735	1170.5
426.958	1177.5
427.18	1114.5
427.402	1160.5
427.625	1132.5
427.847	1164.5
428.069	1112.5
428.292	1103.5
428.514	1118.5
428.736	1088.5
428.958	1112.5
429.181	1074.5
429.403	1065.5
429.625	1080.5
429.847	1100.5
430.069	1092.5
430.292	1083.5
430.514	1096.5
430.736	1083.5
430.958	1093.5
431.18	1096.5
431.402	1096.5
431.624	1074.5
431.846	1129.5
432.068	1119.5
432.29	1147.5
432.512	1093.5
432.734	1117.5
432.956	1113.5
433.178	1132.5
433.4	1089.5
433.622	1083.5
433.844	1129.5
434.066	1125.5
434.287	1139.5
434.509	1159.5
434.731	1205.5
434.953	1231.5
435.175	1248.5
435.397	1235.5
435.618	1164.5
435.84	1144.5
436.062	1143.5
436.284	1092.5
436.505	1088.5
436.727	1106.5
436.949	1118.5
437.17	1119.5
437.392	1093.5
437.614	1066.5
437.835	1058.5
438.057	1056.5
438.278	1056.5
438.5	1057.5
438.721	1048.5
438.943	1080.5
439.165	1045.5
439.386	1068.5
439.608	1081.5
439.829	1087.5
440.05	1077.5
440.272	1129.5
440.493	1101.5
440.715	1133.5
440.936	1128.5
441.158	1149.5
441.379	1180.5
441.6	1235.5
441.822	1258.5
442.043	1212.5
442.264	1231.5
442.486	1215.5
442.707	1192.5
442.928	1215.5
443.149	1186.5
443.371	1221.5
443.592	1232.5
443.813	1221.5
444.034	1230.5
444.255	1294.5
444.476	1356.5
444.698	1389.5
444.919	1454.5
445.14	1547.5
445.361	1417.5
445.582	1279.5
445.803	1216.5
446.024	1154.5
446.245	1137.5
446.466	1147.5
446.687	1137.5
446.908	1118.5
447.129	1080.5
447.35	1077.5
447.571	1081.5
447.792	1052.5
448.013	1046.5
448.234	1038.5
448.455	1036.5
448.675	1006.5
448.896	1023.5
449.117	1018.5
449.338	1008.5
449.559	985.5
449.779	981.5
450	989.5
450.221	995.5
450.442	1015.5
450.662	1014.5
450.883	1052.5
451.104	1029.5
451.324	989.5
451.545	1015.5
451.766	1044.5
451.986	1017.5
452.207	1001.5
452.428	1000.5
452.648	1040.5
452.869	984.5
453.089	971.5
453.31	1017.5
453.53	979.5
453.751	982.5
453.971	957.5
454.192	993.5
454.412	948.5
454.633	958.5
454.853	955.5
455.073	962.5
455.294	950.5
455.514	954.5
455.734	926.5
455.955	917.5
456.175	951.5
456.395	914.5
456.616	925.5
456.836	944.5
457.056	946.5
457.276	928.5
457.497	951.5
457.717	953.5
457.937	990.5
458.157	959.5
458.377	956.5
458.598	1027.5
458.818	1041.5
459.038	1052.5
459.258	1113.5
459.478	1127.5
459.698	1147.5
459.918	1150.5
460.138	1239.5
460.358	1264.5
460.578	1287.5
460.798	1315.5
461.018	1342.5
461.238	1283.5
461.458	1291.5
461.678	1282.5
461.898	1340.5
462.118	1313.5
462.338	1403.5
462.558	1416.5
462.777	1512.5
462.997	1610.5
463.217	1723.5
463.437	1701.5
463.657	1600.5
463.876	1537.5
464.096	1520.5
464.316	1502.5
464.536	1504.5
464.755	1473.5
464.975	1375.5
465.195	1340.5
465.414	1279.5
465.634	1186.5
465.854	1164.5
466.073	1124.5
466.293	1111.5
466.512	1106.5
466.732	1055.5
466.951	1101.5
467.171	1044.5
467.391	1091.5
467.61	1053.5
467.829	1044.5
468.049	1027.5
468.268	1038.5
468.488	1015.5
468.707	1014.5
468.927	1029.5
469.146	989.5
469.365	1036.5
469.585	1040.5
469.804	1050.5
470.023	1058.5
470.243	1086.5
470.462	1113.5
470.681	1088.5
470.901	1103.5
471.12	1089.5
471.339	1058.5
471.558	1030.5
471.777	1034.5
471.997	1042.5
472.216	1015.5
472.435	1038.5
472.654	1008.5
472.873	980.5
473.092	1029.5
473.311	1010.5
473.53	982.5
473.749	1017.5
473.968	992.5
474.187	988.5
474.406	1008.5
474.625	1015.5
474.844	1014.5
475.063	1006.5
475.282	1019.5
475.501	1006.5
475.72	1016.5
475.939	1021.5
476.158	1014.5
476.377	1043.5
476.596	1067.5
476.814	1064.5
477.033	1069.5
477.252	1082.5
477.471	1105.5
477.69	1128.5
477.908	1153.5
478.127	1177.5
478.346	1186.5
478.564	1241.5
478.783	1197.5
479.002	1243.5
479.22	1282.5
479.439	1253.5
479.658	1236.5
479.876	1260.5
480.095	1308.5
480.313	1326.5
480.532	1370.5
480.751	1290.5
480.969	1274.5
481.188	1235.5
481.406	1226.5
481.624	1190.5
481.843	1184.5
482.061	1173.5
482.28	1158.5
482.498	1157.5
482.717	1136.5
482.935	1142.5
483.153	1149.5
483.372	1151.5
483.59	1168.5
483.808	1141.5
484.027	1159.5
484.245	1187.5
484.463	1171.5
484.681	1179.5
484.9	1137.5
485.118	1185.5
485.336	1166.5
485.554	1188.5
485.772	1200.5
485.99	1204.5
486.209	1210.5
486.427	1205.5
486.645	1222.5
486.863	1224.5
487.081	1243.5
487.299	1213.5
487.517	1180.5
487.735	1228.5
487.953	1228.5
488.171	1212.5
488.389	1196.5
488.607	1184.5
488.825	1195.5
489.043	1174.5
489.261	1206.5
489.479	1186.5
489.696	1204.5
489.914	1176.5
490.132	1186.5
490.35	1208.5
490.568	1204.5
490.786	1245.5
491.003	1217.5
491.221	1236.5
491.439	1221.5
491.657	1242.5
491.874	1192.5
492.092	1239.5
492.31	1247.5
492.527	1253.5
492.745	1233.5
492.963	1257.5
493.18	1273.5
493.398	1266.5
493.615	1282.5
493.833	1269.5
494.05	1271.5
494.268	1248.5
494.485	1282.5
494.703	1284.5
494.92	1302.5
495.138	1258.5
495.355	1309.5
495.573	1267.5
495.79	1292.5
496.008	1313.5
496.225	1348.5
496.442	1379.5
496.66	1402.5
496.877	1373.5
497.094	1402.5
497.312	1398.5
497.529	1450.5
497.746	1501.5
497.963	1542.5
498.181	1608.5
498.398	1646.5
498.615	1781.5
498.832	1879.5
499.049	2002.5
499.267	2191.5
499.484	2386.5
499.701	2624.5
499.918	2828.5
500.135	3149.5
500.352	3624.5
500.569	3760.5
500.786	3650.5
501.003	3488.5
501.22	3156.5
501.437	2816.5
501.654	2521.5
501.871	2304.5
502.088	2131.5
502.305	1979.5
502.522	1869.5
502.739	1825.5
502.956	1715.5
503.172	1684.5
503.389	1609.5
503.606	1529.5
503.823	1528.5
504.04	1506.5
504.256	1526.5
504.473	1522.5
504.69	1485.5
504.907	1489.5
505.123	1437.5
505.34	1364.5
505.557	1295.5
505.773	1269.5
505.99	1230.5
506.207	1217.5
506.423	1207.5
506.64	1185.5
506.856	1174.5
507.073	1159.5
507.289	1149.5
507.506	1156.5
507.722	1138.5
507.939	1140.5
508.155	1122.5
508.372	1111.5
508.588	1068.5
508.805	1110.5
509.021	1093.5
509.238	1059.5
509.454	1048.5
509.67	1044.5
509.887	1072.5
510.103	1070.5
510.319	1033.5
510.536	1052.5
510.752	1032.5
510.968	1042.5
511.184	1038.5
511.401	1028.5
511.617	1038.5
511.833	1056.5
512.049	1029.5
512.265	1047.5
512.481	1017.5
512.698	1049.5
512.914	1053.5
513.13	1028.5
513.346	1024.5
513.562	1044.5
513.778	1026.5
513.994	1063.5
514.21	1037.5
514.426	1055.5
514.642	1066.5
514.858	1065.5
515.074	1060.5
515.29	1068.5
515.506	1088.5
515.721	1101.5
515.937	1097.5
516.153	1128.5
516.369	1159.5
516.585	1170.5
516.801	1216.5
517.016	1276.5
517.232	1328.5
517.448	1373.5
517.664	1408.5
517.879	1408.5
518.095	1412.5
518.311	1408.5
518.527	1332.5
518.742	1284.5
518.958	1227.5
519.173	1206.5
519.389	1178.5
519.605	1129.5
519.82	1104.5
520.036	1080.5
520.251	1063.5
520.467	1048.5
520.682	1058.5
520.898	1028.5
521.113	1033.5
521.329	1011.5
521.544	993.5
521.76	1011.5
521.975	974.5
522.19	1010.5
522.406	998.5
522.621	977.5
522.836	960.5
523.052	948.5
523.267	949.5
523.482	967.5
523.698	947.5
523.913	940.5
524.128	971.5
524.343	959.5
524.559	978.5
524.774	925.5
524.989	950.5
525.204	933.5
525.419	932.5
525.634	922.5
525.849	955.5
526.064	942.5
526.28	921.5
526.495	935.5
526.71	926.5
526.925	920.5
527.14	909.5
527.355	935.5
527.57	924.5
527.785	917.5
527.999	905.5
528.214	908.5
528.429	893.5
528.644	914.5
528.859	944.5
529.074	919.5
529.289	928.5
529.503	931.5
529.718	937.5
529.933	922.5
530.148	925.5
530.363	933.5
530.577	920.5
530.792	900.5
531.007	898.5
531.221	906.5
531.436	917.5
531.651	886.5
531.865	910.5
532.08	916.5
532.295	913.5
532.509	910.5
532.724	907.5
532.938	902.5
533.153	933.5
533.367	915.5
533.582	902.5
533.796	924.5
534.011	909.5
534.225	918.5
534.44	882.5
534.654	881.5
534.868	894.5
535.083	882.5
535.297	873.5
535.511	868.5
535.726	892.5
535.94	890.5
536.154	859.5
536.369	839.5
536.583	859.5
536.797	858.5
537.011	866.5
537.225	850.5
537.44	851.5
537.654	877.5
537.868	845.5
538.082	804.5
538.296	836.5
538.51	833.5
538.724	831.5
538.938	846.5
539.153	852.5
539.367	841.5
539.581	828.5
539.795	812.5
540.009	795.5
540.222	809.5
540.436	823.5
540.65	835.5
540.864	831.5
541.078	816.5
541.292	832.5
541.506	826.5
541.72	814.5
541.934	820.5
542.147	843.5
542.361	813.5
542.575	810.5
542.789	807.5
543.002	830.5
543.216	799.5
543.43	820.5
543.644	813.5
543.857	813.5
544.071	801.5
544.285	816.5
544.498	817.5
544.712	802.5
544.925	796.5
545.139	829.5
545.352	836.5
545.566	843.5
545.779	821.5
545.993	830.5
546.206	843.5
546.42	840.5
546.633	824.5
546.847	833.5
547.06	840.5
547.274	846.5
547.487	838.5
547.7	861.5
547.914	866.5
548.127	889.5
548.34	851.5
548.554	873.5
548.767	844.5
548.98	860.5
549.193	856.5
549.407	892.5
549.62	864.5
549.833	861.5
550.046	878.5
550.259	862.5
550.473	844.5
550.686	843.5
550.899	841.5
551.112	853.5
551.325	802.5
551.538	803.5
551.751	835.5
551.964	834.5
552.177	842.5
552.39	866.5
552.603	846.5
552.816	865.5
553.029	885.5
553.242	914.5
553.455	944.5
553.667	920.5
553.88	894.5
554.093	900.5
554.306	876.5
554.519	827.5
554.732	836.5
554.944	828.5
555.157	790.5
555.37	805.5
555.583	794.5
555.795	763.5
556.008	730.5
556.221	756.5
556.433	758.5
556.646	729.5
556.859	708.5
557.071	745.5
557.284	751.5
557.496	728.5
557.709	738.5
557.921	688.5
558.134	716.5
558.346	723.5
558.559	682.5
558.771	713.5
558.984	709.5
559.196	703.5
559.409	708.5
559.621	702.5
559.833	678.5
560.046	680.5
560.258	713.5
560.47	682.5
560.683	700.5
560.895	685.5
561.107	677.5
561.32	693.5
561.532	680.5
561.744	666.5
561.956	714.5
562.168	679.5
562.381	712.5
562.593	689.5
562.805	691.5
563.017	705.5
563.229	697.5
563.441	734.5
563.653	718.5
563.865	722.5
564.077	709.5
564.289	740.5
564.501	721.5
564.713	758.5
564.925	750.5
565.137	760.5
565.349	772.5
565.561	796.5
565.773	842.5
565.985	856.5
566.197	912.5
566.408	968.5
566.62	1065.5
566.832	1081.5
567.044	1125.5
567.255	1128.5
567.467	1147.5
567.679	1201.5
567.891	1265.5
568.102	1293.5
568.314	1244.5
568.526	1127.5
568.737	1040.5
568.949	954.5
569.161	872.5
569.372	846.5
569.584	792.5
569.795	783.5
570.007	745.5
570.218	714.5
570.43	727.5
570.641	711.5
570.853	722.5
571.064	714.5
571.276	718.5
571.487	690.5
571.698	688.5
571.91	645.5
572.121	634.5
572.333	626.5
572.544	614.5
572.755	594.5
572.966	584.5
573.178	594.5
573.389	588.5
573.6	580.5
573.811	589.5
574.023	576.5
574.234	575.5
574.445	577.5
574.656	561.5
574.867	568.5
575.078	548.5
575.289	589.5
575.501	567.5
575.712	548.5
575.923	573.5
576.134	541.5
576.345	558.5
576.556	553.5
576.767	544.5
576.978	524.5
577.188	533.5
577.399	521.5
577.61	544.5
577.821	520.5
578.032	528.5
578.243	508.5
578.454	503.5
578.665	524.5
578.875	515.5
579.086	497.5
579.297	494.5
579.508	514.5
579.718	490.5
579.929	502.5
580.14	496.5
580.35	483.5
580.561	482.5
580.772	490.5
580.982	498.5
581.193	494.5
581.403	494.5
581.614	475.5
581.825	460.5
582.035	464.5
582.246	475.5
582.456	475.5
582.667	452.5
582.877	468.5
583.087	472.5
583.298	448.5
583.508	454.5
583.719	465.5
583.929	452.5
584.139	474.5
584.35	462.5
584.56	462.5
584.77	456.5
584.981	460.5
585.191	458.5
585.401	455.5
585.611	448.5
585.821	452.5
586.032	467.5
586.242	473.5
586.452	466.5
586.662	450.5
586.872	432.5
587.082	461.5
587.292	444.5
587.502	442.5
587.713	457.5
587.923	440.5
588.133	444.5
588.343	440.5
588.553	458.5
588.762	442.5
588.972	471.5
589.182	571.5
589.392	566.5
589.602	491.5
589.812	510.5
590.022	504.5
590.232	444.5
590.441	431.5
590.651	458.5
590.861	452.5
591.071	469.5
591.281	484.5
591.49	464.5
591.7	501.5
591.91	512.5
592.119	500.5
592.329	493.5
592.539	518.5
592.748	542.5
592.958	563.5
593.167	547.5
593.377	560.5
593.587	566.5
593.796	559.5
594.006	558.5
594.215	574.5
594.424	556.5
594.634	539.5
594.843	518.5
595.053	516.5
595.262	513.5
595.472	496.5
595.681	488.5
595.89	448.5
596.1	444.5
596.309	462.5
596.518	464.5
596.727	441.5
596.937	436.5
597.146	422.5
597.355	416.5
597.564	404.5
597.774	409.5
597.983	410.5
598.192	409.5
598.401	401.5
598.61	400.5
598.819	406.5
599.028	382.5
599.237	386.5
599.446	390.5
599.655	401.5
599.864	376.5
600.073	384.5
600.282	378.5
600.491	398.5
600.7	380.5
600.909	392.5
601.118	359.5
601.327	372.5
601.536	386.5
601.745	388.5
601.953	361.5
602.162	378.5
602.371	339.5
602.58	361.5
602.789	381.5
602.997	378.5
603.206	380.5
603.415	368.5
603.623	353.5
603.832	358.5
604.041	341.5
604.249	362.5
604.458	354.5
604.666	363.5
604.875	354.5
605.084	363.5
605.292	347.5
605.501	357.5
605.709	346.5
605.918	351.5
606.126	358.5
606.334	331.5
606.543	363.5
606.751	324.5
606.96	354.5
607.168	327.5
607.376	348.5
607.585	340.5
607.793	331.5
608.001	352.5
608.21	334.5
608.418	329.5
608.626	339.5
608.834	351.5
609.043	337.5
609.251	348.5
609.459	340.5
609.667	331.5
609.875	333.5
610.083	335.5
610.291	329.5
610.499	342.5
610.707	337.5
610.916	309.5
611.124	319.5
611.332	345.5
611.54	327.5
611.748	317.5
611.955	341.5
612.163	329.5
612.371	314.5
612.579	332.5
612.787	330.5
612.995	309.5
613.203	325.5
613.411	326.5
613.618	327.5
613.826	324.5
614.034	318.5
614.242	318.5
614.449	325.5
614.657	317.5
614.865	305.5
615.072	335.5
615.28	327.5
615.488	331.5
615.695	305.5
615.903	308.5
616.111	295.5
616.318	322.5
616.526	321.5
616.733	325.5
616.941	300.5
617.148	324.5
617.356	297.5
617.563	329.5
617.771	311.5
617.978	298.5
618.185	302.5
618.393	317.5
618.6	313.5
618.807	322.5
619.015	299.5
619.222	294.5
619.429	292.5
619.637	322.5
619.844	304.5
620.051	299.5
620.258	329.5
620.466	301.5
620.673	286.5
620.88	304.5
621.087	276.5
621.294	303.5
621.501	298.5
621.708	294.5
621.915	288.5
622.122	302.5
622.329	292.5
622.536	300.5
622.743	306.5
622.95	284.5
623.157	289.5
623.364	291.5
623.571	292.5
623.778	274.5
623.985	293.5
624.192	279.5
624.399	282.5
624.606	292.5
624.812	277.5
625.019	264.5
625.226	294.5
625.433	288.5
625.639	271.5
625.846	280.5
626.053	253.5
626.259	274.5
626.466	280.5
626.673	275.5
626.879	290.5
627.086	268.5
627.293	277.5
627.499	294.5
627.706	267.5
627.912	282.5
628.119	260.5
628.325	278.5
628.532	283.5
628.738	280.5
628.945	247.5
629.151	274.5
629.357	240.5
629.564	262.5
629.77	273.5
629.976	260.5
630.183	266.5
630.389	256.5
630.595	251.5
630.802	257.5
631.008	244.5
631.214	261.5
631.42	254.5
631.627	235.5
631.833	225.5
632.039	228.5
632.245	242.5
632.451	249.5
632.657	226.5
632.863	224.5
633.069	227.5
633.275	234.5
633.481	241.5
633.688	239.5
633.893	249.5
634.099	243.5
634.305	258.5
634.511	234.5
634.717	253.5
634.923	228.5
635.129	236.5
635.335	259.5
635.541	231.5
635.747	245.5
635.952	244.5
636.158	228.5
636.364	224.5
636.57	223.5
636.775	224.5
636.981	233.5
637.187	221.5
637.392	211.5
637.598	233.5
637.804	235.5
638.009	234.5
638.215	233.5
638.421	241.5
638.626	227.5
638.832	210.5
639.037	232.5
639.243	222.5
639.448	224.5
639.654	216.5
639.859	218.5
640.065	228.5
640.27	241.5
640.475	229.5
640.681	218.5
640.886	235.5
641.091	217.5
641.297	242.5
641.502	208.5
641.707	225.5
641.913	226.5
642.118	196.5
642.323	205.5
642.528	217.5
642.733	208.5
642.939	231.5
643.144	212.5
643.349	215.5
643.554	197.5
643.759	206.5
643.964	204.5
644.169	221.5
644.374	205.5
644.579	201.5
644.784	214.5
644.989	217.5
645.194	209.5
645.399	195.5
645.604	214.5
645.809	206.5
646.014	214.5
646.219	206.5
646.423	208.5
646.628	205.5
646.833	203.5
647.038	207.5
647.243	199.5
647.447	217.5
647.652	217.5
647.857	212.5
648.062	215.5
648.266	226.5
648.471	224.5
648.676	220.5
648.88	206.5
649.085	236.5
649.289	221.5
649.494	217.5
649.698	217.5
649.903	200.5
650.107	200.5
650.312	218.5
650.516	192.5
650.721	203.5
650.925	186.5
651.13	186.5
651.334	179.5
651.539	196.5
651.743	194.5
651.947	189.5
652.152	194.5
652.356	188.5
652.56	186.5
652.764	170.5
652.969	176.5
653.173	165.5
653.377	170.5
653.581	169.5
653.785	179.5
653.99	154.5
654.194	168.5
654.398	160.5
654.602	153.5
654.806	161.5
655.01	169.5
655.214	163.5
655.418	138.5
655.622	167.5
655.826	159.5
656.03	148.5
656.234	143.5
656.438	137.5
656.642	157.5
656.846	165.5
657.049	142.5
657.253	146.5
657.457	130.5
657.661	156.5
657.865	115.5
658.068	120.5
658.272	115.5
658.476	124.5
658.68	125.5
658.883	112.5
659.087	123.5
659.291	110.5
659.494	101.5
659.698	108.5
659.901	116.5
660.105	109.5
660.309	98.5
660.512	98.5
660.716	92.5
660.919	78.5
661.123	103.5
661.326	101.5
661.53	99.5
661.733	99.5
661.936	86.5
662.14	93.5
662.343	71.5
662.546	81.5
662.75	83.5
662.953	92.5
663.156	81.5
663.36	86.5
663.563	88.5
663.766	87.5
663.969	75.5
664.173	81.5
664.376	77.5
664.579	93.5
664.782	82.5
664.985	93.5
665.188	91.5
665.391	95.5
665.594	80.5
665.797	87.5
666	77.5
666.203	93.5
666.406	83.5
666.609	77.5
666.812	68.5
667.015	69.5
667.218	84.5
667.421	89.5
667.624	76.5
667.827	76.5
668.03	76.5
668.232	80.5
668.435	85.5
668.638	78.5
668.841	77.5
669.043	81.5
669.246	74.5
669.449	84.5
669.651	85.5
669.854	85.5
670.057	81.5
670.259	90.5
670.462	85.5
670.665	76.5
670.867	86.5
671.07	69.5
671.272	79.5
671.475	74.5
671.677	74.5
671.88	83.5
672.082	84.5
672.284	71.5
672.487	72.5
672.689	75.5
672.892	82.5
