Data from NiCl2@0.125M.TitratingCurve.Agarose3%dH2O.NegLispCup.LampEnergy10.LIBS07252019_HRD10591_18-28-01-574.txt Node
Date: Thu Jul 25 18:28:01 EDT 2019
User: cochatt
Spectrometer: HR+D1059
Trigger mode: 1
Integration Time (sec): 1.000000E-1
Scans to average: 1
Electric dark correction enabled: true
Nonlinearity correction enabled: false
Boxcar width: 0
XAxis mode: Wavelengths
Number of Pixels in Spectrum: 2048
>>>>>Begin Spectral Data<<<<<
223.165	-23.94
223.4	-23.94
223.635	-23.94
223.869	-21.94
224.104	-9.94
224.338	-19.94
224.573	-16.94
224.808	-8.94
225.042	-2.94
225.277	-9.94
225.511	-3.94
225.746	12.06
225.98	8.06
226.215	22.06
226.449	7.06
226.683	11.06
226.918	22.06
227.152	36.06
227.387	47.06
227.621	40.06
227.856	44.06
228.09	50.06
228.324	46.06
228.559	65.06
228.793	65.06
229.027	105.06
229.262	117.06
229.496	119.06
229.73	118.06
229.964	129.06
230.199	126.06
230.433	157.06
230.667	154.06
230.901	145.06
231.136	143.06
231.37	155.06
231.604	143.06
231.838	156.06
232.072	148.06
232.306	170.06
232.541	177.06
232.775	161.06
233.009	164.06
233.243	161.06
233.477	153.06
233.711	163.06
233.945	161.06
234.179	168.06
234.413	175.06
234.647	155.06
234.881	170.06
235.115	166.06
235.349	158.06
235.583	174.06
235.817	170.06
236.051	158.06
236.285	170.06
236.519	184.06
236.753	168.06
236.987	163.06
237.221	179.06
237.455	175.06
237.689	181.06
237.922	185.06
238.156	191.06
238.39	186.06
238.624	173.06
238.858	191.06
239.091	189.06
239.325	183.06
239.559	190.06
239.793	210.06
240.027	194.06
240.26	197.06
240.494	200.06
240.728	201.06
240.961	194.06
241.195	197.06
241.429	203.06
241.662	206.06
241.896	203.06
242.13	202.06
242.363	213.06
242.597	217.06
242.83	217.06
243.064	201.06
243.298	218.06
243.531	215.06
243.765	215.06
243.998	225.06
244.232	215.06
244.465	221.06
244.699	220.06
244.932	210.06
245.166	234.06
245.399	233.06
245.633	225.06
245.866	271.06
246.099	253.06
246.333	253.06
246.566	263.06
246.8	258.06
247.033	247.06
247.266	266.06
247.5	252.06
247.733	243.06
247.966	269.06
248.2	265.06
248.433	255.06
248.666	259.06
248.899	254.06
249.133	249.06
249.366	243.06
249.599	298.06
249.832	283.06
250.066	263.06
250.299	275.06
250.532	266.06
250.765	294.06
250.998	279.06
251.231	267.06
251.465	281.06
251.698	309.06
251.931	290.06
252.164	277.06
252.397	297.06
252.63	303.06
252.863	300.06
253.096	301.06
253.329	302.06
253.562	312.06
253.795	302.06
254.028	283.06
254.261	308.06
254.494	321.06
254.727	310.06
254.96	314.06
255.193	308.06
255.426	299.06
255.659	311.06
255.892	326.06
256.124	323.06
256.357	332.06
256.59	326.06
256.823	333.06
257.056	322.06
257.289	312.06
257.521	339.06
257.754	329.06
257.987	347.06
258.22	329.06
258.452	337.06
258.685	332.06
258.918	330.06
259.151	346.06
259.383	355.06
259.616	346.06
259.849	357.06
260.081	357.06
260.314	350.06
260.547	354.06
260.779	338.06
261.012	349.06
261.244	343.06
261.477	354.06
261.71	366.06
261.942	361.06
262.175	367.06
262.407	380.06
262.64	371.06
262.872	371.06
263.105	372.06
263.337	377.06
263.57	378.06
263.802	381.06
264.035	377.06
264.267	382.06
264.499	389.06
264.732	374.06
264.964	381.06
265.197	365.06
265.429	387.06
265.661	393.06
265.894	397.06
266.126	400.06
266.358	396.06
266.591	385.06
266.823	394.06
267.055	377.06
267.287	407.06
267.52	408.06
267.752	399.06
267.984	414.06
268.216	421.06
268.448	402.06
268.681	415.06
268.913	403.06
269.145	416.06
269.377	420.06
269.609	419.06
269.841	397.06
270.073	405.06
270.306	421.06
270.538	421.06
270.77	415.06
271.002	426.06
271.234	430.06
271.466	408.06
271.698	454.06
271.93	443.06
272.162	430.06
272.394	428.06
272.626	442.06
272.858	447.06
273.09	450.06
273.322	438.06
273.553	445.06
273.785	453.06
274.017	425.06
274.249	449.06
274.481	447.06
274.713	445.06
274.945	477.06
275.176	468.06
275.408	444.06
275.64	460.06
275.872	484.06
276.104	489.06
276.335	474.06
276.567	457.06
276.799	467.06
277.031	485.06
277.262	482.06
277.494	484.06
277.726	484.06
277.957	488.06
278.189	497.06
278.421	478.06
278.652	485.06
278.884	493.06
279.115	510.06
279.347	495.06
279.579	520.06
279.81	502.06
280.042	493.06
280.273	527.06
280.505	508.06
280.736	503.06
280.968	519.06
281.199	530.06
281.431	515.06
281.662	522.06
281.894	513.06
282.125	502.06
282.356	530.06
282.588	513.06
282.819	533.06
283.051	539.06
283.282	563.06
283.513	528.06
283.745	540.06
283.976	536.06
284.207	558.06
284.439	543.06
284.67	553.06
284.901	531.06
285.132	540.06
285.364	563.06
285.595	539.06
285.826	550.06
286.057	568.06
286.288	559.06
286.52	552.06
286.751	571.06
286.982	569.06
287.213	558.06
287.444	589.06
287.675	557.06
287.906	582.06
288.138	574.06
288.369	580.06
288.6	585.06
288.831	580.06
289.062	571.06
289.293	569.06
289.524	609.06
289.755	592.06
289.986	563.06
290.217	595.06
290.448	553.06
290.679	582.06
290.91	573.06
291.141	603.06
291.371	586.06
291.602	590.06
291.833	599.06
292.064	615.06
292.295	589.06
292.526	615.06
292.757	587.06
292.987	590.06
293.218	599.06
293.449	583.06
293.68	574.06
293.91	598.06
294.141	590.06
294.372	591.06
294.603	602.06
294.833	608.06
295.064	601.06
295.295	615.06
295.525	611.06
295.756	629.06
295.987	603.06
296.217	603.06
296.448	603.06
296.679	620.06
296.909	619.06
297.14	636.06
297.37	629.06
297.601	635.06
297.831	634.06
298.062	642.06
298.292	641.06
298.523	689.06
298.753	644.06
298.984	637.06
299.214	650.06
299.445	653.06
299.675	660.06
299.905	657.06
300.136	639.06
300.366	632.06
300.597	646.06
300.827	665.06
301.057	677.06
301.288	700.06
301.518	679.06
301.748	683.06
301.979	674.06
302.209	690.06
302.439	698.06
302.669	652.06
302.9	646.06
303.13	668.06
303.36	657.06
303.59	640.06
303.82	647.06
304.051	678.06
304.281	689.06
304.511	676.06
304.741	683.06
304.971	659.06
305.201	663.06
305.431	669.06
305.661	633.06
305.891	674.06
306.121	685.06
306.352	666.06
306.582	671.06
306.812	655.06
307.042	666.06
307.272	666.06
307.502	649.06
307.731	655.06
307.961	669.06
308.191	661.06
308.421	656.06
308.651	657.06
308.881	634.06
309.111	668.06
309.341	643.06
309.571	659.06
309.8	647.06
310.03	655.06
310.26	656.06
310.49	658.06
310.72	666.06
310.949	667.06
311.179	671.06
311.409	654.06
311.639	663.06
311.868	667.06
312.098	679.06
312.328	700.06
312.557	704.06
312.787	679.06
313.017	700.06
313.246	699.06
313.476	689.06
313.706	702.06
313.935	700.06
314.165	728.06
314.394	725.06
314.624	717.06
314.853	721.06
315.083	714.06
315.312	699.06
315.542	705.06
315.771	730.06
316.001	733.06
316.23	716.06
316.46	695.06
316.689	693.06
316.919	690.06
317.148	722.06
317.377	701.06
317.607	717.06
317.836	683.06
318.065	683.06
318.295	679.06
318.524	708.06
318.753	705.06
318.983	714.06
319.212	717.06
319.441	692.06
319.67	706.06
319.9	717.06
320.129	696.06
320.358	700.06
320.587	698.06
320.816	709.06
321.046	687.06
321.275	697.06
321.504	702.06
321.733	683.06
321.962	729.06
322.191	693.06
322.42	704.06
322.649	715.06
322.878	706.06
323.108	714.06
323.337	742.06
323.566	712.06
323.795	711.06
324.024	726.06
324.253	705.06
324.482	709.06
324.71	714.06
324.939	742.06
325.168	712.06
325.397	735.06
325.626	740.06
325.855	774.06
326.084	757.06
326.313	782.06
326.542	772.06
326.77	788.06
326.999	759.06
327.228	781.06
327.457	765.06
327.686	758.06
327.914	782.06
328.143	764.06
328.372	763.06
328.6	798.06
328.829	769.06
329.058	764.06
329.287	776.06
329.515	773.06
329.744	763.06
329.972	780.06
330.201	786.06
330.43	791.06
330.658	794.06
330.887	817.06
331.115	791.06
331.344	812.06
331.572	822.06
331.801	838.06
332.03	833.06
332.258	878.06
332.486	908.06
332.715	916.06
332.943	952.06
333.172	1019.06
333.4	1065.06
333.629	1057.06
333.857	1062.06
334.085	1074.06
334.314	1021.06
334.542	1007.06
334.771	998.06
334.999	978.06
335.227	1013.06
335.455	979.06
335.684	947.06
335.912	946.06
336.14	902.06
336.369	932.06
336.597	926.06
336.825	925.06
337.053	921.06
337.281	904.06
337.51	890.06
337.738	877.06
337.966	874.06
338.194	865.06
338.422	849.06
338.65	863.06
338.878	855.06
339.106	837.06
339.334	838.06
339.562	830.06
339.79	813.06
340.018	806.06
340.246	817.06
340.474	810.06
340.702	805.06
340.93	807.06
341.158	824.06
341.386	781.06
341.614	817.06
341.842	790.06
342.07	795.06
342.298	797.06
342.526	802.06
342.754	819.06
342.981	806.06
343.209	825.06
343.437	870.06
343.665	936.06
343.893	995.06
344.12	1042.06
344.348	954.06
344.576	912.06
344.804	870.06
345.031	810.06
345.259	822.06
345.487	805.06
345.714	801.06
345.942	786.06
346.17	755.06
346.397	777.06
346.625	762.06
346.853	759.06
347.08	805.06
347.308	775.06
347.535	796.06
347.763	796.06
347.99	753.06
348.218	797.06
348.445	780.06
348.673	761.06
348.9	774.06
349.128	794.06
349.355	769.06
349.583	773.06
349.81	778.06
350.037	762.06
350.265	761.06
350.492	753.06
350.72	779.06
350.947	757.06
351.174	765.06
351.402	731.06
351.629	754.06
351.856	722.06
352.083	745.06
352.311	749.06
352.538	754.06
352.765	762.06
352.992	725.06
353.22	729.06
353.447	743.06
353.674	769.06
353.901	731.06
354.128	722.06
354.355	751.06
354.583	732.06
354.81	738.06
355.037	786.06
355.264	734.06
355.491	756.06
355.718	744.06
355.945	753.06
356.172	747.06
356.399	750.06
356.626	753.06
356.853	749.06
357.08	747.06
357.307	745.06
357.534	748.06
357.761	745.06
357.988	737.06
358.215	738.06
358.441	762.06
358.668	737.06
358.895	752.06
359.122	727.06
359.349	768.06
359.576	771.06
359.802	735.06
360.029	738.06
360.256	741.06
360.483	756.06
360.709	740.06
360.936	762.06
361.163	728.06
361.39	762.06
361.616	767.06
361.843	743.06
362.07	730.06
362.296	731.06
362.523	747.06
362.749	760.06
362.976	773.06
363.203	740.06
363.429	734.06
363.656	734.06
363.882	761.06
364.109	748.06
364.335	734.06
364.562	746.06
364.788	745.06
365.015	739.06
365.241	737.06
365.468	733.06
365.694	753.06
365.92	748.06
366.147	733.06
366.373	741.06
366.599	721.06
366.826	736.06
367.052	716.06
367.278	753.06
367.505	761.06
367.731	757.06
367.957	757.06
368.184	740.06
368.41	774.06
368.636	757.06
368.862	763.06
369.089	762.06
369.315	767.06
369.541	756.06
369.767	788.06
369.993	799.06
370.219	777.06
370.445	790.06
370.672	811.06
370.898	778.06
371.124	799.06
371.35	836.06
371.576	830.06
371.802	812.06
372.028	815.06
372.254	815.06
372.48	828.06
372.706	823.06
372.932	854.06
373.158	842.06
373.384	831.06
373.61	829.06
373.835	822.06
374.061	795.06
374.287	831.06
374.513	838.06
374.739	879.06
374.965	898.06
375.191	919.06
375.416	899.06
375.642	870.06
375.868	858.06
376.094	842.06
376.319	811.06
376.545	829.06
376.771	827.06
376.997	853.06
377.222	843.06
377.448	830.06
377.674	849.06
377.899	821.06
378.125	810.06
378.35	798.06
378.576	809.06
378.802	819.06
379.027	807.06
379.253	798.06
379.478	799.06
379.704	819.06
379.929	805.06
380.155	809.06
380.38	823.06
380.606	818.06
380.831	789.06
381.057	813.06
381.282	781.06
381.507	817.06
381.733	847.06
381.958	854.06
382.184	829.06
382.409	840.06
382.634	874.06
382.86	853.06
383.085	870.06
383.31	894.06
383.535	895.06
383.761	936.06
383.986	923.06
384.211	949.06
384.436	988.06
384.662	1004.06
384.887	982.06
385.112	993.06
385.337	998.06
385.562	973.06
385.787	1020.06
386.013	1028.06
386.238	985.06
386.463	979.06
386.688	996.06
386.913	986.06
387.138	964.06
387.363	990.06
387.588	969.06
387.813	982.06
388.038	955.06
388.263	957.06
388.488	991.06
388.713	976.06
388.938	951.06
389.163	963.06
389.387	967.06
389.612	956.06
389.837	957.06
390.062	952.06
390.287	965.06
390.512	946.06
390.736	970.06
390.961	1004.06
391.186	1012.06
391.411	1041.06
391.636	1091.06
391.86	1097.06
392.085	1159.06
392.31	1150.06
392.534	1101.06
392.759	1070.06
392.984	1065.06
393.208	1045.06
393.433	1066.06
393.658	1047.06
393.882	1062.06
394.107	1073.06
394.331	1063.06
394.556	1060.06
394.78	1058.06
395.005	1095.06
395.229	1080.06
395.454	1085.06
395.678	1105.06
395.903	1131.06
396.127	1101.06
396.352	1054.06
396.576	1065.06
396.801	1028.06
397.025	1068.06
397.249	1067.06
397.474	1114.06
397.698	1110.06
397.922	1094.06
398.147	1112.06
398.371	1118.06
398.595	1153.06
398.82	1221.06
399.044	1336.06
399.268	1441.06
399.492	1736.06
399.717	1980.06
399.941	1917.06
400.165	1693.06
400.389	1487.06
400.613	1369.06
400.837	1291.06
401.062	1277.06
401.286	1257.06
401.51	1241.06
401.734	1251.06
401.958	1256.06
402.182	1288.06
402.406	1293.06
402.63	1322.06
402.854	1313.06
403.078	1367.06
403.302	1397.06
403.526	1445.06
403.75	1435.06
403.974	1503.06
404.198	1487.06
404.422	1478.06
404.645	1480.06
404.869	1412.06
405.093	1421.06
405.317	1383.06
405.541	1395.06
405.765	1362.06
405.988	1357.06
406.212	1379.06
406.436	1368.06
406.66	1369.06
406.883	1411.06
407.107	1533.06
407.331	1583.06
407.555	1641.06
407.778	1637.06
408.002	1572.06
408.226	1501.06
408.449	1507.06
408.673	1475.06
408.896	1421.06
409.12	1414.06
409.344	1450.06
409.567	1413.06
409.791	1438.06
410.014	1395.06
410.238	1426.06
410.461	1376.06
410.685	1396.06
410.908	1353.06
411.132	1331.06
411.355	1324.06
411.578	1301.06
411.802	1283.06
412.025	1322.06
412.249	1337.06
412.472	1304.06
412.695	1283.06
412.919	1270.06
413.142	1280.06
413.365	1253.06
413.589	1250.06
413.812	1255.06
414.035	1224.06
414.258	1224.06
414.482	1259.06
414.705	1269.06
414.928	1281.06
415.151	1269.06
415.374	1260.06
415.597	1267.06
415.821	1205.06
416.044	1232.06
416.267	1204.06
416.49	1195.06
416.713	1206.06
416.936	1220.06
417.159	1217.06
417.382	1233.06
417.605	1209.06
417.828	1240.06
418.051	1246.06
418.274	1263.06
418.497	1208.06
418.72	1265.06
418.943	1246.06
419.166	1339.06
419.389	1422.06
419.611	1415.06
419.834	1321.06
420.057	1268.06
420.28	1240.06
420.503	1234.06
420.726	1239.06
420.948	1231.06
421.171	1233.06
421.394	1226.06
421.617	1204.06
421.839	1206.06
422.062	1242.06
422.285	1219.06
422.507	1255.06
422.73	1238.06
422.953	1271.06
423.175	1283.06
423.398	1327.06
423.621	1278.06
423.843	1295.06
424.066	1334.06
424.288	1345.06
424.511	1329.06
424.733	1294.06
424.956	1269.06
425.178	1279.06
425.401	1240.06
425.623	1239.06
425.846	1157.06
426.068	1161.06
426.291	1174.06
426.513	1160.06
426.735	1157.06
426.958	1166.06
427.18	1093.06
427.402	1104.06
427.625	1106.06
427.847	1101.06
428.069	1089.06
428.292	1117.06
428.514	1085.06
428.736	1084.06
428.958	1085.06
429.181	1085.06
429.403	1059.06
429.625	1058.06
429.847	1053.06
430.069	1073.06
430.292	1068.06
430.514	1041.06
430.736	1062.06
430.958	1091.06
431.18	1111.06
431.402	1075.06
431.624	1076.06
431.846	1095.06
432.068	1094.06
432.29	1121.06
432.512	1101.06
432.734	1084.06
432.956	1110.06
433.178	1099.06
433.4	1081.06
433.622	1085.06
433.844	1085.06
434.066	1111.06
434.287	1113.06
434.509	1148.06
434.731	1181.06
434.953	1239.06
435.175	1236.06
435.397	1179.06
435.618	1177.06
435.84	1143.06
436.062	1105.06
436.284	1084.06
436.505	1060.06
436.727	1059.06
436.949	1107.06
437.17	1065.06
437.392	1040.06
437.614	1049.06
437.835	1035.06
438.057	1037.06
438.278	1030.06
438.5	1042.06
438.721	1038.06
438.943	1060.06
439.165	1046.06
439.386	1037.06
439.608	1081.06
439.829	1137.06
440.05	1079.06
440.272	1119.06
440.493	1087.06
440.715	1097.06
440.936	1120.06
441.158	1159.06
441.379	1199.06
441.6	1271.06
441.822	1272.06
442.043	1211.06
442.264	1213.06
442.486	1182.06
442.707	1220.06
442.928	1230.06
443.149	1246.06
443.371	1200.06
443.592	1192.06
443.813	1216.06
444.034	1220.06
444.255	1290.06
444.476	1349.06
444.698	1427.06
444.919	1477.06
445.14	1555.06
445.361	1365.06
445.582	1232.06
445.803	1213.06
446.024	1179.06
446.245	1137.06
446.466	1134.06
446.687	1090.06
446.908	1121.06
447.129	1069.06
447.35	1042.06
447.571	1078.06
447.792	1021.06
448.013	1037.06
448.234	1019.06
448.455	1000.06
448.675	1007.06
448.896	992.06
449.117	994.06
449.338	979.06
449.559	996.06
449.779	953.06
450	958.06
450.221	972.06
450.442	1001.06
450.662	1009.06
450.883	1029.06
451.104	1058.06
451.324	1027.06
451.545	998.06
451.766	1013.06
451.986	986.06
452.207	1008.06
452.428	978.06
452.648	987.06
452.869	966.06
453.089	975.06
453.31	955.06
453.53	966.06
453.751	934.06
453.971	941.06
454.192	945.06
454.412	921.06
454.633	929.06
454.853	934.06
455.073	930.06
455.294	959.06
455.514	916.06
455.734	906.06
455.955	899.06
456.175	934.06
456.395	895.06
456.616	880.06
456.836	901.06
457.056	905.06
457.276	908.06
457.497	922.06
457.717	920.06
457.937	920.06
458.157	949.06
458.377	964.06
458.598	975.06
458.818	998.06
459.038	1018.06
459.258	1067.06
459.478	1106.06
459.698	1111.06
459.918	1137.06
460.138	1195.06
460.358	1267.06
460.578	1299.06
460.798	1316.06
461.018	1297.06
461.238	1266.06
461.458	1299.06
461.678	1286.06
461.898	1289.06
462.118	1309.06
462.338	1378.06
462.558	1398.06
462.777	1462.06
462.997	1626.06
463.217	1747.06
463.437	1808.06
463.657	1626.06
463.876	1520.06
464.096	1510.06
464.316	1505.06
464.536	1564.06
464.755	1473.06
464.975	1398.06
465.195	1358.06
465.414	1275.06
465.634	1151.06
465.854	1147.06
466.073	1129.06
466.293	1095.06
466.512	1056.06
466.732	1060.06
466.951	1028.06
467.171	1021.06
467.391	1059.06
467.61	1033.06
467.829	1010.06
468.049	1025.06
468.268	990.06
468.488	961.06
468.707	978.06
468.927	969.06
469.146	983.06
469.365	1001.06
469.585	1035.06
469.804	1039.06
470.023	1043.06
470.243	1047.06
470.462	1076.06
470.681	1102.06
470.901	1070.06
471.12	1036.06
471.339	1021.06
471.558	1024.06
471.777	1024.06
471.997	994.06
472.216	979.06
472.435	969.06
472.654	939.06
472.873	941.06
473.092	945.06
473.311	929.06
473.53	942.06
473.749	944.06
473.968	953.06
474.187	926.06
474.406	934.06
474.625	937.06
474.844	958.06
475.063	935.06
475.282	921.06
475.501	953.06
475.72	988.06
475.939	958.06
476.158	974.06
476.377	1011.06
476.596	989.06
476.814	1003.06
477.033	1004.06
477.252	1034.06
477.471	1037.06
477.69	1081.06
477.908	1134.06
478.127	1127.06
478.346	1191.06
478.564	1177.06
478.783	1195.06
479.002	1235.06
479.22	1225.06
479.439	1198.06
479.658	1198.06
479.876	1213.06
480.095	1221.06
480.313	1270.06
480.532	1323.06
480.751	1337.06
480.969	1274.06
481.188	1197.06
481.406	1177.06
481.624	1123.06
481.843	1070.06
482.061	1093.06
482.28	1071.06
482.498	1102.06
482.717	1082.06
482.935	1063.06
483.153	1087.06
483.372	1072.06
483.59	1107.06
483.808	1101.06
484.027	1067.06
484.245	1102.06
484.463	1103.06
484.681	1140.06
484.9	1118.06
485.118	1134.06
485.336	1125.06
485.554	1147.06
485.772	1153.06
485.99	1141.06
486.209	1118.06
486.427	1153.06
486.645	1152.06
486.863	1148.06
487.081	1144.06
487.299	1143.06
487.517	1092.06
487.735	1137.06
487.953	1123.06
488.171	1137.06
488.389	1161.06
488.607	1114.06
488.825	1149.06
489.043	1144.06
489.261	1125.06
489.479	1137.06
489.696	1129.06
489.914	1138.06
490.132	1130.06
490.35	1133.06
490.568	1152.06
490.786	1115.06
491.003	1121.06
491.221	1177.06
491.439	1154.06
491.657	1132.06
491.874	1122.06
492.092	1129.06
492.31	1173.06
492.527	1179.06
492.745	1173.06
492.963	1170.06
493.18	1171.06
493.398	1165.06
493.615	1161.06
493.833	1195.06
494.05	1199.06
494.268	1204.06
494.485	1205.06
494.703	1205.06
494.92	1194.06
495.138	1196.06
495.355	1206.06
495.573	1223.06
495.79	1213.06
496.008	1213.06
496.225	1225.06
496.442	1210.06
496.66	1242.06
496.877	1248.06
497.094	1262.06
497.312	1287.06
497.529	1349.06
497.746	1366.06
497.963	1429.06
498.181	1471.06
498.398	1551.06
498.615	1653.06
498.832	1759.06
499.049	1866.06
499.267	2075.06
499.484	2267.06
499.701	2491.06
499.918	2748.06
500.135	3235.06
500.352	3783.06
500.569	3950.06
500.786	3862.06
501.003	3487.06
501.22	3130.06
501.437	2764.06
501.654	2330.06
501.871	2179.06
502.088	2007.06
502.305	1826.06
502.522	1767.06
502.739	1701.06
502.956	1594.06
503.172	1527.06
503.389	1469.06
503.606	1430.06
503.823	1385.06
504.04	1405.06
504.256	1411.06
504.473	1438.06
504.69	1465.06
504.907	1450.06
505.123	1353.06
505.34	1259.06
505.557	1160.06
505.773	1162.06
505.99	1139.06
506.207	1100.06
506.423	1117.06
506.64	1050.06
506.856	1082.06
507.073	1064.06
507.289	1057.06
507.506	1066.06
507.722	1054.06
507.939	1047.06
508.155	1049.06
508.372	1025.06
508.588	1033.06
508.805	997.06
509.021	996.06
509.238	995.06
509.454	1005.06
509.67	968.06
509.887	986.06
510.103	959.06
510.319	967.06
510.536	963.06
510.752	971.06
510.968	969.06
511.184	942.06
511.401	971.06
511.617	961.06
511.833	945.06
512.049	927.06
512.265	951.06
512.481	979.06
512.698	979.06
512.914	954.06
513.13	960.06
513.346	947.06
513.562	937.06
513.778	971.06
513.994	992.06
514.21	992.06
514.426	960.06
514.642	969.06
514.858	987.06
515.074	974.06
515.29	1005.06
515.506	1015.06
515.721	1043.06
515.937	1034.06
516.153	1038.06
516.369	1112.06
516.585	1113.06
516.801	1151.06
517.016	1186.06
517.232	1252.06
517.448	1333.06
517.664	1405.06
517.879	1390.06
518.095	1381.06
518.311	1379.06
518.527	1254.06
518.742	1204.06
518.958	1160.06
519.173	1126.06
519.389	1090.06
519.605	1110.06
519.82	1058.06
520.036	1036.06
520.251	999.06
520.467	1009.06
520.682	1011.06
520.898	972.06
521.113	970.06
521.329	957.06
521.544	937.06
521.76	924.06
521.975	939.06
522.19	925.06
522.406	909.06
522.621	908.06
522.836	890.06
523.052	899.06
523.267	894.06
523.482	885.06
523.698	899.06
523.913	872.06
524.128	889.06
524.343	903.06
524.559	853.06
524.774	858.06
524.989	868.06
525.204	883.06
525.419	853.06
525.634	857.06
525.849	901.06
526.064	866.06
526.28	891.06
526.495	856.06
526.71	846.06
526.925	866.06
527.14	873.06
527.355	855.06
527.57	875.06
527.785	858.06
527.999	897.06
528.214	859.06
528.429	911.06
528.644	865.06
528.859	869.06
529.074	854.06
529.289	873.06
529.503	864.06
529.718	867.06
529.933	867.06
530.148	887.06
530.363	868.06
530.577	845.06
530.792	850.06
531.007	833.06
531.221	872.06
531.436	858.06
531.651	848.06
531.865	866.06
532.08	897.06
532.295	859.06
532.509	879.06
532.724	845.06
532.938	866.06
533.153	852.06
533.367	847.06
533.582	872.06
533.796	863.06
534.011	843.06
534.225	860.06
534.44	850.06
534.654	877.06
534.868	829.06
535.083	838.06
535.297	835.06
535.511	813.06
535.726	830.06
535.94	842.06
536.154	823.06
536.369	819.06
536.583	826.06
536.797	804.06
537.011	810.06
537.225	801.06
537.44	801.06
537.654	815.06
537.868	805.06
538.082	818.06
538.296	785.06
538.51	802.06
538.724	797.06
538.938	787.06
539.153	788.06
539.367	784.06
539.581	768.06
539.795	783.06
540.009	766.06
540.222	778.06
540.436	791.06
540.65	771.06
540.864	759.06
541.078	769.06
541.292	765.06
541.506	796.06
541.72	776.06
541.934	780.06
542.147	764.06
542.361	774.06
542.575	759.06
542.789	761.06
543.002	776.06
543.216	759.06
543.43	780.06
543.644	724.06
543.857	763.06
544.071	761.06
544.285	784.06
544.498	762.06
544.712	787.06
544.925	801.06
545.139	822.06
545.352	789.06
545.566	807.06
545.779	805.06
545.993	779.06
546.206	797.06
546.42	801.06
546.633	779.06
546.847	806.06
547.06	786.06
547.274	821.06
547.487	794.06
547.7	809.06
547.914	791.06
548.127	810.06
548.34	817.06
548.554	781.06
548.767	795.06
548.98	807.06
549.193	823.06
549.407	819.06
549.62	822.06
549.833	838.06
550.046	814.06
550.259	811.06
550.473	763.06
550.686	779.06
550.899	788.06
551.112	790.06
551.325	762.06
551.538	767.06
551.751	768.06
551.964	761.06
552.177	787.06
552.39	808.06
552.603	834.06
552.816	823.06
553.029	888.06
553.242	883.06
553.455	897.06
553.667	875.06
553.88	899.06
554.093	846.06
554.306	845.06
554.519	812.06
554.732	788.06
554.944	784.06
555.157	788.06
555.37	750.06
555.583	740.06
555.795	718.06
556.008	732.06
556.221	711.06
556.433	695.06
556.646	702.06
556.859	684.06
557.071	686.06
557.284	665.06
557.496	681.06
557.709	683.06
557.921	698.06
558.134	685.06
558.346	671.06
558.559	651.06
558.771	636.06
558.984	666.06
559.196	656.06
559.409	675.06
559.621	659.06
559.833	668.06
560.046	659.06
560.258	656.06
560.47	641.06
560.683	669.06
560.895	632.06
561.107	650.06
561.32	651.06
561.532	643.06
561.744	651.06
561.956	646.06
562.168	639.06
562.381	633.06
562.593	647.06
562.805	659.06
563.017	646.06
563.229	634.06
563.441	656.06
563.653	673.06
563.865	680.06
564.077	688.06
564.289	711.06
564.501	705.06
564.713	694.06
564.925	714.06
565.137	702.06
565.349	728.06
565.561	754.06
565.773	799.06
565.985	781.06
566.197	860.06
566.408	924.06
566.62	1017.06
566.832	1129.06
567.044	1136.06
567.255	1113.06
567.467	1139.06
567.679	1213.06
567.891	1313.06
568.102	1357.06
568.314	1293.06
568.526	1145.06
568.737	1035.06
568.949	921.06
569.161	845.06
569.372	775.06
569.584	729.06
569.795	726.06
570.007	700.06
570.218	685.06
570.43	659.06
570.641	655.06
570.853	662.06
571.064	678.06
571.276	685.06
571.487	654.06
571.698	621.06
571.91	614.06
572.121	601.06
572.333	621.06
572.544	597.06
572.755	589.06
572.966	568.06
573.178	564.06
573.389	553.06
573.6	538.06
573.811	557.06
574.023	522.06
574.234	543.06
574.445	522.06
574.656	564.06
574.867	552.06
575.078	548.06
575.289	543.06
575.501	534.06
575.712	534.06
575.923	520.06
576.134	517.06
576.345	529.06
576.556	514.06
576.767	491.06
576.978	534.06
577.188	505.06
577.399	521.06
577.61	506.06
577.821	507.06
578.032	482.06
578.243	479.06
578.454	502.06
578.665	479.06
578.875	485.06
579.086	486.06
579.297	484.06
579.508	482.06
579.718	475.06
579.929	492.06
580.14	450.06
580.35	470.06
580.561	458.06
580.772	433.06
580.982	477.06
581.193	485.06
581.403	458.06
581.614	447.06
581.825	435.06
582.035	456.06
582.246	423.06
582.456	450.06
582.667	437.06
582.877	453.06
583.087	451.06
583.298	451.06
583.508	456.06
583.719	393.06
583.929	444.06
584.139	444.06
584.35	445.06
584.56	455.06
584.77	453.06
584.981	435.06
585.191	437.06
585.401	420.06
585.611	418.06
585.821	430.06
586.032	429.06
586.242	435.06
586.452	438.06
586.662	420.06
586.872	431.06
587.082	423.06
587.292	431.06
587.502	426.06
587.713	436.06
587.923	444.06
588.133	424.06
588.343	439.06
588.553	439.06
588.762	445.06
588.972	427.06
589.182	435.06
589.392	425.06
589.602	427.06
589.812	437.06
590.022	423.06
590.232	406.06
590.441	445.06
590.651	438.06
590.861	429.06
591.071	451.06
591.281	442.06
591.49	461.06
591.7	456.06
591.91	458.06
592.119	478.06
592.329	494.06
592.539	501.06
592.748	506.06
592.958	517.06
593.167	547.06
593.377	564.06
593.587	562.06
593.796	547.06
594.006	564.06
594.215	581.06
594.424	595.06
594.634	551.06
594.843	542.06
595.053	501.06
595.262	500.06
595.472	469.06
595.681	455.06
595.89	441.06
596.1	436.06
596.309	445.06
596.518	426.06
596.727	430.06
596.937	416.06
597.146	395.06
597.355	400.06
597.564	396.06
597.774	411.06
597.983	398.06
598.192	383.06
598.401	383.06
598.61	378.06
598.819	380.06
599.028	375.06
599.237	372.06
599.446	377.06
599.655	358.06
599.864	377.06
600.073	367.06
600.282	366.06
600.491	370.06
600.7	353.06
600.909	361.06
601.118	361.06
601.327	365.06
601.536	352.06
601.745	367.06
601.953	353.06
602.162	352.06
602.371	346.06
602.58	360.06
602.789	350.06
602.997	373.06
603.206	349.06
603.415	357.06
603.623	344.06
603.832	352.06
604.041	345.06
604.249	330.06
604.458	335.06
604.666	331.06
604.875	334.06
605.084	345.06
605.292	350.06
605.501	325.06
605.709	334.06
605.918	342.06
606.126	350.06
606.334	342.06
606.543	335.06
606.751	338.06
606.96	333.06
607.168	336.06
607.376	331.06
607.585	333.06
607.793	322.06
608.001	337.06
608.21	327.06
608.418	342.06
608.626	333.06
608.834	331.06
609.043	321.06
609.251	338.06
609.459	321.06
609.667	340.06
609.875	331.06
610.083	335.06
610.291	309.06
610.499	334.06
610.707	322.06
610.916	323.06
611.124	321.06
611.332	329.06
611.54	332.06
611.748	318.06
611.955	314.06
612.163	313.06
612.371	328.06
612.579	329.06
612.787	329.06
612.995	317.06
613.203	311.06
613.411	290.06
613.618	322.06
613.826	321.06
614.034	315.06
614.242	316.06
614.449	316.06
614.657	323.06
614.865	306.06
615.072	330.06
615.28	314.06
615.488	312.06
615.695	309.06
615.903	327.06
616.111	329.06
616.318	324.06
616.526	327.06
616.733	344.06
616.941	315.06
617.148	339.06
617.356	329.06
617.563	319.06
617.771	331.06
617.978	312.06
618.185	315.06
618.393	331.06
618.6	310.06
618.807	307.06
619.015	317.06
619.222	296.06
619.429	301.06
619.637	318.06
619.844	303.06
620.051	301.06
620.258	295.06
620.466	286.06
620.673	301.06
620.88	274.06
621.087	302.06
621.294	291.06
621.501	307.06
621.708	300.06
621.915	283.06
622.122	267.06
622.329	293.06
622.536	311.06
622.743	270.06
622.95	289.06
623.157	285.06
623.364	283.06
623.571	284.06
623.778	280.06
623.985	270.06
624.192	265.06
624.399	294.06
624.606	281.06
624.812	278.06
625.019	265.06
625.226	280.06
625.433	276.06
625.639	286.06
625.846	269.06
626.053	259.06
626.259	254.06
626.466	264.06
626.673	263.06
626.879	267.06
627.086	284.06
627.293	271.06
627.499	259.06
627.706	268.06
627.912	278.06
628.119	258.06
628.325	245.06
628.532	245.06
628.738	265.06
628.945	275.06
629.151	251.06
629.357	261.06
629.564	253.06
629.77	250.06
629.976	238.06
630.183	239.06
630.389	226.06
630.595	256.06
630.802	249.06
631.008	242.06
631.214	239.06
631.42	249.06
631.627	257.06
631.833	245.06
632.039	252.06
632.245	248.06
632.451	258.06
632.657	234.06
632.863	220.06
633.069	234.06
633.275	238.06
633.481	231.06
633.688	222.06
633.893	233.06
634.099	215.06
634.305	238.06
634.511	225.06
634.717	230.06
634.923	221.06
635.129	213.06
635.335	207.06
635.541	220.06
635.747	225.06
635.952	215.06
636.158	221.06
636.364	238.06
636.57	217.06
636.775	226.06
636.981	221.06
637.187	232.06
637.392	207.06
637.598	221.06
637.804	221.06
638.009	229.06
638.215	214.06
638.421	218.06
638.626	219.06
638.832	222.06
639.037	227.06
639.243	220.06
639.448	219.06
639.654	219.06
639.859	226.06
640.065	188.06
640.27	218.06
640.475	218.06
640.681	202.06
640.886	217.06
641.091	200.06
641.297	226.06
641.502	206.06
641.707	230.06
641.913	205.06
642.118	211.06
642.323	207.06
642.528	211.06
642.733	191.06
642.939	222.06
643.144	201.06
643.349	201.06
643.554	214.06
643.759	203.06
643.964	205.06
644.169	193.06
644.374	200.06
644.579	195.06
644.784	213.06
644.989	198.06
645.194	215.06
645.399	204.06
645.604	213.06
645.809	211.06
646.014	218.06
646.219	213.06
646.423	190.06
646.628	206.06
646.833	219.06
647.038	205.06
647.243	211.06
647.447	204.06
647.652	215.06
647.857	206.06
648.062	227.06
648.266	211.06
648.471	232.06
648.676	218.06
648.88	215.06
649.085	221.06
649.289	210.06
649.494	201.06
649.698	184.06
649.903	202.06
650.107	200.06
650.312	208.06
650.516	203.06
650.721	206.06
650.925	197.06
651.13	203.06
651.334	165.06
651.539	190.06
651.743	190.06
651.947	183.06
652.152	179.06
652.356	179.06
652.56	173.06
652.764	164.06
652.969	167.06
653.173	169.06
653.377	149.06
653.581	181.06
653.785	162.06
653.99	142.06
654.194	161.06
654.398	161.06
654.602	160.06
654.806	142.06
655.01	157.06
655.214	143.06
655.418	152.06
655.622	168.06
655.826	159.06
656.03	154.06
656.234	155.06
656.438	161.06
656.642	145.06
656.846	156.06
657.049	141.06
657.253	138.06
657.457	122.06
657.661	116.06
657.865	120.06
658.068	111.06
658.272	113.06
658.476	116.06
658.68	136.06
658.883	110.06
659.087	123.06
659.291	95.06
659.494	113.06
659.698	113.06
659.901	109.06
660.105	102.06
660.309	92.06
660.512	96.06
660.716	101.06
660.919	100.06
661.123	95.06
661.326	97.06
661.53	106.06
661.733	103.06
661.936	98.06
662.14	99.06
662.343	99.06
662.546	102.06
662.75	96.06
662.953	83.06
663.156	84.06
663.36	68.06
663.563	84.06
663.766	109.06
663.969	96.06
664.173	92.06
664.376	92.06
664.579	78.06
664.782	84.06
664.985	78.06
665.188	97.06
665.391	97.06
665.594	91.06
665.797	94.06
666	84.06
666.203	91.06
666.406	84.06
666.609	81.06
666.812	87.06
667.015	84.06
667.218	93.06
667.421	88.06
667.624	96.06
667.827	92.06
668.03	84.06
668.232	79.06
668.435	79.06
668.638	61.06
668.841	84.06
669.043	82.06
669.246	83.06
669.449	72.06
669.651	95.06
669.854	89.06
670.057	86.06
670.259	81.06
670.462	89.06
670.665	77.06
670.867	77.06
671.07	81.06
671.272	86.06
671.475	93.06
671.677	70.06
671.88	65.06
672.082	65.06
672.284	95.06
672.487	86.06
672.689	86.06
672.892	97.06
