Data from NiCl2@0.5M.TitratingCurve.Agarose3%dH2O.NegLispCup.LampEnergy10.LIBS07252019_HRD10591_18-21-08-580.txt Node
Date: Thu Jul 25 18:21:08 EDT 2019
User: cochatt
Spectrometer: HR+D1059
Trigger mode: 1
Integration Time (sec): 1.000000E-1
Scans to average: 1
Electric dark correction enabled: true
Nonlinearity correction enabled: false
Boxcar width: 0
XAxis mode: Wavelengths
Number of Pixels in Spectrum: 2048
>>>>>Begin Spectral Data<<<<<
223.165	-21.56
223.4	-21.56
223.635	-21.56
223.869	-14.56
224.104	-15.56
224.338	-18.56
224.573	-25.56
224.808	-15.56
225.042	3.44
225.277	-4.56
225.511	10.44
225.746	14.44
225.98	10.44
226.215	7.44
226.449	3.44
226.683	13.44
226.918	25.44
227.152	27.44
227.387	40.44
227.621	46.44
227.856	42.44
228.09	45.44
228.324	53.44
228.559	37.44
228.793	79.44
229.027	111.44
229.262	96.44
229.496	101.44
229.73	99.44
229.964	109.44
230.199	121.44
230.433	127.44
230.667	134.44
230.901	121.44
231.136	126.44
231.37	143.44
231.604	110.44
231.838	123.44
232.072	136.44
232.306	131.44
232.541	137.44
232.775	126.44
233.009	129.44
233.243	160.44
233.477	150.44
233.711	137.44
233.945	141.44
234.179	126.44
234.413	139.44
234.647	121.44
234.881	137.44
235.115	150.44
235.349	137.44
235.583	140.44
235.817	139.44
236.051	142.44
236.285	126.44
236.519	150.44
236.753	147.44
236.987	155.44
237.221	168.44
237.455	155.44
237.689	154.44
237.922	140.44
238.156	169.44
238.39	155.44
238.624	149.44
238.858	156.44
239.091	141.44
239.325	153.44
239.559	162.44
239.793	152.44
240.027	174.44
240.26	162.44
240.494	165.44
240.728	165.44
240.961	164.44
241.195	170.44
241.429	179.44
241.662	174.44
241.896	188.44
242.13	187.44
242.363	190.44
242.597	170.44
242.83	180.44
243.064	189.44
243.298	187.44
243.531	189.44
243.765	179.44
243.998	188.44
244.232	199.44
244.465	199.44
244.699	169.44
244.932	212.44
245.166	199.44
245.399	196.44
245.633	193.44
245.866	185.44
246.099	196.44
246.333	197.44
246.566	210.44
246.8	226.44
247.033	192.44
247.266	200.44
247.5	197.44
247.733	219.44
247.966	218.44
248.2	219.44
248.433	210.44
248.666	214.44
248.899	228.44
249.133	224.44
249.366	232.44
249.599	215.44
249.832	218.44
250.066	235.44
250.299	224.44
250.532	225.44
250.765	234.44
250.998	241.44
251.231	226.44
251.465	220.44
251.698	237.44
251.931	238.44
252.164	235.44
252.397	257.44
252.63	257.44
252.863	258.44
253.096	230.44
253.329	259.44
253.562	239.44
253.795	257.44
254.028	247.44
254.261	255.44
254.494	228.44
254.727	257.44
254.96	250.44
255.193	251.44
255.426	252.44
255.659	246.44
255.892	260.44
256.124	272.44
256.357	271.44
256.59	261.44
256.823	269.44
257.056	261.44
257.289	271.44
257.521	262.44
257.754	273.44
257.987	268.44
258.22	268.44
258.452	287.44
258.685	261.44
258.918	270.44
259.151	272.44
259.383	271.44
259.616	275.44
259.849	272.44
260.081	295.44
260.314	287.44
260.547	294.44
260.779	283.44
261.012	289.44
261.244	279.44
261.477	305.44
261.71	297.44
261.942	283.44
262.175	296.44
262.407	293.44
262.64	270.44
262.872	285.44
263.105	296.44
263.337	290.44
263.57	316.44
263.802	305.44
264.035	297.44
264.267	302.44
264.499	292.44
264.732	302.44
264.964	307.44
265.197	317.44
265.429	327.44
265.661	303.44
265.894	304.44
266.126	300.44
266.358	307.44
266.591	312.44
266.823	325.44
267.055	333.44
267.287	321.44
267.52	299.44
267.752	330.44
267.984	335.44
268.216	330.44
268.448	327.44
268.681	325.44
268.913	341.44
269.145	347.44
269.377	350.44
269.609	324.44
269.841	332.44
270.073	303.44
270.306	314.44
270.538	339.44
270.77	322.44
271.002	327.44
271.234	330.44
271.466	337.44
271.698	364.44
271.93	343.44
272.162	353.44
272.394	347.44
272.626	359.44
272.858	342.44
273.09	329.44
273.322	362.44
273.553	378.44
273.785	379.44
274.017	369.44
274.249	362.44
274.481	376.44
274.713	357.44
274.945	362.44
275.176	389.44
275.408	372.44
275.64	363.44
275.872	377.44
276.104	399.44
276.335	353.44
276.567	378.44
276.799	373.44
277.031	391.44
277.262	385.44
277.494	377.44
277.726	378.44
277.957	393.44
278.189	374.44
278.421	352.44
278.652	377.44
278.884	391.44
279.115	383.44
279.347	395.44
279.579	401.44
279.81	389.44
280.042	371.44
280.273	399.44
280.505	382.44
280.736	397.44
280.968	419.44
281.199	402.44
281.431	421.44
281.662	385.44
281.894	406.44
282.125	397.44
282.356	421.44
282.588	418.44
282.819	406.44
283.051	422.44
283.282	428.44
283.513	433.44
283.745	421.44
283.976	420.44
284.207	422.44
284.439	423.44
284.67	439.44
284.901	441.44
285.132	443.44
285.364	422.44
285.595	426.44
285.826	452.44
286.057	449.44
286.288	435.44
286.52	453.44
286.751	433.44
286.982	453.44
287.213	464.44
287.444	469.44
287.675	446.44
287.906	439.44
288.138	439.44
288.369	435.44
288.6	441.44
288.831	467.44
289.062	468.44
289.293	462.44
289.524	444.44
289.755	439.44
289.986	471.44
290.217	467.44
290.448	470.44
290.679	482.44
290.91	457.44
291.141	455.44
291.371	457.44
291.602	461.44
291.833	457.44
292.064	472.44
292.295	478.44
292.526	464.44
292.757	473.44
292.987	476.44
293.218	455.44
293.449	475.44
293.68	481.44
293.91	468.44
294.141	477.44
294.372	462.44
294.603	472.44
294.833	488.44
295.064	479.44
295.295	469.44
295.525	475.44
295.756	488.44
295.987	485.44
296.217	499.44
296.448	500.44
296.679	479.44
296.909	479.44
297.14	512.44
297.37	505.44
297.601	493.44
297.831	490.44
298.062	502.44
298.292	538.44
298.523	534.44
298.753	532.44
298.984	523.44
299.214	508.44
299.445	528.44
299.675	514.44
299.905	523.44
300.136	527.44
300.366	545.44
300.597	547.44
300.827	539.44
301.057	514.44
301.288	547.44
301.518	534.44
301.748	550.44
301.979	541.44
302.209	548.44
302.439	543.44
302.669	530.44
302.9	542.44
303.13	523.44
303.36	542.44
303.59	541.44
303.82	536.44
304.051	555.44
304.281	563.44
304.511	562.44
304.741	549.44
304.971	552.44
305.201	553.44
305.431	546.44
305.661	530.44
305.891	571.44
306.121	544.44
306.352	528.44
306.582	540.44
306.812	536.44
307.042	541.44
307.272	519.44
307.502	513.44
307.731	521.44
307.961	525.44
308.191	551.44
308.421	552.44
308.651	540.44
308.881	535.44
309.111	520.44
309.341	521.44
309.571	520.44
309.8	538.44
310.03	538.44
310.26	539.44
310.49	550.44
310.72	542.44
310.949	540.44
311.179	524.44
311.409	532.44
311.639	552.44
311.868	554.44
312.098	548.44
312.328	541.44
312.557	578.44
312.787	549.44
313.017	564.44
313.246	547.44
313.476	563.44
313.706	586.44
313.935	561.44
314.165	589.44
314.394	558.44
314.624	569.44
314.853	557.44
315.083	569.44
315.312	585.44
315.542	574.44
315.771	586.44
316.001	571.44
316.23	557.44
316.46	572.44
316.689	564.44
316.919	569.44
317.148	563.44
317.377	566.44
317.607	587.44
317.836	536.44
318.065	563.44
318.295	539.44
318.524	567.44
318.753	567.44
318.983	554.44
319.212	557.44
319.441	567.44
319.67	572.44
319.9	564.44
320.129	573.44
320.358	566.44
320.587	569.44
320.816	551.44
321.046	569.44
321.275	572.44
321.504	558.44
321.733	596.44
321.962	588.44
322.191	589.44
322.42	575.44
322.649	583.44
322.878	573.44
323.108	582.44
323.337	580.44
323.566	589.44
323.795	581.44
324.024	580.44
324.253	596.44
324.482	587.44
324.71	587.44
324.939	586.44
325.168	602.44
325.397	601.44
325.626	607.44
325.855	599.44
326.084	598.44
326.313	607.44
326.542	645.44
326.77	637.44
326.999	605.44
327.228	623.44
327.457	622.44
327.686	623.44
327.914	601.44
328.143	641.44
328.372	616.44
328.6	609.44
328.829	631.44
329.058	627.44
329.287	616.44
329.515	633.44
329.744	614.44
329.972	647.44
330.201	641.44
330.43	656.44
330.658	636.44
330.887	657.44
331.115	651.44
331.344	664.44
331.572	667.44
331.801	666.44
332.03	683.44
332.258	689.44
332.486	689.44
332.715	729.44
332.943	763.44
333.172	798.44
333.4	827.44
333.629	810.44
333.857	826.44
334.085	833.44
334.314	792.44
334.542	804.44
334.771	783.44
334.999	782.44
335.227	780.44
335.455	770.44
335.684	779.44
335.912	756.44
336.14	748.44
336.369	737.44
336.597	764.44
336.825	773.44
337.053	742.44
337.281	730.44
337.51	743.44
337.738	739.44
337.966	713.44
338.194	706.44
338.422	695.44
338.65	681.44
338.878	692.44
339.106	689.44
339.334	695.44
339.562	661.44
339.79	682.44
340.018	647.44
340.246	653.44
340.474	642.44
340.702	670.44
340.93	654.44
341.158	660.44
341.386	680.44
341.614	649.44
341.842	694.44
342.07	627.44
342.298	664.44
342.526	646.44
342.754	661.44
342.981	659.44
343.209	656.44
343.437	731.44
343.665	732.44
343.893	765.44
344.12	820.44
344.348	764.44
344.576	745.44
344.804	724.44
345.031	670.44
345.259	683.44
345.487	659.44
345.714	646.44
345.942	656.44
346.17	663.44
346.397	654.44
346.625	654.44
346.853	621.44
347.08	627.44
347.308	625.44
347.535	638.44
347.763	653.44
347.99	614.44
348.218	629.44
348.445	635.44
348.673	604.44
348.9	629.44
349.128	625.44
349.355	609.44
349.583	642.44
349.81	619.44
350.037	613.44
350.265	652.44
350.492	627.44
350.72	592.44
350.947	638.44
351.174	635.44
351.402	613.44
351.629	617.44
351.856	613.44
352.083	612.44
352.311	607.44
352.538	635.44
352.765	626.44
352.992	611.44
353.22	605.44
353.447	573.44
353.674	614.44
353.901	596.44
354.128	578.44
354.355	582.44
354.583	601.44
354.81	586.44
355.037	597.44
355.264	611.44
355.491	604.44
355.718	601.44
355.945	609.44
356.172	601.44
356.399	620.44
356.626	620.44
356.853	621.44
357.08	601.44
357.307	598.44
357.534	606.44
357.761	611.44
357.988	605.44
358.215	605.44
358.441	601.44
358.668	579.44
358.895	608.44
359.122	599.44
359.349	592.44
359.576	611.44
359.802	596.44
360.029	602.44
360.256	609.44
360.483	585.44
360.709	585.44
360.936	590.44
361.163	615.44
361.39	606.44
361.616	597.44
361.843	589.44
362.07	616.44
362.296	624.44
362.523	605.44
362.749	592.44
362.976	583.44
363.203	595.44
363.429	596.44
363.656	599.44
363.882	602.44
364.109	590.44
364.335	581.44
364.562	590.44
364.788	594.44
365.015	580.44
365.241	593.44
365.468	593.44
365.694	581.44
365.92	597.44
366.147	578.44
366.373	580.44
366.599	596.44
366.826	593.44
367.052	568.44
367.278	590.44
367.505	598.44
367.731	597.44
367.957	578.44
368.184	578.44
368.41	574.44
368.636	595.44
368.862	608.44
369.089	598.44
369.315	607.44
369.541	612.44
369.767	629.44
369.993	626.44
370.219	624.44
370.445	626.44
370.672	644.44
370.898	612.44
371.124	641.44
371.35	637.44
371.576	651.44
371.802	641.44
372.028	637.44
372.254	621.44
372.48	614.44
372.706	655.44
372.932	680.44
373.158	642.44
373.384	641.44
373.61	636.44
373.835	638.44
374.061	617.44
374.287	657.44
374.513	661.44
374.739	694.44
374.965	699.44
375.191	699.44
375.416	707.44
375.642	674.44
375.868	682.44
376.094	668.44
376.319	661.44
376.545	641.44
376.771	670.44
376.997	635.44
377.222	633.44
377.448	637.44
377.674	633.44
377.899	623.44
378.125	616.44
378.35	649.44
378.576	636.44
378.802	627.44
379.027	619.44
379.253	646.44
379.478	634.44
379.704	630.44
379.929	630.44
380.155	626.44
380.38	619.44
380.606	622.44
380.831	651.44
381.057	648.44
381.282	639.44
381.507	620.44
381.733	644.44
381.958	625.44
382.184	669.44
382.409	648.44
382.634	671.44
382.86	683.44
383.085	673.44
383.31	692.44
383.535	674.44
383.761	697.44
383.986	697.44
384.211	708.44
384.436	740.44
384.662	756.44
384.887	770.44
385.112	733.44
385.337	752.44
385.562	747.44
385.787	773.44
386.013	789.44
386.238	776.44
386.463	782.44
386.688	746.44
386.913	773.44
387.138	760.44
387.363	735.44
387.588	757.44
387.813	747.44
388.038	744.44
388.263	748.44
388.488	740.44
388.713	742.44
388.938	753.44
389.163	770.44
389.387	734.44
389.612	741.44
389.837	727.44
390.062	713.44
390.287	721.44
390.512	739.44
390.736	743.44
390.961	762.44
391.186	789.44
391.411	795.44
391.636	810.44
391.86	841.44
392.085	857.44
392.31	852.44
392.534	825.44
392.759	806.44
392.984	799.44
393.208	809.44
393.433	804.44
393.658	795.44
393.882	825.44
394.107	814.44
394.331	790.44
394.556	798.44
394.78	814.44
395.005	803.44
395.229	825.44
395.454	839.44
395.678	846.44
395.903	854.44
396.127	837.44
396.352	803.44
396.576	789.44
396.801	792.44
397.025	796.44
397.249	823.44
397.474	868.44
397.698	827.44
397.922	885.44
398.147	847.44
398.371	891.44
398.595	895.44
398.82	951.44
399.044	1014.44
399.268	1105.44
399.492	1260.44
399.717	1376.44
399.941	1393.44
400.165	1239.44
400.389	1158.44
400.613	1053.44
400.837	993.44
401.062	981.44
401.286	988.44
401.51	959.44
401.734	966.44
401.958	958.44
402.182	957.44
402.406	976.44
402.63	990.44
402.854	1003.44
403.078	1009.44
403.302	1051.44
403.526	1045.44
403.75	1085.44
403.974	1105.44
404.198	1075.44
404.422	1067.44
404.645	1090.44
404.869	1081.44
405.093	1059.44
405.317	1018.44
405.541	1059.44
405.765	1039.44
405.988	1030.44
406.212	1074.44
406.436	1060.44
406.66	1066.44
406.883	1065.44
407.107	1172.44
407.331	1181.44
407.555	1224.44
407.778	1222.44
408.002	1190.44
408.226	1126.44
408.449	1172.44
408.673	1114.44
408.896	1090.44
409.12	1063.44
409.344	1069.44
409.567	1074.44
409.791	1080.44
410.014	1078.44
410.238	1061.44
410.461	1040.44
410.685	1069.44
410.908	1060.44
411.132	1007.44
411.355	967.44
411.578	1022.44
411.802	982.44
412.025	998.44
412.249	1013.44
412.472	1021.44
412.695	964.44
412.919	937.44
413.142	942.44
413.365	965.44
413.589	955.44
413.812	962.44
414.035	958.44
414.258	982.44
414.482	938.44
414.705	974.44
414.928	979.44
415.151	973.44
415.374	963.44
415.597	940.44
415.821	931.44
416.044	931.44
416.267	920.44
416.49	935.44
416.713	933.44
416.936	929.44
417.159	946.44
417.382	937.44
417.605	961.44
417.828	937.44
418.051	969.44
418.274	979.44
418.497	969.44
418.72	956.44
418.943	968.44
419.166	1044.44
419.389	1085.44
419.611	1089.44
419.834	1034.44
420.057	991.44
420.28	968.44
420.503	955.44
420.726	945.44
420.948	954.44
421.171	932.44
421.394	940.44
421.617	950.44
421.839	910.44
422.062	949.44
422.285	942.44
422.507	989.44
422.73	970.44
422.953	1005.44
423.175	981.44
423.398	985.44
423.621	997.44
423.843	998.44
424.066	1014.44
424.288	981.44
424.511	953.44
424.733	972.44
424.956	968.44
425.178	948.44
425.401	931.44
425.623	956.44
425.846	936.44
426.068	930.44
426.291	925.44
426.513	917.44
426.735	926.44
426.958	896.44
427.18	853.44
427.402	869.44
427.625	873.44
427.847	846.44
428.069	863.44
428.292	874.44
428.514	855.44
428.736	873.44
428.958	867.44
429.181	822.44
429.403	832.44
429.625	826.44
429.847	835.44
430.069	847.44
430.292	839.44
430.514	835.44
430.736	862.44
430.958	842.44
431.18	821.44
431.402	863.44
431.624	856.44
431.846	845.44
432.068	878.44
432.29	860.44
432.512	853.44
432.734	881.44
432.956	854.44
433.178	876.44
433.4	861.44
433.622	866.44
433.844	891.44
434.066	874.44
434.287	878.44
434.509	903.44
434.731	917.44
434.953	958.44
435.175	951.44
435.397	956.44
435.618	899.44
435.84	870.44
436.062	901.44
436.284	862.44
436.505	850.44
436.727	870.44
436.949	884.44
437.17	874.44
437.392	854.44
437.614	850.44
437.835	837.44
438.057	830.44
438.278	824.44
438.5	831.44
438.721	823.44
438.943	861.44
439.165	820.44
439.386	837.44
439.608	878.44
439.829	881.44
440.05	851.44
440.272	881.44
440.493	888.44
440.715	895.44
440.936	899.44
441.158	922.44
441.379	937.44
441.6	952.44
441.822	990.44
442.043	963.44
442.264	960.44
442.486	948.44
442.707	941.44
442.928	953.44
443.149	965.44
443.371	961.44
443.592	987.44
443.813	967.44
444.034	969.44
444.255	1031.44
444.476	1064.44
444.698	1125.44
444.919	1139.44
445.14	1199.44
445.361	1071.44
445.582	1003.44
445.803	934.44
446.024	904.44
446.245	905.44
446.466	898.44
446.687	856.44
446.908	863.44
447.129	878.44
447.35	843.44
447.571	870.44
447.792	822.44
448.013	835.44
448.234	810.44
448.455	833.44
448.675	814.44
448.896	790.44
449.117	773.44
449.338	786.44
449.559	798.44
449.779	781.44
450	766.44
450.221	830.44
450.442	814.44
450.662	801.44
450.883	797.44
451.104	820.44
451.324	819.44
451.545	801.44
451.766	819.44
451.986	813.44
452.207	798.44
452.428	794.44
452.648	802.44
452.869	784.44
453.089	766.44
453.31	794.44
453.53	757.44
453.751	758.44
453.971	731.44
454.192	749.44
454.412	755.44
454.633	714.44
454.853	769.44
455.073	778.44
455.294	759.44
455.514	745.44
455.734	730.44
455.955	747.44
456.175	725.44
456.395	751.44
456.616	713.44
456.836	746.44
457.056	767.44
457.276	746.44
457.497	755.44
457.717	746.44
457.937	749.44
458.157	778.44
458.377	790.44
458.598	791.44
458.818	813.44
459.038	846.44
459.258	840.44
459.478	873.44
459.698	877.44
459.918	931.44
460.138	960.44
460.358	1026.44
460.578	1010.44
460.798	1015.44
461.018	1037.44
461.238	1008.44
461.458	999.44
461.678	1011.44
461.898	1057.44
462.118	995.44
462.338	1067.44
462.558	1103.44
462.777	1180.44
462.997	1299.44
463.217	1355.44
463.437	1346.44
463.657	1255.44
463.876	1217.44
464.096	1172.44
464.316	1173.44
464.536	1209.44
464.755	1178.44
464.975	1119.44
465.195	1074.44
465.414	1003.44
465.634	963.44
465.854	933.44
466.073	907.44
466.293	869.44
466.512	852.44
466.732	855.44
466.951	843.44
467.171	836.44
467.391	833.44
467.61	870.44
467.829	830.44
468.049	817.44
468.268	806.44
468.488	791.44
468.707	806.44
468.927	810.44
469.146	795.44
469.365	824.44
469.585	809.44
469.804	841.44
470.023	847.44
470.243	878.44
470.462	883.44
470.681	873.44
470.901	859.44
471.12	863.44
471.339	854.44
471.558	823.44
471.777	822.44
471.997	829.44
472.216	839.44
472.435	786.44
472.654	803.44
472.873	783.44
473.092	779.44
473.311	789.44
473.53	807.44
473.749	766.44
473.968	806.44
474.187	785.44
474.406	777.44
474.625	788.44
474.844	800.44
475.063	796.44
475.282	778.44
475.501	809.44
475.72	801.44
475.939	819.44
476.158	830.44
476.377	838.44
476.596	843.44
476.814	809.44
477.033	827.44
477.252	852.44
477.471	885.44
477.69	879.44
477.908	906.44
478.127	942.44
478.346	935.44
478.564	951.44
478.783	976.44
479.002	980.44
479.22	1019.44
479.439	1001.44
479.658	995.44
479.876	981.44
480.095	957.44
480.313	1018.44
480.532	1060.44
480.751	1033.44
480.969	1030.44
481.188	953.44
481.406	939.44
481.624	943.44
481.843	917.44
482.061	895.44
482.28	894.44
482.498	899.44
482.717	885.44
482.935	897.44
483.153	902.44
483.372	933.44
483.59	937.44
483.808	917.44
484.027	927.44
484.245	908.44
484.463	918.44
484.681	910.44
484.9	923.44
485.118	957.44
485.336	947.44
485.554	923.44
485.772	953.44
485.99	986.44
486.209	948.44
486.427	954.44
486.645	936.44
486.863	988.44
487.081	957.44
487.299	953.44
487.517	950.44
487.735	913.44
487.953	953.44
488.171	960.44
488.389	951.44
488.607	948.44
488.825	908.44
489.043	915.44
489.261	898.44
489.479	925.44
489.696	959.44
489.914	934.44
490.132	959.44
490.35	961.44
490.568	962.44
490.786	979.44
491.003	948.44
491.221	981.44
491.439	985.44
491.657	974.44
491.874	962.44
492.092	978.44
492.31	995.44
492.527	973.44
492.745	1003.44
492.963	1007.44
493.18	1020.44
493.398	1003.44
493.615	1024.44
493.833	996.44
494.05	1001.44
494.268	1014.44
494.485	983.44
494.703	1017.44
494.92	1027.44
495.138	1018.44
495.355	1041.44
495.573	1030.44
495.79	1027.44
496.008	1052.44
496.225	1043.44
496.442	1045.44
496.66	1073.44
496.877	1063.44
497.094	1100.44
497.312	1115.44
497.529	1131.44
497.746	1163.44
497.963	1188.44
498.181	1214.44
498.398	1299.44
498.615	1368.44
498.832	1464.44
499.049	1560.44
499.267	1658.44
499.484	1862.44
499.701	1994.44
499.918	2180.44
500.135	2489.44
500.352	2826.44
500.569	2926.44
500.786	2849.44
501.003	2675.44
501.22	2422.44
501.437	2178.44
501.654	1949.44
501.871	1803.44
502.088	1633.44
502.305	1548.44
502.522	1415.44
502.739	1387.44
502.956	1306.44
503.172	1258.44
503.389	1207.44
503.606	1191.44
503.823	1143.44
504.04	1154.44
504.256	1144.44
504.473	1154.44
504.69	1202.44
504.907	1152.44
505.123	1111.44
505.34	1049.44
505.557	993.44
505.773	986.44
505.99	964.44
506.207	962.44
506.423	924.44
506.64	929.44
506.856	899.44
507.073	929.44
507.289	887.44
507.506	879.44
507.722	882.44
507.939	870.44
508.155	865.44
508.372	862.44
508.588	868.44
508.805	870.44
509.021	825.44
509.238	845.44
509.454	830.44
509.67	836.44
509.887	806.44
510.103	835.44
510.319	807.44
510.536	797.44
510.752	802.44
510.968	833.44
511.184	780.44
511.401	774.44
511.617	801.44
511.833	793.44
512.049	793.44
512.265	821.44
512.481	810.44
512.698	797.44
512.914	804.44
513.13	811.44
513.346	790.44
513.562	831.44
513.778	796.44
513.994	783.44
514.21	792.44
514.426	799.44
514.642	813.44
514.858	835.44
515.074	852.44
515.29	813.44
515.506	855.44
515.721	857.44
515.937	860.44
516.153	908.44
516.369	889.44
516.585	921.44
516.801	931.44
517.016	979.44
517.232	1037.44
517.448	1087.44
517.664	1110.44
517.879	1118.44
518.095	1074.44
518.311	1082.44
518.527	1008.44
518.742	992.44
518.958	970.44
519.173	946.44
519.389	895.44
519.605	887.44
519.82	876.44
520.036	881.44
520.251	830.44
520.467	817.44
520.682	807.44
520.898	781.44
521.113	794.44
521.329	797.44
521.544	799.44
521.76	779.44
521.975	767.44
522.19	769.44
522.406	785.44
522.621	734.44
522.836	791.44
523.052	747.44
523.267	759.44
523.482	748.44
523.698	733.44
523.913	731.44
524.128	744.44
524.343	749.44
524.559	729.44
524.774	715.44
524.989	716.44
525.204	721.44
525.419	724.44
525.634	725.44
525.849	733.44
526.064	728.44
526.28	724.44
526.495	710.44
526.71	720.44
526.925	733.44
527.14	724.44
527.355	702.44
527.57	723.44
527.785	723.44
527.999	727.44
528.214	724.44
528.429	729.44
528.644	748.44
528.859	767.44
529.074	706.44
529.289	715.44
529.503	750.44
529.718	742.44
529.933	730.44
530.148	724.44
530.363	724.44
530.577	678.44
530.792	738.44
531.007	717.44
531.221	710.44
531.436	714.44
531.651	731.44
531.865	724.44
532.08	719.44
532.295	701.44
532.509	703.44
532.724	704.44
532.938	706.44
533.153	731.44
533.367	722.44
533.582	724.44
533.796	695.44
534.011	726.44
534.225	726.44
534.44	718.44
534.654	705.44
534.868	709.44
535.083	686.44
535.297	682.44
535.511	690.44
535.726	693.44
535.94	677.44
536.154	677.44
536.369	679.44
536.583	695.44
536.797	662.44
537.011	684.44
537.225	675.44
537.44	643.44
537.654	670.44
537.868	691.44
538.082	631.44
538.296	653.44
538.51	662.44
538.724	657.44
538.938	661.44
539.153	654.44
539.367	665.44
539.581	663.44
539.795	641.44
540.009	654.44
540.222	665.44
540.436	645.44
540.65	645.44
540.864	636.44
541.078	655.44
541.292	634.44
541.506	653.44
541.72	653.44
541.934	654.44
542.147	662.44
542.361	662.44
542.575	645.44
542.789	635.44
543.002	645.44
543.216	641.44
543.43	644.44
543.644	635.44
543.857	667.44
544.071	650.44
544.285	671.44
544.498	649.44
544.712	648.44
544.925	651.44
545.139	648.44
545.352	670.44
545.566	689.44
545.779	651.44
545.993	676.44
546.206	664.44
546.42	673.44
546.633	668.44
546.847	640.44
547.06	638.44
547.274	671.44
547.487	676.44
547.7	666.44
547.914	662.44
548.127	694.44
548.34	649.44
548.554	645.44
548.767	675.44
548.98	669.44
549.193	667.44
549.407	682.44
549.62	674.44
549.833	662.44
550.046	676.44
550.259	670.44
550.473	665.44
550.686	646.44
550.899	658.44
551.112	649.44
551.325	659.44
551.538	651.44
551.751	632.44
551.964	618.44
552.177	665.44
552.39	669.44
552.603	702.44
552.816	707.44
553.029	681.44
553.242	718.44
553.455	750.44
553.667	733.44
553.88	702.44
554.093	699.44
554.306	707.44
554.519	687.44
554.732	659.44
554.944	650.44
555.157	640.44
555.37	613.44
555.583	607.44
555.795	629.44
556.008	612.44
556.221	581.44
556.433	597.44
556.646	580.44
556.859	579.44
557.071	582.44
557.284	561.44
557.496	579.44
557.709	573.44
557.921	593.44
558.134	561.44
558.346	565.44
558.559	552.44
558.771	565.44
558.984	558.44
559.196	573.44
559.409	570.44
559.621	573.44
559.833	580.44
560.046	552.44
560.258	537.44
560.47	533.44
560.683	555.44
560.895	534.44
561.107	556.44
561.32	538.44
561.532	543.44
561.744	574.44
561.956	557.44
562.168	542.44
562.381	551.44
562.593	538.44
562.805	533.44
563.017	577.44
563.229	546.44
563.441	555.44
563.653	541.44
563.865	575.44
564.077	553.44
564.289	587.44
564.501	565.44
564.713	590.44
564.925	593.44
565.137	584.44
565.349	631.44
565.561	639.44
565.773	623.44
565.985	673.44
566.197	736.44
566.408	753.44
566.62	794.44
566.832	865.44
567.044	863.44
567.255	885.44
567.467	917.44
567.679	965.44
567.891	1032.44
568.102	1035.44
568.314	986.44
568.526	893.44
568.737	820.44
568.949	766.44
569.161	689.44
569.372	630.44
569.584	613.44
569.795	607.44
570.007	597.44
570.218	563.44
570.43	535.44
570.641	523.44
570.853	543.44
571.064	559.44
571.276	568.44
571.487	531.44
571.698	537.44
571.91	513.44
572.121	511.44
572.333	474.44
572.544	482.44
572.755	481.44
572.966	477.44
573.178	473.44
573.389	470.44
573.6	437.44
573.811	459.44
574.023	443.44
574.234	455.44
574.445	474.44
574.656	459.44
574.867	454.44
575.078	451.44
575.289	435.44
575.501	446.44
575.712	418.44
575.923	421.44
576.134	431.44
576.345	424.44
576.556	445.44
576.767	426.44
576.978	415.44
577.188	425.44
577.399	411.44
577.61	431.44
577.821	433.44
578.032	390.44
578.243	411.44
578.454	387.44
578.665	387.44
578.875	413.44
579.086	391.44
579.297	399.44
579.508	394.44
579.718	385.44
579.929	404.44
580.14	381.44
580.35	404.44
580.561	392.44
580.772	389.44
580.982	386.44
581.193	380.44
581.403	369.44
581.614	392.44
581.825	391.44
582.035	383.44
582.246	383.44
582.456	378.44
582.667	394.44
582.877	376.44
583.087	376.44
583.298	376.44
583.508	374.44
583.719	397.44
583.929	394.44
584.139	371.44
584.35	367.44
584.56	375.44
584.77	379.44
584.981	358.44
585.191	360.44
585.401	386.44
585.611	363.44
585.821	377.44
586.032	366.44
586.242	362.44
586.452	346.44
586.662	371.44
586.872	349.44
587.082	371.44
587.292	373.44
587.502	369.44
587.713	362.44
587.923	353.44
588.133	366.44
588.343	357.44
588.553	386.44
588.762	364.44
588.972	364.44
589.182	411.44
589.392	403.44
589.602	377.44
589.812	411.44
590.022	386.44
590.232	342.44
590.441	377.44
590.651	380.44
590.861	366.44
591.071	373.44
591.281	377.44
591.49	369.44
591.7	395.44
591.91	394.44
592.119	378.44
592.329	409.44
592.539	397.44
592.748	420.44
592.958	430.44
593.167	454.44
593.377	451.44
593.587	446.44
593.796	452.44
594.006	476.44
594.215	459.44
594.424	454.44
594.634	437.44
594.843	419.44
595.053	407.44
595.262	408.44
595.472	393.44
595.681	394.44
595.89	372.44
596.1	379.44
596.309	360.44
596.518	363.44
596.727	366.44
596.937	355.44
597.146	337.44
597.355	316.44
597.564	327.44
597.774	351.44
597.983	335.44
598.192	322.44
598.401	311.44
598.61	311.44
598.819	326.44
599.028	311.44
599.237	312.44
599.446	310.44
599.655	307.44
599.864	305.44
600.073	302.44
600.282	314.44
600.491	299.44
600.7	305.44
600.909	301.44
601.118	305.44
601.327	306.44
601.536	293.44
601.745	303.44
601.953	298.44
602.162	308.44
602.371	281.44
602.58	294.44
602.789	281.44
602.997	297.44
603.206	290.44
603.415	286.44
603.623	285.44
603.832	297.44
604.041	269.44
604.249	280.44
604.458	305.44
604.666	306.44
604.875	300.44
605.084	275.44
605.292	266.44
605.501	290.44
605.709	305.44
605.918	294.44
606.126	289.44
606.334	278.44
606.543	277.44
606.751	284.44
606.96	295.44
607.168	281.44
607.376	289.44
607.585	277.44
607.793	265.44
608.001	281.44
608.21	277.44
608.418	281.44
608.626	285.44
608.834	299.44
609.043	260.44
609.251	282.44
609.459	261.44
609.667	250.44
609.875	269.44
610.083	283.44
610.291	281.44
610.499	280.44
610.707	275.44
610.916	267.44
611.124	273.44
611.332	273.44
611.54	258.44
611.748	277.44
611.955	266.44
612.163	273.44
612.371	275.44
612.579	248.44
612.787	286.44
612.995	267.44
613.203	268.44
613.411	262.44
613.618	275.44
613.826	270.44
614.034	259.44
614.242	265.44
614.449	263.44
614.657	254.44
614.865	250.44
615.072	258.44
615.28	267.44
615.488	236.44
615.695	273.44
615.903	262.44
616.111	277.44
616.318	277.44
616.526	263.44
616.733	269.44
616.941	247.44
617.148	261.44
617.356	268.44
617.563	259.44
617.771	238.44
617.978	269.44
618.185	267.44
618.393	266.44
618.6	266.44
618.807	262.44
619.015	250.44
619.222	244.44
619.429	268.44
619.637	264.44
619.844	245.44
620.051	242.44
620.258	234.44
620.466	245.44
620.673	232.44
620.88	259.44
621.087	239.44
621.294	234.44
621.501	238.44
621.708	254.44
621.915	238.44
622.122	257.44
622.329	243.44
622.536	251.44
622.743	238.44
622.95	247.44
623.157	243.44
623.364	233.44
623.571	216.44
623.778	223.44
623.985	224.44
624.192	232.44
624.399	230.44
624.606	232.44
624.812	242.44
625.019	226.44
625.226	244.44
625.433	226.44
625.639	231.44
625.846	240.44
626.053	235.44
626.259	225.44
626.466	222.44
626.673	220.44
626.879	236.44
627.086	227.44
627.293	230.44
627.499	218.44
627.706	226.44
627.912	203.44
628.119	199.44
628.325	219.44
628.532	224.44
628.738	223.44
628.945	214.44
629.151	206.44
629.357	213.44
629.564	206.44
629.77	225.44
629.976	217.44
630.183	202.44
630.389	213.44
630.595	203.44
630.802	204.44
631.008	195.44
631.214	223.44
631.42	218.44
631.627	213.44
631.833	213.44
632.039	215.44
632.245	199.44
632.451	215.44
632.657	199.44
632.863	206.44
633.069	217.44
633.275	201.44
633.481	209.44
633.688	212.44
633.893	205.44
634.099	204.44
634.305	194.44
634.511	204.44
634.717	199.44
634.923	203.44
635.129	197.44
635.335	195.44
635.541	195.44
635.747	197.44
635.952	189.44
636.158	183.44
636.364	198.44
636.57	201.44
636.775	194.44
636.981	181.44
637.187	186.44
637.392	183.44
637.598	192.44
637.804	183.44
638.009	202.44
638.215	199.44
638.421	187.44
638.626	193.44
638.832	190.44
639.037	185.44
639.243	188.44
639.448	182.44
639.654	188.44
639.859	184.44
640.065	179.44
640.27	192.44
640.475	187.44
640.681	170.44
640.886	181.44
641.091	191.44
641.297	183.44
641.502	166.44
641.707	171.44
641.913	173.44
642.118	169.44
642.323	177.44
642.528	191.44
642.733	168.44
642.939	194.44
643.144	173.44
643.349	181.44
643.554	186.44
643.759	183.44
643.964	194.44
644.169	178.44
644.374	159.44
644.579	177.44
644.784	183.44
644.989	159.44
645.194	164.44
645.399	173.44
645.604	177.44
645.809	182.44
646.014	178.44
646.219	177.44
646.423	173.44
646.628	169.44
646.833	177.44
647.038	187.44
647.243	162.44
647.447	181.44
647.652	187.44
647.857	178.44
648.062	181.44
648.266	192.44
648.471	186.44
648.676	195.44
648.88	183.44
649.085	184.44
649.289	190.44
649.494	181.44
649.698	180.44
649.903	188.44
650.107	175.44
650.312	171.44
650.516	171.44
650.721	177.44
650.925	169.44
651.13	148.44
651.334	157.44
651.539	181.44
651.743	168.44
651.947	154.44
652.152	169.44
652.356	166.44
652.56	157.44
652.764	147.44
652.969	160.44
653.173	141.44
653.377	143.44
653.581	148.44
653.785	138.44
653.99	134.44
654.194	152.44
654.398	143.44
654.602	137.44
654.806	144.44
655.01	153.44
655.214	163.44
655.418	150.44
655.622	151.44
655.826	138.44
656.03	142.44
656.234	137.44
656.438	125.44
656.642	142.44
656.846	139.44
657.049	127.44
657.253	140.44
657.457	117.44
657.661	115.44
657.865	117.44
658.068	114.44
658.272	125.44
658.476	122.44
658.68	114.44
658.883	110.44
659.087	110.44
659.291	107.44
659.494	91.44
659.698	106.44
659.901	109.44
660.105	96.44
660.309	102.44
660.512	94.44
660.716	94.44
660.919	99.44
661.123	103.44
661.326	107.44
661.53	83.44
661.733	92.44
661.936	85.44
662.14	110.44
662.343	97.44
662.546	87.44
662.75	76.44
662.953	89.44
663.156	78.44
663.36	80.44
663.563	92.44
663.766	66.44
663.969	86.44
664.173	97.44
664.376	87.44
664.579	84.44
664.782	88.44
664.985	89.44
665.188	101.44
665.391	88.44
665.594	92.44
665.797	74.44
666	83.44
666.203	73.44
666.406	92.44
666.609	93.44
666.812	79.44
667.015	83.44
667.218	75.44
667.421	77.44
667.624	97.44
667.827	80.44
668.03	74.44
668.232	75.44
668.435	79.44
668.638	63.44
668.841	76.44
669.043	80.44
669.246	70.44
669.449	77.44
669.651	86.44
669.854	82.44
670.057	78.44
670.259	80.44
670.462	73.44
670.665	77.44
670.867	83.44
671.07	85.44
671.272	74.44
671.475	93.44
671.677	87.44
671.88	83.44
672.082	95.44
672.284	85.44
672.487	80.44
672.689	74.44
672.892	87.44
