Data from NiCl2@0.125M.TitratingCurve.Agarose3%dH2O.NegLispCup.LampEnergy10.LIBS07252019_HRD10591_18-29-35-574.txt Node
Date: Thu Jul 25 18:29:35 EDT 2019
User: cochatt
Spectrometer: HR+D1059
Trigger mode: 1
Integration Time (sec): 1.000000E-1
Scans to average: 1
Electric dark correction enabled: true
Nonlinearity correction enabled: false
Boxcar width: 0
XAxis mode: Wavelengths
Number of Pixels in Spectrum: 2048
>>>>>Begin Spectral Data<<<<<
223.165	-22.44
223.4	-22.44
223.635	-22.44
223.869	-29.44
224.104	3.56
224.338	-20.44
224.573	-25.44
224.808	-9.44
225.042	-10.44
225.277	-5.44
225.511	0.56
225.746	3.56
225.98	2.56
226.215	10.56
226.449	22.56
226.683	21.56
226.918	33.56
227.152	24.56
227.387	34.56
227.621	34.56
227.856	44.56
228.09	42.56
228.324	42.56
228.559	60.56
228.793	63.56
229.027	93.56
229.262	100.56
229.496	117.56
229.73	124.56
229.964	120.56
230.199	117.56
230.433	140.56
230.667	125.56
230.901	135.56
231.136	125.56
231.37	148.56
231.604	131.56
231.838	142.56
232.072	156.56
232.306	138.56
232.541	146.56
232.775	142.56
233.009	141.56
233.243	140.56
233.477	147.56
233.711	136.56
233.945	148.56
234.179	156.56
234.413	143.56
234.647	154.56
234.881	147.56
235.115	138.56
235.349	149.56
235.583	126.56
235.817	137.56
236.051	136.56
236.285	143.56
236.519	146.56
236.753	157.56
236.987	147.56
237.221	150.56
237.455	155.56
237.689	157.56
237.922	153.56
238.156	161.56
238.39	154.56
238.624	169.56
238.858	165.56
239.091	159.56
239.325	181.56
239.559	194.56
239.793	177.56
240.027	160.56
240.26	171.56
240.494	169.56
240.728	166.56
240.961	187.56
241.195	173.56
241.429	190.56
241.662	176.56
241.896	192.56
242.13	207.56
242.363	202.56
242.597	194.56
242.83	184.56
243.064	179.56
243.298	201.56
243.531	205.56
243.765	186.56
243.998	193.56
244.232	194.56
244.465	187.56
244.699	201.56
244.932	192.56
245.166	208.56
245.399	220.56
245.633	210.56
245.866	203.56
246.099	204.56
246.333	219.56
246.566	198.56
246.8	212.56
247.033	215.56
247.266	210.56
247.5	212.56
247.733	229.56
247.966	218.56
248.2	230.56
248.433	229.56
248.666	230.56
248.899	226.56
249.133	227.56
249.366	237.56
249.599	259.56
249.832	249.56
250.066	242.56
250.299	231.56
250.532	238.56
250.765	218.56
250.998	253.56
251.231	228.56
251.465	253.56
251.698	243.56
251.931	255.56
252.164	246.56
252.397	240.56
252.63	277.56
252.863	257.56
253.096	263.56
253.329	269.56
253.562	250.56
253.795	258.56
254.028	273.56
254.261	279.56
254.494	268.56
254.727	280.56
254.96	275.56
255.193	261.56
255.426	260.56
255.659	272.56
255.892	276.56
256.124	280.56
256.357	276.56
256.59	290.56
256.823	282.56
257.056	287.56
257.289	281.56
257.521	287.56
257.754	278.56
257.987	290.56
258.22	282.56
258.452	295.56
258.685	288.56
258.918	301.56
259.151	304.56
259.383	290.56
259.616	279.56
259.849	282.56
260.081	323.56
260.314	302.56
260.547	308.56
260.779	314.56
261.012	307.56
261.244	309.56
261.477	323.56
261.71	327.56
261.942	294.56
262.175	306.56
262.407	329.56
262.64	322.56
262.872	316.56
263.105	329.56
263.337	317.56
263.57	304.56
263.802	328.56
264.035	316.56
264.267	341.56
264.499	324.56
264.732	307.56
264.964	332.56
265.197	328.56
265.429	343.56
265.661	340.56
265.894	352.56
266.126	324.56
266.358	356.56
266.591	345.56
266.823	345.56
267.055	342.56
267.287	331.56
267.52	345.56
267.752	343.56
267.984	357.56
268.216	362.56
268.448	350.56
268.681	360.56
268.913	346.56
269.145	341.56
269.377	363.56
269.609	349.56
269.841	336.56
270.073	359.56
270.306	364.56
270.538	353.56
270.77	365.56
271.002	377.56
271.234	363.56
271.466	352.56
271.698	371.56
271.93	376.56
272.162	385.56
272.394	375.56
272.626	364.56
272.858	346.56
273.09	359.56
273.322	390.56
273.553	376.56
273.785	359.56
274.017	360.56
274.249	361.56
274.481	376.56
274.713	396.56
274.945	403.56
275.176	396.56
275.408	397.56
275.64	396.56
275.872	406.56
276.104	391.56
276.335	391.56
276.567	406.56
276.799	396.56
277.031	413.56
277.262	406.56
277.494	386.56
277.726	402.56
277.957	401.56
278.189	390.56
278.421	408.56
278.652	426.56
278.884	402.56
279.115	426.56
279.347	394.56
279.579	414.56
279.81	429.56
280.042	436.56
280.273	410.56
280.505	448.56
280.736	457.56
280.968	436.56
281.199	406.56
281.431	430.56
281.662	428.56
281.894	432.56
282.125	424.56
282.356	447.56
282.588	440.56
282.819	421.56
283.051	436.56
283.282	442.56
283.513	454.56
283.745	442.56
283.976	454.56
284.207	459.56
284.439	459.56
284.67	456.56
284.901	454.56
285.132	468.56
285.364	466.56
285.595	467.56
285.826	456.56
286.057	463.56
286.288	480.56
286.52	481.56
286.751	481.56
286.982	490.56
287.213	456.56
287.444	467.56
287.675	470.56
287.906	472.56
288.138	468.56
288.369	483.56
288.6	501.56
288.831	490.56
289.062	522.56
289.293	505.56
289.524	484.56
289.755	478.56
289.986	458.56
290.217	475.56
290.448	496.56
290.679	468.56
290.91	474.56
291.141	484.56
291.371	499.56
291.602	500.56
291.833	482.56
292.064	497.56
292.295	493.56
292.526	482.56
292.757	506.56
292.987	477.56
293.218	494.56
293.449	492.56
293.68	522.56
293.91	481.56
294.141	500.56
294.372	518.56
294.603	516.56
294.833	508.56
295.064	512.56
295.295	512.56
295.525	525.56
295.756	523.56
295.987	505.56
296.217	518.56
296.448	516.56
296.679	517.56
296.909	534.56
297.14	534.56
297.37	572.56
297.601	532.56
297.831	546.56
298.062	544.56
298.292	565.56
298.523	550.56
298.753	560.56
298.984	567.56
299.214	547.56
299.445	546.56
299.675	553.56
299.905	566.56
300.136	558.56
300.366	550.56
300.597	568.56
300.827	563.56
301.057	548.56
301.288	551.56
301.518	572.56
301.748	582.56
301.979	576.56
302.209	587.56
302.439	560.56
302.669	564.56
302.9	558.56
303.13	552.56
303.36	552.56
303.59	555.56
303.82	561.56
304.051	568.56
304.281	548.56
304.511	545.56
304.741	542.56
304.971	570.56
305.201	574.56
305.431	546.56
305.661	551.56
305.891	549.56
306.121	543.56
306.352	542.56
306.582	558.56
306.812	564.56
307.042	551.56
307.272	548.56
307.502	548.56
307.731	532.56
307.961	527.56
308.191	547.56
308.421	563.56
308.651	538.56
308.881	530.56
309.111	544.56
309.341	543.56
309.571	552.56
309.8	536.56
310.03	547.56
310.26	550.56
310.49	533.56
310.72	554.56
310.949	537.56
311.179	558.56
311.409	530.56
311.639	544.56
311.868	553.56
312.098	568.56
312.328	551.56
312.557	566.56
312.787	561.56
313.017	576.56
313.246	600.56
313.476	590.56
313.706	595.56
313.935	583.56
314.165	567.56
314.394	580.56
314.624	610.56
314.853	580.56
315.083	590.56
315.312	589.56
315.542	585.56
315.771	583.56
316.001	569.56
316.23	588.56
316.46	575.56
316.689	549.56
316.919	549.56
317.148	548.56
317.377	554.56
317.607	578.56
317.836	577.56
318.065	593.56
318.295	576.56
318.524	569.56
318.753	544.56
318.983	556.56
319.212	554.56
319.441	567.56
319.67	581.56
319.9	571.56
320.129	576.56
320.358	564.56
320.587	569.56
320.816	556.56
321.046	570.56
321.275	577.56
321.504	560.56
321.733	583.56
321.962	551.56
322.191	581.56
322.42	592.56
322.649	556.56
322.878	573.56
323.108	568.56
323.337	572.56
323.566	590.56
323.795	591.56
324.024	588.56
324.253	577.56
324.482	576.56
324.71	573.56
324.939	574.56
325.168	567.56
325.397	595.56
325.626	593.56
325.855	601.56
326.084	605.56
326.313	608.56
326.542	637.56
326.77	636.56
326.999	642.56
327.228	614.56
327.457	610.56
327.686	618.56
327.914	629.56
328.143	636.56
328.372	614.56
328.6	625.56
328.829	600.56
329.058	621.56
329.287	618.56
329.515	611.56
329.744	625.56
329.972	644.56
330.201	626.56
330.43	660.56
330.658	621.56
330.887	629.56
331.115	618.56
331.344	636.56
331.572	644.56
331.801	660.56
332.03	676.56
332.258	692.56
332.486	732.56
332.715	738.56
332.943	781.56
333.172	832.56
333.4	857.56
333.629	851.56
333.857	865.56
334.085	834.56
334.314	836.56
334.542	781.56
334.771	784.56
334.999	777.56
335.227	770.56
335.455	778.56
335.684	768.56
335.912	772.56
336.14	748.56
336.369	734.56
336.597	746.56
336.825	724.56
337.053	729.56
337.281	739.56
337.51	744.56
337.738	694.56
337.966	708.56
338.194	694.56
338.422	677.56
338.65	663.56
338.878	675.56
339.106	662.56
339.334	685.56
339.562	650.56
339.79	635.56
340.018	640.56
340.246	646.56
340.474	649.56
340.702	640.56
340.93	655.56
341.158	654.56
341.386	635.56
341.614	654.56
341.842	637.56
342.07	641.56
342.298	638.56
342.526	648.56
342.754	640.56
342.981	649.56
343.209	627.56
343.437	656.56
343.665	741.56
343.893	777.56
344.12	810.56
344.348	754.56
344.576	757.56
344.804	698.56
345.031	686.56
345.259	649.56
345.487	666.56
345.714	640.56
345.942	652.56
346.17	654.56
346.397	622.56
346.625	612.56
346.853	634.56
347.08	666.56
347.308	611.56
347.535	656.56
347.763	660.56
347.99	630.56
348.218	658.56
348.445	650.56
348.673	633.56
348.9	617.56
349.128	642.56
349.355	632.56
349.583	619.56
349.81	622.56
350.037	585.56
350.265	589.56
350.492	613.56
350.72	621.56
350.947	603.56
351.174	597.56
351.402	595.56
351.629	585.56
351.856	596.56
352.083	589.56
352.311	612.56
352.538	606.56
352.765	599.56
352.992	579.56
353.22	562.56
353.447	581.56
353.674	591.56
353.901	600.56
354.128	585.56
354.355	603.56
354.583	599.56
354.81	584.56
355.037	594.56
355.264	626.56
355.491	612.56
355.718	606.56
355.945	599.56
356.172	602.56
356.399	620.56
356.626	614.56
356.853	616.56
357.08	603.56
357.307	578.56
357.534	576.56
357.761	596.56
357.988	619.56
358.215	606.56
358.441	608.56
358.668	570.56
358.895	607.56
359.122	585.56
359.349	587.56
359.576	588.56
359.802	591.56
360.029	600.56
360.256	612.56
360.483	594.56
360.709	576.56
360.936	609.56
361.163	605.56
361.39	594.56
361.616	594.56
361.843	577.56
362.07	611.56
362.296	575.56
362.523	598.56
362.749	611.56
362.976	575.56
363.203	562.56
363.429	586.56
363.656	595.56
363.882	594.56
364.109	596.56
364.335	596.56
364.562	576.56
364.788	605.56
365.015	596.56
365.241	584.56
365.468	584.56
365.694	586.56
365.92	605.56
366.147	601.56
366.373	618.56
366.599	604.56
366.826	592.56
367.052	601.56
367.278	628.56
367.505	598.56
367.731	618.56
367.957	583.56
368.184	597.56
368.41	596.56
368.636	610.56
368.862	600.56
369.089	598.56
369.315	612.56
369.541	588.56
369.767	616.56
369.993	627.56
370.219	618.56
370.445	629.56
370.672	634.56
370.898	637.56
371.124	649.56
371.35	640.56
371.576	652.56
371.802	653.56
372.028	663.56
372.254	624.56
372.48	665.56
372.706	656.56
372.932	710.56
373.158	692.56
373.384	673.56
373.61	644.56
373.835	654.56
374.061	641.56
374.287	648.56
374.513	683.56
374.739	679.56
374.965	721.56
375.191	707.56
375.416	728.56
375.642	726.56
375.868	699.56
376.094	704.56
376.319	680.56
376.545	669.56
376.771	658.56
376.997	668.56
377.222	670.56
377.448	639.56
377.674	652.56
377.899	650.56
378.125	628.56
378.35	653.56
378.576	640.56
378.802	651.56
379.027	644.56
379.253	651.56
379.478	654.56
379.704	616.56
379.929	663.56
380.155	644.56
380.38	637.56
380.606	625.56
380.831	636.56
381.057	670.56
381.282	659.56
381.507	633.56
381.733	651.56
381.958	657.56
382.184	648.56
382.409	661.56
382.634	660.56
382.86	684.56
383.085	688.56
383.31	708.56
383.535	717.56
383.761	724.56
383.986	747.56
384.211	749.56
384.436	754.56
384.662	788.56
384.887	816.56
385.112	786.56
385.337	798.56
385.562	808.56
385.787	772.56
386.013	798.56
386.238	815.56
386.463	797.56
386.688	794.56
386.913	765.56
387.138	765.56
387.363	761.56
387.588	789.56
387.813	780.56
388.038	739.56
388.263	804.56
388.488	802.56
388.713	762.56
388.938	763.56
389.163	756.56
389.387	761.56
389.612	727.56
389.837	745.56
390.062	759.56
390.287	741.56
390.512	754.56
390.736	777.56
390.961	804.56
391.186	797.56
391.411	831.56
391.636	861.56
391.86	885.56
392.085	882.56
392.31	873.56
392.534	844.56
392.759	832.56
392.984	843.56
393.208	837.56
393.433	834.56
393.658	839.56
393.882	814.56
394.107	838.56
394.331	838.56
394.556	817.56
394.78	851.56
395.005	838.56
395.229	832.56
395.454	849.56
395.678	892.56
395.903	914.56
396.127	865.56
396.352	845.56
396.576	799.56
396.801	808.56
397.025	849.56
397.249	842.56
397.474	890.56
397.698	852.56
397.922	901.56
398.147	853.56
398.371	888.56
398.595	903.56
398.82	938.56
399.044	998.56
399.268	1125.56
399.492	1322.56
399.717	1493.56
399.941	1536.56
400.165	1338.56
400.389	1206.56
400.613	1089.56
400.837	1003.56
401.062	979.56
401.286	971.56
401.51	967.56
401.734	963.56
401.958	1026.56
402.182	1001.56
402.406	991.56
402.63	1045.56
402.854	1065.56
403.078	1055.56
403.302	1119.56
403.526	1103.56
403.75	1112.56
403.974	1163.56
404.198	1171.56
404.422	1127.56
404.645	1161.56
404.869	1166.56
405.093	1119.56
405.317	1084.56
405.541	1077.56
405.765	1114.56
405.988	1040.56
406.212	1070.56
406.436	1064.56
406.66	1077.56
406.883	1105.56
407.107	1207.56
407.331	1278.56
407.555	1313.56
407.778	1288.56
408.002	1287.56
408.226	1196.56
408.449	1173.56
408.673	1134.56
408.896	1099.56
409.12	1138.56
409.344	1128.56
409.567	1105.56
409.791	1148.56
410.014	1156.56
410.238	1139.56
410.461	1141.56
410.685	1073.56
410.908	1060.56
411.132	1042.56
411.355	1026.56
411.578	1029.56
411.802	1024.56
412.025	1038.56
412.249	1027.56
412.472	1010.56
412.695	998.56
412.919	959.56
413.142	977.56
413.365	980.56
413.589	969.56
413.812	979.56
414.035	963.56
414.258	974.56
414.482	977.56
414.705	984.56
414.928	1037.56
415.151	1009.56
415.374	988.56
415.597	988.56
415.821	967.56
416.044	966.56
416.267	965.56
416.49	946.56
416.713	946.56
416.936	945.56
417.159	956.56
417.382	958.56
417.605	956.56
417.828	970.56
418.051	978.56
418.274	1004.56
418.497	967.56
418.72	1004.56
418.943	1010.56
419.166	1084.56
419.389	1144.56
419.611	1106.56
419.834	1078.56
420.057	1012.56
420.28	1019.56
420.503	965.56
420.726	977.56
420.948	951.56
421.171	994.56
421.394	950.56
421.617	970.56
421.839	961.56
422.062	976.56
422.285	969.56
422.507	1000.56
422.73	986.56
422.953	996.56
423.175	1026.56
423.398	1051.56
423.621	1018.56
423.843	1056.56
424.066	1093.56
424.288	1081.56
424.511	1050.56
424.733	1048.56
424.956	988.56
425.178	997.56
425.401	1000.56
425.623	980.56
425.846	935.56
426.068	941.56
426.291	930.56
426.513	937.56
426.735	945.56
426.958	926.56
427.18	902.56
427.402	881.56
427.625	893.56
427.847	896.56
428.069	896.56
428.292	906.56
428.514	870.56
428.736	869.56
428.958	870.56
429.181	840.56
429.403	854.56
429.625	874.56
429.847	860.56
430.069	855.56
430.292	876.56
430.514	836.56
430.736	835.56
430.958	875.56
431.18	847.56
431.402	844.56
431.624	870.56
431.846	873.56
432.068	907.56
432.29	888.56
432.512	889.56
432.734	875.56
432.956	849.56
433.178	860.56
433.4	854.56
433.622	890.56
433.844	900.56
434.066	888.56
434.287	921.56
434.509	924.56
434.731	949.56
434.953	998.56
435.175	989.56
435.397	988.56
435.618	923.56
435.84	907.56
436.062	898.56
436.284	870.56
436.505	889.56
436.727	886.56
436.949	878.56
437.17	863.56
437.392	872.56
437.614	848.56
437.835	880.56
438.057	854.56
438.278	808.56
438.5	860.56
438.721	842.56
438.943	861.56
439.165	859.56
439.386	865.56
439.608	883.56
439.829	882.56
440.05	869.56
440.272	900.56
440.493	858.56
440.715	914.56
440.936	915.56
441.158	929.56
441.379	958.56
441.6	989.56
441.822	1017.56
442.043	1038.56
442.264	1016.56
442.486	952.56
442.707	983.56
442.928	972.56
443.149	957.56
443.371	971.56
443.592	970.56
443.813	994.56
444.034	1018.56
444.255	1019.56
444.476	1088.56
444.698	1170.56
444.919	1212.56
445.14	1298.56
445.361	1150.56
445.582	1054.56
445.803	969.56
446.024	950.56
446.245	916.56
446.466	942.56
446.687	894.56
446.908	896.56
447.129	864.56
447.35	851.56
447.571	871.56
447.792	838.56
448.013	854.56
448.234	833.56
448.455	845.56
448.675	811.56
448.896	822.56
449.117	815.56
449.338	806.56
449.559	816.56
449.779	829.56
450	791.56
450.221	811.56
450.442	837.56
450.662	809.56
450.883	827.56
451.104	840.56
451.324	853.56
451.545	830.56
451.766	832.56
451.986	844.56
452.207	830.56
452.428	826.56
452.648	836.56
452.869	817.56
453.089	814.56
453.31	811.56
453.53	784.56
453.751	824.56
453.971	820.56
454.192	812.56
454.412	792.56
454.633	772.56
454.853	788.56
455.073	769.56
455.294	778.56
455.514	791.56
455.734	782.56
455.955	758.56
456.175	768.56
456.395	762.56
456.616	733.56
456.836	779.56
457.056	781.56
457.276	741.56
457.497	776.56
457.717	760.56
457.937	727.56
458.157	776.56
458.377	762.56
458.598	771.56
458.818	829.56
459.038	855.56
459.258	844.56
459.478	894.56
459.698	912.56
459.918	945.56
460.138	986.56
460.358	1042.56
460.578	1038.56
460.798	1074.56
461.018	1075.56
461.238	1034.56
461.458	1021.56
461.678	1032.56
461.898	1058.56
462.118	1062.56
462.338	1105.56
462.558	1142.56
462.777	1202.56
462.997	1250.56
463.217	1453.56
463.437	1488.56
463.657	1352.56
463.876	1277.56
464.096	1223.56
464.316	1250.56
464.536	1268.56
464.755	1219.56
464.975	1133.56
465.195	1074.56
465.414	1032.56
465.634	972.56
465.854	917.56
466.073	881.56
466.293	897.56
466.512	894.56
466.732	869.56
466.951	837.56
467.171	824.56
467.391	841.56
467.61	851.56
467.829	838.56
468.049	826.56
468.268	821.56
468.488	804.56
468.707	802.56
468.927	808.56
469.146	829.56
469.365	814.56
469.585	811.56
469.804	851.56
470.023	864.56
470.243	894.56
470.462	892.56
470.681	888.56
470.901	872.56
471.12	863.56
471.339	886.56
471.558	837.56
471.777	835.56
471.997	817.56
472.216	798.56
472.435	827.56
472.654	794.56
472.873	812.56
473.092	789.56
473.311	783.56
473.53	793.56
473.749	755.56
473.968	770.56
474.187	760.56
474.406	787.56
474.625	790.56
474.844	772.56
475.063	769.56
475.282	791.56
475.501	793.56
475.72	813.56
475.939	804.56
476.158	797.56
476.377	808.56
476.596	814.56
476.814	831.56
477.033	821.56
477.252	825.56
477.471	873.56
477.69	864.56
477.908	888.56
478.127	908.56
478.346	961.56
478.564	938.56
478.783	973.56
479.002	1001.56
479.22	1015.56
479.439	1005.56
479.658	963.56
479.876	954.56
480.095	1022.56
480.313	1009.56
480.532	1074.56
480.751	1075.56
480.969	1000.56
481.188	979.56
481.406	946.56
481.624	912.56
481.843	898.56
482.061	915.56
482.28	880.56
482.498	872.56
482.717	867.56
482.935	902.56
483.153	882.56
483.372	884.56
483.59	890.56
483.808	877.56
484.027	872.56
484.245	894.56
484.463	888.56
484.681	919.56
484.9	931.56
485.118	944.56
485.336	927.56
485.554	942.56
485.772	951.56
485.99	996.56
486.209	979.56
486.427	985.56
486.645	974.56
486.863	962.56
487.081	953.56
487.299	951.56
487.517	961.56
487.735	947.56
487.953	937.56
488.171	930.56
488.389	918.56
488.607	934.56
488.825	902.56
489.043	894.56
489.261	934.56
489.479	914.56
489.696	896.56
489.914	910.56
490.132	943.56
490.35	930.56
490.568	936.56
490.786	920.56
491.003	954.56
491.221	938.56
491.439	932.56
491.657	936.56
491.874	940.56
492.092	937.56
492.31	940.56
492.527	965.56
492.745	964.56
492.963	937.56
493.18	964.56
493.398	971.56
493.615	982.56
493.833	984.56
494.05	992.56
494.268	969.56
494.485	980.56
494.703	985.56
494.92	999.56
495.138	981.56
495.355	1012.56
495.573	998.56
495.79	993.56
496.008	1021.56
496.225	1006.56
496.442	1026.56
496.66	1037.56
496.877	1052.56
497.094	1048.56
497.312	1066.56
497.529	1086.56
497.746	1110.56
497.963	1137.56
498.181	1180.56
498.398	1231.56
498.615	1304.56
498.832	1384.56
499.049	1518.56
499.267	1632.56
499.484	1813.56
499.701	1966.56
499.918	2208.56
500.135	2558.56
500.352	2971.56
500.569	3134.56
500.786	3120.56
501.003	2908.56
501.22	2551.56
501.437	2228.56
501.654	1911.56
501.871	1756.56
502.088	1579.56
502.305	1493.56
502.522	1413.56
502.739	1398.56
502.956	1309.56
503.172	1247.56
503.389	1189.56
503.606	1145.56
503.823	1129.56
504.04	1130.56
504.256	1162.56
504.473	1187.56
504.69	1212.56
504.907	1206.56
505.123	1085.56
505.34	1030.56
505.557	987.56
505.773	942.56
505.99	937.56
506.207	951.56
506.423	935.56
506.64	896.56
506.856	900.56
507.073	905.56
507.289	887.56
507.506	870.56
507.722	889.56
507.939	884.56
508.155	865.56
508.372	866.56
508.588	867.56
508.805	830.56
509.021	811.56
509.238	819.56
509.454	820.56
509.67	825.56
509.887	835.56
510.103	808.56
510.319	814.56
510.536	818.56
510.752	800.56
510.968	807.56
511.184	798.56
511.401	811.56
511.617	786.56
511.833	803.56
512.049	821.56
512.265	792.56
512.481	806.56
512.698	774.56
512.914	800.56
513.13	789.56
513.346	810.56
513.562	796.56
513.778	813.56
513.994	828.56
514.21	816.56
514.426	817.56
514.642	817.56
514.858	828.56
515.074	829.56
515.29	827.56
515.506	846.56
515.721	833.56
515.937	870.56
516.153	873.56
516.369	857.56
516.585	930.56
516.801	957.56
517.016	956.56
517.232	1017.56
517.448	1079.56
517.664	1172.56
517.879	1162.56
518.095	1131.56
518.311	1128.56
518.527	1077.56
518.742	997.56
518.958	945.56
519.173	914.56
519.389	905.56
519.605	909.56
519.82	872.56
520.036	844.56
520.251	817.56
520.467	816.56
520.682	808.56
520.898	806.56
521.113	814.56
521.329	791.56
521.544	786.56
521.76	783.56
521.975	774.56
522.19	766.56
522.406	744.56
522.621	762.56
522.836	763.56
523.052	772.56
523.267	733.56
523.482	729.56
523.698	758.56
523.913	750.56
524.128	746.56
524.343	730.56
524.559	721.56
524.774	754.56
524.989	738.56
525.204	747.56
525.419	735.56
525.634	720.56
525.849	739.56
526.064	731.56
526.28	724.56
526.495	729.56
526.71	734.56
526.925	726.56
527.14	713.56
527.355	723.56
527.57	730.56
527.785	750.56
527.999	730.56
528.214	732.56
528.429	728.56
528.644	766.56
528.859	730.56
529.074	736.56
529.289	739.56
529.503	731.56
529.718	726.56
529.933	739.56
530.148	732.56
530.363	716.56
530.577	712.56
530.792	708.56
531.007	721.56
531.221	722.56
531.436	721.56
531.651	728.56
531.865	744.56
532.08	718.56
532.295	727.56
532.509	723.56
532.724	738.56
532.938	725.56
533.153	740.56
533.367	714.56
533.582	721.56
533.796	721.56
534.011	742.56
534.225	745.56
534.44	717.56
534.654	710.56
534.868	712.56
535.083	701.56
535.297	701.56
535.511	721.56
535.726	721.56
535.94	684.56
536.154	690.56
536.369	679.56
536.583	704.56
536.797	693.56
537.011	667.56
537.225	681.56
537.44	664.56
537.654	682.56
537.868	684.56
538.082	657.56
538.296	666.56
538.51	666.56
538.724	655.56
538.938	651.56
539.153	655.56
539.367	654.56
539.581	646.56
539.795	649.56
540.009	658.56
540.222	662.56
540.436	666.56
540.65	648.56
540.864	644.56
541.078	663.56
541.292	640.56
541.506	668.56
541.72	672.56
541.934	658.56
542.147	648.56
542.361	658.56
542.575	653.56
542.789	644.56
543.002	649.56
543.216	638.56
543.43	644.56
543.644	633.56
543.857	650.56
544.071	640.56
544.285	644.56
544.498	653.56
544.712	643.56
544.925	666.56
545.139	643.56
545.352	659.56
545.566	685.56
545.779	674.56
545.993	676.56
546.206	657.56
546.42	669.56
546.633	679.56
546.847	649.56
547.06	663.56
547.274	672.56
547.487	685.56
547.7	685.56
547.914	691.56
548.127	666.56
548.34	679.56
548.554	694.56
548.767	668.56
548.98	679.56
549.193	662.56
549.407	664.56
549.62	704.56
549.833	676.56
550.046	704.56
550.259	697.56
550.473	672.56
550.686	665.56
550.899	664.56
551.112	636.56
551.325	650.56
551.538	650.56
551.751	665.56
551.964	657.56
552.177	662.56
552.39	662.56
552.603	682.56
552.816	707.56
553.029	725.56
553.242	732.56
553.455	735.56
553.667	762.56
553.88	749.56
554.093	696.56
554.306	725.56
554.519	679.56
554.732	663.56
554.944	661.56
555.157	648.56
555.37	648.56
555.583	645.56
555.795	633.56
556.008	604.56
556.221	619.56
556.433	594.56
556.646	599.56
556.859	606.56
557.071	597.56
557.284	582.56
557.496	586.56
557.709	584.56
557.921	574.56
558.134	557.56
558.346	562.56
558.559	583.56
558.771	564.56
558.984	574.56
559.196	555.56
559.409	566.56
559.621	556.56
559.833	548.56
560.046	561.56
560.258	528.56
560.47	556.56
560.683	542.56
560.895	545.56
561.107	550.56
561.32	549.56
561.532	549.56
561.744	551.56
561.956	537.56
562.168	573.56
562.381	551.56
562.593	570.56
562.805	562.56
563.017	568.56
563.229	534.56
563.441	546.56
563.653	576.56
563.865	572.56
564.077	577.56
564.289	543.56
564.501	594.56
564.713	588.56
564.925	594.56
565.137	613.56
565.349	632.56
565.561	635.56
565.773	646.56
565.985	682.56
566.197	720.56
566.408	774.56
566.62	841.56
566.832	894.56
567.044	917.56
567.255	919.56
567.467	932.56
567.679	1012.56
567.891	1110.56
568.102	1122.56
568.314	1108.56
568.526	957.56
568.737	865.56
568.949	782.56
569.161	741.56
569.372	649.56
569.584	601.56
569.795	596.56
570.007	603.56
570.218	585.56
570.43	570.56
570.641	565.56
570.853	588.56
571.064	592.56
571.276	585.56
571.487	567.56
571.698	548.56
571.91	525.56
572.121	516.56
572.333	498.56
572.544	510.56
572.755	494.56
572.966	472.56
573.178	476.56
573.389	489.56
573.6	474.56
573.811	473.56
574.023	466.56
574.234	470.56
574.445	459.56
574.656	466.56
574.867	475.56
575.078	468.56
575.289	469.56
575.501	446.56
575.712	449.56
575.923	464.56
576.134	446.56
576.345	433.56
576.556	453.56
576.767	432.56
576.978	446.56
577.188	439.56
577.399	446.56
577.61	442.56
577.821	442.56
578.032	422.56
578.243	412.56
578.454	421.56
578.665	405.56
578.875	430.56
579.086	418.56
579.297	406.56
579.508	419.56
579.718	422.56
579.929	423.56
580.14	407.56
580.35	412.56
580.561	428.56
580.772	404.56
580.982	408.56
581.193	380.56
581.403	388.56
581.614	384.56
581.825	413.56
582.035	392.56
582.246	390.56
582.456	399.56
582.667	388.56
582.877	392.56
583.087	378.56
583.298	396.56
583.508	364.56
583.719	406.56
583.929	380.56
584.139	384.56
584.35	398.56
584.56	389.56
584.77	369.56
584.981	382.56
585.191	389.56
585.401	380.56
585.611	376.56
585.821	370.56
586.032	388.56
586.242	385.56
586.452	385.56
586.662	381.56
586.872	382.56
587.082	362.56
587.292	362.56
587.502	379.56
587.713	392.56
587.923	388.56
588.133	395.56
588.343	383.56
588.553	369.56
588.762	382.56
588.972	376.56
589.182	384.56
589.392	397.56
589.602	400.56
589.812	378.56
590.022	373.56
590.232	372.56
590.441	360.56
590.651	382.56
590.861	368.56
591.071	379.56
591.281	398.56
591.49	399.56
591.7	402.56
591.91	423.56
592.119	413.56
592.329	420.56
592.539	444.56
592.748	436.56
592.958	464.56
593.167	493.56
593.377	460.56
593.587	488.56
593.796	498.56
594.006	504.56
594.215	508.56
594.424	490.56
594.634	504.56
594.843	457.56
595.053	450.56
595.262	437.56
595.472	423.56
595.681	399.56
595.89	377.56
596.1	371.56
596.309	367.56
596.518	372.56
596.727	354.56
596.937	358.56
597.146	350.56
597.355	370.56
597.564	354.56
597.774	325.56
597.983	351.56
598.192	353.56
598.401	327.56
598.61	358.56
598.819	351.56
599.028	341.56
599.237	323.56
599.446	309.56
599.655	328.56
599.864	324.56
600.073	329.56
600.282	329.56
600.491	329.56
600.7	341.56
600.909	319.56
601.118	324.56
601.327	317.56
601.536	293.56
601.745	329.56
601.953	323.56
602.162	322.56
602.371	326.56
602.58	309.56
602.789	305.56
602.997	323.56
603.206	311.56
603.415	296.56
603.623	309.56
603.832	301.56
604.041	316.56
604.249	300.56
604.458	311.56
604.666	296.56
604.875	297.56
605.084	292.56
605.292	289.56
605.501	298.56
605.709	298.56
605.918	290.56
606.126	288.56
606.334	280.56
606.543	284.56
606.751	291.56
606.96	296.56
607.168	287.56
607.376	312.56
607.585	291.56
607.793	302.56
608.001	313.56
608.21	299.56
608.418	293.56
608.626	285.56
608.834	281.56
609.043	287.56
609.251	293.56
609.459	292.56
609.667	277.56
609.875	294.56
610.083	290.56
610.291	294.56
610.499	280.56
610.707	281.56
610.916	290.56
611.124	275.56
611.332	275.56
611.54	298.56
611.748	298.56
611.955	282.56
612.163	271.56
612.371	259.56
612.579	249.56
612.787	280.56
612.995	292.56
613.203	258.56
613.411	271.56
613.618	271.56
613.826	279.56
614.034	274.56
614.242	277.56
614.449	269.56
614.657	286.56
614.865	288.56
615.072	280.56
615.28	292.56
615.488	265.56
615.695	272.56
615.903	281.56
616.111	284.56
616.318	269.56
616.526	274.56
616.733	281.56
616.941	282.56
617.148	275.56
617.356	276.56
617.563	257.56
617.771	295.56
617.978	287.56
618.185	278.56
618.393	289.56
618.6	278.56
618.807	276.56
619.015	265.56
619.222	279.56
619.429	264.56
619.637	264.56
619.844	268.56
620.051	274.56
620.258	262.56
620.466	255.56
620.673	254.56
620.88	244.56
621.087	247.56
621.294	251.56
621.501	248.56
621.708	257.56
621.915	246.56
622.122	239.56
622.329	245.56
622.536	252.56
622.743	264.56
622.95	260.56
623.157	250.56
623.364	257.56
623.571	244.56
623.778	269.56
623.985	237.56
624.192	235.56
624.399	256.56
624.606	241.56
624.812	237.56
625.019	235.56
625.226	226.56
625.433	256.56
625.639	247.56
625.846	234.56
626.053	258.56
626.259	245.56
626.466	238.56
626.673	239.56
626.879	229.56
627.086	243.56
627.293	235.56
627.499	230.56
627.706	233.56
627.912	220.56
628.119	237.56
628.325	234.56
628.532	225.56
628.738	242.56
628.945	232.56
629.151	235.56
629.357	241.56
629.564	220.56
629.77	221.56
629.976	208.56
630.183	227.56
630.389	208.56
630.595	228.56
630.802	216.56
631.008	234.56
631.214	211.56
631.42	232.56
631.627	225.56
631.833	217.56
632.039	211.56
632.245	215.56
632.451	209.56
632.657	206.56
632.863	235.56
633.069	218.56
633.275	213.56
633.481	208.56
633.688	217.56
633.893	218.56
634.099	201.56
634.305	206.56
634.511	194.56
634.717	221.56
634.923	225.56
635.129	204.56
635.335	189.56
635.541	212.56
635.747	201.56
635.952	203.56
636.158	203.56
636.364	186.56
636.57	191.56
636.775	184.56
636.981	200.56
637.187	191.56
637.392	208.56
637.598	191.56
637.804	197.56
638.009	208.56
638.215	197.56
638.421	202.56
638.626	197.56
638.832	190.56
639.037	204.56
639.243	203.56
639.448	181.56
639.654	196.56
639.859	188.56
640.065	176.56
640.27	193.56
640.475	186.56
640.681	211.56
640.886	197.56
641.091	184.56
641.297	169.56
641.502	191.56
641.707	180.56
641.913	191.56
642.118	184.56
642.323	198.56
642.528	173.56
642.733	185.56
642.939	182.56
643.144	168.56
643.349	202.56
643.554	177.56
643.759	181.56
643.964	184.56
644.169	184.56
644.374	191.56
644.579	203.56
644.784	187.56
644.989	165.56
645.194	192.56
645.399	189.56
645.604	190.56
645.809	178.56
646.014	189.56
646.219	177.56
646.423	178.56
646.628	166.56
646.833	196.56
647.038	188.56
647.243	179.56
647.447	203.56
647.652	187.56
647.857	201.56
648.062	209.56
648.266	184.56
648.471	192.56
648.676	200.56
648.88	201.56
649.085	177.56
649.289	196.56
649.494	185.56
649.698	178.56
649.903	174.56
650.107	163.56
650.312	178.56
650.516	165.56
650.721	179.56
650.925	168.56
651.13	162.56
651.334	162.56
651.539	176.56
651.743	168.56
651.947	169.56
652.152	147.56
652.356	154.56
652.56	156.56
652.764	148.56
652.969	136.56
653.173	160.56
653.377	134.56
653.581	156.56
653.785	124.56
653.99	143.56
654.194	148.56
654.398	144.56
654.602	129.56
654.806	143.56
655.01	138.56
655.214	123.56
655.418	124.56
655.622	135.56
655.826	123.56
656.03	128.56
656.234	135.56
656.438	138.56
656.642	131.56
656.846	123.56
657.049	125.56
657.253	122.56
657.457	121.56
657.661	118.56
657.865	113.56
658.068	111.56
658.272	115.56
658.476	114.56
658.68	94.56
658.883	113.56
659.087	103.56
659.291	104.56
659.494	109.56
659.698	101.56
659.901	99.56
660.105	92.56
660.309	95.56
660.512	99.56
660.716	84.56
660.919	97.56
661.123	101.56
661.326	96.56
661.53	90.56
661.733	74.56
661.936	99.56
662.14	88.56
662.343	80.56
662.546	82.56
662.75	80.56
662.953	81.56
663.156	90.56
663.36	89.56
663.563	73.56
663.766	70.56
663.969	98.56
664.173	96.56
664.376	78.56
664.579	76.56
664.782	89.56
664.985	84.56
665.188	86.56
665.391	76.56
665.594	84.56
665.797	84.56
666	83.56
666.203	76.56
666.406	86.56
666.609	72.56
666.812	77.56
667.015	82.56
667.218	90.56
667.421	95.56
667.624	72.56
667.827	84.56
668.03	84.56
668.232	69.56
668.435	79.56
668.638	91.56
668.841	77.56
669.043	68.56
669.246	77.56
669.449	70.56
669.651	77.56
669.854	84.56
670.057	73.56
670.259	75.56
670.462	81.56
670.665	88.56
670.867	83.56
671.07	81.56
671.272	89.56
671.475	85.56
671.677	80.56
671.88	83.56
672.082	74.56
672.284	74.56
672.487	80.56
672.689	81.56
672.892	91.56
