Data from NiCl2@0.125M.TitratingCurve.Agarose3%dH2O.NegLispCup.LampEnergy10.LIBS07252019_HRD10591_18-28-56-574.txt Node
Date: Thu Jul 25 18:28:56 EDT 2019
User: cochatt
Spectrometer: HR+D1059
Trigger mode: 1
Integration Time (sec): 1.000000E-1
Scans to average: 1
Electric dark correction enabled: true
Nonlinearity correction enabled: false
Boxcar width: 0
XAxis mode: Wavelengths
Number of Pixels in Spectrum: 2048
>>>>>Begin Spectral Data<<<<<
223.165	-26.25
223.4	-26.25
223.635	-26.25
223.869	-21.25
224.104	-7.25
224.338	-18.25
224.573	-25.25
224.808	-23.25
225.042	-13.25
225.277	6.75
225.511	-5.25
225.746	6.75
225.98	9.75
226.215	6.75
226.449	14.75
226.683	17.75
226.918	26.75
227.152	50.75
227.387	26.75
227.621	23.75
227.856	58.75
228.09	46.75
228.324	54.75
228.559	62.75
228.793	68.75
229.027	116.75
229.262	98.75
229.496	127.75
229.73	117.75
229.964	118.75
230.199	126.75
230.433	136.75
230.667	148.75
230.901	127.75
231.136	137.75
231.37	142.75
231.604	140.75
231.838	132.75
232.072	144.75
232.306	142.75
232.541	160.75
232.775	147.75
233.009	157.75
233.243	151.75
233.477	146.75
233.711	140.75
233.945	154.75
234.179	151.75
234.413	159.75
234.647	153.75
234.881	147.75
235.115	141.75
235.349	147.75
235.583	158.75
235.817	147.75
236.051	155.75
236.285	154.75
236.519	168.75
236.753	148.75
236.987	159.75
237.221	154.75
237.455	157.75
237.689	167.75
237.922	151.75
238.156	169.75
238.39	170.75
238.624	182.75
238.858	176.75
239.091	164.75
239.325	157.75
239.559	180.75
239.793	173.75
240.027	166.75
240.26	169.75
240.494	190.75
240.728	172.75
240.961	170.75
241.195	180.75
241.429	194.75
241.662	185.75
241.896	183.75
242.13	188.75
242.363	199.75
242.597	202.75
242.83	195.75
243.064	210.75
243.298	210.75
243.531	192.75
243.765	210.75
243.998	213.75
244.232	212.75
244.465	223.75
244.699	223.75
244.932	207.75
245.166	213.75
245.399	214.75
245.633	224.75
245.866	242.75
246.099	223.75
246.333	235.75
246.566	236.75
246.8	230.75
247.033	214.75
247.266	227.75
247.5	238.75
247.733	237.75
247.966	230.75
248.2	251.75
248.433	234.75
248.666	254.75
248.899	238.75
249.133	240.75
249.366	266.75
249.599	262.75
249.832	257.75
250.066	251.75
250.299	260.75
250.532	254.75
250.765	246.75
250.998	257.75
251.231	270.75
251.465	240.75
251.698	261.75
251.931	258.75
252.164	279.75
252.397	278.75
252.63	251.75
252.863	274.75
253.096	269.75
253.329	288.75
253.562	273.75
253.795	275.75
254.028	278.75
254.261	251.75
254.494	268.75
254.727	277.75
254.96	294.75
255.193	278.75
255.426	289.75
255.659	290.75
255.892	292.75
256.124	294.75
256.357	292.75
256.59	298.75
256.823	297.75
257.056	294.75
257.289	302.75
257.521	322.75
257.754	306.75
257.987	311.75
258.22	319.75
258.452	301.75
258.685	298.75
258.918	306.75
259.151	314.75
259.383	299.75
259.616	328.75
259.849	307.75
260.081	314.75
260.314	333.75
260.547	312.75
260.779	307.75
261.012	325.75
261.244	303.75
261.477	328.75
261.71	324.75
261.942	325.75
262.175	323.75
262.407	320.75
262.64	315.75
262.872	315.75
263.105	330.75
263.337	333.75
263.57	348.75
263.802	343.75
264.035	347.75
264.267	355.75
264.499	334.75
264.732	320.75
264.964	351.75
265.197	358.75
265.429	370.75
265.661	352.75
265.894	366.75
266.126	353.75
266.358	370.75
266.591	359.75
266.823	358.75
267.055	377.75
267.287	348.75
267.52	364.75
267.752	364.75
267.984	370.75
268.216	366.75
268.448	382.75
268.681	382.75
268.913	370.75
269.145	378.75
269.377	381.75
269.609	376.75
269.841	354.75
270.073	348.75
270.306	367.75
270.538	375.75
270.77	364.75
271.002	389.75
271.234	378.75
271.466	363.75
271.698	384.75
271.93	374.75
272.162	371.75
272.394	395.75
272.626	391.75
272.858	385.75
273.09	390.75
273.322	380.75
273.553	390.75
273.785	395.75
274.017	382.75
274.249	408.75
274.481	405.75
274.713	392.75
274.945	403.75
275.176	400.75
275.408	416.75
275.64	418.75
275.872	399.75
276.104	407.75
276.335	416.75
276.567	415.75
276.799	414.75
277.031	438.75
277.262	401.75
277.494	429.75
277.726	412.75
277.957	415.75
278.189	408.75
278.421	424.75
278.652	443.75
278.884	432.75
279.115	410.75
279.347	437.75
279.579	446.75
279.81	429.75
280.042	427.75
280.273	449.75
280.505	452.75
280.736	447.75
280.968	442.75
281.199	447.75
281.431	458.75
281.662	442.75
281.894	449.75
282.125	454.75
282.356	459.75
282.588	445.75
282.819	472.75
283.051	458.75
283.282	484.75
283.513	470.75
283.745	486.75
283.976	463.75
284.207	456.75
284.439	484.75
284.67	457.75
284.901	478.75
285.132	507.75
285.364	468.75
285.595	486.75
285.826	496.75
286.057	496.75
286.288	472.75
286.52	495.75
286.751	502.75
286.982	511.75
287.213	500.75
287.444	483.75
287.675	487.75
287.906	503.75
288.138	507.75
288.369	525.75
288.6	506.75
288.831	522.75
289.062	515.75
289.293	518.75
289.524	519.75
289.755	491.75
289.986	524.75
290.217	504.75
290.448	509.75
290.679	502.75
290.91	503.75
291.141	535.75
291.371	526.75
291.602	536.75
291.833	508.75
292.064	498.75
292.295	527.75
292.526	518.75
292.757	517.75
292.987	528.75
293.218	520.75
293.449	521.75
293.68	527.75
293.91	522.75
294.141	520.75
294.372	537.75
294.603	517.75
294.833	528.75
295.064	519.75
295.295	537.75
295.525	550.75
295.756	555.75
295.987	524.75
296.217	544.75
296.448	544.75
296.679	544.75
296.909	519.75
297.14	556.75
297.37	559.75
297.601	563.75
297.831	542.75
298.062	568.75
298.292	576.75
298.523	592.75
298.753	590.75
298.984	568.75
299.214	567.75
299.445	573.75
299.675	549.75
299.905	572.75
300.136	576.75
300.366	573.75
300.597	563.75
300.827	581.75
301.057	618.75
301.288	603.75
301.518	581.75
301.748	601.75
301.979	601.75
302.209	597.75
302.439	603.75
302.669	590.75
302.9	590.75
303.13	567.75
303.36	585.75
303.59	570.75
303.82	551.75
304.051	582.75
304.281	577.75
304.511	589.75
304.741	571.75
304.971	583.75
305.201	611.75
305.431	580.75
305.661	579.75
305.891	596.75
306.121	595.75
306.352	593.75
306.582	568.75
306.812	553.75
307.042	557.75
307.272	580.75
307.502	579.75
307.731	558.75
307.961	564.75
308.191	566.75
308.421	554.75
308.651	566.75
308.881	559.75
309.111	598.75
309.341	565.75
309.571	559.75
309.8	585.75
310.03	568.75
310.26	556.75
310.49	564.75
310.72	574.75
310.949	585.75
311.179	593.75
311.409	565.75
311.639	575.75
311.868	584.75
312.098	566.75
312.328	572.75
312.557	608.75
312.787	596.75
313.017	586.75
313.246	608.75
313.476	592.75
313.706	578.75
313.935	577.75
314.165	619.75
314.394	602.75
314.624	630.75
314.853	599.75
315.083	605.75
315.312	597.75
315.542	573.75
315.771	628.75
316.001	595.75
316.23	602.75
316.46	589.75
316.689	576.75
316.919	584.75
317.148	591.75
317.377	600.75
317.607	588.75
317.836	580.75
318.065	582.75
318.295	592.75
318.524	585.75
318.753	591.75
318.983	584.75
319.212	580.75
319.441	605.75
319.67	594.75
319.9	581.75
320.129	580.75
320.358	608.75
320.587	570.75
320.816	583.75
321.046	606.75
321.275	591.75
321.504	601.75
321.733	597.75
321.962	593.75
322.191	600.75
322.42	572.75
322.649	592.75
322.878	617.75
323.108	614.75
323.337	598.75
323.566	602.75
323.795	608.75
324.024	628.75
324.253	585.75
324.482	608.75
324.71	608.75
324.939	632.75
325.168	623.75
325.397	620.75
325.626	614.75
325.855	624.75
326.084	639.75
326.313	677.75
326.542	657.75
326.77	658.75
326.999	661.75
327.228	636.75
327.457	622.75
327.686	642.75
327.914	638.75
328.143	644.75
328.372	634.75
328.6	648.75
328.829	635.75
329.058	642.75
329.287	650.75
329.515	659.75
329.744	645.75
329.972	637.75
330.201	623.75
330.43	631.75
330.658	663.75
330.887	669.75
331.115	675.75
331.344	683.75
331.572	650.75
331.801	684.75
332.03	684.75
332.258	695.75
332.486	724.75
332.715	771.75
332.943	784.75
333.172	846.75
333.4	853.75
333.629	870.75
333.857	878.75
334.085	880.75
334.314	862.75
334.542	856.75
334.771	811.75
334.999	799.75
335.227	790.75
335.455	813.75
335.684	804.75
335.912	810.75
336.14	776.75
336.369	780.75
336.597	784.75
336.825	789.75
337.053	790.75
337.281	772.75
337.51	738.75
337.738	739.75
337.966	740.75
338.194	720.75
338.422	698.75
338.65	688.75
338.878	707.75
339.106	724.75
339.334	697.75
339.562	706.75
339.79	690.75
340.018	679.75
340.246	657.75
340.474	654.75
340.702	673.75
340.93	677.75
341.158	667.75
341.386	702.75
341.614	665.75
341.842	666.75
342.07	660.75
342.298	659.75
342.526	665.75
342.754	674.75
342.981	665.75
343.209	669.75
343.437	701.75
343.665	733.75
343.893	814.75
344.12	848.75
344.348	795.75
344.576	763.75
344.804	744.75
345.031	723.75
345.259	685.75
345.487	690.75
345.714	663.75
345.942	665.75
346.17	679.75
346.397	645.75
346.625	657.75
346.853	638.75
347.08	679.75
347.308	645.75
347.535	667.75
347.763	671.75
347.99	688.75
348.218	658.75
348.445	658.75
348.673	683.75
348.9	662.75
349.128	653.75
349.355	640.75
349.583	637.75
349.81	623.75
350.037	644.75
350.265	644.75
350.492	636.75
350.72	638.75
350.947	626.75
351.174	624.75
351.402	629.75
351.629	640.75
351.856	634.75
352.083	630.75
352.311	628.75
352.538	607.75
352.765	633.75
352.992	640.75
353.22	627.75
353.447	605.75
353.674	629.75
353.901	608.75
354.128	604.75
354.355	636.75
354.583	630.75
354.81	638.75
355.037	638.75
355.264	633.75
355.491	636.75
355.718	623.75
355.945	636.75
356.172	602.75
356.399	616.75
356.626	625.75
356.853	636.75
357.08	640.75
357.307	612.75
357.534	631.75
357.761	610.75
357.988	658.75
358.215	622.75
358.441	639.75
358.668	622.75
358.895	621.75
359.122	637.75
359.349	619.75
359.576	644.75
359.802	636.75
360.029	632.75
360.256	629.75
360.483	621.75
360.709	639.75
360.936	628.75
361.163	630.75
361.39	622.75
361.616	610.75
361.843	639.75
362.07	650.75
362.296	638.75
362.523	620.75
362.749	627.75
362.976	614.75
363.203	594.75
363.429	608.75
363.656	630.75
363.882	653.75
364.109	639.75
364.335	613.75
364.562	606.75
364.788	616.75
365.015	636.75
365.241	614.75
365.468	606.75
365.694	612.75
365.92	620.75
366.147	616.75
366.373	603.75
366.599	614.75
366.826	624.75
367.052	630.75
367.278	615.75
367.505	630.75
367.731	614.75
367.957	605.75
368.184	619.75
368.41	618.75
368.636	641.75
368.862	640.75
369.089	651.75
369.315	639.75
369.541	646.75
369.767	632.75
369.993	625.75
370.219	643.75
370.445	662.75
370.672	660.75
370.898	664.75
371.124	654.75
371.35	664.75
371.576	696.75
371.802	662.75
372.028	667.75
372.254	687.75
372.48	667.75
372.706	677.75
372.932	709.75
373.158	707.75
373.384	711.75
373.61	702.75
373.835	686.75
374.061	677.75
374.287	695.75
374.513	692.75
374.739	697.75
374.965	731.75
375.191	778.75
375.416	754.75
375.642	735.75
375.868	738.75
376.094	735.75
376.319	701.75
376.545	730.75
376.771	683.75
376.997	687.75
377.222	693.75
377.448	690.75
377.674	678.75
377.899	689.75
378.125	677.75
378.35	668.75
378.576	682.75
378.802	665.75
379.027	672.75
379.253	690.75
379.478	678.75
379.704	681.75
379.929	658.75
380.155	656.75
380.38	662.75
380.606	670.75
380.831	670.75
381.057	668.75
381.282	668.75
381.507	668.75
381.733	686.75
381.958	684.75
382.184	687.75
382.409	702.75
382.634	711.75
382.86	696.75
383.085	741.75
383.31	724.75
383.535	736.75
383.761	738.75
383.986	738.75
384.211	782.75
384.436	824.75
384.662	797.75
384.887	798.75
385.112	814.75
385.337	837.75
385.562	797.75
385.787	828.75
386.013	858.75
386.238	838.75
386.463	816.75
386.688	823.75
386.913	796.75
387.138	810.75
387.363	793.75
387.588	802.75
387.813	804.75
388.038	777.75
388.263	775.75
388.488	799.75
388.713	816.75
388.938	804.75
389.163	787.75
389.387	783.75
389.612	782.75
389.837	767.75
390.062	805.75
390.287	765.75
390.512	788.75
390.736	802.75
390.961	826.75
391.186	824.75
391.411	854.75
391.636	864.75
391.86	891.75
392.085	935.75
392.31	946.75
392.534	878.75
392.759	854.75
392.984	888.75
393.208	842.75
393.433	866.75
393.658	885.75
393.882	852.75
394.107	888.75
394.331	862.75
394.556	861.75
394.78	857.75
395.005	854.75
395.229	866.75
395.454	904.75
395.678	911.75
395.903	933.75
396.127	912.75
396.352	830.75
396.576	852.75
396.801	844.75
397.025	852.75
397.249	883.75
397.474	912.75
397.698	907.75
397.922	914.75
398.147	885.75
398.371	901.75
398.595	946.75
398.82	984.75
399.044	1056.75
399.268	1153.75
399.492	1361.75
399.717	1601.75
399.941	1574.75
400.165	1411.75
400.389	1243.75
400.613	1135.75
400.837	1074.75
401.062	1045.75
401.286	1028.75
401.51	986.75
401.734	1030.75
401.958	1025.75
402.182	1044.75
402.406	1058.75
402.63	1077.75
402.854	1096.75
403.078	1092.75
403.302	1162.75
403.526	1173.75
403.75	1192.75
403.974	1202.75
404.198	1194.75
404.422	1218.75
404.645	1198.75
404.869	1188.75
405.093	1200.75
405.317	1164.75
405.541	1192.75
405.765	1141.75
405.988	1125.75
406.212	1135.75
406.436	1147.75
406.66	1158.75
406.883	1174.75
407.107	1238.75
407.331	1272.75
407.555	1356.75
407.778	1359.75
408.002	1291.75
408.226	1250.75
408.449	1236.75
408.673	1197.75
408.896	1127.75
409.12	1166.75
409.344	1166.75
409.567	1168.75
409.791	1174.75
410.014	1138.75
410.238	1168.75
410.461	1177.75
410.685	1145.75
410.908	1126.75
411.132	1103.75
411.355	1038.75
411.578	1037.75
411.802	1039.75
412.025	1060.75
412.249	1085.75
412.472	1030.75
412.695	1032.75
412.919	993.75
413.142	1007.75
413.365	990.75
413.589	1032.75
413.812	983.75
414.035	1005.75
414.258	987.75
414.482	1026.75
414.705	1031.75
414.928	1051.75
415.151	1047.75
415.374	1034.75
415.597	1012.75
415.821	1004.75
416.044	994.75
416.267	982.75
416.49	998.75
416.713	987.75
416.936	1012.75
417.159	1027.75
417.382	1011.75
417.605	1018.75
417.828	1001.75
418.051	1030.75
418.274	1023.75
418.497	1007.75
418.72	1074.75
418.943	1068.75
419.166	1108.75
419.389	1222.75
419.611	1169.75
419.834	1130.75
420.057	1058.75
420.28	1034.75
420.503	1006.75
420.726	1023.75
420.948	1010.75
421.171	1011.75
421.394	980.75
421.617	1005.75
421.839	1007.75
422.062	1024.75
422.285	1023.75
422.507	1068.75
422.73	1018.75
422.953	1015.75
423.175	1065.75
423.398	1093.75
423.621	1100.75
423.843	1108.75
424.066	1098.75
424.288	1104.75
424.511	1118.75
424.733	1083.75
424.956	1069.75
425.178	1012.75
425.401	1062.75
425.623	1018.75
425.846	996.75
426.068	976.75
426.291	939.75
426.513	983.75
426.735	959.75
426.958	959.75
427.18	914.75
427.402	942.75
427.625	935.75
427.847	928.75
428.069	922.75
428.292	916.75
428.514	910.75
428.736	893.75
428.958	900.75
429.181	864.75
429.403	907.75
429.625	873.75
429.847	864.75
430.069	864.75
430.292	895.75
430.514	876.75
430.736	896.75
430.958	898.75
431.18	902.75
431.402	903.75
431.624	910.75
431.846	896.75
432.068	924.75
432.29	943.75
432.512	922.75
432.734	931.75
432.956	907.75
433.178	911.75
433.4	909.75
433.622	923.75
433.844	907.75
434.066	917.75
434.287	942.75
434.509	984.75
434.731	1014.75
434.953	1024.75
435.175	1063.75
435.397	1035.75
435.618	977.75
435.84	949.75
436.062	987.75
436.284	920.75
436.505	918.75
436.727	920.75
436.949	906.75
437.17	946.75
437.392	904.75
437.614	898.75
437.835	868.75
438.057	877.75
438.278	891.75
438.5	871.75
438.721	884.75
438.943	903.75
439.165	893.75
439.386	896.75
439.608	892.75
439.829	923.75
440.05	904.75
440.272	940.75
440.493	921.75
440.715	933.75
440.936	977.75
441.158	980.75
441.379	991.75
441.6	1028.75
441.822	1040.75
442.043	1081.75
442.264	1034.75
442.486	1016.75
442.707	1019.75
442.928	1030.75
443.149	1015.75
443.371	1016.75
443.592	1014.75
443.813	1055.75
444.034	1012.75
444.255	1089.75
444.476	1135.75
444.698	1226.75
444.919	1262.75
445.14	1371.75
445.361	1210.75
445.582	1086.75
445.803	1025.75
446.024	984.75
446.245	947.75
446.466	963.75
446.687	960.75
446.908	932.75
447.129	877.75
447.35	888.75
447.571	862.75
447.792	892.75
448.013	871.75
448.234	867.75
448.455	872.75
448.675	877.75
448.896	870.75
449.117	862.75
449.338	833.75
449.559	854.75
449.779	836.75
450	860.75
450.221	838.75
450.442	873.75
450.662	864.75
450.883	898.75
451.104	874.75
451.324	870.75
451.545	874.75
451.766	876.75
451.986	905.75
452.207	867.75
452.428	849.75
452.648	874.75
452.869	828.75
453.089	850.75
453.31	851.75
453.53	822.75
453.751	824.75
453.971	816.75
454.192	846.75
454.412	822.75
454.633	814.75
454.853	774.75
455.073	796.75
455.294	796.75
455.514	801.75
455.734	802.75
455.955	779.75
456.175	785.75
456.395	798.75
456.616	785.75
456.836	783.75
457.056	777.75
457.276	777.75
457.497	800.75
457.717	790.75
457.937	798.75
458.157	806.75
458.377	822.75
458.598	813.75
458.818	855.75
459.038	868.75
459.258	896.75
459.478	936.75
459.698	953.75
459.918	1004.75
460.138	1021.75
460.358	1076.75
460.578	1125.75
460.798	1104.75
461.018	1138.75
461.238	1088.75
461.458	1074.75
461.678	1071.75
461.898	1091.75
462.118	1086.75
462.338	1171.75
462.558	1185.75
462.777	1214.75
462.997	1357.75
463.217	1527.75
463.437	1544.75
463.657	1414.75
463.876	1350.75
464.096	1292.75
464.316	1274.75
464.536	1288.75
464.755	1268.75
464.975	1202.75
465.195	1135.75
465.414	1082.75
465.634	1024.75
465.854	951.75
466.073	953.75
466.293	911.75
466.512	931.75
466.732	901.75
466.951	889.75
467.171	874.75
467.391	892.75
467.61	867.75
467.829	895.75
468.049	872.75
468.268	849.75
468.488	836.75
468.707	845.75
468.927	835.75
469.146	852.75
469.365	885.75
469.585	862.75
469.804	870.75
470.023	900.75
470.243	900.75
470.462	901.75
470.681	899.75
470.901	916.75
471.12	895.75
471.339	888.75
471.558	888.75
471.777	854.75
471.997	855.75
472.216	823.75
472.435	809.75
472.654	832.75
472.873	829.75
473.092	800.75
473.311	813.75
473.53	811.75
473.749	793.75
473.968	806.75
474.187	822.75
474.406	792.75
474.625	843.75
474.844	825.75
475.063	822.75
475.282	818.75
475.501	827.75
475.72	843.75
475.939	838.75
476.158	822.75
476.377	849.75
476.596	858.75
476.814	848.75
477.033	876.75
477.252	892.75
477.471	909.75
477.69	923.75
477.908	967.75
478.127	948.75
478.346	974.75
478.564	954.75
478.783	1004.75
479.002	1011.75
479.22	1046.75
479.439	1022.75
479.658	983.75
479.876	1013.75
480.095	1036.75
480.313	1080.75
480.532	1096.75
480.751	1103.75
480.969	1098.75
481.188	1026.75
481.406	969.75
481.624	936.75
481.843	950.75
482.061	942.75
482.28	944.75
482.498	912.75
482.717	908.75
482.935	902.75
483.153	950.75
483.372	911.75
483.59	919.75
483.808	935.75
484.027	934.75
484.245	926.75
484.463	924.75
484.681	958.75
484.9	948.75
485.118	968.75
485.336	964.75
485.554	968.75
485.772	956.75
485.99	1029.75
486.209	1020.75
486.427	992.75
486.645	1031.75
486.863	996.75
487.081	1004.75
487.299	970.75
487.517	1003.75
487.735	1000.75
487.953	966.75
488.171	950.75
488.389	979.75
488.607	959.75
488.825	941.75
489.043	948.75
489.261	956.75
489.479	976.75
489.696	959.75
489.914	976.75
490.132	984.75
490.35	989.75
490.568	980.75
490.786	971.75
491.003	969.75
491.221	1002.75
491.439	1020.75
491.657	988.75
491.874	993.75
492.092	971.75
492.31	997.75
492.527	991.75
492.745	1000.75
492.963	1016.75
493.18	993.75
493.398	998.75
493.615	990.75
493.833	1013.75
494.05	1017.75
494.268	1040.75
494.485	1017.75
494.703	1047.75
494.92	1053.75
495.138	1069.75
495.355	1027.75
495.573	1036.75
495.79	1020.75
496.008	1051.75
496.225	1067.75
496.442	1058.75
496.66	1069.75
496.877	1110.75
497.094	1100.75
497.312	1127.75
497.529	1115.75
497.746	1183.75
497.963	1176.75
498.181	1231.75
498.398	1296.75
498.615	1347.75
498.832	1444.75
499.049	1555.75
499.267	1721.75
499.484	1892.75
499.701	2105.75
499.918	2326.75
500.135	2700.75
500.352	3083.75
500.569	3311.75
500.786	3271.75
501.003	3003.75
501.22	2657.75
501.437	2345.75
501.654	2018.75
501.871	1844.75
502.088	1692.75
502.305	1565.75
502.522	1505.75
502.739	1438.75
502.956	1363.75
503.172	1294.75
503.389	1228.75
503.606	1173.75
503.823	1176.75
504.04	1176.75
504.256	1196.75
504.473	1220.75
504.69	1266.75
504.907	1247.75
505.123	1134.75
505.34	1079.75
505.557	1018.75
505.773	1014.75
505.99	986.75
506.207	974.75
506.423	956.75
506.64	944.75
506.856	906.75
507.073	923.75
507.289	918.75
507.506	904.75
507.722	897.75
507.939	918.75
508.155	913.75
508.372	895.75
508.588	868.75
508.805	872.75
509.021	847.75
509.238	847.75
509.454	831.75
509.67	844.75
509.887	845.75
510.103	818.75
510.319	854.75
510.536	852.75
510.752	859.75
510.968	837.75
511.184	834.75
511.401	820.75
511.617	822.75
511.833	849.75
512.049	843.75
512.265	861.75
512.481	824.75
512.698	850.75
512.914	828.75
513.13	827.75
513.346	811.75
513.562	822.75
513.778	862.75
513.994	844.75
514.21	842.75
514.426	858.75
514.642	855.75
514.858	854.75
515.074	884.75
515.29	897.75
515.506	866.75
515.721	857.75
515.937	883.75
516.153	900.75
516.369	934.75
516.585	957.75
516.801	1003.75
517.016	1049.75
517.232	1102.75
517.448	1135.75
517.664	1197.75
517.879	1231.75
518.095	1209.75
518.311	1184.75
518.527	1096.75
518.742	1069.75
518.958	1012.75
519.173	979.75
519.389	943.75
519.605	939.75
519.82	902.75
520.036	897.75
520.251	888.75
520.467	870.75
520.682	866.75
520.898	839.75
521.113	836.75
521.329	814.75
521.544	834.75
521.76	799.75
521.975	805.75
522.19	788.75
522.406	825.75
522.621	790.75
522.836	816.75
523.052	797.75
523.267	793.75
523.482	792.75
523.698	802.75
523.913	782.75
524.128	795.75
524.343	778.75
524.559	779.75
524.774	781.75
524.989	754.75
525.204	776.75
525.419	775.75
525.634	768.75
525.849	785.75
526.064	760.75
526.28	771.75
526.495	738.75
526.71	784.75
526.925	763.75
527.14	756.75
527.355	777.75
527.57	778.75
527.785	756.75
527.999	754.75
528.214	759.75
528.429	750.75
528.644	778.75
528.859	756.75
529.074	771.75
529.289	768.75
529.503	763.75
529.718	770.75
529.933	747.75
530.148	763.75
530.363	772.75
530.577	745.75
530.792	762.75
531.007	764.75
531.221	748.75
531.436	734.75
531.651	751.75
531.865	776.75
532.08	781.75
532.295	763.75
532.509	760.75
532.724	774.75
532.938	759.75
533.153	774.75
533.367	743.75
533.582	760.75
533.796	770.75
534.011	759.75
534.225	768.75
534.44	758.75
534.654	731.75
534.868	726.75
535.083	758.75
535.297	733.75
535.511	729.75
535.726	718.75
535.94	726.75
536.154	736.75
536.369	732.75
536.583	722.75
536.797	723.75
537.011	726.75
537.225	700.75
537.44	728.75
537.654	718.75
537.868	710.75
538.082	687.75
538.296	682.75
538.51	681.75
538.724	700.75
538.938	692.75
539.153	700.75
539.367	703.75
539.581	667.75
539.795	690.75
540.009	662.75
540.222	707.75
540.436	678.75
540.65	697.75
540.864	668.75
541.078	671.75
541.292	714.75
541.506	694.75
541.72	677.75
541.934	678.75
542.147	673.75
542.361	695.75
542.575	678.75
542.789	654.75
543.002	686.75
543.216	666.75
543.43	652.75
543.644	663.75
543.857	666.75
544.071	668.75
544.285	686.75
544.498	683.75
544.712	698.75
544.925	710.75
545.139	681.75
545.352	668.75
545.566	718.75
545.779	711.75
545.993	685.75
546.206	719.75
546.42	674.75
546.633	696.75
546.847	668.75
547.06	675.75
547.274	692.75
547.487	683.75
547.7	706.75
547.914	702.75
548.127	711.75
548.34	696.75
548.554	716.75
548.767	715.75
548.98	721.75
549.193	700.75
549.407	683.75
549.62	718.75
549.833	752.75
550.046	740.75
550.259	720.75
550.473	709.75
550.686	697.75
550.899	686.75
551.112	692.75
551.325	656.75
551.538	695.75
551.751	642.75
551.964	664.75
552.177	694.75
552.39	703.75
552.603	723.75
552.816	744.75
553.029	731.75
553.242	766.75
553.455	772.75
553.667	785.75
553.88	781.75
554.093	754.75
554.306	743.75
554.519	717.75
554.732	726.75
554.944	670.75
555.157	666.75
555.37	642.75
555.583	660.75
555.795	642.75
556.008	636.75
556.221	640.75
556.433	645.75
556.646	606.75
556.859	625.75
557.071	606.75
557.284	633.75
557.496	610.75
557.709	598.75
557.921	603.75
558.134	581.75
558.346	632.75
558.559	600.75
558.771	574.75
558.984	598.75
559.196	595.75
559.409	591.75
559.621	598.75
559.833	588.75
560.046	588.75
560.258	578.75
560.47	571.75
560.683	566.75
560.895	560.75
561.107	558.75
561.32	588.75
561.532	574.75
561.744	578.75
561.956	583.75
562.168	588.75
562.381	568.75
562.593	576.75
562.805	596.75
563.017	588.75
563.229	571.75
563.441	591.75
563.653	578.75
563.865	581.75
564.077	596.75
564.289	574.75
564.501	579.75
564.713	617.75
564.925	623.75
565.137	620.75
565.349	662.75
565.561	649.75
565.773	680.75
565.985	736.75
566.197	768.75
566.408	790.75
566.62	866.75
566.832	970.75
567.044	974.75
567.255	969.75
567.467	1002.75
567.679	1068.75
567.891	1133.75
568.102	1156.75
568.314	1094.75
568.526	983.75
568.737	916.75
568.949	827.75
569.161	752.75
569.372	675.75
569.584	648.75
569.795	636.75
570.007	636.75
570.218	603.75
570.43	621.75
570.641	624.75
570.853	613.75
571.064	620.75
571.276	611.75
571.487	597.75
571.698	567.75
571.91	571.75
572.121	542.75
572.333	516.75
572.544	522.75
572.755	512.75
572.966	531.75
573.178	520.75
573.389	508.75
573.6	487.75
573.811	467.75
574.023	489.75
574.234	489.75
574.445	480.75
574.656	480.75
574.867	500.75
575.078	499.75
575.289	490.75
575.501	469.75
575.712	471.75
575.923	452.75
576.134	476.75
576.345	457.75
576.556	455.75
576.767	447.75
576.978	474.75
577.188	443.75
577.399	456.75
577.61	454.75
577.821	448.75
578.032	446.75
578.243	446.75
578.454	435.75
578.665	416.75
578.875	434.75
579.086	418.75
579.297	420.75
579.508	430.75
579.718	430.75
579.929	414.75
580.14	417.75
580.35	446.75
580.561	414.75
580.772	423.75
580.982	416.75
581.193	413.75
581.403	414.75
581.614	384.75
581.825	420.75
582.035	423.75
582.246	417.75
582.456	417.75
582.667	407.75
582.877	416.75
583.087	417.75
583.298	406.75
583.508	415.75
583.719	431.75
583.929	408.75
584.139	384.75
584.35	388.75
584.56	419.75
584.77	410.75
584.981	380.75
585.191	375.75
585.401	400.75
585.611	404.75
585.821	370.75
586.032	389.75
586.242	406.75
586.452	392.75
586.662	393.75
586.872	400.75
587.082	398.75
587.292	384.75
587.502	396.75
587.713	373.75
587.923	406.75
588.133	404.75
588.343	382.75
588.553	390.75
588.762	395.75
588.972	396.75
589.182	393.75
589.392	411.75
589.602	406.75
589.812	388.75
590.022	398.75
590.232	392.75
590.441	398.75
590.651	386.75
590.861	408.75
591.071	408.75
591.281	399.75
591.49	424.75
591.7	415.75
591.91	406.75
592.119	429.75
592.329	443.75
592.539	452.75
592.748	485.75
592.958	482.75
593.167	507.75
593.377	512.75
593.587	525.75
593.796	515.75
594.006	521.75
594.215	525.75
594.424	508.75
594.634	498.75
594.843	482.75
595.053	469.75
595.262	451.75
595.472	446.75
595.681	420.75
595.89	404.75
596.1	392.75
596.309	393.75
596.518	369.75
596.727	383.75
596.937	345.75
597.146	378.75
597.355	375.75
597.564	370.75
597.774	351.75
597.983	355.75
598.192	357.75
598.401	336.75
598.61	348.75
598.819	349.75
599.028	350.75
599.237	335.75
599.446	344.75
599.655	324.75
599.864	354.75
600.073	352.75
600.282	333.75
600.491	320.75
600.7	340.75
600.909	312.75
601.118	311.75
601.327	336.75
601.536	324.75
601.745	330.75
601.953	318.75
602.162	322.75
602.371	320.75
602.58	333.75
602.789	342.75
602.997	328.75
603.206	329.75
603.415	330.75
603.623	306.75
603.832	327.75
604.041	313.75
604.249	311.75
604.458	337.75
604.666	315.75
604.875	311.75
605.084	306.75
605.292	310.75
605.501	302.75
605.709	303.75
605.918	310.75
606.126	324.75
606.334	311.75
606.543	308.75
606.751	301.75
606.96	313.75
607.168	296.75
607.376	290.75
607.585	301.75
607.793	295.75
608.001	315.75
608.21	291.75
608.418	303.75
608.626	290.75
608.834	301.75
609.043	286.75
609.251	302.75
609.459	286.75
609.667	303.75
609.875	296.75
610.083	286.75
610.291	291.75
610.499	297.75
610.707	293.75
610.916	293.75
611.124	285.75
611.332	302.75
611.54	297.75
611.748	285.75
611.955	280.75
612.163	306.75
612.371	306.75
612.579	277.75
612.787	289.75
612.995	291.75
613.203	282.75
613.411	309.75
613.618	294.75
613.826	287.75
614.034	281.75
614.242	303.75
614.449	299.75
614.657	296.75
614.865	270.75
615.072	300.75
615.28	296.75
615.488	277.75
615.695	286.75
615.903	292.75
616.111	272.75
616.318	300.75
616.526	283.75
616.733	271.75
616.941	265.75
617.148	284.75
617.356	283.75
617.563	284.75
617.771	289.75
617.978	288.75
618.185	274.75
618.393	293.75
618.6	284.75
618.807	278.75
619.015	274.75
619.222	288.75
619.429	285.75
619.637	290.75
619.844	292.75
620.051	282.75
620.258	284.75
620.466	269.75
620.673	272.75
620.88	265.75
621.087	254.75
621.294	263.75
621.501	265.75
621.708	276.75
621.915	265.75
622.122	273.75
622.329	283.75
622.536	263.75
622.743	267.75
622.95	264.75
623.157	244.75
623.364	264.75
623.571	257.75
623.778	262.75
623.985	265.75
624.192	249.75
624.399	267.75
624.606	258.75
624.812	265.75
625.019	244.75
625.226	247.75
625.433	247.75
625.639	249.75
625.846	251.75
626.053	244.75
626.259	255.75
626.466	257.75
626.673	262.75
626.879	244.75
627.086	235.75
627.293	264.75
627.499	238.75
627.706	245.75
627.912	219.75
628.119	234.75
628.325	232.75
628.532	246.75
628.738	240.75
628.945	230.75
629.151	246.75
629.357	236.75
629.564	227.75
629.77	229.75
629.976	224.75
630.183	223.75
630.389	245.75
630.595	230.75
630.802	232.75
631.008	222.75
631.214	207.75
631.42	222.75
631.627	230.75
631.833	218.75
632.039	223.75
632.245	231.75
632.451	206.75
632.657	222.75
632.863	225.75
633.069	198.75
633.275	225.75
633.481	220.75
633.688	211.75
633.893	213.75
634.099	218.75
634.305	210.75
634.511	216.75
634.717	233.75
634.923	225.75
635.129	215.75
635.335	209.75
635.541	202.75
635.747	222.75
635.952	202.75
636.158	208.75
636.364	191.75
636.57	191.75
636.775	204.75
636.981	216.75
637.187	225.75
637.392	223.75
637.598	211.75
637.804	199.75
638.009	206.75
638.215	211.75
638.421	187.75
638.626	197.75
638.832	208.75
639.037	206.75
639.243	208.75
639.448	197.75
639.654	200.75
639.859	195.75
640.065	203.75
640.27	207.75
640.475	186.75
640.681	183.75
640.886	191.75
641.091	211.75
641.297	202.75
641.502	188.75
641.707	171.75
641.913	192.75
642.118	186.75
642.323	187.75
642.528	186.75
642.733	198.75
642.939	185.75
643.144	182.75
643.349	190.75
643.554	178.75
643.759	181.75
643.964	174.75
644.169	179.75
644.374	188.75
644.579	203.75
644.784	186.75
644.989	182.75
645.194	199.75
645.399	190.75
645.604	182.75
645.809	186.75
646.014	183.75
646.219	188.75
646.423	160.75
646.628	183.75
646.833	177.75
647.038	185.75
647.243	187.75
647.447	202.75
647.652	206.75
647.857	187.75
648.062	206.75
648.266	202.75
648.471	200.75
648.676	208.75
648.88	191.75
649.085	171.75
649.289	171.75
649.494	172.75
649.698	201.75
649.903	190.75
650.107	199.75
650.312	182.75
650.516	184.75
650.721	180.75
650.925	162.75
651.13	160.75
651.334	182.75
651.539	166.75
651.743	172.75
651.947	171.75
652.152	168.75
652.356	166.75
652.56	162.75
652.764	142.75
652.969	148.75
653.173	151.75
653.377	157.75
653.581	158.75
653.785	163.75
653.99	152.75
654.194	142.75
654.398	150.75
654.602	139.75
654.806	145.75
655.01	127.75
655.214	146.75
655.418	136.75
655.622	126.75
655.826	140.75
656.03	131.75
656.234	146.75
656.438	134.75
656.642	135.75
656.846	130.75
657.049	122.75
657.253	126.75
657.457	136.75
657.661	120.75
657.865	125.75
658.068	116.75
658.272	110.75
658.476	123.75
658.68	116.75
658.883	113.75
659.087	101.75
659.291	122.75
659.494	91.75
659.698	96.75
659.901	101.75
660.105	102.75
660.309	89.75
660.512	96.75
660.716	106.75
660.919	106.75
661.123	106.75
661.326	93.75
661.53	93.75
661.733	89.75
661.936	96.75
662.14	67.75
662.343	80.75
662.546	86.75
662.75	92.75
662.953	89.75
663.156	86.75
663.36	88.75
663.563	81.75
663.766	81.75
663.969	73.75
664.173	73.75
664.376	73.75
664.579	87.75
664.782	90.75
664.985	90.75
665.188	80.75
665.391	94.75
665.594	102.75
665.797	76.75
666	90.75
666.203	93.75
666.406	83.75
666.609	82.75
666.812	91.75
667.015	91.75
667.218	75.75
667.421	77.75
667.624	60.75
667.827	91.75
668.03	84.75
668.232	90.75
668.435	85.75
668.638	83.75
668.841	83.75
669.043	80.75
669.246	90.75
669.449	79.75
669.651	88.75
669.854	78.75
670.057	82.75
670.259	75.75
670.462	90.75
670.665	80.75
670.867	91.75
671.07	90.75
671.272	81.75
671.475	87.75
671.677	87.75
671.88	92.75
672.082	91.75
672.284	86.75
672.487	93.75
672.689	79.75
672.892	81.75
