Data from NiCl2@0.25M.TitratingCurve.Agarose3%dH2O.NegLispCup.LampEnergy10.LIBS07252019_HRD10591_18-23-45-572.txt Node
Date: Thu Jul 25 18:23:45 EDT 2019
User: cochatt
Spectrometer: HR+D1059
Trigger mode: 1
Integration Time (sec): 1.000000E-1
Scans to average: 1
Electric dark correction enabled: true
Nonlinearity correction enabled: false
Boxcar width: 0
XAxis mode: Wavelengths
Number of Pixels in Spectrum: 2048
>>>>>Begin Spectral Data<<<<<
223.165	-9.94
223.4	-9.94
223.635	-9.94
223.869	-2.94
224.104	-23.94
224.338	-6.94
224.573	-14.94
224.808	-9.94
225.042	-0.94
225.277	-2.94
225.511	-13.94
225.746	-0.94
225.98	-2.94
226.215	7.06
226.449	7.06
226.683	32.06
226.918	20.06
227.152	24.06
227.387	28.06
227.621	37.06
227.856	45.06
228.09	41.06
228.324	46.06
228.559	53.06
228.793	75.06
229.027	112.06
229.262	139.06
229.496	131.06
229.73	128.06
229.964	149.06
230.199	149.06
230.433	154.06
230.667	154.06
230.901	167.06
231.136	151.06
231.37	151.06
231.604	167.06
231.838	160.06
232.072	177.06
232.306	184.06
232.541	178.06
232.775	186.06
233.009	167.06
233.243	181.06
233.477	177.06
233.711	160.06
233.945	175.06
234.179	177.06
234.413	157.06
234.647	169.06
234.881	194.06
235.115	180.06
235.349	177.06
235.583	173.06
235.817	182.06
236.051	161.06
236.285	193.06
236.519	187.06
236.753	189.06
236.987	194.06
237.221	200.06
237.455	177.06
237.689	195.06
237.922	190.06
238.156	193.06
238.39	189.06
238.624	198.06
238.858	210.06
239.091	216.06
239.325	198.06
239.559	208.06
239.793	209.06
240.027	208.06
240.26	206.06
240.494	202.06
240.728	216.06
240.961	219.06
241.195	217.06
241.429	226.06
241.662	230.06
241.896	210.06
242.13	244.06
242.363	234.06
242.597	249.06
242.83	266.06
243.064	254.06
243.298	249.06
243.531	266.06
243.765	243.06
243.998	258.06
244.232	254.06
244.465	243.06
244.699	262.06
244.932	282.06
245.166	289.06
245.399	260.06
245.633	269.06
245.866	252.06
246.099	276.06
246.333	263.06
246.566	259.06
246.8	270.06
247.033	281.06
247.266	277.06
247.5	283.06
247.733	285.06
247.966	294.06
248.2	275.06
248.433	317.06
248.666	291.06
248.899	296.06
249.133	295.06
249.366	297.06
249.599	307.06
249.832	313.06
250.066	307.06
250.299	326.06
250.532	331.06
250.765	313.06
250.998	312.06
251.231	308.06
251.465	322.06
251.698	302.06
251.931	331.06
252.164	341.06
252.397	350.06
252.63	345.06
252.863	330.06
253.096	342.06
253.329	335.06
253.562	331.06
253.795	356.06
254.028	347.06
254.261	355.06
254.494	368.06
254.727	359.06
254.96	342.06
255.193	359.06
255.426	371.06
255.659	341.06
255.892	359.06
256.124	345.06
256.357	354.06
256.59	377.06
256.823	369.06
257.056	401.06
257.289	368.06
257.521	370.06
257.754	382.06
257.987	376.06
258.22	385.06
258.452	399.06
258.685	374.06
258.918	373.06
259.151	375.06
259.383	393.06
259.616	387.06
259.849	405.06
260.081	375.06
260.314	397.06
260.547	391.06
260.779	364.06
261.012	414.06
261.244	402.06
261.477	402.06
261.71	413.06
261.942	418.06
262.175	409.06
262.407	415.06
262.64	416.06
262.872	401.06
263.105	418.06
263.337	442.06
263.57	407.06
263.802	453.06
264.035	406.06
264.267	430.06
264.499	432.06
264.732	437.06
264.964	439.06
265.197	451.06
265.429	446.06
265.661	443.06
265.894	439.06
266.126	454.06
266.358	459.06
266.591	449.06
266.823	480.06
267.055	465.06
267.287	451.06
267.52	447.06
267.752	445.06
267.984	454.06
268.216	469.06
268.448	493.06
268.681	472.06
268.913	483.06
269.145	485.06
269.377	472.06
269.609	475.06
269.841	471.06
270.073	480.06
270.306	483.06
270.538	478.06
270.77	485.06
271.002	474.06
271.234	477.06
271.466	497.06
271.698	481.06
271.93	495.06
272.162	493.06
272.394	509.06
272.626	502.06
272.858	511.06
273.09	505.06
273.322	510.06
273.553	520.06
273.785	520.06
274.017	494.06
274.249	515.06
274.481	530.06
274.713	508.06
274.945	532.06
275.176	532.06
275.408	544.06
275.64	514.06
275.872	530.06
276.104	551.06
276.335	521.06
276.567	536.06
276.799	509.06
277.031	528.06
277.262	570.06
277.494	533.06
277.726	545.06
277.957	563.06
278.189	558.06
278.421	534.06
278.652	555.06
278.884	587.06
279.115	575.06
279.347	567.06
279.579	589.06
279.81	563.06
280.042	589.06
280.273	577.06
280.505	584.06
280.736	588.06
280.968	572.06
281.199	579.06
281.431	586.06
281.662	581.06
281.894	587.06
282.125	606.06
282.356	598.06
282.588	592.06
282.819	598.06
283.051	607.06
283.282	609.06
283.513	629.06
283.745	623.06
283.976	621.06
284.207	619.06
284.439	619.06
284.67	635.06
284.901	619.06
285.132	621.06
285.364	623.06
285.595	657.06
285.826	634.06
286.057	645.06
286.288	657.06
286.52	652.06
286.751	635.06
286.982	647.06
287.213	663.06
287.444	640.06
287.675	680.06
287.906	657.06
288.138	665.06
288.369	660.06
288.6	657.06
288.831	662.06
289.062	661.06
289.293	654.06
289.524	673.06
289.755	667.06
289.986	680.06
290.217	694.06
290.448	693.06
290.679	669.06
290.91	651.06
291.141	667.06
291.371	681.06
291.602	682.06
291.833	675.06
292.064	675.06
292.295	690.06
292.526	687.06
292.757	658.06
292.987	674.06
293.218	679.06
293.449	663.06
293.68	673.06
293.91	683.06
294.141	682.06
294.372	695.06
294.603	699.06
294.833	686.06
295.064	665.06
295.295	691.06
295.525	660.06
295.756	702.06
295.987	705.06
296.217	714.06
296.448	701.06
296.679	697.06
296.909	690.06
297.14	725.06
297.37	737.06
297.601	743.06
297.831	738.06
298.062	736.06
298.292	745.06
298.523	761.06
298.753	753.06
298.984	745.06
299.214	744.06
299.445	741.06
299.675	758.06
299.905	754.06
300.136	741.06
300.366	793.06
300.597	767.06
300.827	749.06
301.057	776.06
301.288	773.06
301.518	794.06
301.748	789.06
301.979	792.06
302.209	802.06
302.439	778.06
302.669	794.06
302.9	783.06
303.13	768.06
303.36	773.06
303.59	778.06
303.82	799.06
304.051	799.06
304.281	802.06
304.511	782.06
304.741	795.06
304.971	779.06
305.201	776.06
305.431	776.06
305.661	761.06
305.891	765.06
306.121	769.06
306.352	769.06
306.582	746.06
306.812	735.06
307.042	740.06
307.272	770.06
307.502	751.06
307.731	752.06
307.961	763.06
308.191	775.06
308.421	760.06
308.651	753.06
308.881	739.06
309.111	736.06
309.341	765.06
309.571	758.06
309.8	757.06
310.03	770.06
310.26	750.06
310.49	788.06
310.72	772.06
310.949	763.06
311.179	756.06
311.409	764.06
311.639	785.06
311.868	778.06
312.098	797.06
312.328	827.06
312.557	797.06
312.787	810.06
313.017	793.06
313.246	827.06
313.476	798.06
313.706	817.06
313.935	830.06
314.165	817.06
314.394	845.06
314.624	823.06
314.853	847.06
315.083	837.06
315.312	824.06
315.542	780.06
315.771	820.06
316.001	821.06
316.23	824.06
316.46	805.06
316.689	810.06
316.919	801.06
317.148	788.06
317.377	797.06
317.607	821.06
317.836	823.06
318.065	813.06
318.295	814.06
318.524	832.06
318.753	778.06
318.983	806.06
319.212	775.06
319.441	790.06
319.67	807.06
319.9	784.06
320.129	792.06
320.358	814.06
320.587	810.06
320.816	819.06
321.046	800.06
321.275	811.06
321.504	798.06
321.733	839.06
321.962	811.06
322.191	801.06
322.42	825.06
322.649	793.06
322.878	842.06
323.108	822.06
323.337	823.06
323.566	834.06
323.795	817.06
324.024	817.06
324.253	837.06
324.482	841.06
324.71	820.06
324.939	874.06
325.168	861.06
325.397	839.06
325.626	869.06
325.855	855.06
326.084	860.06
326.313	890.06
326.542	900.06
326.77	907.06
326.999	889.06
327.228	886.06
327.457	886.06
327.686	910.06
327.914	885.06
328.143	894.06
328.372	890.06
328.6	890.06
328.829	908.06
329.058	907.06
329.287	894.06
329.515	881.06
329.744	901.06
329.972	906.06
330.201	922.06
330.43	927.06
330.658	900.06
330.887	937.06
331.115	934.06
331.344	928.06
331.572	960.06
331.801	991.06
332.03	965.06
332.258	1011.06
332.486	1042.06
332.715	1037.06
332.943	1125.06
333.172	1139.06
333.4	1185.06
333.629	1231.06
333.857	1179.06
334.085	1194.06
334.314	1204.06
334.542	1178.06
334.771	1190.06
334.999	1123.06
335.227	1156.06
335.455	1126.06
335.684	1116.06
335.912	1108.06
336.14	1130.06
336.369	1079.06
336.597	1125.06
336.825	1099.06
337.053	1054.06
337.281	1073.06
337.51	1037.06
337.738	1047.06
337.966	1023.06
338.194	1015.06
338.422	986.06
338.65	957.06
338.878	977.06
339.106	975.06
339.334	977.06
339.562	945.06
339.79	948.06
340.018	962.06
340.246	917.06
340.474	909.06
340.702	938.06
340.93	924.06
341.158	968.06
341.386	938.06
341.614	957.06
341.842	943.06
342.07	933.06
342.298	933.06
342.526	899.06
342.754	905.06
342.981	962.06
343.209	952.06
343.437	980.06
343.665	1057.06
343.893	1106.06
344.12	1215.06
344.348	1149.06
344.576	1061.06
344.804	1039.06
345.031	971.06
345.259	954.06
345.487	912.06
345.714	921.06
345.942	920.06
346.17	918.06
346.397	913.06
346.625	920.06
346.853	910.06
347.08	867.06
347.308	902.06
347.535	915.06
347.763	918.06
347.99	886.06
348.218	912.06
348.445	901.06
348.673	877.06
348.9	907.06
349.128	882.06
349.355	883.06
349.583	906.06
349.81	872.06
350.037	864.06
350.265	835.06
350.492	849.06
350.72	883.06
350.947	847.06
351.174	870.06
351.402	844.06
351.629	851.06
351.856	869.06
352.083	833.06
352.311	859.06
352.538	880.06
352.765	866.06
352.992	873.06
353.22	835.06
353.447	835.06
353.674	839.06
353.901	845.06
354.128	853.06
354.355	826.06
354.583	849.06
354.81	863.06
355.037	851.06
355.264	857.06
355.491	857.06
355.718	863.06
355.945	857.06
356.172	863.06
356.399	861.06
356.626	859.06
356.853	888.06
357.08	850.06
357.307	875.06
357.534	849.06
357.761	855.06
357.988	856.06
358.215	839.06
358.441	866.06
358.668	852.06
358.895	869.06
359.122	842.06
359.349	862.06
359.576	857.06
359.802	832.06
360.029	865.06
360.256	861.06
360.483	878.06
360.709	840.06
360.936	851.06
361.163	856.06
361.39	871.06
361.616	850.06
361.843	865.06
362.07	880.06
362.296	901.06
362.523	866.06
362.749	867.06
362.976	827.06
363.203	838.06
363.429	864.06
363.656	862.06
363.882	856.06
364.109	873.06
364.335	831.06
364.562	848.06
364.788	843.06
365.015	854.06
365.241	858.06
365.468	870.06
365.694	825.06
365.92	876.06
366.147	852.06
366.373	862.06
366.599	859.06
366.826	868.06
367.052	856.06
367.278	871.06
367.505	854.06
367.731	858.06
367.957	871.06
368.184	867.06
368.41	839.06
368.636	873.06
368.862	875.06
369.089	883.06
369.315	903.06
369.541	891.06
369.767	875.06
369.993	858.06
370.219	887.06
370.445	884.06
370.672	908.06
370.898	933.06
371.124	911.06
371.35	934.06
371.576	930.06
371.802	919.06
372.028	904.06
372.254	919.06
372.48	927.06
372.706	945.06
372.932	957.06
373.158	983.06
373.384	965.06
373.61	917.06
373.835	923.06
374.061	931.06
374.287	995.06
374.513	953.06
374.739	999.06
374.965	1015.06
375.191	1057.06
375.416	1023.06
375.642	1005.06
375.868	990.06
376.094	957.06
376.319	943.06
376.545	920.06
376.771	949.06
376.997	934.06
377.222	919.06
377.448	939.06
377.674	919.06
377.899	913.06
378.125	923.06
378.35	927.06
378.576	952.06
378.802	901.06
379.027	933.06
379.253	909.06
379.478	917.06
379.704	874.06
379.929	939.06
380.155	916.06
380.38	927.06
380.606	945.06
380.831	941.06
381.057	951.06
381.282	935.06
381.507	928.06
381.733	928.06
381.958	922.06
382.184	927.06
382.409	945.06
382.634	961.06
382.86	968.06
383.085	1001.06
383.31	1023.06
383.535	1000.06
383.761	1037.06
383.986	1045.06
384.211	1082.06
384.436	1088.06
384.662	1082.06
384.887	1128.06
385.112	1156.06
385.337	1154.06
385.562	1163.06
385.787	1140.06
386.013	1173.06
386.238	1140.06
386.463	1134.06
386.688	1148.06
386.913	1157.06
387.138	1142.06
387.363	1147.06
387.588	1118.06
387.813	1107.06
388.038	1122.06
388.263	1124.06
388.488	1145.06
388.713	1123.06
388.938	1081.06
389.163	1077.06
389.387	1099.06
389.612	1089.06
389.837	1128.06
390.062	1107.06
390.287	1107.06
390.512	1094.06
390.736	1125.06
390.961	1134.06
391.186	1164.06
391.411	1184.06
391.636	1191.06
391.86	1247.06
392.085	1291.06
392.31	1269.06
392.534	1277.06
392.759	1243.06
392.984	1208.06
393.208	1202.06
393.433	1176.06
393.658	1169.06
393.882	1193.06
394.107	1198.06
394.331	1230.06
394.556	1184.06
394.78	1231.06
395.005	1216.06
395.229	1206.06
395.454	1259.06
395.678	1285.06
395.903	1291.06
396.127	1285.06
396.352	1226.06
396.576	1193.06
396.801	1206.06
397.025	1215.06
397.249	1236.06
397.474	1296.06
397.698	1277.06
397.922	1273.06
398.147	1264.06
398.371	1303.06
398.595	1348.06
398.82	1430.06
399.044	1517.06
399.268	1694.06
399.492	1973.06
399.717	2154.06
399.941	2223.06
400.165	1993.06
400.389	1816.06
400.613	1653.06
400.837	1560.06
401.062	1503.06
401.286	1461.06
401.51	1434.06
401.734	1420.06
401.958	1467.06
402.182	1501.06
402.406	1499.06
402.63	1535.06
402.854	1556.06
403.078	1579.06
403.302	1615.06
403.526	1611.06
403.75	1657.06
403.974	1663.06
404.198	1670.06
404.422	1658.06
404.645	1676.06
404.869	1654.06
405.093	1623.06
405.317	1632.06
405.541	1630.06
405.765	1602.06
405.988	1539.06
406.212	1603.06
406.436	1623.06
406.66	1651.06
406.883	1643.06
407.107	1730.06
407.331	1814.06
407.555	1878.06
407.778	1854.06
408.002	1843.06
408.226	1777.06
408.449	1726.06
408.673	1658.06
408.896	1646.06
409.12	1607.06
409.344	1636.06
409.567	1650.06
409.791	1613.06
410.014	1619.06
410.238	1553.06
410.461	1590.06
410.685	1546.06
410.908	1539.06
411.132	1480.06
411.355	1465.06
411.578	1481.06
411.802	1464.06
412.025	1496.06
412.249	1558.06
412.472	1509.06
412.695	1453.06
412.919	1443.06
413.142	1423.06
413.365	1448.06
413.589	1431.06
413.812	1426.06
414.035	1429.06
414.258	1397.06
414.482	1428.06
414.705	1444.06
414.928	1441.06
415.151	1426.06
415.374	1423.06
415.597	1401.06
415.821	1381.06
416.044	1405.06
416.267	1374.06
416.49	1381.06
416.713	1386.06
416.936	1399.06
417.159	1404.06
417.382	1399.06
417.605	1389.06
417.828	1413.06
418.051	1441.06
418.274	1414.06
418.497	1425.06
418.72	1427.06
418.943	1441.06
419.166	1557.06
419.389	1666.06
419.611	1597.06
419.834	1556.06
420.057	1482.06
420.28	1418.06
420.503	1371.06
420.726	1395.06
420.948	1393.06
421.171	1395.06
421.394	1377.06
421.617	1399.06
421.839	1399.06
422.062	1401.06
422.285	1390.06
422.507	1437.06
422.73	1455.06
422.953	1429.06
423.175	1459.06
423.398	1506.06
423.621	1488.06
423.843	1483.06
424.066	1502.06
424.288	1481.06
424.511	1455.06
424.733	1443.06
424.956	1483.06
425.178	1460.06
425.401	1429.06
425.623	1401.06
425.846	1346.06
426.068	1384.06
426.291	1328.06
426.513	1330.06
426.735	1325.06
426.958	1306.06
427.18	1303.06
427.402	1283.06
427.625	1303.06
427.847	1247.06
428.069	1246.06
428.292	1267.06
428.514	1237.06
428.736	1245.06
428.958	1250.06
429.181	1226.06
429.403	1176.06
429.625	1227.06
429.847	1209.06
430.069	1191.06
430.292	1221.06
430.514	1193.06
430.736	1206.06
430.958	1171.06
431.18	1206.06
431.402	1214.06
431.624	1193.06
431.846	1224.06
432.068	1251.06
432.29	1265.06
432.512	1226.06
432.734	1239.06
432.956	1205.06
433.178	1269.06
433.4	1250.06
433.622	1261.06
433.844	1256.06
434.066	1279.06
434.287	1281.06
434.509	1317.06
434.731	1396.06
434.953	1387.06
435.175	1415.06
435.397	1386.06
435.618	1303.06
435.84	1291.06
436.062	1278.06
436.284	1218.06
436.505	1232.06
436.727	1249.06
436.949	1242.06
437.17	1219.06
437.392	1242.06
437.614	1194.06
437.835	1169.06
438.057	1172.06
438.278	1161.06
438.5	1161.06
438.721	1163.06
438.943	1197.06
439.165	1178.06
439.386	1185.06
439.608	1182.06
439.829	1222.06
440.05	1220.06
440.272	1239.06
440.493	1229.06
440.715	1256.06
440.936	1281.06
441.158	1302.06
441.379	1342.06
441.6	1415.06
441.822	1399.06
442.043	1415.06
442.264	1379.06
442.486	1334.06
442.707	1344.06
442.928	1376.06
443.149	1375.06
443.371	1391.06
443.592	1415.06
443.813	1434.06
444.034	1419.06
444.255	1433.06
444.476	1505.06
444.698	1666.06
444.919	1664.06
445.14	1785.06
445.361	1557.06
445.582	1439.06
445.803	1384.06
446.024	1339.06
446.245	1299.06
446.466	1259.06
446.687	1236.06
446.908	1234.06
447.129	1220.06
447.35	1181.06
447.571	1174.06
447.792	1185.06
448.013	1155.06
448.234	1149.06
448.455	1131.06
448.675	1150.06
448.896	1115.06
449.117	1105.06
449.338	1124.06
449.559	1123.06
449.779	1103.06
450	1111.06
450.221	1112.06
450.442	1130.06
450.662	1118.06
450.883	1147.06
451.104	1150.06
451.324	1140.06
451.545	1133.06
451.766	1157.06
451.986	1135.06
452.207	1127.06
452.428	1133.06
452.648	1131.06
452.869	1112.06
453.089	1063.06
453.31	1111.06
453.53	1097.06
453.751	1064.06
453.971	1078.06
454.192	1095.06
454.412	1077.06
454.633	1081.06
454.853	1081.06
455.073	1054.06
455.294	1076.06
455.514	1069.06
455.734	1057.06
455.955	1033.06
456.175	1043.06
456.395	1042.06
456.616	1032.06
456.836	1060.06
457.056	1025.06
457.276	1019.06
457.497	1087.06
457.717	1044.06
457.937	1063.06
458.157	1089.06
458.377	1086.06
458.598	1130.06
458.818	1139.06
459.038	1177.06
459.258	1172.06
459.478	1247.06
459.698	1275.06
459.918	1330.06
460.138	1367.06
460.358	1440.06
460.578	1480.06
460.798	1513.06
461.018	1506.06
461.238	1450.06
461.458	1478.06
461.678	1450.06
461.898	1479.06
462.118	1490.06
462.338	1597.06
462.558	1635.06
462.777	1713.06
462.997	1838.06
463.217	1982.06
463.437	1953.06
463.657	1859.06
463.876	1754.06
464.096	1751.06
464.316	1714.06
464.536	1723.06
464.755	1685.06
464.975	1619.06
465.195	1522.06
465.414	1429.06
465.634	1383.06
465.854	1323.06
466.073	1268.06
466.293	1237.06
466.512	1197.06
466.732	1206.06
466.951	1215.06
467.171	1203.06
467.391	1217.06
467.61	1181.06
467.829	1180.06
468.049	1162.06
468.268	1125.06
468.488	1116.06
468.707	1103.06
468.927	1132.06
469.146	1169.06
469.365	1153.06
469.585	1174.06
469.804	1181.06
470.023	1235.06
470.243	1231.06
470.462	1203.06
470.681	1198.06
470.901	1209.06
471.12	1201.06
471.339	1187.06
471.558	1157.06
471.777	1159.06
471.997	1160.06
472.216	1114.06
472.435	1121.06
472.654	1095.06
472.873	1105.06
473.092	1117.06
473.311	1100.06
473.53	1070.06
473.749	1109.06
473.968	1095.06
474.187	1081.06
474.406	1082.06
474.625	1069.06
474.844	1093.06
475.063	1095.06
475.282	1121.06
475.501	1101.06
475.72	1128.06
475.939	1147.06
476.158	1165.06
476.377	1142.06
476.596	1160.06
476.814	1168.06
477.033	1187.06
477.252	1215.06
477.471	1210.06
477.69	1252.06
477.908	1277.06
478.127	1322.06
478.346	1319.06
478.564	1335.06
478.783	1364.06
479.002	1455.06
479.22	1425.06
479.439	1407.06
479.658	1366.06
479.876	1367.06
480.095	1401.06
480.313	1464.06
480.532	1505.06
480.751	1497.06
480.969	1434.06
481.188	1392.06
481.406	1343.06
481.624	1361.06
481.843	1295.06
482.061	1259.06
482.28	1245.06
482.498	1271.06
482.717	1281.06
482.935	1246.06
483.153	1269.06
483.372	1254.06
483.59	1251.06
483.808	1242.06
484.027	1258.06
484.245	1254.06
484.463	1254.06
484.681	1312.06
484.9	1297.06
485.118	1306.06
485.336	1310.06
485.554	1341.06
485.772	1350.06
485.99	1319.06
486.209	1349.06
486.427	1347.06
486.645	1349.06
486.863	1341.06
487.081	1321.06
487.299	1304.06
487.517	1339.06
487.735	1317.06
487.953	1337.06
488.171	1328.06
488.389	1295.06
488.607	1309.06
488.825	1291.06
489.043	1308.06
489.261	1321.06
489.479	1269.06
489.696	1339.06
489.914	1363.06
490.132	1316.06
490.35	1342.06
490.568	1309.06
490.786	1348.06
491.003	1329.06
491.221	1346.06
491.439	1347.06
491.657	1351.06
491.874	1327.06
492.092	1346.06
492.31	1358.06
492.527	1391.06
492.745	1325.06
492.963	1373.06
493.18	1365.06
493.398	1394.06
493.615	1380.06
493.833	1345.06
494.05	1424.06
494.268	1411.06
494.485	1386.06
494.703	1418.06
494.92	1437.06
495.138	1425.06
495.355	1426.06
495.573	1466.06
495.79	1426.06
496.008	1450.06
496.225	1457.06
496.442	1461.06
496.66	1475.06
496.877	1526.06
497.094	1559.06
497.312	1557.06
497.529	1585.06
497.746	1635.06
497.963	1685.06
498.181	1763.06
498.398	1850.06
498.615	1917.06
498.832	2070.06
499.049	2297.06
499.267	2463.06
499.484	2731.06
499.701	3066.06
499.918	3338.06
500.135	3871.06
500.352	4323.06
500.569	4541.06
500.786	4461.06
501.003	4163.06
501.22	3747.06
501.437	3335.06
501.654	2882.06
501.871	2645.06
502.088	2424.06
502.305	2229.06
502.522	2090.06
502.739	2018.06
502.956	1950.06
503.172	1851.06
503.389	1758.06
503.606	1699.06
503.823	1644.06
504.04	1688.06
504.256	1710.06
504.473	1744.06
504.69	1710.06
504.907	1726.06
505.123	1661.06
505.34	1449.06
505.557	1462.06
505.773	1386.06
505.99	1396.06
506.207	1361.06
506.423	1299.06
506.64	1327.06
506.856	1310.06
507.073	1265.06
507.289	1279.06
507.506	1259.06
507.722	1265.06
507.939	1239.06
508.155	1214.06
508.372	1218.06
508.588	1223.06
508.805	1211.06
509.021	1176.06
509.238	1189.06
509.454	1174.06
509.67	1168.06
509.887	1170.06
510.103	1141.06
510.319	1137.06
510.536	1112.06
510.752	1146.06
510.968	1125.06
511.184	1142.06
511.401	1135.06
511.617	1136.06
511.833	1133.06
512.049	1128.06
512.265	1099.06
512.481	1146.06
512.698	1124.06
512.914	1129.06
513.13	1147.06
513.346	1119.06
513.562	1147.06
513.778	1162.06
513.994	1123.06
514.21	1131.06
514.426	1123.06
514.642	1167.06
514.858	1169.06
515.074	1166.06
515.29	1201.06
515.506	1177.06
515.721	1205.06
515.937	1205.06
516.153	1253.06
516.369	1291.06
516.585	1314.06
516.801	1359.06
517.016	1417.06
517.232	1508.06
517.448	1594.06
517.664	1608.06
517.879	1670.06
518.095	1591.06
518.311	1606.06
518.527	1556.06
518.742	1465.06
518.958	1415.06
519.173	1358.06
519.389	1311.06
519.605	1234.06
519.82	1225.06
520.036	1197.06
520.251	1178.06
520.467	1203.06
520.682	1171.06
520.898	1152.06
521.113	1121.06
521.329	1121.06
521.544	1130.06
521.76	1089.06
521.975	1111.06
522.19	1112.06
522.406	1087.06
522.621	1086.06
522.836	1066.06
523.052	1074.06
523.267	1068.06
523.482	1044.06
523.698	1057.06
523.913	1035.06
524.128	1061.06
524.343	1085.06
524.559	1056.06
524.774	1021.06
524.989	1043.06
525.204	1032.06
525.419	1034.06
525.634	1061.06
525.849	1039.06
526.064	1037.06
526.28	1040.06
526.495	1008.06
526.71	1016.06
526.925	1001.06
527.14	990.06
527.355	1018.06
527.57	1048.06
527.785	1005.06
527.999	1043.06
528.214	997.06
528.429	1019.06
528.644	1027.06
528.859	1009.06
529.074	1019.06
529.289	1011.06
529.503	976.06
529.718	1006.06
529.933	1003.06
530.148	1009.06
530.363	1012.06
530.577	1007.06
530.792	1000.06
531.007	977.06
531.221	1011.06
531.436	997.06
531.651	1012.06
531.865	1005.06
532.08	1025.06
532.295	1009.06
532.509	1011.06
532.724	989.06
532.938	1002.06
533.153	1013.06
533.367	1011.06
533.582	1009.06
533.796	1001.06
534.011	1011.06
534.225	1010.06
534.44	979.06
534.654	992.06
534.868	982.06
535.083	1001.06
535.297	953.06
535.511	987.06
535.726	967.06
535.94	967.06
536.154	955.06
536.369	973.06
536.583	931.06
536.797	942.06
537.011	951.06
537.225	938.06
537.44	947.06
537.654	936.06
537.868	928.06
538.082	892.06
538.296	920.06
538.51	930.06
538.724	931.06
538.938	899.06
539.153	923.06
539.367	931.06
539.581	929.06
539.795	951.06
540.009	919.06
540.222	893.06
540.436	898.06
540.65	900.06
540.864	913.06
541.078	909.06
541.292	902.06
541.506	922.06
541.72	916.06
541.934	905.06
542.147	926.06
542.361	913.06
542.575	911.06
542.789	907.06
543.002	876.06
543.216	898.06
543.43	863.06
543.644	890.06
543.857	910.06
544.071	913.06
544.285	889.06
544.498	914.06
544.712	899.06
544.925	929.06
545.139	950.06
545.352	915.06
545.566	925.06
545.779	942.06
545.993	908.06
546.206	951.06
546.42	898.06
546.633	901.06
546.847	908.06
547.06	904.06
547.274	955.06
547.487	913.06
547.7	931.06
547.914	954.06
548.127	986.06
548.34	957.06
548.554	934.06
548.767	925.06
548.98	954.06
549.193	954.06
549.407	957.06
549.62	957.06
549.833	952.06
550.046	959.06
550.259	945.06
550.473	923.06
550.686	902.06
550.899	917.06
551.112	907.06
551.325	923.06
551.538	922.06
551.751	891.06
551.964	915.06
552.177	952.06
552.39	924.06
552.603	974.06
552.816	979.06
553.029	1000.06
553.242	1021.06
553.455	1048.06
553.667	1037.06
553.88	1024.06
554.093	997.06
554.306	968.06
554.519	928.06
554.732	932.06
554.944	914.06
555.157	893.06
555.37	890.06
555.583	869.06
555.795	840.06
556.008	806.06
556.221	827.06
556.433	831.06
556.646	820.06
556.859	790.06
557.071	815.06
557.284	788.06
557.496	789.06
557.709	789.06
557.921	767.06
558.134	767.06
558.346	780.06
558.559	795.06
558.771	778.06
558.984	763.06
559.196	786.06
559.409	737.06
559.621	749.06
559.833	752.06
560.046	785.06
560.258	749.06
560.47	763.06
560.683	778.06
560.895	734.06
561.107	733.06
561.32	737.06
561.532	753.06
561.744	756.06
561.956	754.06
562.168	738.06
562.381	787.06
562.593	778.06
562.805	766.06
563.017	763.06
563.229	769.06
563.441	763.06
563.653	785.06
563.865	780.06
564.077	780.06
564.289	802.06
564.501	815.06
564.713	834.06
564.925	801.06
565.137	839.06
565.349	855.06
565.561	860.06
565.773	947.06
565.985	973.06
566.197	1012.06
566.408	1124.06
566.62	1185.06
566.832	1236.06
567.044	1316.06
567.255	1305.06
567.467	1346.06
567.679	1422.06
567.891	1522.06
568.102	1497.06
568.314	1481.06
568.526	1312.06
568.737	1221.06
568.949	1083.06
569.161	994.06
569.372	927.06
569.584	870.06
569.795	861.06
570.007	831.06
570.218	771.06
570.43	801.06
570.641	778.06
570.853	817.06
571.064	826.06
571.276	772.06
571.487	735.06
571.698	751.06
571.91	727.06
572.121	719.06
572.333	694.06
572.544	672.06
572.755	667.06
572.966	661.06
573.178	655.06
573.389	640.06
573.6	631.06
573.811	633.06
574.023	635.06
574.234	618.06
574.445	631.06
574.656	610.06
574.867	629.06
575.078	628.06
575.289	599.06
575.501	595.06
575.712	594.06
575.923	588.06
576.134	582.06
576.345	579.06
576.556	587.06
576.767	573.06
576.978	570.06
577.188	581.06
577.399	587.06
577.61	575.06
577.821	579.06
578.032	570.06
578.243	574.06
578.454	590.06
578.665	553.06
578.875	527.06
579.086	551.06
579.297	554.06
579.508	546.06
579.718	561.06
579.929	539.06
580.14	531.06
580.35	529.06
580.561	535.06
580.772	523.06
580.982	522.06
581.193	530.06
581.403	523.06
581.614	529.06
581.825	520.06
582.035	533.06
582.246	513.06
582.456	487.06
582.667	523.06
582.877	499.06
583.087	508.06
583.298	520.06
583.508	514.06
583.719	544.06
583.929	535.06
584.139	542.06
584.35	511.06
584.56	507.06
584.77	483.06
584.981	491.06
585.191	511.06
585.401	524.06
585.611	497.06
585.821	486.06
586.032	482.06
586.242	489.06
586.452	496.06
586.662	511.06
586.872	475.06
587.082	495.06
587.292	495.06
587.502	490.06
587.713	469.06
587.923	509.06
588.133	503.06
588.343	502.06
588.553	494.06
588.762	483.06
588.972	505.06
589.182	531.06
589.392	526.06
589.602	502.06
589.812	518.06
590.022	514.06
590.232	497.06
590.441	487.06
590.651	490.06
590.861	502.06
591.071	523.06
591.281	519.06
591.49	526.06
591.7	526.06
591.91	529.06
592.119	541.06
592.329	563.06
592.539	584.06
592.748	578.06
592.958	600.06
593.167	610.06
593.377	629.06
593.587	627.06
593.796	646.06
594.006	637.06
594.215	659.06
594.424	640.06
594.634	618.06
594.843	619.06
595.053	577.06
595.262	575.06
595.472	554.06
595.681	519.06
595.89	523.06
596.1	509.06
596.309	487.06
596.518	498.06
596.727	489.06
596.937	453.06
597.146	458.06
597.355	459.06
597.564	468.06
597.774	446.06
597.983	446.06
598.192	432.06
598.401	432.06
598.61	427.06
598.819	440.06
599.028	430.06
599.237	433.06
599.446	447.06
599.655	428.06
599.864	434.06
600.073	400.06
600.282	418.06
600.491	419.06
600.7	417.06
600.909	402.06
601.118	395.06
601.327	386.06
601.536	409.06
601.745	408.06
601.953	410.06
602.162	389.06
602.371	393.06
602.58	381.06
602.789	397.06
602.997	407.06
603.206	386.06
603.415	379.06
603.623	385.06
603.832	402.06
604.041	382.06
604.249	395.06
604.458	383.06
604.666	377.06
604.875	361.06
605.084	365.06
605.292	387.06
605.501	396.06
605.709	378.06
605.918	378.06
606.126	371.06
606.334	386.06
606.543	369.06
606.751	369.06
606.96	374.06
607.168	373.06
607.376	373.06
607.585	372.06
607.793	383.06
608.001	371.06
608.21	370.06
608.418	361.06
608.626	359.06
608.834	369.06
609.043	352.06
609.251	360.06
609.459	351.06
609.667	360.06
609.875	377.06
610.083	365.06
610.291	368.06
610.499	349.06
610.707	365.06
610.916	344.06
611.124	358.06
611.332	350.06
611.54	337.06
611.748	353.06
611.955	358.06
612.163	354.06
612.371	358.06
612.579	358.06
612.787	346.06
612.995	335.06
613.203	353.06
613.411	358.06
613.618	358.06
613.826	351.06
614.034	340.06
614.242	345.06
614.449	337.06
614.657	349.06
614.865	353.06
615.072	342.06
615.28	366.06
615.488	350.06
615.695	331.06
615.903	345.06
616.111	325.06
616.318	345.06
616.526	324.06
616.733	355.06
616.941	328.06
617.148	362.06
617.356	353.06
617.563	333.06
617.771	341.06
617.978	329.06
618.185	335.06
618.393	320.06
618.6	339.06
618.807	352.06
619.015	338.06
619.222	352.06
619.429	335.06
619.637	341.06
619.844	331.06
620.051	333.06
620.258	329.06
620.466	331.06
620.673	315.06
620.88	313.06
621.087	320.06
621.294	322.06
621.501	306.06
621.708	318.06
621.915	327.06
622.122	334.06
622.329	323.06
622.536	313.06
622.743	297.06
622.95	313.06
623.157	302.06
623.364	301.06
623.571	307.06
623.778	295.06
623.985	306.06
624.192	310.06
624.399	302.06
624.606	303.06
624.812	308.06
625.019	310.06
625.226	301.06
625.433	304.06
625.639	296.06
625.846	267.06
626.053	313.06
626.259	298.06
626.466	308.06
626.673	301.06
626.879	287.06
627.086	287.06
627.293	274.06
627.499	274.06
627.706	286.06
627.912	299.06
628.119	275.06
628.325	267.06
628.532	287.06
628.738	262.06
628.945	280.06
629.151	282.06
629.357	291.06
629.564	272.06
629.77	276.06
629.976	275.06
630.183	264.06
630.389	282.06
630.595	266.06
630.802	283.06
631.008	255.06
631.214	274.06
631.42	295.06
631.627	276.06
631.833	261.06
632.039	269.06
632.245	253.06
632.451	270.06
632.657	258.06
632.863	275.06
633.069	260.06
633.275	268.06
633.481	239.06
633.688	250.06
633.893	261.06
634.099	267.06
634.305	271.06
634.511	255.06
634.717	249.06
634.923	245.06
635.129	238.06
635.335	254.06
635.541	246.06
635.747	246.06
635.952	235.06
636.158	262.06
636.364	244.06
636.57	247.06
636.775	254.06
636.981	263.06
637.187	251.06
637.392	247.06
637.598	259.06
637.804	241.06
638.009	242.06
638.215	251.06
638.421	228.06
638.626	240.06
638.832	237.06
639.037	245.06
639.243	246.06
639.448	235.06
639.654	225.06
639.859	229.06
640.065	215.06
640.27	237.06
640.475	211.06
640.681	231.06
640.886	228.06
641.091	235.06
641.297	222.06
641.502	216.06
641.707	238.06
641.913	225.06
642.118	235.06
642.323	222.06
642.528	225.06
642.733	220.06
642.939	230.06
643.144	215.06
643.349	223.06
643.554	224.06
643.759	229.06
643.964	216.06
644.169	219.06
644.374	206.06
644.579	218.06
644.784	225.06
644.989	217.06
645.194	210.06
645.399	194.06
645.604	208.06
645.809	216.06
646.014	214.06
646.219	227.06
646.423	213.06
646.628	225.06
646.833	220.06
647.038	203.06
647.243	238.06
647.447	213.06
647.652	233.06
647.857	232.06
648.062	242.06
648.266	227.06
648.471	224.06
648.676	238.06
648.88	232.06
649.085	219.06
649.289	231.06
649.494	204.06
649.698	211.06
649.903	220.06
650.107	215.06
650.312	213.06
650.516	212.06
650.721	209.06
650.925	200.06
651.13	197.06
651.334	195.06
651.539	199.06
651.743	187.06
651.947	186.06
652.152	185.06
652.356	191.06
652.56	192.06
652.764	179.06
652.969	179.06
653.173	181.06
653.377	169.06
653.581	160.06
653.785	179.06
653.99	170.06
654.194	169.06
654.398	175.06
654.602	151.06
654.806	164.06
655.01	164.06
655.214	164.06
655.418	166.06
655.622	134.06
655.826	162.06
656.03	166.06
656.234	158.06
656.438	149.06
656.642	150.06
656.846	149.06
657.049	144.06
657.253	129.06
657.457	136.06
657.661	141.06
657.865	143.06
658.068	124.06
658.272	135.06
658.476	120.06
658.68	123.06
658.883	119.06
659.087	124.06
659.291	95.06
659.494	112.06
659.698	102.06
659.901	98.06
660.105	96.06
660.309	89.06
660.512	91.06
660.716	83.06
660.919	80.06
661.123	98.06
661.326	96.06
661.53	91.06
661.733	102.06
661.936	102.06
662.14	97.06
662.343	82.06
662.546	81.06
662.75	99.06
662.953	81.06
663.156	71.06
663.36	88.06
663.563	77.06
663.766	84.06
663.969	87.06
664.173	74.06
664.376	62.06
664.579	73.06
664.782	89.06
664.985	87.06
665.188	80.06
665.391	89.06
665.594	81.06
665.797	80.06
666	67.06
666.203	66.06
666.406	81.06
666.609	85.06
666.812	78.06
667.015	92.06
667.218	89.06
667.421	86.06
667.624	87.06
667.827	69.06
668.03	67.06
668.232	81.06
668.435	81.06
668.638	81.06
668.841	88.06
669.043	79.06
669.246	87.06
669.449	94.06
669.651	71.06
669.854	86.06
670.057	78.06
670.259	84.06
670.462	77.06
670.665	77.06
670.867	80.06
671.07	72.06
671.272	84.06
671.475	91.06
671.677	91.06
671.88	94.06
672.082	72.06
672.284	72.06
672.487	71.06
672.689	72.06
672.892	70.06
