Data from NiCl2@0.125M.TitratingCurve.Agarose3%dH2O.NegLispCup.LampEnergy10.LIBS07252019_HRD10591_18-29-40-575.txt Node
Date: Thu Jul 25 18:29:40 EDT 2019
User: cochatt
Spectrometer: HR+D1059
Trigger mode: 1
Integration Time (sec): 1.000000E-1
Scans to average: 1
Electric dark correction enabled: true
Nonlinearity correction enabled: false
Boxcar width: 0
XAxis mode: Wavelengths
Number of Pixels in Spectrum: 2048
>>>>>Begin Spectral Data<<<<<
223.165	-27.94
223.4	-27.94
223.635	-27.94
223.869	-27.94
224.104	-23.94
224.338	-1.94
224.573	-21.94
224.808	-17.94
225.042	0.06
225.277	-1.94
225.511	2.06
225.746	10.06
225.98	4.06
226.215	19.06
226.449	9.06
226.683	29.06
226.918	20.06
227.152	30.06
227.387	36.06
227.621	42.06
227.856	46.06
228.09	23.06
228.324	45.06
228.559	43.06
228.793	58.06
229.027	99.06
229.262	121.06
229.496	140.06
229.73	109.06
229.964	132.06
230.199	134.06
230.433	144.06
230.667	124.06
230.901	155.06
231.136	119.06
231.37	132.06
231.604	138.06
231.838	141.06
232.072	152.06
232.306	155.06
232.541	164.06
232.775	162.06
233.009	154.06
233.243	171.06
233.477	146.06
233.711	146.06
233.945	146.06
234.179	160.06
234.413	151.06
234.647	164.06
234.881	151.06
235.115	156.06
235.349	143.06
235.583	156.06
235.817	161.06
236.051	138.06
236.285	159.06
236.519	162.06
236.753	163.06
236.987	171.06
237.221	172.06
237.455	168.06
237.689	189.06
237.922	179.06
238.156	182.06
238.39	151.06
238.624	162.06
238.858	181.06
239.091	178.06
239.325	165.06
239.559	176.06
239.793	188.06
240.027	188.06
240.26	190.06
240.494	194.06
240.728	193.06
240.961	198.06
241.195	206.06
241.429	210.06
241.662	209.06
241.896	200.06
242.13	186.06
242.363	212.06
242.597	223.06
242.83	205.06
243.064	200.06
243.298	211.06
243.531	220.06
243.765	209.06
243.998	235.06
244.232	224.06
244.465	252.06
244.699	240.06
244.932	250.06
245.166	239.06
245.399	249.06
245.633	229.06
245.866	238.06
246.099	226.06
246.333	236.06
246.566	226.06
246.8	248.06
247.033	242.06
247.266	254.06
247.5	257.06
247.733	255.06
247.966	259.06
248.2	260.06
248.433	252.06
248.666	229.06
248.899	241.06
249.133	246.06
249.366	254.06
249.599	260.06
249.832	257.06
250.066	275.06
250.299	263.06
250.532	277.06
250.765	275.06
250.998	276.06
251.231	281.06
251.465	283.06
251.698	278.06
251.931	319.06
252.164	276.06
252.397	295.06
252.63	307.06
252.863	302.06
253.096	310.06
253.329	307.06
253.562	304.06
253.795	298.06
254.028	293.06
254.261	297.06
254.494	305.06
254.727	295.06
254.96	311.06
255.193	319.06
255.426	321.06
255.659	334.06
255.892	302.06
256.124	299.06
256.357	323.06
256.59	324.06
256.823	311.06
257.056	320.06
257.289	324.06
257.521	314.06
257.754	318.06
257.987	329.06
258.22	340.06
258.452	349.06
258.685	315.06
258.918	328.06
259.151	334.06
259.383	346.06
259.616	338.06
259.849	332.06
260.081	337.06
260.314	336.06
260.547	336.06
260.779	348.06
261.012	354.06
261.244	357.06
261.477	366.06
261.71	348.06
261.942	338.06
262.175	364.06
262.407	360.06
262.64	353.06
262.872	374.06
263.105	366.06
263.337	370.06
263.57	373.06
263.802	369.06
264.035	368.06
264.267	368.06
264.499	360.06
264.732	380.06
264.964	388.06
265.197	392.06
265.429	381.06
265.661	389.06
265.894	405.06
266.126	396.06
266.358	380.06
266.591	387.06
266.823	392.06
267.055	406.06
267.287	411.06
267.52	394.06
267.752	393.06
267.984	379.06
268.216	415.06
268.448	403.06
268.681	405.06
268.913	395.06
269.145	432.06
269.377	407.06
269.609	393.06
269.841	382.06
270.073	409.06
270.306	410.06
270.538	423.06
270.77	404.06
271.002	441.06
271.234	412.06
271.466	431.06
271.698	431.06
271.93	407.06
272.162	422.06
272.394	410.06
272.626	433.06
272.858	438.06
273.09	453.06
273.322	416.06
273.553	434.06
273.785	446.06
274.017	438.06
274.249	465.06
274.481	435.06
274.713	433.06
274.945	428.06
275.176	445.06
275.408	477.06
275.64	434.06
275.872	470.06
276.104	444.06
276.335	449.06
276.567	462.06
276.799	444.06
277.031	460.06
277.262	462.06
277.494	451.06
277.726	487.06
277.957	472.06
278.189	495.06
278.421	461.06
278.652	474.06
278.884	487.06
279.115	482.06
279.347	484.06
279.579	504.06
279.81	466.06
280.042	487.06
280.273	499.06
280.505	509.06
280.736	492.06
280.968	505.06
281.199	496.06
281.431	497.06
281.662	512.06
281.894	504.06
282.125	489.06
282.356	532.06
282.588	536.06
282.819	496.06
283.051	520.06
283.282	491.06
283.513	536.06
283.745	536.06
283.976	530.06
284.207	517.06
284.439	534.06
284.67	532.06
284.901	510.06
285.132	536.06
285.364	546.06
285.595	523.06
285.826	548.06
286.057	526.06
286.288	554.06
286.52	551.06
286.751	558.06
286.982	562.06
287.213	567.06
287.444	568.06
287.675	567.06
287.906	552.06
288.138	562.06
288.369	554.06
288.6	592.06
288.831	571.06
289.062	560.06
289.293	554.06
289.524	572.06
289.755	593.06
289.986	567.06
290.217	592.06
290.448	577.06
290.679	589.06
290.91	595.06
291.141	575.06
291.371	595.06
291.602	581.06
291.833	582.06
292.064	589.06
292.295	570.06
292.526	590.06
292.757	595.06
292.987	591.06
293.218	580.06
293.449	592.06
293.68	588.06
293.91	594.06
294.141	600.06
294.372	582.06
294.603	595.06
294.833	590.06
295.064	594.06
295.295	581.06
295.525	593.06
295.756	626.06
295.987	599.06
296.217	618.06
296.448	592.06
296.679	618.06
296.909	619.06
297.14	598.06
297.37	630.06
297.601	615.06
297.831	644.06
298.062	612.06
298.292	655.06
298.523	665.06
298.753	634.06
298.984	677.06
299.214	625.06
299.445	644.06
299.675	632.06
299.905	619.06
300.136	631.06
300.366	658.06
300.597	630.06
300.827	662.06
301.057	664.06
301.288	638.06
301.518	671.06
301.748	671.06
301.979	671.06
302.209	662.06
302.439	662.06
302.669	671.06
302.9	671.06
303.13	627.06
303.36	644.06
303.59	673.06
303.82	639.06
304.051	658.06
304.281	661.06
304.511	644.06
304.741	675.06
304.971	647.06
305.201	672.06
305.431	633.06
305.661	662.06
305.891	639.06
306.121	621.06
306.352	636.06
306.582	647.06
306.812	638.06
307.042	659.06
307.272	628.06
307.502	625.06
307.731	647.06
307.961	640.06
308.191	640.06
308.421	644.06
308.651	652.06
308.881	628.06
309.111	626.06
309.341	647.06
309.571	640.06
309.8	622.06
310.03	654.06
310.26	640.06
310.49	649.06
310.72	644.06
310.949	650.06
311.179	650.06
311.409	627.06
311.639	667.06
311.868	641.06
312.098	653.06
312.328	678.06
312.557	671.06
312.787	664.06
313.017	677.06
313.246	660.06
313.476	684.06
313.706	694.06
313.935	686.06
314.165	711.06
314.394	702.06
314.624	690.06
314.853	664.06
315.083	700.06
315.312	698.06
315.542	680.06
315.771	652.06
316.001	658.06
316.23	658.06
316.46	636.06
316.689	677.06
316.919	688.06
317.148	691.06
317.377	656.06
317.607	680.06
317.836	649.06
318.065	648.06
318.295	656.06
318.524	679.06
318.753	631.06
318.983	655.06
319.212	676.06
319.441	683.06
319.67	670.06
319.9	647.06
320.129	678.06
320.358	678.06
320.587	646.06
320.816	667.06
321.046	668.06
321.275	703.06
321.504	688.06
321.733	665.06
321.962	650.06
322.191	705.06
322.42	701.06
322.649	672.06
322.878	676.06
323.108	676.06
323.337	700.06
323.566	691.06
323.795	682.06
324.024	693.06
324.253	708.06
324.482	706.06
324.71	696.06
324.939	688.06
325.168	689.06
325.397	708.06
325.626	717.06
325.855	721.06
326.084	747.06
326.313	722.06
326.542	758.06
326.77	738.06
326.999	740.06
327.228	716.06
327.457	721.06
327.686	728.06
327.914	735.06
328.143	722.06
328.372	738.06
328.6	741.06
328.829	734.06
329.058	755.06
329.287	732.06
329.515	755.06
329.744	751.06
329.972	739.06
330.201	749.06
330.43	769.06
330.658	744.06
330.887	753.06
331.115	752.06
331.344	775.06
331.572	767.06
331.801	791.06
332.03	819.06
332.258	828.06
332.486	844.06
332.715	882.06
332.943	928.06
333.172	969.06
333.4	989.06
333.629	1042.06
333.857	1028.06
334.085	1019.06
334.314	967.06
334.542	972.06
334.771	967.06
334.999	921.06
335.227	888.06
335.455	922.06
335.684	914.06
335.912	882.06
336.14	862.06
336.369	888.06
336.597	884.06
336.825	895.06
337.053	910.06
337.281	877.06
337.51	850.06
337.738	828.06
337.966	820.06
338.194	814.06
338.422	783.06
338.65	802.06
338.878	794.06
339.106	790.06
339.334	790.06
339.562	796.06
339.79	773.06
340.018	751.06
340.246	760.06
340.474	750.06
340.702	758.06
340.93	783.06
341.158	791.06
341.386	785.06
341.614	775.06
341.842	765.06
342.07	759.06
342.298	743.06
342.526	770.06
342.754	758.06
342.981	757.06
343.209	782.06
343.437	777.06
343.665	881.06
343.893	922.06
344.12	967.06
344.348	935.06
344.576	868.06
344.804	831.06
345.031	795.06
345.259	789.06
345.487	784.06
345.714	776.06
345.942	776.06
346.17	754.06
346.397	758.06
346.625	755.06
346.853	728.06
347.08	763.06
347.308	755.06
347.535	737.06
347.763	754.06
347.99	767.06
348.218	758.06
348.445	746.06
348.673	729.06
348.9	741.06
349.128	744.06
349.355	729.06
349.583	734.06
349.81	722.06
350.037	712.06
350.265	705.06
350.492	706.06
350.72	696.06
350.947	700.06
351.174	726.06
351.402	704.06
351.629	719.06
351.856	711.06
352.083	701.06
352.311	699.06
352.538	726.06
352.765	705.06
352.992	684.06
353.22	667.06
353.447	688.06
353.674	715.06
353.901	718.06
354.128	706.06
354.355	694.06
354.583	694.06
354.81	708.06
355.037	727.06
355.264	698.06
355.491	732.06
355.718	703.06
355.945	700.06
356.172	732.06
356.399	725.06
356.626	721.06
356.853	711.06
357.08	724.06
357.307	707.06
357.534	728.06
357.761	710.06
357.988	702.06
358.215	723.06
358.441	717.06
358.668	708.06
358.895	724.06
359.122	742.06
359.349	722.06
359.576	731.06
359.802	710.06
360.029	741.06
360.256	725.06
360.483	696.06
360.709	689.06
360.936	694.06
361.163	713.06
361.39	702.06
361.616	690.06
361.843	720.06
362.07	692.06
362.296	722.06
362.523	708.06
362.749	717.06
362.976	708.06
363.203	692.06
363.429	716.06
363.656	704.06
363.882	710.06
364.109	703.06
364.335	690.06
364.562	712.06
364.788	703.06
365.015	705.06
365.241	710.06
365.468	704.06
365.694	699.06
365.92	698.06
366.147	727.06
366.373	702.06
366.599	686.06
366.826	670.06
367.052	719.06
367.278	706.06
367.505	719.06
367.731	710.06
367.957	707.06
368.184	706.06
368.41	728.06
368.636	732.06
368.862	718.06
369.089	741.06
369.315	736.06
369.541	758.06
369.767	747.06
369.993	728.06
370.219	711.06
370.445	744.06
370.672	754.06
370.898	767.06
371.124	739.06
371.35	784.06
371.576	804.06
371.802	789.06
372.028	754.06
372.254	768.06
372.48	784.06
372.706	804.06
372.932	801.06
373.158	817.06
373.384	794.06
373.61	769.06
373.835	766.06
374.061	780.06
374.287	810.06
374.513	790.06
374.739	803.06
374.965	853.06
375.191	867.06
375.416	870.06
375.642	853.06
375.868	834.06
376.094	822.06
376.319	786.06
376.545	792.06
376.771	804.06
376.997	764.06
377.222	793.06
377.448	782.06
377.674	792.06
377.899	787.06
378.125	782.06
378.35	762.06
378.576	777.06
378.802	756.06
379.027	778.06
379.253	789.06
379.478	766.06
379.704	764.06
379.929	771.06
380.155	741.06
380.38	790.06
380.606	760.06
380.831	774.06
381.057	791.06
381.282	788.06
381.507	791.06
381.733	787.06
381.958	767.06
382.184	806.06
382.409	802.06
382.634	797.06
382.86	825.06
383.085	836.06
383.31	837.06
383.535	841.06
383.761	830.06
383.986	893.06
384.211	904.06
384.436	934.06
384.662	911.06
384.887	958.06
385.112	936.06
385.337	944.06
385.562	930.06
385.787	930.06
386.013	933.06
386.238	961.06
386.463	978.06
386.688	947.06
386.913	941.06
387.138	924.06
387.363	929.06
387.588	914.06
387.813	913.06
388.038	901.06
388.263	918.06
388.488	951.06
388.713	938.06
388.938	908.06
389.163	898.06
389.387	904.06
389.612	907.06
389.837	948.06
390.062	880.06
390.287	906.06
390.512	900.06
390.736	927.06
390.961	943.06
391.186	967.06
391.411	958.06
391.636	1016.06
391.86	1046.06
392.085	1062.06
392.31	1063.06
392.534	1056.06
392.759	1024.06
392.984	992.06
393.208	954.06
393.433	959.06
393.658	1019.06
393.882	1033.06
394.107	1011.06
394.331	1002.06
394.556	991.06
394.78	1025.06
395.005	1004.06
395.229	1006.06
395.454	1052.06
395.678	1053.06
395.903	1063.06
396.127	1063.06
396.352	1018.06
396.576	994.06
396.801	988.06
397.025	1021.06
397.249	1018.06
397.474	1037.06
397.698	1045.06
397.922	1035.06
398.147	1019.06
398.371	1076.06
398.595	1084.06
398.82	1157.06
399.044	1224.06
399.268	1355.06
399.492	1602.06
399.717	1888.06
399.941	1923.06
400.165	1646.06
400.389	1459.06
400.613	1344.06
400.837	1262.06
401.062	1185.06
401.286	1178.06
401.51	1183.06
401.734	1170.06
401.958	1205.06
402.182	1217.06
402.406	1206.06
402.63	1266.06
402.854	1274.06
403.078	1272.06
403.302	1328.06
403.526	1350.06
403.75	1418.06
403.974	1429.06
404.198	1399.06
404.422	1443.06
404.645	1421.06
404.869	1373.06
405.093	1401.06
405.317	1362.06
405.541	1365.06
405.765	1318.06
405.988	1295.06
406.212	1349.06
406.436	1290.06
406.66	1362.06
406.883	1349.06
407.107	1416.06
407.331	1534.06
407.555	1575.06
407.778	1577.06
408.002	1497.06
408.226	1453.06
408.449	1422.06
408.673	1365.06
408.896	1330.06
409.12	1364.06
409.344	1379.06
409.567	1372.06
409.791	1396.06
410.014	1348.06
410.238	1351.06
410.461	1329.06
410.685	1324.06
410.908	1301.06
411.132	1278.06
411.355	1270.06
411.578	1227.06
411.802	1218.06
412.025	1249.06
412.249	1266.06
412.472	1247.06
412.695	1219.06
412.919	1151.06
413.142	1181.06
413.365	1187.06
413.589	1208.06
413.812	1170.06
414.035	1195.06
414.258	1182.06
414.482	1135.06
414.705	1228.06
414.928	1202.06
415.151	1210.06
415.374	1180.06
415.597	1200.06
415.821	1158.06
416.044	1164.06
416.267	1152.06
416.49	1150.06
416.713	1146.06
416.936	1165.06
417.159	1148.06
417.382	1167.06
417.605	1143.06
417.828	1174.06
418.051	1171.06
418.274	1195.06
418.497	1154.06
418.72	1200.06
418.943	1205.06
419.166	1330.06
419.389	1380.06
419.611	1358.06
419.834	1294.06
420.057	1258.06
420.28	1234.06
420.503	1161.06
420.726	1174.06
420.948	1164.06
421.171	1199.06
421.394	1162.06
421.617	1160.06
421.839	1189.06
422.062	1189.06
422.285	1169.06
422.507	1231.06
422.73	1242.06
422.953	1210.06
423.175	1224.06
423.398	1258.06
423.621	1249.06
423.843	1294.06
424.066	1286.06
424.288	1268.06
424.511	1249.06
424.733	1276.06
424.956	1219.06
425.178	1232.06
425.401	1203.06
425.623	1200.06
425.846	1156.06
426.068	1138.06
426.291	1132.06
426.513	1104.06
426.735	1113.06
426.958	1101.06
427.18	1084.06
427.402	1098.06
427.625	1055.06
427.847	1068.06
428.069	1082.06
428.292	1063.06
428.514	1052.06
428.736	1032.06
428.958	1058.06
429.181	1031.06
429.403	1016.06
429.625	1045.06
429.847	1029.06
430.069	1006.06
430.292	1019.06
430.514	1008.06
430.736	1026.06
430.958	1004.06
431.18	1007.06
431.402	1038.06
431.624	1054.06
431.846	1054.06
432.068	1053.06
432.29	1096.06
432.512	1044.06
432.734	1056.06
432.956	1046.06
433.178	1092.06
433.4	1052.06
433.622	1059.06
433.844	1066.06
434.066	1053.06
434.287	1057.06
434.509	1075.06
434.731	1164.06
434.953	1190.06
435.175	1223.06
435.397	1218.06
435.618	1134.06
435.84	1098.06
436.062	1088.06
436.284	1084.06
436.505	1053.06
436.727	1072.06
436.949	1088.06
437.17	1054.06
437.392	1040.06
437.614	1029.06
437.835	1020.06
438.057	1009.06
438.278	1020.06
438.5	981.06
438.721	987.06
438.943	1006.06
439.165	1022.06
439.386	1018.06
439.608	1039.06
439.829	1063.06
440.05	1059.06
440.272	1031.06
440.493	1024.06
440.715	1082.06
440.936	1109.06
441.158	1124.06
441.379	1170.06
441.6	1206.06
441.822	1234.06
442.043	1200.06
442.264	1196.06
442.486	1183.06
442.707	1182.06
442.928	1173.06
443.149	1189.06
443.371	1138.06
443.592	1166.06
443.813	1189.06
444.034	1202.06
444.255	1263.06
444.476	1326.06
444.698	1397.06
444.919	1498.06
445.14	1569.06
445.361	1395.06
445.582	1238.06
445.803	1198.06
446.024	1128.06
446.245	1125.06
446.466	1108.06
446.687	1088.06
446.908	1088.06
447.129	1072.06
447.35	1050.06
447.571	1046.06
447.792	1016.06
448.013	996.06
448.234	981.06
448.455	998.06
448.675	966.06
448.896	955.06
449.117	940.06
449.338	957.06
449.559	943.06
449.779	950.06
450	959.06
450.221	942.06
450.442	944.06
450.662	959.06
450.883	972.06
451.104	1018.06
451.324	1014.06
451.545	999.06
451.766	982.06
451.986	990.06
452.207	977.06
452.428	981.06
452.648	954.06
452.869	951.06
453.089	953.06
453.31	972.06
453.53	935.06
453.751	926.06
453.971	934.06
454.192	926.06
454.412	930.06
454.633	919.06
454.853	933.06
455.073	933.06
455.294	914.06
455.514	889.06
455.734	936.06
455.955	888.06
456.175	906.06
456.395	891.06
456.616	890.06
456.836	952.06
457.056	918.06
457.276	832.06
457.497	880.06
457.717	882.06
457.937	918.06
458.157	919.06
458.377	931.06
458.598	946.06
458.818	951.06
459.038	979.06
459.258	1037.06
459.478	1062.06
459.698	1098.06
459.918	1110.06
460.138	1182.06
460.358	1265.06
460.578	1232.06
460.798	1264.06
461.018	1327.06
461.238	1282.06
461.458	1246.06
461.678	1262.06
461.898	1314.06
462.118	1252.06
462.338	1327.06
462.558	1391.06
462.777	1410.06
462.997	1564.06
463.217	1766.06
463.437	1757.06
463.657	1603.06
463.876	1520.06
464.096	1488.06
464.316	1526.06
464.536	1532.06
464.755	1445.06
464.975	1392.06
465.195	1316.06
465.414	1216.06
465.634	1170.06
465.854	1123.06
466.073	1094.06
466.293	1099.06
466.512	1083.06
466.732	1036.06
466.951	994.06
467.171	1025.06
467.391	1012.06
467.61	1018.06
467.829	1026.06
468.049	1016.06
468.268	1002.06
468.488	970.06
468.707	972.06
468.927	953.06
469.146	1005.06
469.365	966.06
469.585	999.06
469.804	1027.06
470.023	1010.06
470.243	1043.06
470.462	1087.06
470.681	1068.06
470.901	1066.06
471.12	1058.06
471.339	1042.06
471.558	1000.06
471.777	978.06
471.997	993.06
472.216	957.06
472.435	965.06
472.654	982.06
472.873	948.06
473.092	980.06
473.311	961.06
473.53	930.06
473.749	940.06
473.968	947.06
474.187	918.06
474.406	929.06
474.625	922.06
474.844	949.06
475.063	950.06
475.282	955.06
475.501	959.06
475.72	968.06
475.939	956.06
476.158	973.06
476.377	979.06
476.596	991.06
476.814	1008.06
477.033	1012.06
477.252	1021.06
477.471	1039.06
477.69	1071.06
477.908	1093.06
478.127	1131.06
478.346	1130.06
478.564	1141.06
478.783	1161.06
479.002	1206.06
479.22	1239.06
479.439	1191.06
479.658	1191.06
479.876	1211.06
480.095	1200.06
480.313	1280.06
480.532	1304.06
480.751	1309.06
480.969	1249.06
481.188	1164.06
481.406	1162.06
481.624	1131.06
481.843	1096.06
482.061	1092.06
482.28	1103.06
482.498	1071.06
482.717	1075.06
482.935	1088.06
483.153	1070.06
483.372	1062.06
483.59	1098.06
483.808	1088.06
484.027	1098.06
484.245	1096.06
484.463	1075.06
484.681	1112.06
484.9	1094.06
485.118	1117.06
485.336	1100.06
485.554	1156.06
485.772	1161.06
485.99	1170.06
486.209	1173.06
486.427	1168.06
486.645	1110.06
486.863	1137.06
487.081	1174.06
487.299	1139.06
487.517	1127.06
487.735	1090.06
487.953	1141.06
488.171	1175.06
488.389	1125.06
488.607	1116.06
488.825	1083.06
489.043	1087.06
489.261	1122.06
489.479	1160.06
489.696	1137.06
489.914	1139.06
490.132	1147.06
490.35	1163.06
490.568	1130.06
490.786	1138.06
491.003	1133.06
491.221	1141.06
491.439	1136.06
491.657	1141.06
491.874	1176.06
492.092	1183.06
492.31	1152.06
492.527	1173.06
492.745	1168.06
492.963	1168.06
493.18	1157.06
493.398	1192.06
493.615	1173.06
493.833	1160.06
494.05	1172.06
494.268	1182.06
494.485	1164.06
494.703	1233.06
494.92	1198.06
495.138	1198.06
495.355	1186.06
495.573	1174.06
495.79	1190.06
496.008	1209.06
496.225	1206.06
496.442	1201.06
496.66	1244.06
496.877	1245.06
497.094	1258.06
497.312	1316.06
497.529	1338.06
497.746	1331.06
497.963	1380.06
498.181	1487.06
498.398	1488.06
498.615	1640.06
498.832	1740.06
499.049	1870.06
499.267	2043.06
499.484	2244.06
499.701	2481.06
499.918	2814.06
500.135	3209.06
500.352	3711.06
500.569	4036.06
500.786	4008.06
501.003	3640.06
501.22	3187.06
501.437	2788.06
501.654	2414.06
501.871	2170.06
502.088	1974.06
502.305	1824.06
502.522	1759.06
502.739	1673.06
502.956	1541.06
503.172	1534.06
503.389	1432.06
503.606	1400.06
503.823	1381.06
504.04	1352.06
504.256	1364.06
504.473	1434.06
504.69	1471.06
504.907	1445.06
505.123	1343.06
505.34	1249.06
505.557	1190.06
505.773	1176.06
505.99	1133.06
506.207	1136.06
506.423	1114.06
506.64	1093.06
506.856	1078.06
507.073	1061.06
507.289	1097.06
507.506	1054.06
507.722	1070.06
507.939	1049.06
508.155	1038.06
508.372	995.06
508.588	1004.06
508.805	1028.06
509.021	982.06
509.238	1009.06
509.454	976.06
509.67	981.06
509.887	983.06
510.103	973.06
510.319	982.06
510.536	947.06
510.752	962.06
510.968	959.06
511.184	1008.06
511.401	976.06
511.617	966.06
511.833	960.06
512.049	956.06
512.265	975.06
512.481	969.06
512.698	983.06
512.914	950.06
513.13	978.06
513.346	933.06
513.562	966.06
513.778	973.06
513.994	958.06
514.21	984.06
514.426	964.06
514.642	974.06
514.858	994.06
515.074	989.06
515.29	1006.06
515.506	1011.06
515.721	1034.06
515.937	1020.06
516.153	1058.06
516.369	1074.06
516.585	1099.06
516.801	1153.06
517.016	1194.06
517.232	1294.06
517.448	1307.06
517.664	1371.06
517.879	1411.06
518.095	1406.06
518.311	1381.06
518.527	1295.06
518.742	1241.06
518.958	1184.06
519.173	1171.06
519.389	1113.06
519.605	1088.06
519.82	1022.06
520.036	1010.06
520.251	971.06
520.467	965.06
520.682	968.06
520.898	990.06
521.113	955.06
521.329	956.06
521.544	959.06
521.76	959.06
521.975	922.06
522.19	927.06
522.406	910.06
522.621	913.06
522.836	923.06
523.052	883.06
523.267	904.06
523.482	918.06
523.698	905.06
523.913	886.06
524.128	898.06
524.343	882.06
524.559	902.06
524.774	908.06
524.989	871.06
525.204	878.06
525.419	900.06
525.634	865.06
525.849	869.06
526.064	880.06
526.28	878.06
526.495	872.06
526.71	854.06
526.925	899.06
527.14	888.06
527.355	858.06
527.57	848.06
527.785	892.06
527.999	854.06
528.214	868.06
528.429	877.06
528.644	856.06
528.859	865.06
529.074	882.06
529.289	874.06
529.503	895.06
529.718	879.06
529.933	854.06
530.148	860.06
530.363	870.06
530.577	866.06
530.792	858.06
531.007	877.06
531.221	883.06
531.436	867.06
531.651	892.06
531.865	884.06
532.08	881.06
532.295	876.06
532.509	886.06
532.724	851.06
532.938	854.06
533.153	886.06
533.367	853.06
533.582	879.06
533.796	863.06
534.011	873.06
534.225	882.06
534.44	839.06
534.654	862.06
534.868	867.06
535.083	866.06
535.297	844.06
535.511	850.06
535.726	857.06
535.94	861.06
536.154	854.06
536.369	829.06
536.583	817.06
536.797	838.06
537.011	830.06
537.225	798.06
537.44	813.06
537.654	814.06
537.868	810.06
538.082	793.06
538.296	824.06
538.51	799.06
538.724	800.06
538.938	776.06
539.153	804.06
539.367	805.06
539.581	795.06
539.795	771.06
540.009	773.06
540.222	790.06
540.436	764.06
540.65	753.06
540.864	770.06
541.078	784.06
541.292	754.06
541.506	794.06
541.72	796.06
541.934	764.06
542.147	793.06
542.361	770.06
542.575	775.06
542.789	778.06
543.002	751.06
543.216	781.06
543.43	751.06
543.644	782.06
543.857	744.06
544.071	764.06
544.285	767.06
544.498	753.06
544.712	786.06
544.925	812.06
545.139	821.06
545.352	810.06
545.566	815.06
545.779	794.06
545.993	782.06
546.206	799.06
546.42	806.06
546.633	814.06
546.847	784.06
547.06	796.06
547.274	794.06
547.487	784.06
547.7	776.06
547.914	799.06
548.127	802.06
548.34	845.06
548.554	807.06
548.767	818.06
548.98	814.06
549.193	819.06
549.407	812.06
549.62	828.06
549.833	870.06
550.046	844.06
550.259	803.06
550.473	801.06
550.686	775.06
550.899	777.06
551.112	780.06
551.325	780.06
551.538	771.06
551.751	760.06
551.964	793.06
552.177	799.06
552.39	794.06
552.603	831.06
552.816	855.06
553.029	871.06
553.242	886.06
553.455	912.06
553.667	913.06
553.88	878.06
554.093	843.06
554.306	839.06
554.519	814.06
554.732	807.06
554.944	798.06
555.157	791.06
555.37	743.06
555.583	748.06
555.795	743.06
556.008	715.06
556.221	704.06
556.433	702.06
556.646	708.06
556.859	692.06
557.071	705.06
557.284	708.06
557.496	684.06
557.709	692.06
557.921	672.06
558.134	695.06
558.346	666.06
558.559	650.06
558.771	679.06
558.984	666.06
559.196	656.06
559.409	662.06
559.621	648.06
559.833	645.06
560.046	666.06
560.258	685.06
560.47	670.06
560.683	657.06
560.895	680.06
561.107	662.06
561.32	635.06
561.532	637.06
561.744	630.06
561.956	643.06
562.168	630.06
562.381	666.06
562.593	656.06
562.805	646.06
563.017	660.06
563.229	675.06
563.441	686.06
563.653	670.06
563.865	678.06
564.077	712.06
564.289	649.06
564.501	682.06
564.713	706.06
564.925	736.06
565.137	732.06
565.349	744.06
565.561	771.06
565.773	786.06
565.985	787.06
566.197	848.06
566.408	932.06
566.62	1014.06
566.832	1123.06
567.044	1120.06
567.255	1106.06
567.467	1164.06
567.679	1242.06
567.891	1333.06
568.102	1416.06
568.314	1346.06
568.526	1176.06
568.737	1034.06
568.949	942.06
569.161	868.06
569.372	809.06
569.584	736.06
569.795	721.06
570.007	701.06
570.218	711.06
570.43	714.06
570.641	698.06
570.853	710.06
571.064	690.06
571.276	708.06
571.487	690.06
571.698	654.06
571.91	640.06
572.121	610.06
572.333	609.06
572.544	592.06
572.755	585.06
572.966	572.06
573.178	583.06
573.389	570.06
573.6	565.06
573.811	544.06
574.023	572.06
574.234	538.06
574.445	550.06
574.656	559.06
574.867	568.06
575.078	576.06
575.289	540.06
575.501	550.06
575.712	515.06
575.923	539.06
576.134	539.06
576.345	509.06
576.556	545.06
576.767	510.06
576.978	514.06
577.188	523.06
577.399	507.06
577.61	503.06
577.821	527.06
578.032	493.06
578.243	500.06
578.454	495.06
578.665	515.06
578.875	490.06
579.086	490.06
579.297	477.06
579.508	467.06
579.718	483.06
579.929	476.06
580.14	464.06
580.35	453.06
580.561	456.06
580.772	464.06
580.982	478.06
581.193	450.06
581.403	485.06
581.614	469.06
581.825	480.06
582.035	484.06
582.246	465.06
582.456	449.06
582.667	496.06
582.877	486.06
583.087	454.06
583.298	434.06
583.508	466.06
583.719	445.06
583.929	451.06
584.139	454.06
584.35	445.06
584.56	449.06
584.77	452.06
584.981	451.06
585.191	454.06
585.401	450.06
585.611	440.06
585.821	440.06
586.032	466.06
586.242	454.06
586.452	452.06
586.662	433.06
586.872	427.06
587.082	445.06
587.292	453.06
587.502	409.06
587.713	419.06
587.923	435.06
588.133	449.06
588.343	453.06
588.553	437.06
588.762	436.06
588.972	426.06
589.182	450.06
589.392	450.06
589.602	444.06
589.812	441.06
590.022	443.06
590.232	457.06
590.441	466.06
590.651	461.06
590.861	458.06
591.071	457.06
591.281	448.06
591.49	441.06
591.7	454.06
591.91	486.06
592.119	484.06
592.329	496.06
592.539	475.06
592.748	513.06
592.958	532.06
593.167	564.06
593.377	592.06
593.587	570.06
593.796	576.06
594.006	593.06
594.215	582.06
594.424	605.06
594.634	568.06
594.843	554.06
595.053	508.06
595.262	498.06
595.472	502.06
595.681	469.06
595.89	466.06
596.1	461.06
596.309	423.06
596.518	430.06
596.727	420.06
596.937	420.06
597.146	430.06
597.355	417.06
597.564	402.06
597.774	401.06
597.983	391.06
598.192	399.06
598.401	396.06
598.61	393.06
598.819	378.06
599.028	373.06
599.237	379.06
599.446	387.06
599.655	373.06
599.864	376.06
600.073	375.06
600.282	367.06
600.491	364.06
600.7	361.06
600.909	366.06
601.118	370.06
601.327	356.06
601.536	364.06
601.745	382.06
601.953	366.06
602.162	368.06
602.371	379.06
602.58	363.06
602.789	342.06
602.997	366.06
603.206	354.06
603.415	342.06
603.623	360.06
603.832	339.06
604.041	358.06
604.249	340.06
604.458	348.06
604.666	345.06
604.875	335.06
605.084	339.06
605.292	354.06
605.501	351.06
605.709	334.06
605.918	347.06
606.126	343.06
606.334	341.06
606.543	353.06
606.751	336.06
606.96	332.06
607.168	330.06
607.376	347.06
607.585	322.06
607.793	333.06
608.001	330.06
608.21	331.06
608.418	308.06
608.626	336.06
608.834	346.06
609.043	336.06
609.251	323.06
609.459	320.06
609.667	322.06
609.875	330.06
610.083	335.06
610.291	302.06
610.499	317.06
610.707	335.06
610.916	325.06
611.124	336.06
611.332	331.06
611.54	315.06
611.748	320.06
611.955	336.06
612.163	331.06
612.371	305.06
612.579	320.06
612.787	318.06
612.995	334.06
613.203	325.06
613.411	323.06
613.618	298.06
613.826	321.06
614.034	332.06
614.242	315.06
614.449	312.06
614.657	310.06
614.865	321.06
615.072	312.06
615.28	335.06
615.488	328.06
615.695	314.06
615.903	317.06
616.111	316.06
616.318	337.06
616.526	323.06
616.733	344.06
616.941	323.06
617.148	313.06
617.356	316.06
617.563	328.06
617.771	320.06
617.978	313.06
618.185	310.06
618.393	312.06
618.6	307.06
618.807	314.06
619.015	312.06
619.222	310.06
619.429	312.06
619.637	306.06
619.844	319.06
620.051	302.06
620.258	306.06
620.466	306.06
620.673	305.06
620.88	278.06
621.087	306.06
621.294	299.06
621.501	299.06
621.708	293.06
621.915	289.06
622.122	302.06
622.329	290.06
622.536	300.06
622.743	278.06
622.95	278.06
623.157	272.06
623.364	284.06
623.571	285.06
623.778	297.06
623.985	276.06
624.192	272.06
624.399	302.06
624.606	279.06
624.812	296.06
625.019	273.06
625.226	276.06
625.433	271.06
625.639	277.06
625.846	287.06
626.053	289.06
626.259	257.06
626.466	259.06
626.673	265.06
626.879	248.06
627.086	264.06
627.293	260.06
627.499	272.06
627.706	256.06
627.912	271.06
628.119	265.06
628.325	276.06
628.532	264.06
628.738	279.06
628.945	276.06
629.151	262.06
629.357	261.06
629.564	253.06
629.77	247.06
629.976	264.06
630.183	258.06
630.389	264.06
630.595	258.06
630.802	253.06
631.008	241.06
631.214	243.06
631.42	254.06
631.627	243.06
631.833	234.06
632.039	239.06
632.245	232.06
632.451	218.06
632.657	229.06
632.863	226.06
633.069	252.06
633.275	234.06
633.481	235.06
633.688	255.06
633.893	221.06
634.099	231.06
634.305	241.06
634.511	227.06
634.717	226.06
634.923	228.06
635.129	218.06
635.335	249.06
635.541	227.06
635.747	229.06
635.952	236.06
636.158	230.06
636.364	215.06
636.57	216.06
636.775	252.06
636.981	233.06
637.187	229.06
637.392	232.06
637.598	230.06
637.804	220.06
638.009	229.06
638.215	231.06
638.421	223.06
638.626	222.06
638.832	232.06
639.037	236.06
639.243	225.06
639.448	207.06
639.654	223.06
639.859	208.06
640.065	213.06
640.27	215.06
640.475	229.06
640.681	220.06
640.886	209.06
641.091	190.06
641.297	218.06
641.502	205.06
641.707	225.06
641.913	208.06
642.118	207.06
642.323	213.06
642.528	211.06
642.733	201.06
642.939	212.06
643.144	206.06
643.349	179.06
643.554	198.06
643.759	191.06
643.964	189.06
644.169	209.06
644.374	221.06
644.579	207.06
644.784	214.06
644.989	192.06
645.194	200.06
645.399	212.06
645.604	187.06
645.809	195.06
646.014	206.06
646.219	197.06
646.423	187.06
646.628	203.06
646.833	184.06
647.038	202.06
647.243	211.06
647.447	218.06
647.652	211.06
647.857	212.06
648.062	224.06
648.266	224.06
648.471	221.06
648.676	226.06
648.88	220.06
649.085	209.06
649.289	193.06
649.494	215.06
649.698	209.06
649.903	194.06
650.107	211.06
650.312	197.06
650.516	183.06
650.721	201.06
650.925	199.06
651.13	196.06
651.334	178.06
651.539	190.06
651.743	193.06
651.947	174.06
652.152	173.06
652.356	176.06
652.56	182.06
652.764	188.06
652.969	165.06
653.173	178.06
653.377	163.06
653.581	166.06
653.785	161.06
653.99	157.06
654.194	149.06
654.398	148.06
654.602	149.06
654.806	161.06
655.01	158.06
655.214	162.06
655.418	143.06
655.622	163.06
655.826	138.06
656.03	145.06
656.234	150.06
656.438	138.06
656.642	154.06
656.846	162.06
657.049	143.06
657.253	137.06
657.457	132.06
657.661	146.06
657.865	113.06
658.068	129.06
658.272	123.06
658.476	116.06
658.68	118.06
658.883	102.06
659.087	117.06
659.291	104.06
659.494	108.06
659.698	106.06
659.901	108.06
660.105	96.06
660.309	92.06
660.512	99.06
660.716	92.06
660.919	90.06
661.123	95.06
661.326	92.06
661.53	82.06
661.733	82.06
661.936	71.06
662.14	86.06
662.343	83.06
662.546	89.06
662.75	94.06
662.953	79.06
663.156	86.06
663.36	81.06
663.563	82.06
663.766	81.06
663.969	89.06
664.173	83.06
664.376	74.06
664.579	70.06
664.782	76.06
664.985	60.06
665.188	83.06
665.391	77.06
665.594	82.06
665.797	78.06
666	66.06
666.203	74.06
666.406	84.06
666.609	76.06
666.812	77.06
667.015	90.06
667.218	74.06
667.421	68.06
667.624	65.06
667.827	74.06
668.03	65.06
668.232	76.06
668.435	63.06
668.638	60.06
668.841	76.06
669.043	55.06
669.246	72.06
669.449	78.06
669.651	82.06
669.854	79.06
670.057	83.06
670.259	80.06
670.462	74.06
670.665	83.06
670.867	72.06
671.07	68.06
671.272	68.06
671.475	80.06
671.677	80.06
671.88	70.06
672.082	64.06
672.284	79.06
672.487	92.06
672.689	77.06
672.892	77.06
