Data from NiCl2@0.25M.TitratingCurve.Agarose3%dH2O.NegLispCup.LampEnergy10.LIBS07252019_HRD10591_18-26-01-574.txt Node
Date: Thu Jul 25 18:26:01 EDT 2019
User: cochatt
Spectrometer: HR+D1059
Trigger mode: 1
Integration Time (sec): 1.000000E-1
Scans to average: 1
Electric dark correction enabled: true
Nonlinearity correction enabled: false
Boxcar width: 0
XAxis mode: Wavelengths
Number of Pixels in Spectrum: 2048
>>>>>Begin Spectral Data<<<<<
223.165	-22.5
223.4	-22.5
223.635	-22.5
223.869	-4.5
224.104	-18.5
224.338	-18.5
224.573	-9.5
224.808	-7.5
225.042	-4.5
225.277	-0.5
225.511	0.5
225.746	2.5
225.98	5.5
226.215	-0.5
226.449	4.5
226.683	25.5
226.918	20.5
227.152	27.5
227.387	14.5
227.621	36.5
227.856	37.5
228.09	35.5
228.324	53.5
228.559	58.5
228.793	69.5
229.027	130.5
229.262	136.5
229.496	130.5
229.73	146.5
229.964	143.5
230.199	148.5
230.433	162.5
230.667	145.5
230.901	155.5
231.136	154.5
231.37	155.5
231.604	168.5
231.838	162.5
232.072	174.5
232.306	168.5
232.541	182.5
232.775	184.5
233.009	165.5
233.243	183.5
233.477	177.5
233.711	169.5
233.945	196.5
234.179	175.5
234.413	194.5
234.647	191.5
234.881	197.5
235.115	202.5
235.349	202.5
235.583	188.5
235.817	202.5
236.051	196.5
236.285	181.5
236.519	187.5
236.753	201.5
236.987	184.5
237.221	193.5
237.455	201.5
237.689	203.5
237.922	198.5
238.156	209.5
238.39	204.5
238.624	199.5
238.858	215.5
239.091	228.5
239.325	226.5
239.559	208.5
239.793	227.5
240.027	225.5
240.26	217.5
240.494	222.5
240.728	225.5
240.961	245.5
241.195	238.5
241.429	225.5
241.662	244.5
241.896	244.5
242.13	268.5
242.363	243.5
242.597	241.5
242.83	244.5
243.064	259.5
243.298	257.5
243.531	251.5
243.765	265.5
243.998	273.5
244.232	260.5
244.465	287.5
244.699	277.5
244.932	280.5
245.166	291.5
245.399	275.5
245.633	291.5
245.866	286.5
246.099	272.5
246.333	285.5
246.566	280.5
246.8	285.5
247.033	287.5
247.266	304.5
247.5	295.5
247.733	319.5
247.966	312.5
248.2	310.5
248.433	288.5
248.666	301.5
248.899	322.5
249.133	326.5
249.366	328.5
249.599	313.5
249.832	332.5
250.066	339.5
250.299	313.5
250.532	326.5
250.765	338.5
250.998	327.5
251.231	323.5
251.465	333.5
251.698	344.5
251.931	361.5
252.164	323.5
252.397	343.5
252.63	355.5
252.863	352.5
253.096	352.5
253.329	363.5
253.562	341.5
253.795	353.5
254.028	362.5
254.261	373.5
254.494	369.5
254.727	374.5
254.96	361.5
255.193	385.5
255.426	373.5
255.659	384.5
255.892	375.5
256.124	395.5
256.357	390.5
256.59	380.5
256.823	395.5
257.056	394.5
257.289	412.5
257.521	402.5
257.754	401.5
257.987	409.5
258.22	411.5
258.452	403.5
258.685	391.5
258.918	415.5
259.151	404.5
259.383	425.5
259.616	396.5
259.849	390.5
260.081	411.5
260.314	426.5
260.547	438.5
260.779	429.5
261.012	434.5
261.244	431.5
261.477	432.5
261.71	439.5
261.942	433.5
262.175	458.5
262.407	439.5
262.64	449.5
262.872	440.5
263.105	436.5
263.337	453.5
263.57	468.5
263.802	468.5
264.035	474.5
264.267	463.5
264.499	449.5
264.732	474.5
264.964	479.5
265.197	466.5
265.429	475.5
265.661	487.5
265.894	504.5
266.126	482.5
266.358	472.5
266.591	496.5
266.823	507.5
267.055	474.5
267.287	513.5
267.52	519.5
267.752	477.5
267.984	491.5
268.216	510.5
268.448	483.5
268.681	507.5
268.913	502.5
269.145	509.5
269.377	519.5
269.609	494.5
269.841	509.5
270.073	495.5
270.306	531.5
270.538	514.5
270.77	521.5
271.002	490.5
271.234	527.5
271.466	511.5
271.698	515.5
271.93	503.5
272.162	514.5
272.394	552.5
272.626	547.5
272.858	533.5
273.09	538.5
273.322	544.5
273.553	522.5
273.785	551.5
274.017	543.5
274.249	530.5
274.481	545.5
274.713	550.5
274.945	562.5
275.176	566.5
275.408	572.5
275.64	547.5
275.872	573.5
276.104	596.5
276.335	597.5
276.567	570.5
276.799	579.5
277.031	579.5
277.262	560.5
277.494	593.5
277.726	601.5
277.957	600.5
278.189	598.5
278.421	561.5
278.652	606.5
278.884	599.5
279.115	585.5
279.347	602.5
279.579	616.5
279.81	612.5
280.042	610.5
280.273	637.5
280.505	631.5
280.736	625.5
280.968	629.5
281.199	626.5
281.431	626.5
281.662	628.5
281.894	633.5
282.125	632.5
282.356	659.5
282.588	663.5
282.819	661.5
283.051	643.5
283.282	657.5
283.513	667.5
283.745	657.5
283.976	662.5
284.207	643.5
284.439	673.5
284.67	690.5
284.901	672.5
285.132	673.5
285.364	679.5
285.595	673.5
285.826	671.5
286.057	689.5
286.288	712.5
286.52	695.5
286.751	698.5
286.982	693.5
287.213	691.5
287.444	680.5
287.675	692.5
287.906	694.5
288.138	709.5
288.369	704.5
288.6	709.5
288.831	698.5
289.062	743.5
289.293	696.5
289.524	724.5
289.755	712.5
289.986	689.5
290.217	725.5
290.448	693.5
290.679	725.5
290.91	717.5
291.141	739.5
291.371	721.5
291.602	721.5
291.833	708.5
292.064	711.5
292.295	714.5
292.526	718.5
292.757	711.5
292.987	726.5
293.218	730.5
293.449	746.5
293.68	722.5
293.91	721.5
294.141	728.5
294.372	731.5
294.603	725.5
294.833	763.5
295.064	739.5
295.295	734.5
295.525	715.5
295.756	723.5
295.987	735.5
296.217	767.5
296.448	763.5
296.679	761.5
296.909	766.5
297.14	754.5
297.37	770.5
297.601	784.5
297.831	798.5
298.062	771.5
298.292	801.5
298.523	830.5
298.753	795.5
298.984	800.5
299.214	817.5
299.445	820.5
299.675	789.5
299.905	797.5
300.136	797.5
300.366	812.5
300.597	799.5
300.827	847.5
301.057	819.5
301.288	821.5
301.518	817.5
301.748	829.5
301.979	856.5
302.209	840.5
302.439	835.5
302.669	849.5
302.9	828.5
303.13	819.5
303.36	827.5
303.59	842.5
303.82	858.5
304.051	835.5
304.281	833.5
304.511	837.5
304.741	806.5
304.971	842.5
305.201	801.5
305.431	835.5
305.661	809.5
305.891	820.5
306.121	815.5
306.352	835.5
306.582	833.5
306.812	813.5
307.042	828.5
307.272	802.5
307.502	829.5
307.731	808.5
307.961	797.5
308.191	796.5
308.421	832.5
308.651	825.5
308.881	805.5
309.111	812.5
309.341	790.5
309.571	801.5
309.8	799.5
310.03	815.5
310.26	793.5
310.49	838.5
310.72	826.5
310.949	825.5
311.179	846.5
311.409	800.5
311.639	826.5
311.868	826.5
312.098	845.5
312.328	863.5
312.557	866.5
312.787	841.5
313.017	811.5
313.246	845.5
313.476	872.5
313.706	866.5
313.935	849.5
314.165	861.5
314.394	851.5
314.624	885.5
314.853	869.5
315.083	854.5
315.312	880.5
315.542	877.5
315.771	868.5
316.001	866.5
316.23	864.5
316.46	871.5
316.689	828.5
316.919	865.5
317.148	865.5
317.377	857.5
317.607	850.5
317.836	847.5
318.065	875.5
318.295	837.5
318.524	855.5
318.753	869.5
318.983	861.5
319.212	848.5
319.441	850.5
319.67	856.5
319.9	836.5
320.129	850.5
320.358	872.5
320.587	860.5
320.816	851.5
321.046	863.5
321.275	869.5
321.504	877.5
321.733	862.5
321.962	861.5
322.191	873.5
322.42	856.5
322.649	853.5
322.878	838.5
323.108	856.5
323.337	853.5
323.566	901.5
323.795	877.5
324.024	873.5
324.253	879.5
324.482	879.5
324.71	867.5
324.939	879.5
325.168	890.5
325.397	915.5
325.626	883.5
325.855	912.5
326.084	930.5
326.313	924.5
326.542	925.5
326.77	931.5
326.999	921.5
327.228	925.5
327.457	949.5
327.686	929.5
327.914	966.5
328.143	963.5
328.372	944.5
328.6	949.5
328.829	932.5
329.058	928.5
329.287	939.5
329.515	978.5
329.744	953.5
329.972	961.5
330.201	958.5
330.43	973.5
330.658	956.5
330.887	976.5
331.115	974.5
331.344	957.5
331.572	986.5
331.801	1001.5
332.03	1034.5
332.258	1057.5
332.486	1097.5
332.715	1095.5
332.943	1115.5
333.172	1139.5
333.4	1207.5
333.629	1222.5
333.857	1289.5
334.085	1258.5
334.314	1248.5
334.542	1263.5
334.771	1214.5
334.999	1223.5
335.227	1250.5
335.455	1187.5
335.684	1198.5
335.912	1192.5
336.14	1178.5
336.369	1171.5
336.597	1176.5
336.825	1126.5
337.053	1161.5
337.281	1112.5
337.51	1099.5
337.738	1118.5
337.966	1064.5
338.194	1092.5
338.422	1029.5
338.65	1030.5
338.878	991.5
339.106	1005.5
339.334	1021.5
339.562	1013.5
339.79	1018.5
340.018	994.5
340.246	994.5
340.474	964.5
340.702	971.5
340.93	973.5
341.158	991.5
341.386	1000.5
341.614	1035.5
341.842	1000.5
342.07	1007.5
342.298	973.5
342.526	955.5
342.754	985.5
342.981	996.5
343.209	988.5
343.437	1057.5
343.665	1124.5
343.893	1165.5
344.12	1222.5
344.348	1154.5
344.576	1136.5
344.804	1082.5
345.031	1046.5
345.259	1011.5
345.487	1008.5
345.714	998.5
345.942	967.5
346.17	990.5
346.397	980.5
346.625	961.5
346.853	954.5
347.08	959.5
347.308	981.5
347.535	973.5
347.763	927.5
347.99	956.5
348.218	978.5
348.445	961.5
348.673	946.5
348.9	951.5
349.128	911.5
349.355	951.5
349.583	945.5
349.81	915.5
350.037	897.5
350.265	917.5
350.492	921.5
350.72	887.5
350.947	898.5
351.174	895.5
351.402	918.5
351.629	925.5
351.856	912.5
352.083	882.5
352.311	888.5
352.538	916.5
352.765	891.5
352.992	925.5
353.22	922.5
353.447	904.5
353.674	881.5
353.901	919.5
354.128	891.5
354.355	889.5
354.583	890.5
354.81	909.5
355.037	934.5
355.264	889.5
355.491	917.5
355.718	935.5
355.945	911.5
356.172	905.5
356.399	916.5
356.626	908.5
356.853	903.5
357.08	923.5
357.307	916.5
357.534	925.5
357.761	917.5
357.988	915.5
358.215	909.5
358.441	887.5
358.668	906.5
358.895	920.5
359.122	927.5
359.349	898.5
359.576	934.5
359.802	923.5
360.029	893.5
360.256	889.5
360.483	931.5
360.709	885.5
360.936	913.5
361.163	920.5
361.39	912.5
361.616	905.5
361.843	896.5
362.07	931.5
362.296	919.5
362.523	910.5
362.749	897.5
362.976	876.5
363.203	908.5
363.429	903.5
363.656	898.5
363.882	892.5
364.109	901.5
364.335	885.5
364.562	894.5
364.788	902.5
365.015	889.5
365.241	898.5
365.468	899.5
365.694	919.5
365.92	896.5
366.147	919.5
366.373	928.5
366.599	893.5
366.826	922.5
367.052	872.5
367.278	887.5
367.505	927.5
367.731	913.5
367.957	920.5
368.184	918.5
368.41	924.5
368.636	920.5
368.862	941.5
369.089	926.5
369.315	923.5
369.541	929.5
369.767	949.5
369.993	933.5
370.219	964.5
370.445	969.5
370.672	989.5
370.898	962.5
371.124	979.5
371.35	997.5
371.576	1002.5
371.802	963.5
372.028	1015.5
372.254	970.5
372.48	993.5
372.706	997.5
372.932	1025.5
373.158	1056.5
373.384	1047.5
373.61	995.5
373.835	987.5
374.061	986.5
374.287	1010.5
374.513	1021.5
374.739	1073.5
374.965	1074.5
375.191	1123.5
375.416	1103.5
375.642	1029.5
375.868	1071.5
376.094	1027.5
376.319	1043.5
376.545	1046.5
376.771	1002.5
376.997	1010.5
377.222	1008.5
377.448	975.5
377.674	973.5
377.899	981.5
378.125	974.5
378.35	986.5
378.576	984.5
378.802	982.5
379.027	964.5
379.253	976.5
379.478	983.5
379.704	985.5
379.929	980.5
380.155	998.5
380.38	977.5
380.606	989.5
380.831	976.5
381.057	985.5
381.282	989.5
381.507	991.5
381.733	994.5
381.958	1004.5
382.184	1032.5
382.409	1025.5
382.634	1011.5
382.86	1042.5
383.085	1054.5
383.31	1062.5
383.535	1069.5
383.761	1086.5
383.986	1128.5
384.211	1134.5
384.436	1142.5
384.662	1163.5
384.887	1191.5
385.112	1203.5
385.337	1199.5
385.562	1231.5
385.787	1212.5
386.013	1186.5
386.238	1243.5
386.463	1223.5
386.688	1207.5
386.913	1195.5
387.138	1201.5
387.363	1178.5
387.588	1189.5
387.813	1238.5
388.038	1201.5
388.263	1219.5
388.488	1191.5
388.713	1159.5
388.938	1211.5
389.163	1189.5
389.387	1179.5
389.612	1163.5
389.837	1190.5
390.062	1180.5
390.287	1193.5
390.512	1170.5
390.736	1201.5
390.961	1220.5
391.186	1230.5
391.411	1256.5
391.636	1330.5
391.86	1362.5
392.085	1353.5
392.31	1335.5
392.534	1306.5
392.759	1344.5
392.984	1319.5
393.208	1279.5
393.433	1271.5
393.658	1288.5
393.882	1267.5
394.107	1295.5
394.331	1306.5
394.556	1266.5
394.78	1293.5
395.005	1293.5
395.229	1307.5
395.454	1339.5
395.678	1381.5
395.903	1349.5
396.127	1355.5
396.352	1350.5
396.576	1326.5
396.801	1318.5
397.025	1302.5
397.249	1353.5
397.474	1401.5
397.698	1381.5
397.922	1423.5
398.147	1399.5
398.371	1402.5
398.595	1484.5
398.82	1513.5
399.044	1630.5
399.268	1735.5
399.492	1969.5
399.717	2168.5
399.941	2213.5
400.165	2101.5
400.389	1914.5
400.613	1797.5
400.837	1679.5
401.062	1608.5
401.286	1594.5
401.51	1568.5
401.734	1555.5
401.958	1551.5
402.182	1551.5
402.406	1574.5
402.63	1584.5
402.854	1617.5
403.078	1593.5
403.302	1652.5
403.526	1677.5
403.75	1679.5
403.974	1697.5
404.198	1729.5
404.422	1731.5
404.645	1751.5
404.869	1693.5
405.093	1747.5
405.317	1696.5
405.541	1686.5
405.765	1702.5
405.988	1666.5
406.212	1673.5
406.436	1669.5
406.66	1766.5
406.883	1708.5
407.107	1873.5
407.331	1937.5
407.555	2024.5
407.778	1973.5
408.002	1946.5
408.226	1911.5
408.449	1837.5
408.673	1761.5
408.896	1761.5
409.12	1720.5
409.344	1753.5
409.567	1747.5
409.791	1759.5
410.014	1717.5
410.238	1732.5
410.461	1675.5
410.685	1715.5
410.908	1643.5
411.132	1671.5
411.355	1580.5
411.578	1610.5
411.802	1591.5
412.025	1594.5
412.249	1646.5
412.472	1610.5
412.695	1585.5
412.919	1546.5
413.142	1522.5
413.365	1552.5
413.589	1554.5
413.812	1548.5
414.035	1507.5
414.258	1504.5
414.482	1519.5
414.705	1515.5
414.928	1562.5
415.151	1531.5
415.374	1537.5
415.597	1504.5
415.821	1512.5
416.044	1513.5
416.267	1445.5
416.49	1439.5
416.713	1425.5
416.936	1502.5
417.159	1427.5
417.382	1474.5
417.605	1473.5
417.828	1489.5
418.051	1506.5
418.274	1519.5
418.497	1505.5
418.72	1551.5
418.943	1552.5
419.166	1645.5
419.389	1786.5
419.611	1746.5
419.834	1645.5
420.057	1605.5
420.28	1544.5
420.503	1508.5
420.726	1471.5
420.948	1480.5
421.171	1496.5
421.394	1509.5
421.617	1532.5
421.839	1522.5
422.062	1511.5
422.285	1480.5
422.507	1533.5
422.73	1522.5
422.953	1517.5
423.175	1547.5
423.398	1537.5
423.621	1546.5
423.843	1556.5
424.066	1544.5
424.288	1521.5
424.511	1508.5
424.733	1535.5
424.956	1512.5
425.178	1503.5
425.401	1523.5
425.623	1489.5
425.846	1479.5
426.068	1493.5
426.291	1446.5
426.513	1404.5
426.735	1450.5
426.958	1430.5
427.18	1369.5
427.402	1380.5
427.625	1389.5
427.847	1377.5
428.069	1365.5
428.292	1369.5
428.514	1347.5
428.736	1345.5
428.958	1338.5
429.181	1303.5
429.403	1285.5
429.625	1318.5
429.847	1297.5
430.069	1333.5
430.292	1294.5
430.514	1293.5
430.736	1329.5
430.958	1321.5
431.18	1316.5
431.402	1331.5
431.624	1315.5
431.846	1341.5
432.068	1331.5
432.29	1384.5
432.512	1284.5
432.734	1348.5
432.956	1300.5
433.178	1358.5
433.4	1322.5
433.622	1362.5
433.844	1374.5
434.066	1350.5
434.287	1381.5
434.509	1408.5
434.731	1459.5
434.953	1526.5
435.175	1481.5
435.397	1469.5
435.618	1426.5
435.84	1391.5
436.062	1374.5
436.284	1329.5
436.505	1374.5
436.727	1358.5
436.949	1303.5
437.17	1320.5
437.392	1299.5
437.614	1306.5
437.835	1287.5
438.057	1291.5
438.278	1262.5
438.5	1263.5
438.721	1293.5
438.943	1280.5
439.165	1281.5
439.386	1297.5
439.608	1299.5
439.829	1320.5
440.05	1309.5
440.272	1345.5
440.493	1333.5
440.715	1329.5
440.936	1354.5
441.158	1365.5
441.379	1419.5
441.6	1457.5
441.822	1458.5
442.043	1468.5
442.264	1456.5
442.486	1441.5
442.707	1427.5
442.928	1469.5
443.149	1443.5
443.371	1425.5
443.592	1445.5
443.813	1479.5
444.034	1507.5
444.255	1569.5
444.476	1611.5
444.698	1650.5
444.919	1727.5
445.14	1789.5
445.361	1673.5
445.582	1562.5
445.803	1523.5
446.024	1470.5
446.245	1389.5
446.466	1375.5
446.687	1357.5
446.908	1351.5
447.129	1350.5
447.35	1274.5
447.571	1307.5
447.792	1247.5
448.013	1243.5
448.234	1261.5
448.455	1217.5
448.675	1227.5
448.896	1232.5
449.117	1186.5
449.338	1216.5
449.559	1170.5
449.779	1205.5
450	1190.5
450.221	1214.5
450.442	1189.5
450.662	1223.5
450.883	1190.5
451.104	1265.5
451.324	1233.5
451.545	1232.5
451.766	1218.5
451.986	1195.5
452.207	1202.5
452.428	1174.5
452.648	1201.5
452.869	1161.5
453.089	1178.5
453.31	1194.5
453.53	1178.5
453.751	1187.5
453.971	1161.5
454.192	1165.5
454.412	1151.5
454.633	1142.5
454.853	1130.5
455.073	1141.5
455.294	1128.5
455.514	1123.5
455.734	1145.5
455.955	1103.5
456.175	1111.5
456.395	1126.5
456.616	1138.5
456.836	1155.5
457.056	1137.5
457.276	1126.5
457.497	1153.5
457.717	1144.5
457.937	1155.5
458.157	1175.5
458.377	1173.5
458.598	1184.5
458.818	1240.5
459.038	1242.5
459.258	1323.5
459.478	1361.5
459.698	1398.5
459.918	1411.5
460.138	1471.5
460.358	1577.5
460.578	1595.5
460.798	1566.5
461.018	1619.5
461.238	1601.5
461.458	1586.5
461.678	1536.5
461.898	1615.5
462.118	1634.5
462.338	1701.5
462.558	1765.5
462.777	1810.5
462.997	1909.5
463.217	1993.5
463.437	2012.5
463.657	1962.5
463.876	1940.5
464.096	1882.5
464.316	1855.5
464.536	1815.5
464.755	1760.5
464.975	1702.5
465.195	1661.5
465.414	1553.5
465.634	1458.5
465.854	1409.5
466.073	1370.5
466.293	1351.5
466.512	1337.5
466.732	1265.5
466.951	1286.5
467.171	1253.5
467.391	1283.5
467.61	1242.5
467.829	1237.5
468.049	1253.5
468.268	1214.5
468.488	1241.5
468.707	1252.5
468.927	1242.5
469.146	1225.5
469.365	1244.5
469.585	1239.5
469.804	1269.5
470.023	1283.5
470.243	1277.5
470.462	1338.5
470.681	1314.5
470.901	1288.5
471.12	1296.5
471.339	1257.5
471.558	1261.5
471.777	1267.5
471.997	1237.5
472.216	1226.5
472.435	1263.5
472.654	1192.5
472.873	1210.5
473.092	1206.5
473.311	1226.5
473.53	1220.5
473.749	1180.5
473.968	1190.5
474.187	1176.5
474.406	1185.5
474.625	1188.5
474.844	1189.5
475.063	1200.5
475.282	1220.5
475.501	1233.5
475.72	1213.5
475.939	1222.5
476.158	1270.5
476.377	1255.5
476.596	1243.5
476.814	1311.5
477.033	1295.5
477.252	1302.5
477.471	1380.5
477.69	1349.5
477.908	1412.5
478.127	1408.5
478.346	1415.5
478.564	1449.5
478.783	1464.5
479.002	1498.5
479.22	1525.5
479.439	1522.5
479.658	1514.5
479.876	1527.5
480.095	1531.5
480.313	1591.5
480.532	1585.5
480.751	1594.5
480.969	1584.5
481.188	1500.5
481.406	1478.5
481.624	1453.5
481.843	1426.5
482.061	1396.5
482.28	1352.5
482.498	1388.5
482.717	1366.5
482.935	1404.5
483.153	1376.5
483.372	1365.5
483.59	1373.5
483.808	1392.5
484.027	1382.5
484.245	1376.5
484.463	1393.5
484.681	1428.5
484.9	1443.5
485.118	1448.5
485.336	1430.5
485.554	1482.5
485.772	1479.5
485.99	1475.5
486.209	1488.5
486.427	1484.5
486.645	1467.5
486.863	1442.5
487.081	1423.5
487.299	1465.5
487.517	1492.5
487.735	1441.5
487.953	1482.5
488.171	1434.5
488.389	1446.5
488.607	1434.5
488.825	1441.5
489.043	1445.5
489.261	1434.5
489.479	1465.5
489.696	1429.5
489.914	1445.5
490.132	1430.5
490.35	1505.5
490.568	1502.5
490.786	1463.5
491.003	1472.5
491.221	1469.5
491.439	1455.5
491.657	1465.5
491.874	1501.5
492.092	1489.5
492.31	1483.5
492.527	1498.5
492.745	1492.5
492.963	1526.5
493.18	1527.5
493.398	1504.5
493.615	1500.5
493.833	1505.5
494.05	1538.5
494.268	1545.5
494.485	1562.5
494.703	1591.5
494.92	1565.5
495.138	1551.5
495.355	1569.5
495.573	1559.5
495.79	1578.5
496.008	1617.5
496.225	1587.5
496.442	1615.5
496.66	1642.5
496.877	1646.5
497.094	1706.5
497.312	1757.5
497.529	1767.5
497.746	1826.5
497.963	1910.5
498.181	1989.5
498.398	2095.5
498.615	2215.5
498.832	2315.5
499.049	2499.5
499.267	2675.5
499.484	2920.5
499.701	3235.5
499.918	3589.5
500.135	3868.5
500.352	4257.5
500.569	4435.5
500.786	4443.5
501.003	4215.5
501.22	3918.5
501.437	3536.5
501.654	3165.5
501.871	2957.5
502.088	2677.5
502.305	2490.5
502.522	2405.5
502.739	2219.5
502.956	2158.5
503.172	2053.5
503.389	1962.5
503.606	1923.5
503.823	1858.5
504.04	1839.5
504.256	1897.5
504.473	1886.5
504.69	1840.5
504.907	1786.5
505.123	1791.5
505.34	1641.5
505.557	1587.5
505.773	1573.5
505.99	1533.5
506.207	1508.5
506.423	1461.5
506.64	1415.5
506.856	1398.5
507.073	1386.5
507.289	1389.5
507.506	1352.5
507.722	1363.5
507.939	1393.5
508.155	1355.5
508.372	1363.5
508.588	1307.5
508.805	1318.5
509.021	1314.5
509.238	1282.5
509.454	1279.5
509.67	1258.5
509.887	1274.5
510.103	1256.5
510.319	1283.5
510.536	1279.5
510.752	1243.5
510.968	1277.5
511.184	1239.5
511.401	1229.5
511.617	1249.5
511.833	1237.5
512.049	1215.5
512.265	1213.5
512.481	1243.5
512.698	1226.5
512.914	1254.5
513.13	1247.5
513.346	1237.5
513.562	1245.5
513.778	1266.5
513.994	1247.5
514.21	1279.5
514.426	1276.5
514.642	1265.5
514.858	1306.5
515.074	1291.5
515.29	1284.5
515.506	1305.5
515.721	1330.5
515.937	1367.5
516.153	1354.5
516.369	1404.5
516.585	1445.5
516.801	1481.5
517.016	1530.5
517.232	1571.5
517.448	1651.5
517.664	1723.5
517.879	1711.5
518.095	1723.5
518.311	1726.5
518.527	1632.5
518.742	1596.5
518.958	1552.5
519.173	1465.5
519.389	1422.5
519.605	1377.5
519.82	1345.5
520.036	1343.5
520.251	1314.5
520.467	1302.5
520.682	1274.5
520.898	1241.5
521.113	1241.5
521.329	1211.5
521.544	1226.5
521.76	1194.5
521.975	1195.5
522.19	1211.5
522.406	1210.5
522.621	1202.5
522.836	1180.5
523.052	1153.5
523.267	1172.5
523.482	1162.5
523.698	1177.5
523.913	1149.5
524.128	1150.5
524.343	1153.5
524.559	1161.5
524.774	1135.5
524.989	1123.5
525.204	1104.5
525.419	1152.5
525.634	1124.5
525.849	1141.5
526.064	1138.5
526.28	1122.5
526.495	1131.5
526.71	1081.5
526.925	1143.5
527.14	1135.5
527.355	1136.5
527.57	1129.5
527.785	1114.5
527.999	1102.5
528.214	1119.5
528.429	1114.5
528.644	1126.5
528.859	1111.5
529.074	1122.5
529.289	1117.5
529.503	1114.5
529.718	1098.5
529.933	1111.5
530.148	1097.5
530.363	1139.5
530.577	1120.5
530.792	1098.5
531.007	1105.5
531.221	1099.5
531.436	1115.5
531.651	1094.5
531.865	1088.5
532.08	1095.5
532.295	1122.5
532.509	1131.5
532.724	1101.5
532.938	1092.5
533.153	1098.5
533.367	1117.5
533.582	1111.5
533.796	1087.5
534.011	1106.5
534.225	1095.5
534.44	1097.5
534.654	1097.5
534.868	1059.5
535.083	1090.5
535.297	1082.5
535.511	1064.5
535.726	1062.5
535.94	1071.5
536.154	1074.5
536.369	1051.5
536.583	1041.5
536.797	1035.5
537.011	1034.5
537.225	1027.5
537.44	1058.5
537.654	1041.5
537.868	1023.5
538.082	1003.5
538.296	980.5
538.51	1005.5
538.724	1012.5
538.938	988.5
539.153	1009.5
539.367	1017.5
539.581	1008.5
539.795	1011.5
540.009	978.5
540.222	1017.5
540.436	978.5
540.65	983.5
540.864	994.5
541.078	992.5
541.292	988.5
541.506	1021.5
541.72	987.5
541.934	988.5
542.147	994.5
542.361	981.5
542.575	979.5
542.789	980.5
543.002	1002.5
543.216	981.5
543.43	958.5
543.644	924.5
543.857	995.5
544.071	996.5
544.285	993.5
544.498	968.5
544.712	996.5
544.925	1000.5
545.139	986.5
545.352	1005.5
545.566	1035.5
545.779	1050.5
545.993	1010.5
546.206	1027.5
546.42	1008.5
546.633	997.5
546.847	1015.5
547.06	1037.5
547.274	1050.5
547.487	1011.5
547.7	1036.5
547.914	990.5
548.127	1027.5
548.34	1019.5
548.554	1012.5
548.767	1023.5
548.98	1023.5
549.193	996.5
549.407	1029.5
549.62	1041.5
549.833	1039.5
550.046	1060.5
550.259	1038.5
550.473	1000.5
550.686	1042.5
550.899	990.5
551.112	1005.5
551.325	1019.5
551.538	1002.5
551.751	1008.5
551.964	986.5
552.177	1031.5
552.39	1051.5
552.603	1030.5
552.816	1077.5
553.029	1094.5
553.242	1113.5
553.455	1118.5
553.667	1121.5
553.88	1079.5
554.093	1058.5
554.306	1033.5
554.519	1013.5
554.732	1002.5
554.944	1007.5
555.157	981.5
555.37	982.5
555.583	955.5
555.795	917.5
556.008	917.5
556.221	901.5
556.433	899.5
556.646	867.5
556.859	888.5
557.071	859.5
557.284	871.5
557.496	883.5
557.709	889.5
557.921	878.5
558.134	881.5
558.346	873.5
558.559	906.5
558.771	849.5
558.984	856.5
559.196	858.5
559.409	844.5
559.621	849.5
559.833	842.5
560.046	857.5
560.258	846.5
560.47	841.5
560.683	847.5
560.895	838.5
561.107	840.5
561.32	827.5
561.532	829.5
561.744	843.5
561.956	834.5
562.168	847.5
562.381	846.5
562.593	847.5
562.805	822.5
563.017	838.5
563.229	825.5
563.441	857.5
563.653	871.5
563.865	854.5
564.077	857.5
564.289	878.5
564.501	865.5
564.713	930.5
564.925	929.5
565.137	933.5
565.349	945.5
565.561	972.5
565.773	1033.5
565.985	1104.5
566.197	1119.5
566.408	1189.5
566.62	1259.5
566.832	1320.5
567.044	1367.5
567.255	1401.5
567.467	1434.5
567.679	1480.5
567.891	1530.5
568.102	1547.5
568.314	1477.5
568.526	1387.5
568.737	1304.5
568.949	1169.5
569.161	1115.5
569.372	1029.5
569.584	999.5
569.795	957.5
570.007	917.5
570.218	906.5
570.43	909.5
570.641	880.5
570.853	885.5
571.064	861.5
571.276	872.5
571.487	835.5
571.698	828.5
571.91	791.5
572.121	777.5
572.333	754.5
572.544	745.5
572.755	734.5
572.966	722.5
573.178	737.5
573.389	717.5
573.6	705.5
573.811	722.5
574.023	687.5
574.234	721.5
574.445	690.5
574.656	672.5
574.867	690.5
575.078	674.5
575.289	695.5
575.501	677.5
575.712	659.5
575.923	664.5
576.134	674.5
576.345	660.5
576.556	617.5
576.767	634.5
576.978	661.5
577.188	631.5
577.399	652.5
577.61	636.5
577.821	614.5
578.032	597.5
578.243	622.5
578.454	599.5
578.665	608.5
578.875	604.5
579.086	609.5
579.297	608.5
579.508	619.5
579.718	607.5
579.929	598.5
580.14	591.5
580.35	588.5
580.561	591.5
580.772	599.5
580.982	587.5
581.193	577.5
581.403	580.5
581.614	577.5
581.825	578.5
582.035	583.5
582.246	587.5
582.456	569.5
582.667	570.5
582.877	583.5
583.087	560.5
583.298	570.5
583.508	557.5
583.719	567.5
583.929	569.5
584.139	550.5
584.35	537.5
584.56	566.5
584.77	558.5
584.981	539.5
585.191	565.5
585.401	539.5
585.611	548.5
585.821	551.5
586.032	536.5
586.242	542.5
586.452	565.5
586.662	525.5
586.872	534.5
587.082	562.5
587.292	557.5
587.502	551.5
587.713	552.5
587.923	543.5
588.133	533.5
588.343	559.5
588.553	548.5
588.762	565.5
588.972	560.5
589.182	559.5
589.392	571.5
589.602	529.5
589.812	561.5
590.022	557.5
590.232	555.5
590.441	562.5
590.651	540.5
590.861	575.5
591.071	579.5
591.281	564.5
591.49	589.5
591.7	590.5
591.91	595.5
592.119	598.5
592.329	606.5
592.539	638.5
592.748	639.5
592.958	661.5
593.167	669.5
593.377	677.5
593.587	672.5
593.796	675.5
594.006	691.5
594.215	723.5
594.424	664.5
594.634	669.5
594.843	665.5
595.053	636.5
595.262	629.5
595.472	603.5
595.681	573.5
595.89	547.5
596.1	532.5
596.309	538.5
596.518	538.5
596.727	519.5
596.937	549.5
597.146	500.5
597.355	515.5
597.564	484.5
597.774	480.5
597.983	495.5
598.192	500.5
598.401	480.5
598.61	481.5
598.819	485.5
599.028	452.5
599.237	488.5
599.446	445.5
599.655	451.5
599.864	461.5
600.073	466.5
600.282	451.5
600.491	449.5
600.7	450.5
600.909	451.5
601.118	441.5
601.327	449.5
601.536	431.5
601.745	441.5
601.953	427.5
602.162	433.5
602.371	439.5
602.58	441.5
602.789	421.5
602.997	421.5
603.206	441.5
603.415	442.5
603.623	434.5
603.832	430.5
604.041	436.5
604.249	423.5
604.458	417.5
604.666	411.5
604.875	435.5
605.084	400.5
605.292	422.5
605.501	417.5
605.709	410.5
605.918	390.5
606.126	396.5
606.334	417.5
606.543	415.5
606.751	424.5
606.96	399.5
607.168	391.5
607.376	416.5
607.585	379.5
607.793	402.5
608.001	396.5
608.21	400.5
608.418	418.5
608.626	400.5
608.834	396.5
609.043	428.5
609.251	409.5
609.459	411.5
609.667	401.5
609.875	397.5
610.083	402.5
610.291	414.5
610.499	390.5
610.707	393.5
610.916	397.5
611.124	407.5
611.332	396.5
611.54	386.5
611.748	389.5
611.955	368.5
612.163	387.5
612.371	374.5
612.579	362.5
612.787	383.5
612.995	392.5
613.203	391.5
613.411	385.5
613.618	381.5
613.826	363.5
614.034	391.5
614.242	379.5
614.449	366.5
614.657	373.5
614.865	369.5
615.072	362.5
615.28	361.5
615.488	379.5
615.695	373.5
615.903	377.5
616.111	389.5
616.318	385.5
616.526	395.5
616.733	377.5
616.941	363.5
617.148	377.5
617.356	373.5
617.563	378.5
617.771	376.5
617.978	368.5
618.185	376.5
618.393	376.5
618.6	375.5
618.807	357.5
619.015	372.5
619.222	372.5
619.429	381.5
619.637	359.5
619.844	367.5
620.051	365.5
620.258	357.5
620.466	350.5
620.673	350.5
620.88	351.5
621.087	355.5
621.294	348.5
621.501	329.5
621.708	342.5
621.915	340.5
622.122	340.5
622.329	356.5
622.536	335.5
622.743	352.5
622.95	353.5
623.157	330.5
623.364	351.5
623.571	336.5
623.778	343.5
623.985	341.5
624.192	352.5
624.399	349.5
624.606	331.5
624.812	344.5
625.019	321.5
625.226	327.5
625.433	329.5
625.639	322.5
625.846	323.5
626.053	331.5
626.259	322.5
626.466	307.5
626.673	327.5
626.879	334.5
627.086	308.5
627.293	328.5
627.499	316.5
627.706	320.5
627.912	334.5
628.119	324.5
628.325	307.5
628.532	320.5
628.738	296.5
628.945	302.5
629.151	319.5
629.357	311.5
629.564	315.5
629.77	291.5
629.976	301.5
630.183	304.5
630.389	286.5
630.595	293.5
630.802	289.5
631.008	293.5
631.214	283.5
631.42	281.5
631.627	301.5
631.833	303.5
632.039	301.5
632.245	277.5
632.451	286.5
632.657	279.5
632.863	283.5
633.069	275.5
633.275	277.5
633.481	285.5
633.688	269.5
633.893	289.5
634.099	279.5
634.305	259.5
634.511	273.5
634.717	266.5
634.923	255.5
635.129	279.5
635.335	257.5
635.541	271.5
635.747	274.5
635.952	255.5
636.158	262.5
636.364	280.5
636.57	277.5
636.775	257.5
636.981	258.5
637.187	257.5
637.392	243.5
637.598	251.5
637.804	253.5
638.009	261.5
638.215	269.5
638.421	266.5
638.626	243.5
638.832	240.5
639.037	259.5
639.243	260.5
639.448	246.5
639.654	249.5
639.859	256.5
640.065	240.5
640.27	239.5
640.475	241.5
640.681	241.5
640.886	242.5
641.091	251.5
641.297	256.5
641.502	237.5
641.707	250.5
641.913	246.5
642.118	232.5
642.323	259.5
642.528	233.5
642.733	246.5
642.939	247.5
643.144	249.5
643.349	240.5
643.554	238.5
643.759	224.5
643.964	232.5
644.169	250.5
644.374	247.5
644.579	225.5
644.784	243.5
644.989	240.5
645.194	232.5
645.399	234.5
645.604	232.5
645.809	245.5
646.014	239.5
646.219	239.5
646.423	242.5
646.628	250.5
646.833	229.5
647.038	220.5
647.243	231.5
647.447	254.5
647.652	256.5
647.857	249.5
648.062	268.5
648.266	265.5
648.471	263.5
648.676	232.5
648.88	245.5
649.085	248.5
649.289	232.5
649.494	237.5
649.698	223.5
649.903	227.5
650.107	238.5
650.312	221.5
650.516	216.5
650.721	213.5
650.925	215.5
651.13	203.5
651.334	210.5
651.539	191.5
651.743	200.5
651.947	220.5
652.152	205.5
652.356	196.5
652.56	204.5
652.764	193.5
652.969	179.5
653.173	182.5
653.377	192.5
653.581	196.5
653.785	183.5
653.99	197.5
654.194	174.5
654.398	174.5
654.602	149.5
654.806	183.5
655.01	167.5
655.214	168.5
655.418	187.5
655.622	173.5
655.826	179.5
656.03	166.5
656.234	167.5
656.438	159.5
656.642	185.5
656.846	169.5
657.049	169.5
657.253	160.5
657.457	147.5
657.661	139.5
657.865	158.5
658.068	121.5
658.272	125.5
658.476	123.5
658.68	124.5
658.883	122.5
659.087	121.5
659.291	111.5
659.494	109.5
659.698	110.5
659.901	103.5
660.105	106.5
660.309	94.5
660.512	102.5
660.716	102.5
660.919	102.5
661.123	106.5
661.326	100.5
661.53	90.5
661.733	93.5
661.936	93.5
662.14	80.5
662.343	89.5
662.546	81.5
662.75	111.5
662.953	89.5
663.156	93.5
663.36	92.5
663.563	76.5
663.766	78.5
663.969	80.5
664.173	66.5
664.376	75.5
664.579	87.5
664.782	84.5
664.985	93.5
665.188	79.5
665.391	82.5
665.594	78.5
665.797	80.5
666	77.5
666.203	78.5
666.406	73.5
666.609	84.5
666.812	77.5
667.015	82.5
667.218	90.5
667.421	94.5
667.624	77.5
667.827	76.5
668.03	81.5
668.232	74.5
668.435	91.5
668.638	72.5
668.841	78.5
669.043	84.5
669.246	85.5
669.449	78.5
669.651	73.5
669.854	85.5
670.057	85.5
670.259	73.5
670.462	71.5
670.665	81.5
670.867	77.5
671.07	79.5
671.272	71.5
671.475	86.5
671.677	89.5
671.88	69.5
672.082	74.5
672.284	71.5
672.487	68.5
672.689	68.5
672.892	82.5
