Data from NiCl2@0.0625M.TitratingCurve.Agarose3%dH2O.NegLispCup.LampEnergy10.LIBS07252019_HRD10591_18-32-26-576.txt Node
Date: Thu Jul 25 18:32:26 EDT 2019
User: cochatt
Spectrometer: HR+D1059
Trigger mode: 1
Integration Time (sec): 1.000000E-1
Scans to average: 1
Electric dark correction enabled: true
Nonlinearity correction enabled: false
Boxcar width: 0
XAxis mode: Wavelengths
Number of Pixels in Spectrum: 2048
>>>>>Begin Spectral Data<<<<<
223.165	-11.56
223.4	-11.56
223.635	-11.56
223.869	-24.56
224.104	-9.56
224.338	-14.56
224.573	-15.56
224.808	-6.56
225.042	6.44
225.277	-3.56
225.511	-7.56
225.746	3.44
225.98	9.44
226.215	-6.56
226.449	10.44
226.683	12.44
226.918	26.44
227.152	31.44
227.387	40.44
227.621	36.44
227.856	46.44
228.09	55.44
228.324	54.44
228.559	62.44
228.793	93.44
229.027	152.44
229.262	194.44
229.496	180.44
229.73	177.44
229.964	201.44
230.199	206.44
230.433	202.44
230.667	190.44
230.901	187.44
231.136	197.44
231.37	199.44
231.604	207.44
231.838	211.44
232.072	209.44
232.306	213.44
232.541	212.44
232.775	198.44
233.009	203.44
233.243	226.44
233.477	214.44
233.711	230.44
233.945	212.44
234.179	216.44
234.413	229.44
234.647	225.44
234.881	236.44
235.115	230.44
235.349	239.44
235.583	238.44
235.817	248.44
236.051	228.44
236.285	252.44
236.519	235.44
236.753	246.44
236.987	258.44
237.221	251.44
237.455	250.44
237.689	258.44
237.922	246.44
238.156	272.44
238.39	276.44
238.624	260.44
238.858	260.44
239.091	279.44
239.325	279.44
239.559	295.44
239.793	293.44
240.027	290.44
240.26	289.44
240.494	290.44
240.728	282.44
240.961	303.44
241.195	302.44
241.429	316.44
241.662	296.44
241.896	308.44
242.13	329.44
242.363	315.44
242.597	327.44
242.83	337.44
243.064	322.44
243.298	321.44
243.531	335.44
243.765	332.44
243.998	350.44
244.232	350.44
244.465	361.44
244.699	347.44
244.932	356.44
245.166	383.44
245.399	349.44
245.633	373.44
245.866	367.44
246.099	357.44
246.333	362.44
246.566	384.44
246.8	383.44
247.033	385.44
247.266	392.44
247.5	380.44
247.733	384.44
247.966	410.44
248.2	398.44
248.433	408.44
248.666	412.44
248.899	404.44
249.133	414.44
249.366	400.44
249.599	405.44
249.832	420.44
250.066	404.44
250.299	420.44
250.532	425.44
250.765	440.44
250.998	422.44
251.231	435.44
251.465	449.44
251.698	458.44
251.931	470.44
252.164	461.44
252.397	451.44
252.63	471.44
252.863	460.44
253.096	461.44
253.329	494.44
253.562	452.44
253.795	483.44
254.028	496.44
254.261	480.44
254.494	468.44
254.727	458.44
254.96	504.44
255.193	470.44
255.426	506.44
255.659	489.44
255.892	497.44
256.124	534.44
256.357	486.44
256.59	520.44
256.823	527.44
257.056	507.44
257.289	499.44
257.521	518.44
257.754	516.44
257.987	506.44
258.22	520.44
258.452	531.44
258.685	529.44
258.918	536.44
259.151	550.44
259.383	543.44
259.616	535.44
259.849	551.44
260.081	562.44
260.314	552.44
260.547	561.44
260.779	551.44
261.012	574.44
261.244	557.44
261.477	555.44
261.71	575.44
261.942	562.44
262.175	583.44
262.407	595.44
262.64	578.44
262.872	557.44
263.105	576.44
263.337	587.44
263.57	604.44
263.802	614.44
264.035	591.44
264.267	595.44
264.499	630.44
264.732	632.44
264.964	632.44
265.197	614.44
265.429	606.44
265.661	635.44
265.894	616.44
266.126	628.44
266.358	626.44
266.591	630.44
266.823	639.44
267.055	618.44
267.287	643.44
267.52	638.44
267.752	650.44
267.984	654.44
268.216	675.44
268.448	622.44
268.681	660.44
268.913	634.44
269.145	662.44
269.377	657.44
269.609	644.44
269.841	671.44
270.073	653.44
270.306	672.44
270.538	692.44
270.77	678.44
271.002	668.44
271.234	686.44
271.466	681.44
271.698	686.44
271.93	696.44
272.162	705.44
272.394	713.44
272.626	708.44
272.858	709.44
273.09	722.44
273.322	721.44
273.553	713.44
273.785	726.44
274.017	700.44
274.249	737.44
274.481	749.44
274.713	721.44
274.945	742.44
275.176	733.44
275.408	753.44
275.64	748.44
275.872	750.44
276.104	752.44
276.335	747.44
276.567	770.44
276.799	774.44
277.031	762.44
277.262	784.44
277.494	778.44
277.726	743.44
277.957	776.44
278.189	786.44
278.421	784.44
278.652	786.44
278.884	816.44
279.115	794.44
279.347	825.44
279.579	798.44
279.81	815.44
280.042	804.44
280.273	777.44
280.505	820.44
280.736	792.44
280.968	826.44
281.199	816.44
281.431	818.44
281.662	838.44
281.894	853.44
282.125	848.44
282.356	829.44
282.588	873.44
282.819	843.44
283.051	845.44
283.282	854.44
283.513	861.44
283.745	879.44
283.976	867.44
284.207	848.44
284.439	884.44
284.67	898.44
284.901	884.44
285.132	900.44
285.364	902.44
285.595	869.44
285.826	897.44
286.057	916.44
286.288	886.44
286.52	913.44
286.751	890.44
286.982	918.44
287.213	913.44
287.444	904.44
287.675	952.44
287.906	903.44
288.138	926.44
288.369	943.44
288.6	914.44
288.831	912.44
289.062	921.44
289.293	903.44
289.524	940.44
289.755	945.44
289.986	932.44
290.217	920.44
290.448	927.44
290.679	915.44
290.91	945.44
291.141	965.44
291.371	937.44
291.602	948.44
291.833	945.44
292.064	932.44
292.295	949.44
292.526	951.44
292.757	929.44
292.987	924.44
293.218	912.44
293.449	950.44
293.68	939.44
293.91	967.44
294.141	942.44
294.372	979.44
294.603	958.44
294.833	954.44
295.064	968.44
295.295	942.44
295.525	953.44
295.756	964.44
295.987	952.44
296.217	959.44
296.448	968.44
296.679	990.44
296.909	969.44
297.14	998.44
297.37	1012.44
297.601	1019.44
297.831	997.44
298.062	995.44
298.292	997.44
298.523	1042.44
298.753	1060.44
298.984	997.44
299.214	1032.44
299.445	1036.44
299.675	1028.44
299.905	1044.44
300.136	1029.44
300.366	1039.44
300.597	1014.44
300.827	1065.44
301.057	1079.44
301.288	1082.44
301.518	1077.44
301.748	1103.44
301.979	1098.44
302.209	1082.44
302.439	1066.44
302.669	1078.44
302.9	1077.44
303.13	1063.44
303.36	1094.44
303.59	1074.44
303.82	1074.44
304.051	1079.44
304.281	1080.44
304.511	1064.44
304.741	1095.44
304.971	1061.44
305.201	1096.44
305.431	1101.44
305.661	1065.44
305.891	1076.44
306.121	1059.44
306.352	1078.44
306.582	1074.44
306.812	1053.44
307.042	1058.44
307.272	1062.44
307.502	1064.44
307.731	1059.44
307.961	1054.44
308.191	1086.44
308.421	1057.44
308.651	1054.44
308.881	1038.44
309.111	1016.44
309.341	1074.44
309.571	1070.44
309.8	1093.44
310.03	1081.44
310.26	1063.44
310.49	1076.44
310.72	1096.44
310.949	1074.44
311.179	1132.44
311.409	1115.44
311.639	1081.44
311.868	1106.44
312.098	1094.44
312.328	1097.44
312.557	1111.44
312.787	1093.44
313.017	1081.44
313.246	1137.44
313.476	1128.44
313.706	1137.44
313.935	1155.44
314.165	1140.44
314.394	1152.44
314.624	1162.44
314.853	1133.44
315.083	1186.44
315.312	1133.44
315.542	1146.44
315.771	1175.44
316.001	1154.44
316.23	1140.44
316.46	1124.44
316.689	1144.44
316.919	1151.44
317.148	1163.44
317.377	1146.44
317.607	1115.44
317.836	1110.44
318.065	1132.44
318.295	1141.44
318.524	1140.44
318.753	1131.44
318.983	1136.44
319.212	1130.44
319.441	1176.44
319.67	1164.44
319.9	1141.44
320.129	1135.44
320.358	1131.44
320.587	1126.44
320.816	1147.44
321.046	1131.44
321.275	1161.44
321.504	1166.44
321.733	1114.44
321.962	1179.44
322.191	1171.44
322.42	1147.44
322.649	1135.44
322.878	1160.44
323.108	1148.44
323.337	1170.44
323.566	1162.44
323.795	1185.44
324.024	1194.44
324.253	1163.44
324.482	1149.44
324.71	1204.44
324.939	1199.44
325.168	1204.44
325.397	1199.44
325.626	1233.44
325.855	1205.44
326.084	1232.44
326.313	1238.44
326.542	1241.44
326.77	1268.44
326.999	1228.44
327.228	1196.44
327.457	1196.44
327.686	1248.44
327.914	1231.44
328.143	1234.44
328.372	1223.44
328.6	1233.44
328.829	1237.44
329.058	1239.44
329.287	1256.44
329.515	1287.44
329.744	1273.44
329.972	1268.44
330.201	1281.44
330.43	1261.44
330.658	1263.44
330.887	1292.44
331.115	1288.44
331.344	1303.44
331.572	1318.44
331.801	1360.44
332.03	1340.44
332.258	1375.44
332.486	1400.44
332.715	1424.44
332.943	1458.44
333.172	1519.44
333.4	1547.44
333.629	1635.44
333.857	1599.44
334.085	1599.44
334.314	1602.44
334.542	1563.44
334.771	1570.44
334.999	1548.44
335.227	1524.44
335.455	1582.44
335.684	1537.44
335.912	1493.44
336.14	1508.44
336.369	1481.44
336.597	1491.44
336.825	1470.44
337.053	1487.44
337.281	1432.44
337.51	1426.44
337.738	1400.44
337.966	1434.44
338.194	1404.44
338.422	1372.44
338.65	1354.44
338.878	1351.44
339.106	1376.44
339.334	1397.44
339.562	1350.44
339.79	1340.44
340.018	1325.44
340.246	1294.44
340.474	1305.44
340.702	1279.44
340.93	1287.44
341.158	1313.44
341.386	1325.44
341.614	1324.44
341.842	1310.44
342.07	1289.44
342.298	1292.44
342.526	1293.44
342.754	1303.44
342.981	1274.44
343.209	1346.44
343.437	1329.44
343.665	1448.44
343.893	1490.44
344.12	1562.44
344.348	1549.44
344.576	1496.44
344.804	1437.44
345.031	1386.44
345.259	1342.44
345.487	1329.44
345.714	1321.44
345.942	1285.44
346.17	1292.44
346.397	1281.44
346.625	1258.44
346.853	1253.44
347.08	1235.44
347.308	1242.44
347.535	1269.44
347.763	1260.44
347.99	1263.44
348.218	1249.44
348.445	1283.44
348.673	1214.44
348.9	1247.44
349.128	1247.44
349.355	1230.44
349.583	1224.44
349.81	1232.44
350.037	1222.44
350.265	1213.44
350.492	1201.44
350.72	1224.44
350.947	1213.44
351.174	1211.44
351.402	1227.44
351.629	1190.44
351.856	1224.44
352.083	1230.44
352.311	1206.44
352.538	1218.44
352.765	1209.44
352.992	1201.44
353.22	1177.44
353.447	1192.44
353.674	1165.44
353.901	1214.44
354.128	1208.44
354.355	1206.44
354.583	1199.44
354.81	1204.44
355.037	1198.44
355.264	1202.44
355.491	1228.44
355.718	1202.44
355.945	1200.44
356.172	1212.44
356.399	1200.44
356.626	1231.44
356.853	1236.44
357.08	1192.44
357.307	1201.44
357.534	1228.44
357.761	1222.44
357.988	1222.44
358.215	1232.44
358.441	1206.44
358.668	1229.44
358.895	1212.44
359.122	1223.44
359.349	1215.44
359.576	1221.44
359.802	1206.44
360.029	1214.44
360.256	1216.44
360.483	1207.44
360.709	1199.44
360.936	1240.44
361.163	1192.44
361.39	1230.44
361.616	1213.44
361.843	1207.44
362.07	1186.44
362.296	1229.44
362.523	1214.44
362.749	1218.44
362.976	1213.44
363.203	1208.44
363.429	1242.44
363.656	1204.44
363.882	1188.44
364.109	1210.44
364.335	1221.44
364.562	1183.44
364.788	1216.44
365.015	1206.44
365.241	1239.44
365.468	1190.44
365.694	1231.44
365.92	1217.44
366.147	1212.44
366.373	1210.44
366.599	1210.44
366.826	1204.44
367.052	1199.44
367.278	1217.44
367.505	1219.44
367.731	1258.44
367.957	1228.44
368.184	1238.44
368.41	1199.44
368.636	1228.44
368.862	1254.44
369.089	1253.44
369.315	1228.44
369.541	1220.44
369.767	1273.44
369.993	1261.44
370.219	1244.44
370.445	1283.44
370.672	1285.44
370.898	1308.44
371.124	1292.44
371.35	1288.44
371.576	1318.44
371.802	1312.44
372.028	1317.44
372.254	1333.44
372.48	1338.44
372.706	1352.44
372.932	1338.44
373.158	1377.44
373.384	1327.44
373.61	1313.44
373.835	1329.44
374.061	1337.44
374.287	1358.44
374.513	1352.44
374.739	1381.44
374.965	1400.44
375.191	1446.44
375.416	1444.44
375.642	1388.44
375.868	1380.44
376.094	1368.44
376.319	1357.44
376.545	1344.44
376.771	1349.44
376.997	1299.44
377.222	1325.44
377.448	1285.44
377.674	1298.44
377.899	1296.44
378.125	1297.44
378.35	1290.44
378.576	1323.44
378.802	1309.44
379.027	1301.44
379.253	1295.44
379.478	1294.44
379.704	1296.44
379.929	1287.44
380.155	1313.44
380.38	1335.44
380.606	1296.44
380.831	1284.44
381.057	1298.44
381.282	1286.44
381.507	1305.44
381.733	1304.44
381.958	1311.44
382.184	1341.44
382.409	1367.44
382.634	1343.44
382.86	1361.44
383.085	1383.44
383.31	1440.44
383.535	1406.44
383.761	1417.44
383.986	1453.44
384.211	1466.44
384.436	1470.44
384.662	1507.44
384.887	1537.44
385.112	1508.44
385.337	1508.44
385.562	1558.44
385.787	1600.44
386.013	1580.44
386.238	1578.44
386.463	1599.44
386.688	1596.44
386.913	1552.44
387.138	1535.44
387.363	1549.44
387.588	1544.44
387.813	1567.44
388.038	1550.44
388.263	1565.44
388.488	1586.44
388.713	1577.44
388.938	1564.44
389.163	1585.44
389.387	1565.44
389.612	1548.44
389.837	1527.44
390.062	1535.44
390.287	1534.44
390.512	1529.44
390.736	1565.44
390.961	1580.44
391.186	1622.44
391.411	1644.44
391.636	1656.44
391.86	1696.44
392.085	1722.44
392.31	1730.44
392.534	1704.44
392.759	1677.44
392.984	1682.44
393.208	1632.44
393.433	1724.44
393.658	1726.44
393.882	1646.44
394.107	1627.44
394.331	1639.44
394.556	1633.44
394.78	1676.44
395.005	1665.44
395.229	1665.44
395.454	1714.44
395.678	1707.44
395.903	1743.44
396.127	1731.44
396.352	1687.44
396.576	1691.44
396.801	1663.44
397.025	1698.44
397.249	1710.44
397.474	1771.44
397.698	1767.44
397.922	1775.44
398.147	1763.44
398.371	1768.44
398.595	1846.44
398.82	1940.44
399.044	2029.44
399.268	2188.44
399.492	2459.44
399.717	2664.44
399.941	2666.44
400.165	2481.44
400.389	2300.44
400.613	2176.44
400.837	2072.44
401.062	2007.44
401.286	1983.44
401.51	1932.44
401.734	1965.44
401.958	1984.44
402.182	1942.44
402.406	1942.44
402.63	1975.44
402.854	2018.44
403.078	2006.44
403.302	2062.44
403.526	2102.44
403.75	2078.44
403.974	2104.44
404.198	2118.44
404.422	2080.44
404.645	2100.44
404.869	2116.44
405.093	2136.44
405.317	2074.44
405.541	2046.44
405.765	2062.44
405.988	2093.44
406.212	2096.44
406.436	2113.44
406.66	2121.44
406.883	2149.44
407.107	2305.44
407.331	2344.44
407.555	2407.44
407.778	2409.44
408.002	2349.44
408.226	2375.44
408.449	2258.44
408.673	2209.44
408.896	2152.44
409.12	2130.44
409.344	2144.44
409.567	2144.44
409.791	2153.44
410.014	2106.44
410.238	2068.44
410.461	2093.44
410.685	2068.44
410.908	2052.44
411.132	2008.44
411.355	1976.44
411.578	1997.44
411.802	2003.44
412.025	1992.44
412.249	2035.44
412.472	2030.44
412.695	1965.44
412.919	1944.44
413.142	1948.44
413.365	1978.44
413.589	1966.44
413.812	1953.44
414.035	1946.44
414.258	1908.44
414.482	1924.44
414.705	1930.44
414.928	1920.44
415.151	1972.44
415.374	1947.44
415.597	1874.44
415.821	1894.44
416.044	1840.44
416.267	1808.44
416.49	1868.44
416.713	1828.44
416.936	1857.44
417.159	1875.44
417.382	1830.44
417.605	1815.44
417.828	1884.44
418.051	1856.44
418.274	1861.44
418.497	1824.44
418.72	1888.44
418.943	1882.44
419.166	2004.44
419.389	2149.44
419.611	2140.44
419.834	1986.44
420.057	1990.44
420.28	1924.44
420.503	1880.44
420.726	1832.44
420.948	1862.44
421.171	1860.44
421.394	1825.44
421.617	1828.44
421.839	1884.44
422.062	1893.44
422.285	1838.44
422.507	1893.44
422.73	1901.44
422.953	1883.44
423.175	1930.44
423.398	1954.44
423.621	1938.44
423.843	1929.44
424.066	1911.44
424.288	1884.44
424.511	1910.44
424.733	1905.44
424.956	1850.44
425.178	1890.44
425.401	1861.44
425.623	1871.44
425.846	1835.44
426.068	1797.44
426.291	1784.44
426.513	1826.44
426.735	1788.44
426.958	1802.44
427.18	1765.44
427.402	1748.44
427.625	1773.44
427.847	1700.44
428.069	1680.44
428.292	1721.44
428.514	1675.44
428.736	1704.44
428.958	1709.44
429.181	1668.44
429.403	1666.44
429.625	1649.44
429.847	1645.44
430.069	1661.44
430.292	1658.44
430.514	1673.44
430.736	1663.44
430.958	1626.44
431.18	1665.44
431.402	1711.44
431.624	1673.44
431.846	1676.44
432.068	1710.44
432.29	1755.44
432.512	1698.44
432.734	1693.44
432.956	1669.44
433.178	1723.44
433.4	1718.44
433.622	1705.44
433.844	1726.44
434.066	1742.44
434.287	1738.44
434.509	1819.44
434.731	1850.44
434.953	1860.44
435.175	1877.44
435.397	1858.44
435.618	1773.44
435.84	1768.44
436.062	1744.44
436.284	1702.44
436.505	1687.44
436.727	1672.44
436.949	1716.44
437.17	1657.44
437.392	1680.44
437.614	1687.44
437.835	1635.44
438.057	1619.44
438.278	1620.44
438.5	1592.44
438.721	1610.44
438.943	1610.44
439.165	1618.44
439.386	1619.44
439.608	1647.44
439.829	1702.44
440.05	1680.44
440.272	1699.44
440.493	1675.44
440.715	1701.44
440.936	1743.44
441.158	1737.44
441.379	1776.44
441.6	1857.44
441.822	1842.44
442.043	1824.44
442.264	1809.44
442.486	1807.44
442.707	1804.44
442.928	1805.44
443.149	1822.44
443.371	1781.44
443.592	1842.44
443.813	1828.44
444.034	1823.44
444.255	1868.44
444.476	1976.44
444.698	2042.44
444.919	2088.44
445.14	2139.44
445.361	1983.44
445.582	1911.44
445.803	1803.44
446.024	1779.44
446.245	1738.44
446.466	1708.44
446.687	1668.44
446.908	1679.44
447.129	1623.44
447.35	1585.44
447.571	1613.44
447.792	1585.44
448.013	1571.44
448.234	1543.44
448.455	1538.44
448.675	1543.44
448.896	1521.44
449.117	1479.44
449.338	1513.44
449.559	1517.44
449.779	1492.44
450	1493.44
450.221	1536.44
450.442	1518.44
450.662	1534.44
450.883	1495.44
451.104	1554.44
451.324	1512.44
451.545	1520.44
451.766	1509.44
451.986	1542.44
452.207	1474.44
452.428	1484.44
452.648	1452.44
452.869	1466.44
453.089	1465.44
453.31	1485.44
453.53	1460.44
453.751	1457.44
453.971	1448.44
454.192	1438.44
454.412	1420.44
454.633	1469.44
454.853	1472.44
455.073	1437.44
455.294	1445.44
455.514	1427.44
455.734	1435.44
455.955	1431.44
456.175	1400.44
456.395	1408.44
456.616	1421.44
456.836	1407.44
457.056	1430.44
457.276	1409.44
457.497	1431.44
457.717	1436.44
457.937	1445.44
458.157	1477.44
458.377	1488.44
458.598	1539.44
458.818	1546.44
459.038	1567.44
459.258	1620.44
459.478	1668.44
459.698	1729.44
459.918	1771.44
460.138	1775.44
460.358	1892.44
460.578	1909.44
460.798	1943.44
461.018	1935.44
461.238	1911.44
461.458	1881.44
461.678	1926.44
461.898	1940.44
462.118	1936.44
462.338	2076.44
462.558	2066.44
462.777	2142.44
462.997	2294.44
463.217	2367.44
463.437	2425.44
463.657	2302.44
463.876	2239.44
464.096	2192.44
464.316	2154.44
464.536	2162.44
464.755	2128.44
464.975	2028.44
465.195	1927.44
465.414	1840.44
465.634	1800.44
465.854	1733.44
466.073	1700.44
466.293	1685.44
466.512	1631.44
466.732	1589.44
466.951	1601.44
467.171	1606.44
467.391	1604.44
467.61	1557.44
467.829	1552.44
468.049	1572.44
468.268	1545.44
468.488	1569.44
468.707	1503.44
468.927	1574.44
469.146	1564.44
469.365	1553.44
469.585	1568.44
469.804	1590.44
470.023	1618.44
470.243	1617.44
470.462	1624.44
470.681	1630.44
470.901	1628.44
471.12	1628.44
471.339	1607.44
471.558	1571.44
471.777	1563.44
471.997	1557.44
472.216	1572.44
472.435	1544.44
472.654	1516.44
472.873	1496.44
473.092	1544.44
473.311	1561.44
473.53	1498.44
473.749	1552.44
473.968	1520.44
474.187	1503.44
474.406	1515.44
474.625	1519.44
474.844	1544.44
475.063	1534.44
475.282	1547.44
475.501	1576.44
475.72	1551.44
475.939	1546.44
476.158	1596.44
476.377	1609.44
476.596	1570.44
476.814	1634.44
477.033	1645.44
477.252	1641.44
477.471	1692.44
477.69	1738.44
477.908	1712.44
478.127	1822.44
478.346	1773.44
478.564	1820.44
478.783	1849.44
479.002	1862.44
479.22	1904.44
479.439	1884.44
479.658	1863.44
479.876	1878.44
480.095	1892.44
480.313	1953.44
480.532	2043.44
480.751	2043.44
480.969	1976.44
481.188	1929.44
481.406	1905.44
481.624	1868.44
481.843	1862.44
482.061	1849.44
482.28	1828.44
482.498	1798.44
482.717	1846.44
482.935	1844.44
483.153	1838.44
483.372	1817.44
483.59	1870.44
483.808	1852.44
484.027	1878.44
484.245	1889.44
484.463	1887.44
484.681	1939.44
484.9	1953.44
485.118	1920.44
485.336	1942.44
485.554	1946.44
485.772	1946.44
485.99	1977.44
486.209	1930.44
486.427	1973.44
486.645	1969.44
486.863	1946.44
487.081	1974.44
487.299	1912.44
487.517	1950.44
487.735	1963.44
487.953	1954.44
488.171	1900.44
488.389	1915.44
488.607	1895.44
488.825	1906.44
489.043	1888.44
489.261	1899.44
489.479	1931.44
489.696	1883.44
489.914	1895.44
490.132	1928.44
490.35	1892.44
490.568	1898.44
490.786	1909.44
491.003	1884.44
491.221	1923.44
491.439	1905.44
491.657	1865.44
491.874	1879.44
492.092	1912.44
492.31	1908.44
492.527	1915.44
492.745	1905.44
492.963	1901.44
493.18	1913.44
493.398	1908.44
493.615	1929.44
493.833	1948.44
494.05	1933.44
494.268	1991.44
494.485	1948.44
494.703	1951.44
494.92	1971.44
495.138	1947.44
495.355	1992.44
495.573	2002.44
495.79	1981.44
496.008	2026.44
496.225	2022.44
496.442	2010.44
496.66	2049.44
496.877	2046.44
497.094	2101.44
497.312	2139.44
497.529	2218.44
497.746	2260.44
497.963	2278.44
498.181	2357.44
498.398	2479.44
498.615	2534.44
498.832	2765.44
499.049	2926.44
499.267	3094.44
499.484	3324.44
499.701	3577.44
499.918	3862.44
500.135	4341.44
500.352	4690.44
500.569	4930.44
500.786	4849.44
501.003	4626.44
501.22	4261.44
501.437	3913.44
501.654	3484.44
501.871	3240.44
502.088	3016.44
502.305	2828.44
502.522	2725.44
502.739	2634.44
502.956	2542.44
503.172	2380.44
503.389	2284.44
503.606	2261.44
503.823	2237.44
504.04	2233.44
504.256	2219.44
504.473	2233.44
504.69	2202.44
504.907	2162.44
505.123	2105.44
505.34	1952.44
505.557	1927.44
505.773	1893.44
505.99	1849.44
506.207	1797.44
506.423	1798.44
506.64	1738.44
506.856	1711.44
507.073	1740.44
507.289	1707.44
507.506	1682.44
507.722	1736.44
507.939	1642.44
508.155	1627.44
508.372	1624.44
508.588	1593.44
508.805	1638.44
509.021	1614.44
509.238	1598.44
509.454	1586.44
509.67	1594.44
509.887	1560.44
510.103	1534.44
510.319	1546.44
510.536	1539.44
510.752	1493.44
510.968	1566.44
511.184	1529.44
511.401	1512.44
511.617	1503.44
511.833	1489.44
512.049	1528.44
512.265	1494.44
512.481	1501.44
512.698	1475.44
512.914	1532.44
513.13	1497.44
513.346	1492.44
513.562	1513.44
513.778	1506.44
513.994	1497.44
514.21	1539.44
514.426	1507.44
514.642	1560.44
514.858	1520.44
515.074	1606.44
515.29	1563.44
515.506	1598.44
515.721	1621.44
515.937	1622.44
516.153	1630.44
516.369	1664.44
516.585	1709.44
516.801	1758.44
517.016	1836.44
517.232	1895.44
517.448	1887.44
517.664	1955.44
517.879	2005.44
518.095	1959.44
518.311	1934.44
518.527	1864.44
518.742	1856.44
518.958	1767.44
519.173	1730.44
519.389	1668.44
519.605	1656.44
519.82	1625.44
520.036	1620.44
520.251	1578.44
520.467	1509.44
520.682	1491.44
520.898	1473.44
521.113	1503.44
521.329	1486.44
521.544	1480.44
521.76	1443.44
521.975	1448.44
522.19	1438.44
522.406	1447.44
522.621	1407.44
522.836	1417.44
523.052	1401.44
523.267	1427.44
523.482	1412.44
523.698	1399.44
523.913	1373.44
524.128	1366.44
524.343	1349.44
524.559	1357.44
524.774	1339.44
524.989	1396.44
525.204	1342.44
525.419	1328.44
525.634	1351.44
525.849	1360.44
526.064	1324.44
526.28	1356.44
526.495	1336.44
526.71	1345.44
526.925	1368.44
527.14	1322.44
527.355	1325.44
527.57	1320.44
527.785	1345.44
527.999	1330.44
528.214	1313.44
528.429	1314.44
528.644	1312.44
528.859	1337.44
529.074	1309.44
529.289	1288.44
529.503	1299.44
529.718	1351.44
529.933	1335.44
530.148	1319.44
530.363	1342.44
530.577	1301.44
530.792	1302.44
531.007	1309.44
531.221	1285.44
531.436	1329.44
531.651	1325.44
531.865	1349.44
532.08	1304.44
532.295	1296.44
532.509	1288.44
532.724	1329.44
532.938	1327.44
533.153	1349.44
533.367	1314.44
533.582	1284.44
533.796	1337.44
534.011	1311.44
534.225	1311.44
534.44	1318.44
534.654	1315.44
534.868	1298.44
535.083	1261.44
535.297	1286.44
535.511	1262.44
535.726	1258.44
535.94	1231.44
536.154	1254.44
536.369	1265.44
536.583	1241.44
536.797	1242.44
537.011	1215.44
537.225	1224.44
537.44	1192.44
537.654	1219.44
537.868	1192.44
538.082	1227.44
538.296	1233.44
538.51	1238.44
538.724	1208.44
538.938	1185.44
539.153	1193.44
539.367	1173.44
539.581	1174.44
539.795	1179.44
540.009	1171.44
540.222	1132.44
540.436	1176.44
540.65	1169.44
540.864	1208.44
541.078	1156.44
541.292	1178.44
541.506	1181.44
541.72	1195.44
541.934	1165.44
542.147	1171.44
542.361	1192.44
542.575	1156.44
542.789	1167.44
543.002	1168.44
543.216	1180.44
543.43	1152.44
543.644	1151.44
543.857	1147.44
544.071	1145.44
544.285	1166.44
544.498	1160.44
544.712	1179.44
544.925	1173.44
545.139	1162.44
545.352	1176.44
545.566	1180.44
545.779	1168.44
545.993	1204.44
546.206	1168.44
546.42	1166.44
546.633	1160.44
546.847	1194.44
547.06	1182.44
547.274	1200.44
547.487	1162.44
547.7	1194.44
547.914	1161.44
548.127	1197.44
548.34	1218.44
548.554	1187.44
548.767	1192.44
548.98	1205.44
549.193	1190.44
549.407	1211.44
549.62	1198.44
549.833	1190.44
550.046	1226.44
550.259	1197.44
550.473	1176.44
550.686	1188.44
550.899	1129.44
551.112	1166.44
551.325	1188.44
551.538	1178.44
551.751	1187.44
551.964	1162.44
552.177	1144.44
552.39	1208.44
552.603	1233.44
552.816	1237.44
553.029	1242.44
553.242	1232.44
553.455	1256.44
553.667	1288.44
553.88	1256.44
554.093	1234.44
554.306	1218.44
554.519	1175.44
554.732	1152.44
554.944	1154.44
555.157	1130.44
555.37	1115.44
555.583	1071.44
555.795	1033.44
556.008	1092.44
556.221	1060.44
556.433	1025.44
556.646	1005.44
556.859	1025.44
557.071	1036.44
557.284	1048.44
557.496	988.44
557.709	988.44
557.921	985.44
558.134	1019.44
558.346	987.44
558.559	993.44
558.771	995.44
558.984	982.44
559.196	1008.44
559.409	974.44
559.621	987.44
559.833	1038.44
560.046	974.44
560.258	958.44
560.47	969.44
560.683	969.44
560.895	948.44
561.107	948.44
561.32	952.44
561.532	984.44
561.744	966.44
561.956	970.44
562.168	976.44
562.381	960.44
562.593	944.44
562.805	988.44
563.017	967.44
563.229	985.44
563.441	997.44
563.653	996.44
563.865	966.44
564.077	1039.44
564.289	1008.44
564.501	1036.44
564.713	1060.44
564.925	1062.44
565.137	1073.44
565.349	1122.44
565.561	1130.44
565.773	1179.44
565.985	1201.44
566.197	1221.44
566.408	1336.44
566.62	1423.44
566.832	1464.44
567.044	1507.44
567.255	1527.44
567.467	1557.44
567.679	1600.44
567.891	1692.44
568.102	1681.44
568.314	1618.44
568.526	1514.44
568.737	1404.44
568.949	1324.44
569.161	1232.44
569.372	1166.44
569.584	1121.44
569.795	1056.44
570.007	1048.44
570.218	1025.44
570.43	1000.44
570.641	984.44
570.853	998.44
571.064	1007.44
571.276	978.44
571.487	945.44
571.698	936.44
571.91	927.44
572.121	886.44
572.333	842.44
572.544	856.44
572.755	842.44
572.966	826.44
573.178	845.44
573.389	813.44
573.6	815.44
573.811	824.44
574.023	788.44
574.234	806.44
574.445	800.44
574.656	809.44
574.867	796.44
575.078	784.44
575.289	800.44
575.501	763.44
575.712	763.44
575.923	757.44
576.134	742.44
576.345	746.44
576.556	752.44
576.767	730.44
576.978	750.44
577.188	748.44
577.399	738.44
577.61	750.44
577.821	717.44
578.032	717.44
578.243	705.44
578.454	713.44
578.665	717.44
578.875	726.44
579.086	694.44
579.297	679.44
579.508	697.44
579.718	670.44
579.929	711.44
580.14	698.44
580.35	695.44
580.561	711.44
580.772	705.44
580.982	656.44
581.193	664.44
581.403	677.44
581.614	678.44
581.825	697.44
582.035	676.44
582.246	673.44
582.456	672.44
582.667	671.44
582.877	657.44
583.087	643.44
583.298	632.44
583.508	655.44
583.719	655.44
583.929	658.44
584.139	641.44
584.35	640.44
584.56	647.44
584.77	638.44
584.981	637.44
585.191	643.44
585.401	640.44
585.611	652.44
585.821	633.44
586.032	654.44
586.242	646.44
586.452	636.44
586.662	638.44
586.872	638.44
587.082	627.44
587.292	631.44
587.502	639.44
587.713	613.44
587.923	633.44
588.133	622.44
588.343	630.44
588.553	639.44
588.762	614.44
588.972	642.44
589.182	668.44
589.392	662.44
589.602	628.44
589.812	631.44
590.022	634.44
590.232	630.44
590.441	626.44
590.651	618.44
590.861	646.44
591.071	654.44
591.281	647.44
591.49	670.44
591.7	676.44
591.91	687.44
592.119	672.44
592.329	672.44
592.539	714.44
592.748	724.44
592.958	693.44
593.167	751.44
593.377	748.44
593.587	756.44
593.796	733.44
594.006	765.44
594.215	763.44
594.424	757.44
594.634	776.44
594.843	722.44
595.053	700.44
595.262	650.44
595.472	683.44
595.681	652.44
595.89	668.44
596.1	644.44
596.309	615.44
596.518	604.44
596.727	604.44
596.937	568.44
597.146	577.44
597.355	570.44
597.564	559.44
597.774	573.44
597.983	550.44
598.192	557.44
598.401	555.44
598.61	561.44
598.819	503.44
599.028	558.44
599.237	535.44
599.446	522.44
599.655	558.44
599.864	524.44
600.073	528.44
600.282	550.44
600.491	521.44
600.7	541.44
600.909	531.44
601.118	520.44
601.327	516.44
601.536	512.44
601.745	501.44
601.953	521.44
602.162	507.44
602.371	485.44
602.58	513.44
602.789	508.44
602.997	481.44
603.206	506.44
603.415	494.44
603.623	514.44
603.832	508.44
604.041	479.44
604.249	503.44
604.458	494.44
604.666	471.44
604.875	490.44
605.084	469.44
605.292	476.44
605.501	478.44
605.709	489.44
605.918	452.44
606.126	479.44
606.334	462.44
606.543	455.44
606.751	466.44
606.96	467.44
607.168	488.44
607.376	461.44
607.585	468.44
607.793	466.44
608.001	482.44
608.21	461.44
608.418	448.44
608.626	476.44
608.834	453.44
609.043	463.44
609.251	464.44
609.459	453.44
609.667	452.44
609.875	444.44
610.083	458.44
610.291	446.44
610.499	446.44
610.707	432.44
610.916	450.44
611.124	444.44
611.332	456.44
611.54	440.44
611.748	461.44
611.955	444.44
612.163	424.44
612.371	445.44
612.579	429.44
612.787	445.44
612.995	436.44
613.203	457.44
613.411	450.44
613.618	446.44
613.826	432.44
614.034	442.44
614.242	438.44
614.449	440.44
614.657	444.44
614.865	437.44
615.072	422.44
615.28	438.44
615.488	431.44
615.695	418.44
615.903	428.44
616.111	454.44
616.318	447.44
616.526	423.44
616.733	454.44
616.941	432.44
617.148	406.44
617.356	433.44
617.563	426.44
617.771	430.44
617.978	440.44
618.185	430.44
618.393	438.44
618.6	433.44
618.807	423.44
619.015	446.44
619.222	424.44
619.429	420.44
619.637	427.44
619.844	418.44
620.051	418.44
620.258	412.44
620.466	408.44
620.673	395.44
620.88	400.44
621.087	378.44
621.294	399.44
621.501	394.44
621.708	414.44
621.915	384.44
622.122	398.44
622.329	390.44
622.536	407.44
622.743	404.44
622.95	409.44
623.157	402.44
623.364	384.44
623.571	385.44
623.778	366.44
623.985	401.44
624.192	406.44
624.399	383.44
624.606	376.44
624.812	376.44
625.019	393.44
625.226	376.44
625.433	365.44
625.639	376.44
625.846	374.44
626.053	372.44
626.259	364.44
626.466	382.44
626.673	394.44
626.879	364.44
627.086	374.44
627.293	368.44
627.499	359.44
627.706	380.44
627.912	378.44
628.119	353.44
628.325	361.44
628.532	352.44
628.738	357.44
628.945	364.44
629.151	353.44
629.357	356.44
629.564	366.44
629.77	335.44
629.976	346.44
630.183	336.44
630.389	347.44
630.595	359.44
630.802	346.44
631.008	337.44
631.214	336.44
631.42	345.44
631.627	351.44
631.833	336.44
632.039	312.44
632.245	313.44
632.451	336.44
632.657	332.44
632.863	333.44
633.069	320.44
633.275	332.44
633.481	331.44
633.688	335.44
633.893	316.44
634.099	336.44
634.305	315.44
634.511	311.44
634.717	318.44
634.923	311.44
635.129	316.44
635.335	319.44
635.541	342.44
635.747	314.44
635.952	315.44
636.158	321.44
636.364	304.44
636.57	328.44
636.775	315.44
636.981	325.44
637.187	316.44
637.392	305.44
637.598	315.44
637.804	308.44
638.009	291.44
638.215	314.44
638.421	317.44
638.626	313.44
638.832	295.44
639.037	295.44
639.243	310.44
639.448	318.44
639.654	317.44
639.859	297.44
640.065	289.44
640.27	288.44
640.475	330.44
640.681	284.44
640.886	314.44
641.091	274.44
641.297	300.44
641.502	281.44
641.707	293.44
641.913	289.44
642.118	286.44
642.323	295.44
642.528	299.44
642.733	292.44
642.939	301.44
643.144	298.44
643.349	308.44
643.554	281.44
643.759	299.44
643.964	290.44
644.169	293.44
644.374	291.44
644.579	270.44
644.784	308.44
644.989	292.44
645.194	299.44
645.399	299.44
645.604	302.44
645.809	277.44
646.014	281.44
646.219	300.44
646.423	295.44
646.628	288.44
646.833	279.44
647.038	300.44
647.243	298.44
647.447	291.44
647.652	304.44
647.857	311.44
648.062	322.44
648.266	329.44
648.471	327.44
648.676	318.44
648.88	316.44
649.085	315.44
649.289	308.44
649.494	305.44
649.698	304.44
649.903	319.44
650.107	297.44
650.312	320.44
650.516	311.44
650.721	277.44
650.925	288.44
651.13	292.44
651.334	297.44
651.539	280.44
651.743	269.44
651.947	268.44
652.152	285.44
652.356	273.44
652.56	277.44
652.764	276.44
652.969	277.44
653.173	279.44
653.377	280.44
653.581	269.44
653.785	287.44
653.99	268.44
654.194	271.44
654.398	271.44
654.602	276.44
654.806	279.44
655.01	290.44
655.214	281.44
655.418	296.44
655.622	292.44
655.826	306.44
656.03	347.44
656.234	338.44
656.438	372.44
656.642	365.44
656.846	359.44
657.049	322.44
657.253	284.44
657.457	254.44
657.661	249.44
657.865	225.44
658.068	192.44
658.272	205.44
658.476	197.44
658.68	181.44
658.883	152.44
659.087	158.44
659.291	173.44
659.494	160.44
659.698	156.44
659.901	140.44
660.105	136.44
660.309	137.44
660.512	112.44
660.716	136.44
660.919	119.44
661.123	116.44
661.326	123.44
661.53	109.44
661.733	105.44
661.936	116.44
662.14	104.44
662.343	105.44
662.546	87.44
662.75	100.44
662.953	101.44
663.156	103.44
663.36	90.44
663.563	96.44
663.766	90.44
663.969	92.44
664.173	78.44
664.376	92.44
664.579	105.44
664.782	92.44
664.985	82.44
665.188	78.44
665.391	85.44
665.594	95.44
665.797	90.44
666	101.44
666.203	95.44
666.406	81.44
666.609	90.44
666.812	89.44
667.015	97.44
667.218	90.44
667.421	80.44
667.624	73.44
667.827	84.44
668.03	82.44
668.232	96.44
668.435	83.44
668.638	86.44
668.841	82.44
669.043	87.44
669.246	98.44
669.449	102.44
669.651	83.44
669.854	84.44
670.057	87.44
670.259	86.44
670.462	81.44
670.665	89.44
670.867	78.44
671.07	92.44
671.272	89.44
671.475	94.44
671.677	78.44
671.88	84.44
672.082	96.44
672.284	96.44
672.487	89.44
672.689	80.44
672.892	73.44
