Data from NiCl2@0.125M.TitratingCurve.Agarose3%dH2O.NegLispCup.LampEnergy10.LIBS07252019_HRD10591_18-28-49-574.txt Node
Date: Thu Jul 25 18:28:49 EDT 2019
User: cochatt
Spectrometer: HR+D1059
Trigger mode: 1
Integration Time (sec): 1.000000E-1
Scans to average: 1
Electric dark correction enabled: true
Nonlinearity correction enabled: false
Boxcar width: 0
XAxis mode: Wavelengths
Number of Pixels in Spectrum: 2048
>>>>>Begin Spectral Data<<<<<
223.165	-20.12
223.4	-20.12
223.635	-20.12
223.869	-11.12
224.104	-11.12
224.338	-27.12
224.573	-7.12
224.808	-13.12
225.042	-2.12
225.277	-12.12
225.511	4.88
225.746	-2.12
225.98	1.88
226.215	-0.12
226.449	11.88
226.683	21.88
226.918	24.88
227.152	40.88
227.387	33.88
227.621	42.88
227.856	42.88
228.09	38.88
228.324	37.88
228.559	45.88
228.793	68.88
229.027	112.88
229.262	130.88
229.496	115.88
229.73	115.88
229.964	126.88
230.199	124.88
230.433	133.88
230.667	147.88
230.901	135.88
231.136	151.88
231.37	145.88
231.604	152.88
231.838	151.88
232.072	120.88
232.306	147.88
232.541	156.88
232.775	147.88
233.009	150.88
233.243	158.88
233.477	138.88
233.711	156.88
233.945	153.88
234.179	151.88
234.413	167.88
234.647	152.88
234.881	146.88
235.115	162.88
235.349	163.88
235.583	157.88
235.817	142.88
236.051	160.88
236.285	161.88
236.519	159.88
236.753	160.88
236.987	157.88
237.221	147.88
237.455	157.88
237.689	166.88
237.922	168.88
238.156	161.88
238.39	175.88
238.624	167.88
238.858	177.88
239.091	172.88
239.325	177.88
239.559	195.88
239.793	204.88
240.027	176.88
240.26	184.88
240.494	193.88
240.728	191.88
240.961	188.88
241.195	208.88
241.429	195.88
241.662	185.88
241.896	194.88
242.13	188.88
242.363	212.88
242.597	192.88
242.83	204.88
243.064	196.88
243.298	208.88
243.531	198.88
243.765	225.88
243.998	216.88
244.232	211.88
244.465	204.88
244.699	207.88
244.932	222.88
245.166	237.88
245.399	227.88
245.633	232.88
245.866	213.88
246.099	223.88
246.333	237.88
246.566	247.88
246.8	232.88
247.033	239.88
247.266	231.88
247.5	241.88
247.733	234.88
247.966	251.88
248.2	258.88
248.433	234.88
248.666	259.88
248.899	250.88
249.133	245.88
249.366	250.88
249.599	253.88
249.832	249.88
250.066	242.88
250.299	265.88
250.532	249.88
250.765	255.88
250.998	265.88
251.231	263.88
251.465	242.88
251.698	271.88
251.931	273.88
252.164	286.88
252.397	274.88
252.63	270.88
252.863	294.88
253.096	304.88
253.329	296.88
253.562	261.88
253.795	268.88
254.028	298.88
254.261	288.88
254.494	287.88
254.727	280.88
254.96	284.88
255.193	297.88
255.426	313.88
255.659	293.88
255.892	299.88
256.124	285.88
256.357	289.88
256.59	310.88
256.823	288.88
257.056	298.88
257.289	310.88
257.521	299.88
257.754	322.88
257.987	307.88
258.22	329.88
258.452	325.88
258.685	327.88
258.918	317.88
259.151	319.88
259.383	334.88
259.616	327.88
259.849	324.88
260.081	319.88
260.314	318.88
260.547	326.88
260.779	348.88
261.012	339.88
261.244	329.88
261.477	321.88
261.71	306.88
261.942	331.88
262.175	335.88
262.407	347.88
262.64	343.88
262.872	326.88
263.105	312.88
263.337	346.88
263.57	352.88
263.802	367.88
264.035	361.88
264.267	360.88
264.499	344.88
264.732	369.88
264.964	361.88
265.197	372.88
265.429	358.88
265.661	354.88
265.894	344.88
266.126	364.88
266.358	357.88
266.591	349.88
266.823	371.88
267.055	367.88
267.287	375.88
267.52	368.88
267.752	375.88
267.984	373.88
268.216	380.88
268.448	390.88
268.681	377.88
268.913	380.88
269.145	394.88
269.377	372.88
269.609	390.88
269.841	381.88
270.073	401.88
270.306	392.88
270.538	387.88
270.77	401.88
271.002	394.88
271.234	402.88
271.466	395.88
271.698	419.88
271.93	414.88
272.162	404.88
272.394	418.88
272.626	400.88
272.858	412.88
273.09	415.88
273.322	416.88
273.553	423.88
273.785	421.88
274.017	406.88
274.249	426.88
274.481	435.88
274.713	447.88
274.945	453.88
275.176	420.88
275.408	439.88
275.64	437.88
275.872	416.88
276.104	404.88
276.335	451.88
276.567	433.88
276.799	441.88
277.031	450.88
277.262	436.88
277.494	437.88
277.726	467.88
277.957	462.88
278.189	455.88
278.421	453.88
278.652	457.88
278.884	460.88
279.115	451.88
279.347	473.88
279.579	462.88
279.81	466.88
280.042	466.88
280.273	480.88
280.505	472.88
280.736	472.88
280.968	485.88
281.199	461.88
281.431	471.88
281.662	471.88
281.894	480.88
282.125	474.88
282.356	486.88
282.588	496.88
282.819	501.88
283.051	487.88
283.282	490.88
283.513	480.88
283.745	523.88
283.976	506.88
284.207	484.88
284.439	491.88
284.67	495.88
284.901	510.88
285.132	533.88
285.364	495.88
285.595	505.88
285.826	500.88
286.057	511.88
286.288	536.88
286.52	539.88
286.751	515.88
286.982	544.88
287.213	519.88
287.444	517.88
287.675	525.88
287.906	523.88
288.138	529.88
288.369	533.88
288.6	549.88
288.831	554.88
289.062	533.88
289.293	568.88
289.524	548.88
289.755	558.88
289.986	541.88
290.217	559.88
290.448	533.88
290.679	549.88
290.91	533.88
291.141	516.88
291.371	544.88
291.602	574.88
291.833	552.88
292.064	546.88
292.295	556.88
292.526	566.88
292.757	550.88
292.987	558.88
293.218	548.88
293.449	559.88
293.68	565.88
293.91	560.88
294.141	557.88
294.372	549.88
294.603	548.88
294.833	570.88
295.064	564.88
295.295	571.88
295.525	548.88
295.756	551.88
295.987	554.88
296.217	571.88
296.448	564.88
296.679	555.88
296.909	569.88
297.14	580.88
297.37	616.88
297.601	601.88
297.831	601.88
298.062	604.88
298.292	594.88
298.523	613.88
298.753	597.88
298.984	598.88
299.214	584.88
299.445	594.88
299.675	594.88
299.905	603.88
300.136	602.88
300.366	620.88
300.597	612.88
300.827	625.88
301.057	634.88
301.288	645.88
301.518	639.88
301.748	648.88
301.979	644.88
302.209	639.88
302.439	623.88
302.669	609.88
302.9	623.88
303.13	614.88
303.36	640.88
303.59	626.88
303.82	611.88
304.051	609.88
304.281	626.88
304.511	602.88
304.741	611.88
304.971	635.88
305.201	613.88
305.431	642.88
305.661	621.88
305.891	631.88
306.121	605.88
306.352	602.88
306.582	629.88
306.812	591.88
307.042	597.88
307.272	633.88
307.502	604.88
307.731	590.88
307.961	604.88
308.191	617.88
308.421	628.88
308.651	605.88
308.881	609.88
309.111	593.88
309.341	603.88
309.571	623.88
309.8	616.88
310.03	597.88
310.26	607.88
310.49	608.88
310.72	646.88
310.949	626.88
311.179	620.88
311.409	614.88
311.639	603.88
311.868	639.88
312.098	618.88
312.328	666.88
312.557	639.88
312.787	653.88
313.017	637.88
313.246	655.88
313.476	649.88
313.706	649.88
313.935	668.88
314.165	665.88
314.394	666.88
314.624	660.88
314.853	681.88
315.083	647.88
315.312	661.88
315.542	650.88
315.771	664.88
316.001	695.88
316.23	652.88
316.46	628.88
316.689	639.88
316.919	641.88
317.148	666.88
317.377	649.88
317.607	633.88
317.836	638.88
318.065	651.88
318.295	641.88
318.524	625.88
318.753	649.88
318.983	624.88
319.212	625.88
319.441	646.88
319.67	645.88
319.9	627.88
320.129	651.88
320.358	644.88
320.587	646.88
320.816	661.88
321.046	643.88
321.275	632.88
321.504	612.88
321.733	634.88
321.962	663.88
322.191	667.88
322.42	666.88
322.649	649.88
322.878	664.88
323.108	669.88
323.337	686.88
323.566	663.88
323.795	674.88
324.024	681.88
324.253	667.88
324.482	653.88
324.71	665.88
324.939	673.88
325.168	672.88
325.397	688.88
325.626	681.88
325.855	698.88
326.084	703.88
326.313	737.88
326.542	714.88
326.77	715.88
326.999	703.88
327.228	724.88
327.457	701.88
327.686	707.88
327.914	733.88
328.143	703.88
328.372	739.88
328.6	703.88
328.829	708.88
329.058	710.88
329.287	744.88
329.515	732.88
329.744	711.88
329.972	700.88
330.201	746.88
330.43	711.88
330.658	725.88
330.887	716.88
331.115	714.88
331.344	757.88
331.572	759.88
331.801	775.88
332.03	758.88
332.258	823.88
332.486	844.88
332.715	845.88
332.943	864.88
333.172	931.88
333.4	977.88
333.629	992.88
333.857	994.88
334.085	952.88
334.314	949.88
334.542	932.88
334.771	901.88
334.999	883.88
335.227	870.88
335.455	885.88
335.684	899.88
335.912	866.88
336.14	857.88
336.369	863.88
336.597	881.88
336.825	849.88
337.053	873.88
337.281	869.88
337.51	818.88
337.738	826.88
337.966	785.88
338.194	780.88
338.422	777.88
338.65	786.88
338.878	767.88
339.106	773.88
339.334	792.88
339.562	775.88
339.79	731.88
340.018	767.88
340.246	746.88
340.474	733.88
340.702	703.88
340.93	731.88
341.158	746.88
341.386	708.88
341.614	725.88
341.842	732.88
342.07	731.88
342.298	708.88
342.526	730.88
342.754	722.88
342.981	733.88
343.209	747.88
343.437	762.88
343.665	835.88
343.893	901.88
344.12	961.88
344.348	890.88
344.576	821.88
344.804	785.88
345.031	775.88
345.259	767.88
345.487	748.88
345.714	736.88
345.942	728.88
346.17	714.88
346.397	744.88
346.625	695.88
346.853	703.88
347.08	713.88
347.308	720.88
347.535	742.88
347.763	716.88
347.99	719.88
348.218	730.88
348.445	701.88
348.673	699.88
348.9	715.88
349.128	722.88
349.355	676.88
349.583	722.88
349.81	693.88
350.037	702.88
350.265	702.88
350.492	692.88
350.72	694.88
350.947	700.88
351.174	708.88
351.402	701.88
351.629	688.88
351.856	690.88
352.083	697.88
352.311	682.88
352.538	680.88
352.765	674.88
352.992	683.88
353.22	659.88
353.447	663.88
353.674	684.88
353.901	693.88
354.128	682.88
354.355	693.88
354.583	689.88
354.81	703.88
355.037	674.88
355.264	685.88
355.491	698.88
355.718	673.88
355.945	719.88
356.172	669.88
356.399	687.88
356.626	678.88
356.853	678.88
357.08	707.88
357.307	713.88
357.534	695.88
357.761	714.88
357.988	706.88
358.215	713.88
358.441	672.88
358.668	702.88
358.895	677.88
359.122	667.88
359.349	699.88
359.576	689.88
359.802	661.88
360.029	698.88
360.256	693.88
360.483	685.88
360.709	708.88
360.936	695.88
361.163	685.88
361.39	689.88
361.616	681.88
361.843	679.88
362.07	688.88
362.296	684.88
362.523	699.88
362.749	691.88
362.976	693.88
363.203	687.88
363.429	680.88
363.656	687.88
363.882	714.88
364.109	691.88
364.335	679.88
364.562	667.88
364.788	643.88
365.015	685.88
365.241	687.88
365.468	689.88
365.694	669.88
365.92	679.88
366.147	677.88
366.373	707.88
366.599	673.88
366.826	669.88
367.052	692.88
367.278	677.88
367.505	695.88
367.731	681.88
367.957	695.88
368.184	700.88
368.41	680.88
368.636	687.88
368.862	695.88
369.089	691.88
369.315	700.88
369.541	722.88
369.767	720.88
369.993	709.88
370.219	706.88
370.445	722.88
370.672	726.88
370.898	727.88
371.124	741.88
371.35	747.88
371.576	767.88
371.802	753.88
372.028	737.88
372.254	743.88
372.48	742.88
372.706	775.88
372.932	771.88
373.158	791.88
373.384	755.88
373.61	748.88
373.835	742.88
374.061	776.88
374.287	760.88
374.513	789.88
374.739	807.88
374.965	829.88
375.191	828.88
375.416	836.88
375.642	791.88
375.868	791.88
376.094	789.88
376.319	795.88
376.545	758.88
376.771	777.88
376.997	745.88
377.222	758.88
377.448	736.88
377.674	728.88
377.899	725.88
378.125	729.88
378.35	738.88
378.576	745.88
378.802	734.88
379.027	731.88
379.253	739.88
379.478	731.88
379.704	752.88
379.929	748.88
380.155	734.88
380.38	780.88
380.606	757.88
380.831	731.88
381.057	750.88
381.282	753.88
381.507	760.88
381.733	786.88
381.958	769.88
382.184	751.88
382.409	756.88
382.634	796.88
382.86	780.88
383.085	792.88
383.31	795.88
383.535	852.88
383.761	859.88
383.986	874.88
384.211	887.88
384.436	857.88
384.662	887.88
384.887	915.88
385.112	874.88
385.337	929.88
385.562	908.88
385.787	927.88
386.013	911.88
386.238	918.88
386.463	927.88
386.688	921.88
386.913	908.88
387.138	892.88
387.363	890.88
387.588	890.88
387.813	864.88
388.038	883.88
388.263	905.88
388.488	903.88
388.713	881.88
388.938	901.88
389.163	874.88
389.387	888.88
389.612	893.88
389.837	896.88
390.062	876.88
390.287	877.88
390.512	844.88
390.736	890.88
390.961	909.88
391.186	921.88
391.411	948.88
391.636	980.88
391.86	1032.88
392.085	1023.88
392.31	1058.88
392.534	1020.88
392.759	977.88
392.984	993.88
393.208	959.88
393.433	954.88
393.658	958.88
393.882	977.88
394.107	968.88
394.331	925.88
394.556	989.88
394.78	990.88
395.005	997.88
395.229	990.88
395.454	1016.88
395.678	1036.88
395.903	1020.88
396.127	1009.88
396.352	996.88
396.576	977.88
396.801	935.88
397.025	952.88
397.249	972.88
397.474	1023.88
397.698	1007.88
397.922	1021.88
398.147	1000.88
398.371	1050.88
398.595	1099.88
398.82	1132.88
399.044	1178.88
399.268	1372.88
399.492	1579.88
399.717	1801.88
399.941	1785.88
400.165	1555.88
400.389	1407.88
400.613	1247.88
400.837	1199.88
401.062	1187.88
401.286	1131.88
401.51	1138.88
401.734	1146.88
401.958	1156.88
402.182	1149.88
402.406	1180.88
402.63	1174.88
402.854	1192.88
403.078	1229.88
403.302	1282.88
403.526	1321.88
403.75	1320.88
403.974	1380.88
404.198	1367.88
404.422	1388.88
404.645	1323.88
404.869	1344.88
405.093	1347.88
405.317	1305.88
405.541	1267.88
405.765	1268.88
405.988	1271.88
406.212	1228.88
406.436	1265.88
406.66	1260.88
406.883	1351.88
407.107	1386.88
407.331	1473.88
407.555	1479.88
407.778	1524.88
408.002	1440.88
408.226	1396.88
408.449	1384.88
408.673	1327.88
408.896	1273.88
409.12	1291.88
409.344	1320.88
409.567	1290.88
409.791	1281.88
410.014	1287.88
410.238	1285.88
410.461	1307.88
410.685	1271.88
410.908	1209.88
411.132	1230.88
411.355	1178.88
411.578	1203.88
411.802	1184.88
412.025	1211.88
412.249	1218.88
412.472	1188.88
412.695	1173.88
412.919	1142.88
413.142	1121.88
413.365	1155.88
413.589	1106.88
413.812	1140.88
414.035	1112.88
414.258	1137.88
414.482	1148.88
414.705	1157.88
414.928	1173.88
415.151	1155.88
415.374	1121.88
415.597	1122.88
415.821	1112.88
416.044	1108.88
416.267	1112.88
416.49	1084.88
416.713	1150.88
416.936	1135.88
417.159	1122.88
417.382	1137.88
417.605	1089.88
417.828	1143.88
418.051	1146.88
418.274	1147.88
418.497	1140.88
418.72	1152.88
418.943	1157.88
419.166	1234.88
419.389	1324.88
419.611	1285.88
419.834	1210.88
420.057	1167.88
420.28	1158.88
420.503	1125.88
420.726	1159.88
420.948	1142.88
421.171	1131.88
421.394	1164.88
421.617	1128.88
421.839	1115.88
422.062	1153.88
422.285	1127.88
422.507	1149.88
422.73	1173.88
422.953	1191.88
423.175	1194.88
423.398	1196.88
423.621	1200.88
423.843	1210.88
424.066	1223.88
424.288	1215.88
424.511	1205.88
424.733	1154.88
424.956	1162.88
425.178	1173.88
425.401	1144.88
425.623	1161.88
425.846	1080.88
426.068	1104.88
426.291	1091.88
426.513	1065.88
426.735	1040.88
426.958	1034.88
427.18	1010.88
427.402	1028.88
427.625	1046.88
427.847	996.88
428.069	1037.88
428.292	1045.88
428.514	983.88
428.736	998.88
428.958	1010.88
429.181	961.88
429.403	953.88
429.625	983.88
429.847	960.88
430.069	959.88
430.292	979.88
430.514	962.88
430.736	985.88
430.958	979.88
431.18	965.88
431.402	985.88
431.624	975.88
431.846	991.88
432.068	1017.88
432.29	1035.88
432.512	1008.88
432.734	1002.88
432.956	1007.88
433.178	1022.88
433.4	1009.88
433.622	1002.88
433.844	1036.88
434.066	1025.88
434.287	1052.88
434.509	1048.88
434.731	1085.88
434.953	1153.88
435.175	1114.88
435.397	1119.88
435.618	1071.88
435.84	1056.88
436.062	1034.88
436.284	1000.88
436.505	1004.88
436.727	1001.88
436.949	1004.88
437.17	1026.88
437.392	996.88
437.614	985.88
437.835	967.88
438.057	971.88
438.278	958.88
438.5	972.88
438.721	961.88
438.943	999.88
439.165	956.88
439.386	973.88
439.608	1009.88
439.829	1026.88
440.05	991.88
440.272	1011.88
440.493	1018.88
440.715	1047.88
440.936	1046.88
441.158	1098.88
441.379	1073.88
441.6	1147.88
441.822	1161.88
442.043	1153.88
442.264	1128.88
442.486	1081.88
442.707	1109.88
442.928	1074.88
443.149	1122.88
443.371	1099.88
443.592	1119.88
443.813	1099.88
444.034	1127.88
444.255	1208.88
444.476	1279.88
444.698	1345.88
444.919	1422.88
445.14	1417.88
445.361	1313.88
445.582	1179.88
445.803	1091.88
446.024	1061.88
446.245	1056.88
446.466	1048.88
446.687	1034.88
446.908	1015.88
447.129	993.88
447.35	1026.88
447.571	960.88
447.792	972.88
448.013	955.88
448.234	909.88
448.455	937.88
448.675	905.88
448.896	939.88
449.117	897.88
449.338	926.88
449.559	903.88
449.779	880.88
450	875.88
450.221	911.88
450.442	913.88
450.662	934.88
450.883	932.88
451.104	967.88
451.324	942.88
451.545	938.88
451.766	943.88
451.986	909.88
452.207	923.88
452.428	923.88
452.648	921.88
452.869	904.88
453.089	906.88
453.31	921.88
453.53	899.88
453.751	886.88
453.971	887.88
454.192	882.88
454.412	863.88
454.633	868.88
454.853	858.88
455.073	888.88
455.294	871.88
455.514	866.88
455.734	863.88
455.955	864.88
456.175	859.88
456.395	876.88
456.616	861.88
456.836	842.88
457.056	836.88
457.276	846.88
457.497	881.88
457.717	853.88
457.937	890.88
458.157	868.88
458.377	875.88
458.598	894.88
458.818	923.88
459.038	951.88
459.258	969.88
459.478	977.88
459.698	1019.88
459.918	1043.88
460.138	1113.88
460.358	1141.88
460.578	1196.88
460.798	1202.88
461.018	1241.88
461.238	1177.88
461.458	1184.88
461.678	1193.88
461.898	1182.88
462.118	1190.88
462.338	1265.88
462.558	1294.88
462.777	1344.88
462.997	1444.88
463.217	1631.88
463.437	1617.88
463.657	1462.88
463.876	1388.88
464.096	1411.88
464.316	1407.88
464.536	1460.88
464.755	1374.88
464.975	1306.88
465.195	1231.88
465.414	1149.88
465.634	1084.88
465.854	1090.88
466.073	1033.88
466.293	1004.88
466.512	987.88
466.732	973.88
466.951	970.88
467.171	957.88
467.391	934.88
467.61	918.88
467.829	954.88
468.049	948.88
468.268	937.88
468.488	901.88
468.707	909.88
468.927	897.88
469.146	890.88
469.365	938.88
469.585	941.88
469.804	968.88
470.023	955.88
470.243	980.88
470.462	1008.88
470.681	1031.88
470.901	1009.88
471.12	977.88
471.339	956.88
471.558	970.88
471.777	931.88
471.997	930.88
472.216	916.88
472.435	909.88
472.654	898.88
472.873	888.88
473.092	895.88
473.311	858.88
473.53	887.88
473.749	881.88
473.968	890.88
474.187	870.88
474.406	871.88
474.625	889.88
474.844	893.88
475.063	887.88
475.282	863.88
475.501	887.88
475.72	900.88
475.939	897.88
476.158	910.88
476.377	948.88
476.596	925.88
476.814	952.88
477.033	928.88
477.252	938.88
477.471	981.88
477.69	989.88
477.908	1031.88
478.127	1067.88
478.346	1090.88
478.564	1072.88
478.783	1065.88
479.002	1130.88
479.22	1147.88
479.439	1131.88
479.658	1131.88
479.876	1068.88
480.095	1140.88
480.313	1179.88
480.532	1218.88
480.751	1243.88
480.969	1177.88
481.188	1088.88
481.406	1069.88
481.624	1023.88
481.843	1037.88
482.061	1005.88
482.28	983.88
482.498	983.88
482.717	1010.88
482.935	1019.88
483.153	987.88
483.372	1029.88
483.59	1025.88
483.808	994.88
484.027	988.88
484.245	1007.88
484.463	1031.88
484.681	1036.88
484.9	1050.88
485.118	1041.88
485.336	1063.88
485.554	1027.88
485.772	1094.88
485.99	1061.88
486.209	1057.88
486.427	1081.88
486.645	1069.88
486.863	1053.88
487.081	1078.88
487.299	1028.88
487.517	1050.88
487.735	1066.88
487.953	1056.88
488.171	1029.88
488.389	1057.88
488.607	1023.88
488.825	1011.88
489.043	1030.88
489.261	1037.88
489.479	1009.88
489.696	1036.88
489.914	1035.88
490.132	1048.88
490.35	1035.88
490.568	1064.88
490.786	1070.88
491.003	1073.88
491.221	1068.88
491.439	1054.88
491.657	1042.88
491.874	1054.88
492.092	1066.88
492.31	1047.88
492.527	1104.88
492.745	1075.88
492.963	1104.88
493.18	1096.88
493.398	1085.88
493.615	1106.88
493.833	1062.88
494.05	1119.88
494.268	1109.88
494.485	1089.88
494.703	1112.88
494.92	1096.88
495.138	1105.88
495.355	1138.88
495.573	1119.88
495.79	1100.88
496.008	1109.88
496.225	1126.88
496.442	1148.88
496.66	1148.88
496.877	1147.88
497.094	1192.88
497.312	1179.88
497.529	1213.88
497.746	1238.88
497.963	1300.88
498.181	1356.88
498.398	1404.88
498.615	1485.88
498.832	1623.88
499.049	1745.88
499.267	1874.88
499.484	2072.88
499.701	2321.88
499.918	2518.88
500.135	2999.88
500.352	3433.88
500.569	3643.88
500.786	3641.88
501.003	3265.88
501.22	2895.88
501.437	2518.88
501.654	2221.88
501.871	1991.88
502.088	1829.88
502.305	1691.88
502.522	1601.88
502.739	1541.88
502.956	1477.88
503.172	1397.88
503.389	1330.88
503.606	1298.88
503.823	1258.88
504.04	1282.88
504.256	1285.88
504.473	1308.88
504.69	1372.88
504.907	1355.88
505.123	1232.88
505.34	1150.88
505.557	1131.88
505.773	1038.88
505.99	1068.88
506.207	1036.88
506.423	1036.88
506.64	1018.88
506.856	1008.88
507.073	984.88
507.289	1000.88
507.506	977.88
507.722	1000.88
507.939	986.88
508.155	973.88
508.372	956.88
508.588	920.88
508.805	956.88
509.021	945.88
509.238	931.88
509.454	904.88
509.67	893.88
509.887	915.88
510.103	884.88
510.319	912.88
510.536	910.88
510.752	846.88
510.968	889.88
511.184	895.88
511.401	921.88
511.617	878.88
511.833	909.88
512.049	881.88
512.265	894.88
512.481	899.88
512.698	894.88
512.914	867.88
513.13	902.88
513.346	915.88
513.562	893.88
513.778	922.88
513.994	882.88
514.21	894.88
514.426	898.88
514.642	896.88
514.858	909.88
515.074	909.88
515.29	935.88
515.506	926.88
515.721	955.88
515.937	972.88
516.153	972.88
516.369	1024.88
516.585	1029.88
516.801	1082.88
517.016	1133.88
517.232	1198.88
517.448	1238.88
517.664	1279.88
517.879	1299.88
518.095	1305.88
518.311	1254.88
518.527	1205.88
518.742	1171.88
518.958	1089.88
519.173	1043.88
519.389	1018.88
519.605	1011.88
519.82	979.88
520.036	961.88
520.251	919.88
520.467	913.88
520.682	905.88
520.898	899.88
521.113	899.88
521.329	867.88
521.544	848.88
521.76	839.88
521.975	859.88
522.19	837.88
522.406	831.88
522.621	842.88
522.836	843.88
523.052	840.88
523.267	849.88
523.482	855.88
523.698	812.88
523.913	804.88
524.128	834.88
524.343	852.88
524.559	793.88
524.774	819.88
524.989	828.88
525.204	840.88
525.419	811.88
525.634	801.88
525.849	832.88
526.064	809.88
526.28	833.88
526.495	830.88
526.71	815.88
526.925	805.88
527.14	802.88
527.355	800.88
527.57	804.88
527.785	829.88
527.999	779.88
528.214	808.88
528.429	805.88
528.644	851.88
528.859	804.88
529.074	821.88
529.289	829.88
529.503	809.88
529.718	801.88
529.933	802.88
530.148	795.88
530.363	785.88
530.577	825.88
530.792	785.88
531.007	816.88
531.221	796.88
531.436	809.88
531.651	796.88
531.865	817.88
532.08	815.88
532.295	821.88
532.509	819.88
532.724	792.88
532.938	808.88
533.153	796.88
533.367	818.88
533.582	808.88
533.796	832.88
534.011	821.88
534.225	801.88
534.44	801.88
534.654	795.88
534.868	810.88
535.083	807.88
535.297	782.88
535.511	772.88
535.726	801.88
535.94	761.88
536.154	778.88
536.369	759.88
536.583	767.88
536.797	759.88
537.011	760.88
537.225	736.88
537.44	721.88
537.654	775.88
537.868	753.88
538.082	746.88
538.296	735.88
538.51	736.88
538.724	745.88
538.938	746.88
539.153	756.88
539.367	739.88
539.581	742.88
539.795	738.88
540.009	727.88
540.222	708.88
540.436	737.88
540.65	729.88
540.864	708.88
541.078	730.88
541.292	717.88
541.506	746.88
541.72	741.88
541.934	714.88
542.147	737.88
542.361	716.88
542.575	702.88
542.789	704.88
543.002	706.88
543.216	743.88
543.43	729.88
543.644	700.88
543.857	708.88
544.071	712.88
544.285	736.88
544.498	737.88
544.712	717.88
544.925	727.88
545.139	723.88
545.352	717.88
545.566	743.88
545.779	710.88
545.993	730.88
546.206	773.88
546.42	759.88
546.633	724.88
546.847	727.88
547.06	733.88
547.274	725.88
547.487	712.88
547.7	727.88
547.914	732.88
548.127	752.88
548.34	774.88
548.554	760.88
548.767	746.88
548.98	763.88
549.193	738.88
549.407	730.88
549.62	768.88
549.833	769.88
550.046	759.88
550.259	739.88
550.473	760.88
550.686	746.88
550.899	726.88
551.112	712.88
551.325	721.88
551.538	747.88
551.751	712.88
551.964	723.88
552.177	711.88
552.39	738.88
552.603	769.88
552.816	806.88
553.029	788.88
553.242	832.88
553.455	826.88
553.667	852.88
553.88	828.88
554.093	799.88
554.306	783.88
554.519	729.88
554.732	758.88
554.944	729.88
555.157	739.88
555.37	727.88
555.583	713.88
555.795	687.88
556.008	694.88
556.221	649.88
556.433	659.88
556.646	649.88
556.859	637.88
557.071	633.88
557.284	627.88
557.496	639.88
557.709	615.88
557.921	629.88
558.134	618.88
558.346	637.88
558.559	631.88
558.771	620.88
558.984	599.88
559.196	606.88
559.409	612.88
559.621	622.88
559.833	609.88
560.046	612.88
560.258	600.88
560.47	616.88
560.683	599.88
560.895	598.88
561.107	608.88
561.32	598.88
561.532	607.88
561.744	629.88
561.956	603.88
562.168	618.88
562.381	620.88
562.593	610.88
562.805	625.88
563.017	591.88
563.229	614.88
563.441	590.88
563.653	631.88
563.865	622.88
564.077	630.88
564.289	628.88
564.501	624.88
564.713	626.88
564.925	644.88
565.137	667.88
565.349	689.88
565.561	718.88
565.773	715.88
565.985	751.88
566.197	791.88
566.408	847.88
566.62	923.88
566.832	1023.88
567.044	1043.88
567.255	1009.88
567.467	1077.88
567.679	1131.88
567.891	1221.88
568.102	1275.88
568.314	1192.88
568.526	1068.88
568.737	948.88
568.949	869.88
569.161	788.88
569.372	762.88
569.584	698.88
569.795	668.88
570.007	663.88
570.218	627.88
570.43	639.88
570.641	620.88
570.853	634.88
571.064	643.88
571.276	641.88
571.487	615.88
571.698	604.88
571.91	583.88
572.121	567.88
572.333	543.88
572.544	557.88
572.755	571.88
572.966	525.88
573.178	532.88
573.389	525.88
573.6	517.88
573.811	530.88
574.023	498.88
574.234	500.88
574.445	501.88
574.656	517.88
574.867	519.88
575.078	496.88
575.289	488.88
575.501	496.88
575.712	476.88
575.923	493.88
576.134	474.88
576.345	462.88
576.556	487.88
576.767	460.88
576.978	474.88
577.188	456.88
577.399	449.88
577.61	440.88
577.821	455.88
578.032	462.88
578.243	451.88
578.454	451.88
578.665	468.88
578.875	443.88
579.086	441.88
579.297	452.88
579.508	466.88
579.718	447.88
579.929	447.88
580.14	440.88
580.35	443.88
580.561	433.88
580.772	427.88
580.982	439.88
581.193	422.88
581.403	426.88
581.614	433.88
581.825	416.88
582.035	415.88
582.246	411.88
582.456	419.88
582.667	422.88
582.877	437.88
583.087	410.88
583.298	422.88
583.508	416.88
583.719	438.88
583.929	426.88
584.139	419.88
584.35	401.88
584.56	420.88
584.77	419.88
584.981	407.88
585.191	408.88
585.401	403.88
585.611	420.88
585.821	412.88
586.032	387.88
586.242	404.88
586.452	396.88
586.662	416.88
586.872	396.88
587.082	402.88
587.292	417.88
587.502	403.88
587.713	400.88
587.923	412.88
588.133	391.88
588.343	410.88
588.553	385.88
588.762	420.88
588.972	403.88
589.182	391.88
589.392	420.88
589.602	391.88
589.812	406.88
590.022	402.88
590.232	398.88
590.441	389.88
590.651	432.88
590.861	404.88
591.071	416.88
591.281	439.88
591.49	413.88
591.7	435.88
591.91	440.88
592.119	435.88
592.329	433.88
592.539	478.88
592.748	484.88
592.958	495.88
593.167	540.88
593.377	542.88
593.587	536.88
593.796	531.88
594.006	521.88
594.215	541.88
594.424	545.88
594.634	511.88
594.843	489.88
595.053	463.88
595.262	445.88
595.472	452.88
595.681	427.88
595.89	415.88
596.1	412.88
596.309	413.88
596.518	373.88
596.727	404.88
596.937	390.88
597.146	391.88
597.355	388.88
597.564	377.88
597.774	375.88
597.983	357.88
598.192	346.88
598.401	361.88
598.61	360.88
598.819	373.88
599.028	379.88
599.237	360.88
599.446	349.88
599.655	345.88
599.864	342.88
600.073	362.88
600.282	336.88
600.491	355.88
600.7	346.88
600.909	362.88
601.118	341.88
601.327	341.88
601.536	340.88
601.745	318.88
601.953	340.88
602.162	345.88
602.371	335.88
602.58	335.88
602.789	320.88
602.997	347.88
603.206	325.88
603.415	329.88
603.623	344.88
603.832	314.88
604.041	329.88
604.249	310.88
604.458	325.88
604.666	328.88
604.875	301.88
605.084	321.88
605.292	316.88
605.501	333.88
605.709	337.88
605.918	315.88
606.126	307.88
606.334	305.88
606.543	335.88
606.751	309.88
606.96	302.88
607.168	330.88
607.376	298.88
607.585	292.88
607.793	320.88
608.001	298.88
608.21	310.88
608.418	303.88
608.626	319.88
608.834	284.88
609.043	303.88
609.251	309.88
609.459	301.88
609.667	312.88
609.875	301.88
610.083	321.88
610.291	311.88
610.499	312.88
610.707	298.88
610.916	303.88
611.124	291.88
611.332	297.88
611.54	295.88
611.748	295.88
611.955	317.88
612.163	292.88
612.371	291.88
612.579	298.88
612.787	307.88
612.995	292.88
613.203	295.88
613.411	301.88
613.618	290.88
613.826	293.88
614.034	292.88
614.242	281.88
614.449	275.88
614.657	313.88
614.865	305.88
615.072	298.88
615.28	308.88
615.488	297.88
615.695	314.88
615.903	309.88
616.111	301.88
616.318	307.88
616.526	305.88
616.733	287.88
616.941	308.88
617.148	311.88
617.356	289.88
617.563	296.88
617.771	305.88
617.978	283.88
618.185	307.88
618.393	292.88
618.6	301.88
618.807	295.88
619.015	300.88
619.222	275.88
619.429	283.88
619.637	286.88
619.844	307.88
620.051	274.88
620.258	290.88
620.466	286.88
620.673	279.88
620.88	286.88
621.087	273.88
621.294	266.88
621.501	261.88
621.708	279.88
621.915	259.88
622.122	265.88
622.329	263.88
622.536	266.88
622.743	251.88
622.95	274.88
623.157	272.88
623.364	244.88
623.571	261.88
623.778	275.88
623.985	265.88
624.192	247.88
624.399	243.88
624.606	265.88
624.812	255.88
625.019	260.88
625.226	265.88
625.433	272.88
625.639	243.88
625.846	246.88
626.053	237.88
626.259	256.88
626.466	255.88
626.673	242.88
626.879	253.88
627.086	241.88
627.293	243.88
627.499	260.88
627.706	253.88
627.912	256.88
628.119	241.88
628.325	227.88
628.532	244.88
628.738	231.88
628.945	229.88
629.151	253.88
629.357	229.88
629.564	243.88
629.77	241.88
629.976	244.88
630.183	259.88
630.389	221.88
630.595	219.88
630.802	234.88
631.008	214.88
631.214	231.88
631.42	227.88
631.627	216.88
631.833	224.88
632.039	245.88
632.245	225.88
632.451	211.88
632.657	216.88
632.863	238.88
633.069	209.88
633.275	232.88
633.481	214.88
633.688	217.88
633.893	211.88
634.099	218.88
634.305	213.88
634.511	219.88
634.717	226.88
634.923	204.88
635.129	204.88
635.335	224.88
635.541	208.88
635.747	213.88
635.952	202.88
636.158	205.88
636.364	213.88
636.57	198.88
636.775	227.88
636.981	216.88
637.187	228.88
637.392	205.88
637.598	214.88
637.804	210.88
638.009	208.88
638.215	211.88
638.421	218.88
638.626	201.88
638.832	215.88
639.037	194.88
639.243	207.88
639.448	211.88
639.654	202.88
639.859	202.88
640.065	208.88
640.27	219.88
640.475	192.88
640.681	195.88
640.886	212.88
641.091	196.88
641.297	185.88
641.502	196.88
641.707	209.88
641.913	192.88
642.118	195.88
642.323	190.88
642.528	199.88
642.733	197.88
642.939	198.88
643.144	188.88
643.349	199.88
643.554	200.88
643.759	186.88
643.964	203.88
644.169	197.88
644.374	208.88
644.579	208.88
644.784	188.88
644.989	197.88
645.194	182.88
645.399	191.88
645.604	187.88
645.809	188.88
646.014	190.88
646.219	186.88
646.423	187.88
646.628	204.88
646.833	197.88
647.038	193.88
647.243	201.88
647.447	201.88
647.652	190.88
647.857	211.88
648.062	214.88
648.266	213.88
648.471	208.88
648.676	219.88
648.88	212.88
649.085	219.88
649.289	191.88
649.494	193.88
649.698	191.88
649.903	179.88
650.107	182.88
650.312	191.88
650.516	177.88
650.721	194.88
650.925	170.88
651.13	179.88
651.334	162.88
651.539	166.88
651.743	183.88
651.947	171.88
652.152	167.88
652.356	178.88
652.56	163.88
652.764	149.88
652.969	152.88
653.173	148.88
653.377	161.88
653.581	155.88
653.785	154.88
653.99	147.88
654.194	150.88
654.398	155.88
654.602	155.88
654.806	139.88
655.01	156.88
655.214	145.88
655.418	142.88
655.622	153.88
655.826	138.88
656.03	129.88
656.234	141.88
656.438	134.88
656.642	135.88
656.846	129.88
657.049	123.88
657.253	130.88
657.457	137.88
657.661	131.88
657.865	121.88
658.068	126.88
658.272	123.88
658.476	124.88
658.68	121.88
658.883	112.88
659.087	104.88
659.291	103.88
659.494	109.88
659.698	121.88
659.901	91.88
660.105	105.88
660.309	106.88
660.512	92.88
660.716	104.88
660.919	94.88
661.123	92.88
661.326	106.88
661.53	82.88
661.733	99.88
661.936	92.88
662.14	96.88
662.343	87.88
662.546	78.88
662.75	76.88
662.953	91.88
663.156	84.88
663.36	82.88
663.563	90.88
663.766	83.88
663.969	78.88
664.173	82.88
664.376	85.88
664.579	98.88
664.782	88.88
664.985	81.88
665.188	75.88
665.391	99.88
665.594	77.88
665.797	81.88
666	91.88
666.203	81.88
666.406	92.88
666.609	72.88
666.812	90.88
667.015	83.88
667.218	75.88
667.421	89.88
667.624	90.88
667.827	87.88
668.03	76.88
668.232	80.88
668.435	78.88
668.638	76.88
668.841	72.88
669.043	83.88
669.246	102.88
669.449	85.88
669.651	83.88
669.854	73.88
670.057	96.88
670.259	67.88
670.462	76.88
670.665	79.88
670.867	83.88
671.07	76.88
671.272	83.88
671.475	95.88
671.677	80.88
671.88	84.88
672.082	89.88
672.284	83.88
672.487	88.88
672.689	80.88
672.892	85.88
