Data from NiCl2@0.25M.TitratingCurve.Agarose3%dH2O.NegLispCup.LampEnergy10.LIBS07252019_HRD10591_18-24-07-573.txt Node
Date: Thu Jul 25 18:24:07 EDT 2019
User: cochatt
Spectrometer: HR+D1059
Trigger mode: 1
Integration Time (sec): 1.000000E-1
Scans to average: 1
Electric dark correction enabled: true
Nonlinearity correction enabled: false
Boxcar width: 0
XAxis mode: Wavelengths
Number of Pixels in Spectrum: 2048
>>>>>Begin Spectral Data<<<<<
223.165	-2.25
223.4	-2.25
223.635	-2.25
223.869	-13.25
224.104	-20.25
224.338	-8.25
224.573	-16.25
224.808	-17.25
225.042	-5.25
225.277	-11.25
225.511	-15.25
225.746	0.75
225.98	19.75
226.215	21.75
226.449	11.75
226.683	10.75
226.918	19.75
227.152	24.75
227.387	36.75
227.621	43.75
227.856	40.75
228.09	44.75
228.324	41.75
228.559	66.75
228.793	78.75
229.027	112.75
229.262	94.75
229.496	117.75
229.73	112.75
229.964	123.75
230.199	122.75
230.433	126.75
230.667	111.75
230.901	109.75
231.136	112.75
231.37	115.75
231.604	132.75
231.838	134.75
232.072	135.75
232.306	146.75
232.541	135.75
232.775	144.75
233.009	134.75
233.243	146.75
233.477	138.75
233.711	136.75
233.945	144.75
234.179	136.75
234.413	140.75
234.647	133.75
234.881	145.75
235.115	132.75
235.349	146.75
235.583	146.75
235.817	140.75
236.051	135.75
236.285	146.75
236.519	156.75
236.753	150.75
236.987	151.75
237.221	145.75
237.455	141.75
237.689	148.75
237.922	144.75
238.156	156.75
238.39	146.75
238.624	161.75
238.858	158.75
239.091	156.75
239.325	137.75
239.559	157.75
239.793	144.75
240.027	153.75
240.26	146.75
240.494	165.75
240.728	159.75
240.961	164.75
241.195	181.75
241.429	160.75
241.662	154.75
241.896	161.75
242.13	169.75
242.363	164.75
242.597	174.75
242.83	189.75
243.064	182.75
243.298	180.75
243.531	182.75
243.765	190.75
243.998	179.75
244.232	184.75
244.465	165.75
244.699	192.75
244.932	187.75
245.166	193.75
245.399	180.75
245.633	205.75
245.866	213.75
246.099	207.75
246.333	206.75
246.566	180.75
246.8	206.75
247.033	222.75
247.266	226.75
247.5	199.75
247.733	201.75
247.966	206.75
248.2	197.75
248.433	209.75
248.666	238.75
248.899	219.75
249.133	223.75
249.366	223.75
249.599	234.75
249.832	220.75
250.066	232.75
250.299	240.75
250.532	230.75
250.765	202.75
250.998	217.75
251.231	229.75
251.465	227.75
251.698	249.75
251.931	242.75
252.164	254.75
252.397	242.75
252.63	230.75
252.863	242.75
253.096	242.75
253.329	252.75
253.562	243.75
253.795	234.75
254.028	239.75
254.261	252.75
254.494	256.75
254.727	253.75
254.96	277.75
255.193	242.75
255.426	252.75
255.659	238.75
255.892	258.75
256.124	265.75
256.357	260.75
256.59	262.75
256.823	251.75
257.056	268.75
257.289	260.75
257.521	254.75
257.754	264.75
257.987	258.75
258.22	275.75
258.452	274.75
258.685	286.75
258.918	275.75
259.151	270.75
259.383	268.75
259.616	274.75
259.849	277.75
260.081	274.75
260.314	268.75
260.547	283.75
260.779	279.75
261.012	291.75
261.244	276.75
261.477	281.75
261.71	304.75
261.942	279.75
262.175	286.75
262.407	313.75
262.64	298.75
262.872	290.75
263.105	277.75
263.337	279.75
263.57	293.75
263.802	294.75
264.035	302.75
264.267	306.75
264.499	306.75
264.732	300.75
264.964	307.75
265.197	311.75
265.429	318.75
265.661	302.75
265.894	318.75
266.126	330.75
266.358	314.75
266.591	319.75
266.823	324.75
267.055	305.75
267.287	340.75
267.52	296.75
267.752	316.75
267.984	313.75
268.216	316.75
268.448	315.75
268.681	333.75
268.913	313.75
269.145	338.75
269.377	332.75
269.609	307.75
269.841	331.75
270.073	325.75
270.306	334.75
270.538	331.75
270.77	329.75
271.002	334.75
271.234	348.75
271.466	345.75
271.698	335.75
271.93	332.75
272.162	329.75
272.394	331.75
272.626	338.75
272.858	333.75
273.09	350.75
273.322	340.75
273.553	343.75
273.785	356.75
274.017	362.75
274.249	348.75
274.481	355.75
274.713	357.75
274.945	367.75
275.176	354.75
275.408	356.75
275.64	380.75
275.872	355.75
276.104	357.75
276.335	360.75
276.567	372.75
276.799	344.75
277.031	388.75
277.262	364.75
277.494	377.75
277.726	375.75
277.957	376.75
278.189	384.75
278.421	365.75
278.652	388.75
278.884	368.75
279.115	409.75
279.347	386.75
279.579	388.75
279.81	376.75
280.042	382.75
280.273	402.75
280.505	403.75
280.736	392.75
280.968	408.75
281.199	406.75
281.431	412.75
281.662	412.75
281.894	409.75
282.125	402.75
282.356	404.75
282.588	423.75
282.819	406.75
283.051	412.75
283.282	406.75
283.513	402.75
283.745	403.75
283.976	402.75
284.207	409.75
284.439	428.75
284.67	429.75
284.901	421.75
285.132	412.75
285.364	437.75
285.595	420.75
285.826	451.75
286.057	428.75
286.288	413.75
286.52	420.75
286.751	442.75
286.982	413.75
287.213	449.75
287.444	434.75
287.675	444.75
287.906	444.75
288.138	442.75
288.369	441.75
288.6	456.75
288.831	434.75
289.062	447.75
289.293	460.75
289.524	459.75
289.755	429.75
289.986	446.75
290.217	468.75
290.448	449.75
290.679	449.75
290.91	467.75
291.141	451.75
291.371	464.75
291.602	444.75
291.833	442.75
292.064	462.75
292.295	453.75
292.526	476.75
292.757	474.75
292.987	465.75
293.218	458.75
293.449	451.75
293.68	459.75
293.91	442.75
294.141	475.75
294.372	444.75
294.603	461.75
294.833	467.75
295.064	470.75
295.295	469.75
295.525	456.75
295.756	476.75
295.987	458.75
296.217	464.75
296.448	489.75
296.679	504.75
296.909	478.75
297.14	485.75
297.37	481.75
297.601	485.75
297.831	476.75
298.062	499.75
298.292	508.75
298.523	532.75
298.753	503.75
298.984	489.75
299.214	485.75
299.445	479.75
299.675	495.75
299.905	501.75
300.136	491.75
300.366	502.75
300.597	512.75
300.827	532.75
301.057	525.75
301.288	533.75
301.518	501.75
301.748	519.75
301.979	532.75
302.209	518.75
302.439	515.75
302.669	533.75
302.9	536.75
303.13	522.75
303.36	536.75
303.59	535.75
303.82	535.75
304.051	518.75
304.281	519.75
304.511	517.75
304.741	523.75
304.971	541.75
305.201	514.75
305.431	500.75
305.661	529.75
305.891	519.75
306.121	502.75
306.352	541.75
306.582	503.75
306.812	521.75
307.042	517.75
307.272	519.75
307.502	510.75
307.731	532.75
307.961	523.75
308.191	512.75
308.421	506.75
308.651	503.75
308.881	527.75
309.111	498.75
309.341	496.75
309.571	510.75
309.8	532.75
310.03	517.75
310.26	503.75
310.49	519.75
310.72	502.75
310.949	501.75
311.179	523.75
311.409	517.75
311.639	536.75
311.868	538.75
312.098	531.75
312.328	525.75
312.557	534.75
312.787	540.75
313.017	530.75
313.246	522.75
313.476	551.75
313.706	569.75
313.935	550.75
314.165	538.75
314.394	532.75
314.624	556.75
314.853	538.75
315.083	548.75
315.312	565.75
315.542	542.75
315.771	555.75
316.001	549.75
316.23	555.75
316.46	540.75
316.689	547.75
316.919	536.75
317.148	528.75
317.377	530.75
317.607	537.75
317.836	540.75
318.065	542.75
318.295	546.75
318.524	534.75
318.753	526.75
318.983	534.75
319.212	519.75
319.441	528.75
319.67	535.75
319.9	543.75
320.129	544.75
320.358	546.75
320.587	560.75
320.816	546.75
321.046	538.75
321.275	544.75
321.504	524.75
321.733	562.75
321.962	544.75
322.191	549.75
322.42	553.75
322.649	533.75
322.878	549.75
323.108	552.75
323.337	527.75
323.566	540.75
323.795	566.75
324.024	550.75
324.253	543.75
324.482	561.75
324.71	540.75
324.939	557.75
325.168	563.75
325.397	568.75
325.626	574.75
325.855	566.75
326.084	577.75
326.313	608.75
326.542	633.75
326.77	616.75
326.999	600.75
327.228	575.75
327.457	592.75
327.686	572.75
327.914	570.75
328.143	605.75
328.372	598.75
328.6	578.75
328.829	590.75
329.058	606.75
329.287	603.75
329.515	595.75
329.744	581.75
329.972	596.75
330.201	589.75
330.43	610.75
330.658	598.75
330.887	596.75
331.115	617.75
331.344	617.75
331.572	644.75
331.801	637.75
332.03	656.75
332.258	662.75
332.486	681.75
332.715	708.75
332.943	741.75
333.172	754.75
333.4	782.75
333.629	808.75
333.857	804.75
334.085	776.75
334.314	774.75
334.542	779.75
334.771	783.75
334.999	768.75
335.227	761.75
335.455	753.75
335.684	734.75
335.912	731.75
336.14	729.75
336.369	735.75
336.597	718.75
336.825	751.75
337.053	718.75
337.281	694.75
337.51	696.75
337.738	674.75
337.966	669.75
338.194	671.75
338.422	632.75
338.65	647.75
338.878	649.75
339.106	637.75
339.334	657.75
339.562	645.75
339.79	622.75
340.018	628.75
340.246	615.75
340.474	618.75
340.702	622.75
340.93	611.75
341.158	614.75
341.386	620.75
341.614	611.75
341.842	608.75
342.07	619.75
342.298	618.75
342.526	608.75
342.754	608.75
342.981	626.75
343.209	644.75
343.437	679.75
343.665	711.75
343.893	725.75
344.12	774.75
344.348	733.75
344.576	680.75
344.804	689.75
345.031	667.75
345.259	621.75
345.487	628.75
345.714	606.75
345.942	601.75
346.17	612.75
346.397	622.75
346.625	611.75
346.853	598.75
347.08	596.75
347.308	587.75
347.535	599.75
347.763	615.75
347.99	603.75
348.218	590.75
348.445	631.75
348.673	605.75
348.9	603.75
349.128	598.75
349.355	595.75
349.583	587.75
349.81	603.75
350.037	588.75
350.265	582.75
350.492	602.75
350.72	589.75
350.947	558.75
351.174	590.75
351.402	580.75
351.629	590.75
351.856	587.75
352.083	582.75
352.311	590.75
352.538	586.75
352.765	585.75
352.992	567.75
353.22	567.75
353.447	566.75
353.674	553.75
353.901	589.75
354.128	588.75
354.355	587.75
354.583	580.75
354.81	592.75
355.037	564.75
355.264	573.75
355.491	578.75
355.718	582.75
355.945	571.75
356.172	580.75
356.399	574.75
356.626	606.75
356.853	590.75
357.08	593.75
357.307	611.75
357.534	581.75
357.761	573.75
357.988	607.75
358.215	588.75
358.441	580.75
358.668	566.75
358.895	582.75
359.122	588.75
359.349	569.75
359.576	570.75
359.802	587.75
360.029	585.75
360.256	581.75
360.483	589.75
360.709	576.75
360.936	592.75
361.163	587.75
361.39	604.75
361.616	567.75
361.843	573.75
362.07	595.75
362.296	576.75
362.523	583.75
362.749	572.75
362.976	579.75
363.203	556.75
363.429	588.75
363.656	574.75
363.882	578.75
364.109	565.75
364.335	601.75
364.562	581.75
364.788	572.75
365.015	572.75
365.241	582.75
365.468	569.75
365.694	582.75
365.92	576.75
366.147	576.75
366.373	587.75
366.599	556.75
366.826	586.75
367.052	580.75
367.278	572.75
367.505	585.75
367.731	598.75
367.957	554.75
368.184	592.75
368.41	576.75
368.636	587.75
368.862	611.75
369.089	598.75
369.315	598.75
369.541	625.75
369.767	639.75
369.993	609.75
370.219	601.75
370.445	628.75
370.672	608.75
370.898	594.75
371.124	620.75
371.35	625.75
371.576	605.75
371.802	628.75
372.028	624.75
372.254	631.75
372.48	631.75
372.706	642.75
372.932	669.75
373.158	656.75
373.384	664.75
373.61	621.75
373.835	618.75
374.061	633.75
374.287	669.75
374.513	663.75
374.739	661.75
374.965	701.75
375.191	713.75
375.416	715.75
375.642	701.75
375.868	683.75
376.094	663.75
376.319	664.75
376.545	645.75
376.771	648.75
376.997	652.75
377.222	644.75
377.448	630.75
377.674	635.75
377.899	619.75
378.125	594.75
378.35	656.75
378.576	620.75
378.802	645.75
379.027	636.75
379.253	642.75
379.478	626.75
379.704	633.75
379.929	660.75
380.155	643.75
380.38	622.75
380.606	632.75
380.831	636.75
381.057	631.75
381.282	645.75
381.507	640.75
381.733	642.75
381.958	629.75
382.184	631.75
382.409	629.75
382.634	681.75
382.86	669.75
383.085	635.75
383.31	672.75
383.535	690.75
383.761	702.75
383.986	707.75
384.211	710.75
384.436	718.75
384.662	754.75
384.887	736.75
385.112	755.75
385.337	744.75
385.562	743.75
385.787	770.75
386.013	764.75
386.238	788.75
386.463	760.75
386.688	796.75
386.913	731.75
387.138	752.75
387.363	744.75
387.588	746.75
387.813	754.75
388.038	733.75
388.263	745.75
388.488	745.75
388.713	771.75
388.938	759.75
389.163	730.75
389.387	716.75
389.612	720.75
389.837	732.75
390.062	729.75
390.287	716.75
390.512	735.75
390.736	743.75
390.961	754.75
391.186	754.75
391.411	785.75
391.636	807.75
391.86	840.75
392.085	856.75
392.31	854.75
392.534	841.75
392.759	823.75
392.984	819.75
393.208	802.75
393.433	792.75
393.658	826.75
393.882	820.75
394.107	791.75
394.331	826.75
394.556	796.75
394.78	816.75
395.005	828.75
395.229	818.75
395.454	829.75
395.678	817.75
395.903	834.75
396.127	813.75
396.352	820.75
396.576	820.75
396.801	782.75
397.025	792.75
397.249	825.75
397.474	818.75
397.698	862.75
397.922	849.75
398.147	848.75
398.371	858.75
398.595	898.75
398.82	908.75
399.044	992.75
399.268	1101.75
399.492	1255.75
399.717	1408.75
399.941	1410.75
400.165	1269.75
400.389	1136.75
400.613	1036.75
400.837	997.75
401.062	988.75
401.286	957.75
401.51	935.75
401.734	935.75
401.958	961.75
402.182	971.75
402.406	1011.75
402.63	984.75
402.854	1011.75
403.078	1003.75
403.302	1068.75
403.526	1068.75
403.75	1073.75
403.974	1100.75
404.198	1098.75
404.422	1091.75
404.645	1062.75
404.869	1042.75
405.093	1095.75
405.317	1018.75
405.541	1048.75
405.765	1060.75
405.988	1026.75
406.212	1038.75
406.436	1037.75
406.66	1050.75
406.883	1091.75
407.107	1131.75
407.331	1183.75
407.555	1240.75
407.778	1226.75
408.002	1185.75
408.226	1181.75
408.449	1134.75
408.673	1099.75
408.896	1072.75
409.12	1069.75
409.344	1119.75
409.567	1084.75
409.791	1086.75
410.014	1082.75
410.238	1048.75
410.461	1032.75
410.685	1044.75
410.908	1052.75
411.132	997.75
411.355	990.75
411.578	998.75
411.802	977.75
412.025	976.75
412.249	995.75
412.472	1002.75
412.695	936.75
412.919	972.75
413.142	951.75
413.365	940.75
413.589	979.75
413.812	936.75
414.035	945.75
414.258	950.75
414.482	931.75
414.705	938.75
414.928	933.75
415.151	947.75
415.374	957.75
415.597	953.75
415.821	939.75
416.044	937.75
416.267	907.75
416.49	908.75
416.713	912.75
416.936	939.75
417.159	917.75
417.382	913.75
417.605	924.75
417.828	935.75
418.051	930.75
418.274	928.75
418.497	946.75
418.72	964.75
418.943	940.75
419.166	1029.75
419.389	1082.75
419.611	1026.75
419.834	992.75
420.057	984.75
420.28	937.75
420.503	937.75
420.726	936.75
420.948	923.75
421.171	952.75
421.394	927.75
421.617	906.75
421.839	946.75
422.062	955.75
422.285	934.75
422.507	969.75
422.73	950.75
422.953	957.75
423.175	965.75
423.398	986.75
423.621	983.75
423.843	990.75
424.066	981.75
424.288	998.75
424.511	972.75
424.733	956.75
424.956	971.75
425.178	935.75
425.401	920.75
425.623	937.75
425.846	910.75
426.068	906.75
426.291	893.75
426.513	872.75
426.735	861.75
426.958	864.75
427.18	858.75
427.402	862.75
427.625	841.75
427.847	828.75
428.069	862.75
428.292	854.75
428.514	805.75
428.736	827.75
428.958	844.75
429.181	793.75
429.403	802.75
429.625	794.75
429.847	796.75
430.069	807.75
430.292	816.75
430.514	811.75
430.736	816.75
430.958	812.75
431.18	791.75
431.402	818.75
431.624	794.75
431.846	837.75
432.068	841.75
432.29	840.75
432.512	846.75
432.734	824.75
432.956	811.75
433.178	828.75
433.4	824.75
433.622	851.75
433.844	840.75
434.066	856.75
434.287	859.75
434.509	876.75
434.731	902.75
434.953	906.75
435.175	939.75
435.397	922.75
435.618	887.75
435.84	870.75
436.062	869.75
436.284	829.75
436.505	811.75
436.727	840.75
436.949	834.75
437.17	833.75
437.392	822.75
437.614	794.75
437.835	774.75
438.057	796.75
438.278	788.75
438.5	789.75
438.721	798.75
438.943	806.75
439.165	794.75
439.386	829.75
439.608	822.75
439.829	811.75
440.05	832.75
440.272	824.75
440.493	846.75
440.715	867.75
440.936	847.75
441.158	844.75
441.379	906.75
441.6	894.75
441.822	930.75
442.043	951.75
442.264	906.75
442.486	906.75
442.707	894.75
442.928	919.75
443.149	904.75
443.371	922.75
443.592	911.75
443.813	933.75
444.034	937.75
444.255	971.75
444.476	1010.75
444.698	1058.75
444.919	1086.75
445.14	1200.75
445.361	1045.75
445.582	940.75
445.803	916.75
446.024	896.75
446.245	877.75
446.466	864.75
446.687	847.75
446.908	861.75
447.129	834.75
447.35	793.75
447.571	834.75
447.792	794.75
448.013	744.75
448.234	782.75
448.455	773.75
448.675	758.75
448.896	754.75
449.117	752.75
449.338	732.75
449.559	736.75
449.779	741.75
450	780.75
450.221	756.75
450.442	783.75
450.662	774.75
450.883	748.75
451.104	786.75
451.324	778.75
451.545	754.75
451.766	770.75
451.986	758.75
452.207	778.75
452.428	772.75
452.648	766.75
452.869	741.75
453.089	754.75
453.31	779.75
453.53	733.75
453.751	747.75
453.971	740.75
454.192	740.75
454.412	730.75
454.633	729.75
454.853	713.75
455.073	696.75
455.294	705.75
455.514	730.75
455.734	713.75
455.955	678.75
456.175	693.75
456.395	719.75
456.616	700.75
456.836	725.75
457.056	731.75
457.276	698.75
457.497	712.75
457.717	682.75
457.937	715.75
458.157	737.75
458.377	724.75
458.598	760.75
458.818	782.75
459.038	765.75
459.258	820.75
459.478	808.75
459.698	850.75
459.918	886.75
460.138	932.75
460.358	964.75
460.578	976.75
460.798	986.75
461.018	993.75
461.238	984.75
461.458	988.75
461.678	952.75
461.898	995.75
462.118	978.75
462.338	1074.75
462.558	1058.75
462.777	1130.75
462.997	1195.75
463.217	1294.75
463.437	1300.75
463.657	1185.75
463.876	1146.75
464.096	1145.75
464.316	1134.75
464.536	1129.75
464.755	1095.75
464.975	1072.75
465.195	1030.75
465.414	971.75
465.634	892.75
465.854	857.75
466.073	842.75
466.293	836.75
466.512	809.75
466.732	796.75
466.951	816.75
467.171	795.75
467.391	794.75
467.61	773.75
467.829	759.75
468.049	792.75
468.268	780.75
468.488	758.75
468.707	752.75
468.927	772.75
469.146	762.75
469.365	757.75
469.585	740.75
469.804	790.75
470.023	825.75
470.243	804.75
470.462	850.75
470.681	836.75
470.901	825.75
471.12	809.75
471.339	807.75
471.558	800.75
471.777	778.75
471.997	775.75
472.216	754.75
472.435	747.75
472.654	746.75
472.873	722.75
473.092	752.75
473.311	745.75
473.53	765.75
473.749	744.75
473.968	752.75
474.187	718.75
474.406	749.75
474.625	762.75
474.844	758.75
475.063	758.75
475.282	743.75
475.501	752.75
475.72	771.75
475.939	778.75
476.158	784.75
476.377	760.75
476.596	761.75
476.814	773.75
477.033	779.75
477.252	794.75
477.471	813.75
477.69	837.75
477.908	840.75
478.127	897.75
478.346	890.75
478.564	916.75
478.783	910.75
479.002	929.75
479.22	904.75
479.439	931.75
479.658	912.75
479.876	938.75
480.095	939.75
480.313	955.75
480.532	996.75
480.751	990.75
480.969	939.75
481.188	939.75
481.406	906.75
481.624	884.75
481.843	884.75
482.061	845.75
482.28	851.75
482.498	865.75
482.717	824.75
482.935	866.75
483.153	854.75
483.372	849.75
483.59	852.75
483.808	884.75
484.027	849.75
484.245	854.75
484.463	870.75
484.681	862.75
484.9	866.75
485.118	876.75
485.336	878.75
485.554	886.75
485.772	920.75
485.99	893.75
486.209	923.75
486.427	918.75
486.645	927.75
486.863	892.75
487.081	904.75
487.299	893.75
487.517	888.75
487.735	895.75
487.953	912.75
488.171	914.75
488.389	893.75
488.607	902.75
488.825	875.75
489.043	865.75
489.261	905.75
489.479	876.75
489.696	870.75
489.914	898.75
490.132	885.75
490.35	902.75
490.568	905.75
490.786	900.75
491.003	883.75
491.221	886.75
491.439	881.75
491.657	916.75
491.874	928.75
492.092	914.75
492.31	940.75
492.527	914.75
492.745	939.75
492.963	944.75
493.18	937.75
493.398	927.75
493.615	936.75
493.833	929.75
494.05	937.75
494.268	973.75
494.485	917.75
494.703	956.75
494.92	976.75
495.138	962.75
495.355	968.75
495.573	974.75
495.79	962.75
496.008	983.75
496.225	983.75
496.442	956.75
496.66	1006.75
496.877	976.75
497.094	1052.75
497.312	1037.75
497.529	1088.75
497.746	1106.75
497.963	1115.75
498.181	1139.75
498.398	1210.75
498.615	1265.75
498.832	1361.75
499.049	1452.75
499.267	1594.75
499.484	1741.75
499.701	1924.75
499.918	2121.75
500.135	2418.75
500.352	2777.75
500.569	2888.75
500.786	2785.75
501.003	2648.75
501.22	2344.75
501.437	2137.75
501.654	1879.75
501.871	1729.75
502.088	1536.75
502.305	1441.75
502.522	1373.75
502.739	1337.75
502.956	1219.75
503.172	1214.75
503.389	1178.75
503.606	1115.75
503.823	1088.75
504.04	1091.75
504.256	1093.75
504.473	1121.75
504.69	1156.75
504.907	1127.75
505.123	1037.75
505.34	995.75
505.557	972.75
505.773	968.75
505.99	902.75
506.207	897.75
506.423	870.75
506.64	875.75
506.856	860.75
507.073	889.75
507.289	841.75
507.506	839.75
507.722	865.75
507.939	829.75
508.155	828.75
508.372	816.75
508.588	830.75
508.805	826.75
509.021	816.75
509.238	796.75
509.454	781.75
509.67	793.75
509.887	795.75
510.103	818.75
510.319	778.75
510.536	752.75
510.752	782.75
510.968	802.75
511.184	762.75
511.401	782.75
511.617	762.75
511.833	781.75
512.049	745.75
512.265	740.75
512.481	770.75
512.698	762.75
512.914	780.75
513.13	793.75
513.346	768.75
513.562	786.75
513.778	784.75
513.994	797.75
514.21	766.75
514.426	785.75
514.642	788.75
514.858	790.75
515.074	787.75
515.29	808.75
515.506	785.75
515.721	816.75
515.937	812.75
516.153	828.75
516.369	883.75
516.585	882.75
516.801	894.75
517.016	949.75
517.232	1022.75
517.448	1017.75
517.664	1032.75
517.879	1062.75
518.095	1063.75
518.311	1050.75
518.527	979.75
518.742	978.75
518.958	920.75
519.173	883.75
519.389	890.75
519.605	857.75
519.82	853.75
520.036	798.75
520.251	810.75
520.467	781.75
520.682	773.75
520.898	785.75
521.113	772.75
521.329	756.75
521.544	763.75
521.76	732.75
521.975	744.75
522.19	740.75
522.406	728.75
522.621	743.75
522.836	720.75
523.052	717.75
523.267	735.75
523.482	712.75
523.698	724.75
523.913	728.75
524.128	756.75
524.343	713.75
524.559	704.75
524.774	695.75
524.989	710.75
525.204	700.75
525.419	706.75
525.634	692.75
525.849	717.75
526.064	704.75
526.28	705.75
526.495	684.75
526.71	698.75
526.925	693.75
527.14	725.75
527.355	703.75
527.57	692.75
527.785	707.75
527.999	696.75
528.214	710.75
528.429	710.75
528.644	689.75
528.859	703.75
529.074	698.75
529.289	708.75
529.503	702.75
529.718	711.75
529.933	701.75
530.148	707.75
530.363	708.75
530.577	694.75
530.792	673.75
531.007	681.75
531.221	698.75
531.436	708.75
531.651	697.75
531.865	694.75
532.08	713.75
532.295	712.75
532.509	702.75
532.724	680.75
532.938	701.75
533.153	694.75
533.367	689.75
533.582	705.75
533.796	684.75
534.011	696.75
534.225	662.75
534.44	688.75
534.654	681.75
534.868	677.75
535.083	678.75
535.297	715.75
535.511	687.75
535.726	677.75
535.94	667.75
536.154	649.75
536.369	629.75
536.583	633.75
536.797	655.75
537.011	628.75
537.225	660.75
537.44	630.75
537.654	645.75
537.868	657.75
538.082	658.75
538.296	619.75
538.51	642.75
538.724	642.75
538.938	650.75
539.153	630.75
539.367	635.75
539.581	622.75
539.795	607.75
540.009	616.75
540.222	608.75
540.436	634.75
540.65	617.75
540.864	631.75
541.078	628.75
541.292	644.75
541.506	638.75
541.72	638.75
541.934	641.75
542.147	608.75
542.361	639.75
542.575	624.75
542.789	623.75
543.002	618.75
543.216	640.75
543.43	621.75
543.644	619.75
543.857	625.75
544.071	632.75
544.285	638.75
544.498	620.75
544.712	615.75
544.925	643.75
545.139	635.75
545.352	639.75
545.566	630.75
545.779	650.75
545.993	648.75
546.206	651.75
546.42	628.75
546.633	627.75
546.847	650.75
547.06	644.75
547.274	632.75
547.487	656.75
547.7	660.75
547.914	641.75
548.127	626.75
548.34	633.75
548.554	660.75
548.767	674.75
548.98	629.75
549.193	651.75
549.407	640.75
549.62	692.75
549.833	649.75
550.046	669.75
550.259	655.75
550.473	632.75
550.686	625.75
550.899	627.75
551.112	636.75
551.325	621.75
551.538	621.75
551.751	622.75
551.964	634.75
552.177	635.75
552.39	634.75
552.603	649.75
552.816	666.75
553.029	699.75
553.242	704.75
553.455	704.75
553.667	670.75
553.88	708.75
554.093	681.75
554.306	677.75
554.519	662.75
554.732	624.75
554.944	643.75
555.157	606.75
555.37	589.75
555.583	588.75
555.795	588.75
556.008	569.75
556.221	573.75
556.433	564.75
556.646	569.75
556.859	585.75
557.071	548.75
557.284	572.75
557.496	553.75
557.709	560.75
557.921	572.75
558.134	538.75
558.346	536.75
558.559	525.75
558.771	519.75
558.984	535.75
559.196	507.75
559.409	522.75
559.621	520.75
559.833	503.75
560.046	508.75
560.258	518.75
560.47	520.75
560.683	548.75
560.895	542.75
561.107	519.75
561.32	534.75
561.532	514.75
561.744	512.75
561.956	513.75
562.168	521.75
562.381	515.75
562.593	512.75
562.805	515.75
563.017	523.75
563.229	541.75
563.441	553.75
563.653	524.75
563.865	558.75
564.077	528.75
564.289	537.75
564.501	556.75
564.713	563.75
564.925	582.75
565.137	564.75
565.349	589.75
565.561	616.75
565.773	634.75
565.985	662.75
566.197	711.75
566.408	738.75
566.62	787.75
566.832	845.75
567.044	856.75
567.255	849.75
567.467	896.75
567.679	922.75
567.891	983.75
568.102	978.75
568.314	952.75
568.526	866.75
568.737	806.75
568.949	727.75
569.161	701.75
569.372	651.75
569.584	598.75
569.795	574.75
570.007	565.75
570.218	551.75
570.43	540.75
570.641	556.75
570.853	548.75
571.064	550.75
571.276	542.75
571.487	536.75
571.698	509.75
571.91	519.75
572.121	493.75
572.333	479.75
572.544	476.75
572.755	488.75
572.966	451.75
573.178	472.75
573.389	442.75
573.6	460.75
573.811	449.75
574.023	427.75
574.234	433.75
574.445	450.75
574.656	457.75
574.867	427.75
575.078	430.75
575.289	438.75
575.501	424.75
575.712	422.75
575.923	418.75
576.134	427.75
576.345	404.75
576.556	405.75
576.767	391.75
576.978	402.75
577.188	424.75
577.399	408.75
577.61	418.75
577.821	401.75
578.032	397.75
578.243	392.75
578.454	399.75
578.665	373.75
578.875	393.75
579.086	382.75
579.297	384.75
579.508	396.75
579.718	393.75
579.929	380.75
580.14	382.75
580.35	388.75
580.561	389.75
580.772	405.75
580.982	376.75
581.193	392.75
581.403	369.75
581.614	362.75
581.825	382.75
582.035	357.75
582.246	396.75
582.456	387.75
582.667	366.75
582.877	372.75
583.087	377.75
583.298	365.75
583.508	375.75
583.719	378.75
583.929	351.75
584.139	379.75
584.35	364.75
584.56	360.75
584.77	365.75
584.981	380.75
585.191	376.75
585.401	342.75
585.611	365.75
585.821	370.75
586.032	371.75
586.242	349.75
586.452	352.75
586.662	355.75
586.872	358.75
587.082	349.75
587.292	363.75
587.502	360.75
587.713	349.75
587.923	353.75
588.133	353.75
588.343	337.75
588.553	338.75
588.762	357.75
588.972	344.75
589.182	355.75
589.392	349.75
589.602	356.75
589.812	340.75
590.022	353.75
590.232	357.75
590.441	334.75
590.651	357.75
590.861	347.75
591.071	381.75
591.281	357.75
591.49	344.75
591.7	361.75
591.91	387.75
592.119	390.75
592.329	399.75
592.539	397.75
592.748	405.75
592.958	422.75
593.167	412.75
593.377	421.75
593.587	443.75
593.796	461.75
594.006	437.75
594.215	444.75
594.424	453.75
594.634	456.75
594.843	432.75
595.053	389.75
595.262	391.75
595.472	393.75
595.681	396.75
595.89	363.75
596.1	371.75
596.309	357.75
596.518	352.75
596.727	327.75
596.937	340.75
597.146	318.75
597.355	345.75
597.564	343.75
597.774	324.75
597.983	325.75
598.192	317.75
598.401	326.75
598.61	317.75
598.819	311.75
599.028	324.75
599.237	318.75
599.446	290.75
599.655	308.75
599.864	304.75
600.073	303.75
600.282	294.75
600.491	304.75
600.7	301.75
600.909	288.75
601.118	294.75
601.327	297.75
601.536	302.75
601.745	288.75
601.953	296.75
602.162	298.75
602.371	285.75
602.58	297.75
602.789	300.75
602.997	297.75
603.206	313.75
603.415	279.75
603.623	291.75
603.832	271.75
604.041	272.75
604.249	265.75
604.458	280.75
604.666	288.75
604.875	285.75
605.084	275.75
605.292	276.75
605.501	262.75
605.709	277.75
605.918	285.75
606.126	268.75
606.334	282.75
606.543	273.75
606.751	270.75
606.96	280.75
607.168	285.75
607.376	273.75
607.585	274.75
607.793	283.75
608.001	269.75
608.21	257.75
608.418	263.75
608.626	258.75
608.834	293.75
609.043	280.75
609.251	278.75
609.459	273.75
609.667	270.75
609.875	288.75
610.083	268.75
610.291	268.75
610.499	270.75
610.707	262.75
610.916	277.75
611.124	282.75
611.332	266.75
611.54	257.75
611.748	252.75
611.955	264.75
612.163	270.75
612.371	273.75
612.579	244.75
612.787	260.75
612.995	248.75
613.203	261.75
613.411	268.75
613.618	275.75
613.826	249.75
614.034	264.75
614.242	262.75
614.449	249.75
614.657	258.75
614.865	268.75
615.072	256.75
615.28	268.75
615.488	254.75
615.695	256.75
615.903	260.75
616.111	267.75
616.318	250.75
616.526	234.75
616.733	249.75
616.941	262.75
617.148	262.75
617.356	249.75
617.563	261.75
617.771	248.75
617.978	260.75
618.185	235.75
618.393	262.75
618.6	260.75
618.807	259.75
619.015	262.75
619.222	277.75
619.429	244.75
619.637	245.75
619.844	241.75
620.051	237.75
620.258	250.75
620.466	245.75
620.673	229.75
620.88	240.75
621.087	248.75
621.294	233.75
621.501	224.75
621.708	243.75
621.915	262.75
622.122	232.75
622.329	228.75
622.536	241.75
622.743	241.75
622.95	228.75
623.157	232.75
623.364	228.75
623.571	217.75
623.778	237.75
623.985	247.75
624.192	249.75
624.399	236.75
624.606	224.75
624.812	246.75
625.019	221.75
625.226	225.75
625.433	231.75
625.639	217.75
625.846	242.75
626.053	235.75
626.259	220.75
626.466	211.75
626.673	221.75
626.879	233.75
627.086	226.75
627.293	235.75
627.499	224.75
627.706	216.75
627.912	222.75
628.119	230.75
628.325	215.75
628.532	221.75
628.738	217.75
628.945	208.75
629.151	210.75
629.357	205.75
629.564	216.75
629.77	192.75
629.976	218.75
630.183	223.75
630.389	211.75
630.595	220.75
630.802	199.75
631.008	216.75
631.214	213.75
631.42	201.75
631.627	216.75
631.833	206.75
632.039	196.75
632.245	188.75
632.451	209.75
632.657	204.75
632.863	191.75
633.069	197.75
633.275	220.75
633.481	185.75
633.688	188.75
633.893	204.75
634.099	200.75
634.305	194.75
634.511	210.75
634.717	211.75
634.923	211.75
635.129	209.75
635.335	197.75
635.541	193.75
635.747	220.75
635.952	187.75
636.158	194.75
636.364	201.75
636.57	192.75
636.775	199.75
636.981	182.75
637.187	182.75
637.392	190.75
637.598	183.75
637.804	193.75
638.009	190.75
638.215	201.75
638.421	191.75
638.626	210.75
638.832	184.75
639.037	190.75
639.243	185.75
639.448	185.75
639.654	198.75
639.859	183.75
640.065	172.75
640.27	190.75
640.475	181.75
640.681	173.75
640.886	188.75
641.091	186.75
641.297	189.75
641.502	180.75
641.707	181.75
641.913	173.75
642.118	204.75
642.323	180.75
642.528	186.75
642.733	174.75
642.939	156.75
643.144	177.75
643.349	181.75
643.554	188.75
643.759	170.75
643.964	179.75
644.169	175.75
644.374	177.75
644.579	171.75
644.784	171.75
644.989	173.75
645.194	172.75
645.399	186.75
645.604	180.75
645.809	171.75
646.014	168.75
646.219	178.75
646.423	166.75
646.628	178.75
646.833	173.75
647.038	183.75
647.243	180.75
647.447	180.75
647.652	174.75
647.857	184.75
648.062	178.75
648.266	185.75
648.471	188.75
648.676	187.75
648.88	172.75
649.085	174.75
649.289	162.75
649.494	172.75
649.698	168.75
649.903	166.75
650.107	165.75
650.312	173.75
650.516	157.75
650.721	172.75
650.925	156.75
651.13	149.75
651.334	157.75
651.539	154.75
651.743	160.75
651.947	164.75
652.152	135.75
652.356	166.75
652.56	150.75
652.764	141.75
652.969	140.75
653.173	143.75
653.377	126.75
653.581	121.75
653.785	131.75
653.99	137.75
654.194	134.75
654.398	148.75
654.602	139.75
654.806	141.75
655.01	152.75
655.214	137.75
655.418	117.75
655.622	136.75
655.826	122.75
656.03	108.75
656.234	128.75
656.438	134.75
656.642	122.75
656.846	114.75
657.049	114.75
657.253	117.75
657.457	124.75
657.661	120.75
657.865	117.75
658.068	107.75
658.272	110.75
658.476	114.75
658.68	97.75
658.883	100.75
659.087	109.75
659.291	95.75
659.494	95.75
659.698	96.75
659.901	94.75
660.105	78.75
660.309	102.75
660.512	108.75
660.716	93.75
660.919	102.75
661.123	94.75
661.326	76.75
661.53	86.75
661.733	84.75
661.936	91.75
662.14	88.75
662.343	82.75
662.546	73.75
662.75	82.75
662.953	88.75
663.156	84.75
663.36	86.75
663.563	94.75
663.766	93.75
663.969	85.75
664.173	70.75
664.376	92.75
664.579	69.75
664.782	64.75
664.985	89.75
665.188	76.75
665.391	86.75
665.594	80.75
665.797	78.75
666	82.75
666.203	91.75
666.406	76.75
666.609	78.75
666.812	69.75
667.015	96.75
667.218	93.75
667.421	89.75
667.624	75.75
667.827	89.75
668.03	79.75
668.232	91.75
668.435	79.75
668.638	79.75
668.841	79.75
669.043	77.75
669.246	84.75
669.449	69.75
669.651	81.75
669.854	94.75
670.057	77.75
670.259	84.75
670.462	78.75
670.665	92.75
670.867	81.75
671.07	88.75
671.272	79.75
671.475	78.75
671.677	75.75
671.88	83.75
672.082	89.75
672.284	85.75
672.487	75.75
672.689	97.75
672.892	78.75
