Data from NiCl2@0.125M.TitratingCurve.Agarose3%dH2O.NegLispCup.LampEnergy10.LIBS07252019_HRD10591_18-28-18-574.txt Node
Date: Thu Jul 25 18:28:18 EDT 2019
User: cochatt
Spectrometer: HR+D1059
Trigger mode: 1
Integration Time (sec): 1.000000E-1
Scans to average: 1
Electric dark correction enabled: true
Nonlinearity correction enabled: false
Boxcar width: 0
XAxis mode: Wavelengths
Number of Pixels in Spectrum: 2048
>>>>>Begin Spectral Data<<<<<
223.165	-16.5
223.4	-16.5
223.635	-16.5
223.869	-10.5
224.104	-16.5
224.338	-16.5
224.573	-8.5
224.808	-21.5
225.042	-14.5
225.277	-10.5
225.511	-0.5
225.746	4.5
225.98	6.5
226.215	4.5
226.449	18.5
226.683	27.5
226.918	24.5
227.152	29.5
227.387	32.5
227.621	40.5
227.856	41.5
228.09	53.5
228.324	65.5
228.559	68.5
228.793	84.5
229.027	93.5
229.262	117.5
229.496	113.5
229.73	108.5
229.964	109.5
230.199	120.5
230.433	106.5
230.667	114.5
230.901	129.5
231.136	122.5
231.37	147.5
231.604	134.5
231.838	143.5
232.072	150.5
232.306	152.5
232.541	151.5
232.775	145.5
233.009	137.5
233.243	146.5
233.477	158.5
233.711	161.5
233.945	151.5
234.179	149.5
234.413	154.5
234.647	151.5
234.881	139.5
235.115	140.5
235.349	148.5
235.583	158.5
235.817	154.5
236.051	164.5
236.285	159.5
236.519	155.5
236.753	136.5
236.987	147.5
237.221	158.5
237.455	146.5
237.689	163.5
237.922	163.5
238.156	157.5
238.39	147.5
238.624	153.5
238.858	177.5
239.091	170.5
239.325	163.5
239.559	178.5
239.793	179.5
240.027	175.5
240.26	171.5
240.494	169.5
240.728	179.5
240.961	198.5
241.195	186.5
241.429	181.5
241.662	188.5
241.896	182.5
242.13	207.5
242.363	188.5
242.597	175.5
242.83	194.5
243.064	192.5
243.298	210.5
243.531	189.5
243.765	186.5
243.998	218.5
244.232	192.5
244.465	209.5
244.699	205.5
244.932	221.5
245.166	202.5
245.399	210.5
245.633	215.5
245.866	219.5
246.099	203.5
246.333	224.5
246.566	229.5
246.8	207.5
247.033	227.5
247.266	229.5
247.5	221.5
247.733	232.5
247.966	242.5
248.2	234.5
248.433	234.5
248.666	232.5
248.899	229.5
249.133	242.5
249.366	254.5
249.599	237.5
249.832	240.5
250.066	248.5
250.299	254.5
250.532	230.5
250.765	254.5
250.998	246.5
251.231	257.5
251.465	272.5
251.698	254.5
251.931	252.5
252.164	260.5
252.397	274.5
252.63	275.5
252.863	257.5
253.096	264.5
253.329	272.5
253.562	268.5
253.795	277.5
254.028	278.5
254.261	283.5
254.494	276.5
254.727	280.5
254.96	267.5
255.193	273.5
255.426	273.5
255.659	265.5
255.892	288.5
256.124	282.5
256.357	292.5
256.59	281.5
256.823	270.5
257.056	283.5
257.289	287.5
257.521	299.5
257.754	289.5
257.987	278.5
258.22	305.5
258.452	285.5
258.685	309.5
258.918	295.5
259.151	302.5
259.383	304.5
259.616	319.5
259.849	299.5
260.081	313.5
260.314	303.5
260.547	312.5
260.779	311.5
261.012	318.5
261.244	322.5
261.477	336.5
261.71	317.5
261.942	324.5
262.175	327.5
262.407	315.5
262.64	323.5
262.872	326.5
263.105	330.5
263.337	339.5
263.57	351.5
263.802	340.5
264.035	322.5
264.267	345.5
264.499	337.5
264.732	338.5
264.964	342.5
265.197	338.5
265.429	350.5
265.661	336.5
265.894	371.5
266.126	347.5
266.358	352.5
266.591	343.5
266.823	360.5
267.055	338.5
267.287	347.5
267.52	366.5
267.752	374.5
267.984	356.5
268.216	358.5
268.448	366.5
268.681	384.5
268.913	365.5
269.145	363.5
269.377	386.5
269.609	372.5
269.841	376.5
270.073	364.5
270.306	372.5
270.538	372.5
270.77	375.5
271.002	393.5
271.234	355.5
271.466	377.5
271.698	351.5
271.93	386.5
272.162	384.5
272.394	380.5
272.626	380.5
272.858	386.5
273.09	413.5
273.322	411.5
273.553	373.5
273.785	374.5
274.017	396.5
274.249	404.5
274.481	398.5
274.713	375.5
274.945	413.5
275.176	402.5
275.408	422.5
275.64	406.5
275.872	401.5
276.104	415.5
276.335	422.5
276.567	415.5
276.799	404.5
277.031	419.5
277.262	415.5
277.494	425.5
277.726	412.5
277.957	426.5
278.189	432.5
278.421	420.5
278.652	440.5
278.884	424.5
279.115	424.5
279.347	444.5
279.579	433.5
279.81	435.5
280.042	453.5
280.273	446.5
280.505	443.5
280.736	459.5
280.968	450.5
281.199	454.5
281.431	452.5
281.662	457.5
281.894	465.5
282.125	448.5
282.356	470.5
282.588	470.5
282.819	461.5
283.051	458.5
283.282	460.5
283.513	465.5
283.745	457.5
283.976	476.5
284.207	475.5
284.439	474.5
284.67	496.5
284.901	463.5
285.132	477.5
285.364	475.5
285.595	488.5
285.826	468.5
286.057	469.5
286.288	464.5
286.52	482.5
286.751	486.5
286.982	467.5
287.213	485.5
287.444	494.5
287.675	482.5
287.906	482.5
288.138	502.5
288.369	498.5
288.6	515.5
288.831	507.5
289.062	502.5
289.293	521.5
289.524	482.5
289.755	512.5
289.986	507.5
290.217	481.5
290.448	506.5
290.679	496.5
290.91	507.5
291.141	529.5
291.371	519.5
291.602	520.5
291.833	510.5
292.064	521.5
292.295	534.5
292.526	482.5
292.757	512.5
292.987	522.5
293.218	496.5
293.449	527.5
293.68	537.5
293.91	510.5
294.141	512.5
294.372	512.5
294.603	523.5
294.833	537.5
295.064	525.5
295.295	512.5
295.525	523.5
295.756	532.5
295.987	539.5
296.217	536.5
296.448	535.5
296.679	529.5
296.909	502.5
297.14	536.5
297.37	576.5
297.601	568.5
297.831	548.5
298.062	534.5
298.292	571.5
298.523	563.5
298.753	580.5
298.984	579.5
299.214	555.5
299.445	553.5
299.675	547.5
299.905	545.5
300.136	576.5
300.366	569.5
300.597	568.5
300.827	594.5
301.057	590.5
301.288	571.5
301.518	612.5
301.748	599.5
301.979	606.5
302.209	587.5
302.439	596.5
302.669	596.5
302.9	562.5
303.13	582.5
303.36	575.5
303.59	579.5
303.82	596.5
304.051	592.5
304.281	563.5
304.511	587.5
304.741	579.5
304.971	564.5
305.201	569.5
305.431	593.5
305.661	591.5
305.891	574.5
306.121	586.5
306.352	577.5
306.582	588.5
306.812	570.5
307.042	576.5
307.272	575.5
307.502	594.5
307.731	556.5
307.961	572.5
308.191	582.5
308.421	594.5
308.651	562.5
308.881	589.5
309.111	544.5
309.341	544.5
309.571	585.5
309.8	582.5
310.03	566.5
310.26	601.5
310.49	571.5
310.72	568.5
310.949	573.5
311.179	584.5
311.409	568.5
311.639	559.5
311.868	593.5
312.098	573.5
312.328	593.5
312.557	593.5
312.787	592.5
313.017	593.5
313.246	592.5
313.476	617.5
313.706	609.5
313.935	623.5
314.165	633.5
314.394	595.5
314.624	619.5
314.853	609.5
315.083	619.5
315.312	606.5
315.542	605.5
315.771	600.5
316.001	603.5
316.23	603.5
316.46	586.5
316.689	621.5
316.919	595.5
317.148	608.5
317.377	602.5
317.607	588.5
317.836	592.5
318.065	601.5
318.295	597.5
318.524	608.5
318.753	614.5
318.983	592.5
319.212	592.5
319.441	600.5
319.67	613.5
319.9	603.5
320.129	585.5
320.358	589.5
320.587	587.5
320.816	603.5
321.046	612.5
321.275	595.5
321.504	617.5
321.733	611.5
321.962	596.5
322.191	602.5
322.42	613.5
322.649	622.5
322.878	596.5
323.108	592.5
323.337	621.5
323.566	604.5
323.795	619.5
324.024	639.5
324.253	598.5
324.482	610.5
324.71	619.5
324.939	619.5
325.168	629.5
325.397	630.5
325.626	620.5
325.855	594.5
326.084	636.5
326.313	688.5
326.542	670.5
326.77	674.5
326.999	644.5
327.228	625.5
327.457	640.5
327.686	637.5
327.914	644.5
328.143	662.5
328.372	660.5
328.6	650.5
328.829	654.5
329.058	664.5
329.287	637.5
329.515	666.5
329.744	662.5
329.972	668.5
330.201	668.5
330.43	651.5
330.658	687.5
330.887	654.5
331.115	690.5
331.344	679.5
331.572	698.5
331.801	713.5
332.03	707.5
332.258	750.5
332.486	743.5
332.715	767.5
332.943	790.5
333.172	820.5
333.4	850.5
333.629	869.5
333.857	899.5
334.085	864.5
334.314	859.5
334.542	861.5
334.771	869.5
334.999	841.5
335.227	820.5
335.455	834.5
335.684	797.5
335.912	817.5
336.14	815.5
336.369	792.5
336.597	804.5
336.825	790.5
337.053	810.5
337.281	769.5
337.51	752.5
337.738	738.5
337.966	706.5
338.194	725.5
338.422	742.5
338.65	733.5
338.878	730.5
339.106	716.5
339.334	720.5
339.562	700.5
339.79	695.5
340.018	689.5
340.246	688.5
340.474	670.5
340.702	686.5
340.93	683.5
341.158	700.5
341.386	676.5
341.614	702.5
341.842	708.5
342.07	667.5
342.298	685.5
342.526	672.5
342.754	690.5
342.981	680.5
343.209	705.5
343.437	715.5
343.665	800.5
343.893	851.5
344.12	851.5
344.348	839.5
344.576	808.5
344.804	759.5
345.031	720.5
345.259	694.5
345.487	698.5
345.714	696.5
345.942	681.5
346.17	672.5
346.397	670.5
346.625	684.5
346.853	654.5
347.08	686.5
347.308	659.5
347.535	680.5
347.763	701.5
347.99	688.5
348.218	711.5
348.445	665.5
348.673	678.5
348.9	678.5
349.128	669.5
349.355	662.5
349.583	667.5
349.81	668.5
350.037	661.5
350.265	665.5
350.492	656.5
350.72	639.5
350.947	642.5
351.174	653.5
351.402	671.5
351.629	688.5
351.856	662.5
352.083	663.5
352.311	644.5
352.538	649.5
352.765	664.5
352.992	659.5
353.22	637.5
353.447	634.5
353.674	630.5
353.901	659.5
354.128	644.5
354.355	653.5
354.583	657.5
354.81	630.5
355.037	645.5
355.264	635.5
355.491	651.5
355.718	635.5
355.945	640.5
356.172	680.5
356.399	647.5
356.626	664.5
356.853	672.5
357.08	650.5
357.307	624.5
357.534	647.5
357.761	642.5
357.988	650.5
358.215	648.5
358.441	644.5
358.668	630.5
358.895	634.5
359.122	638.5
359.349	641.5
359.576	653.5
359.802	654.5
360.029	613.5
360.256	660.5
360.483	626.5
360.709	669.5
360.936	666.5
361.163	670.5
361.39	640.5
361.616	661.5
361.843	671.5
362.07	664.5
362.296	652.5
362.523	636.5
362.749	615.5
362.976	634.5
363.203	626.5
363.429	631.5
363.656	634.5
363.882	660.5
364.109	649.5
364.335	646.5
364.562	659.5
364.788	638.5
365.015	647.5
365.241	650.5
365.468	610.5
365.694	631.5
365.92	649.5
366.147	626.5
366.373	647.5
366.599	643.5
366.826	641.5
367.052	624.5
367.278	634.5
367.505	645.5
367.731	662.5
367.957	646.5
368.184	626.5
368.41	666.5
368.636	664.5
368.862	665.5
369.089	666.5
369.315	658.5
369.541	665.5
369.767	668.5
369.993	692.5
370.219	677.5
370.445	686.5
370.672	702.5
370.898	674.5
371.124	697.5
371.35	700.5
371.576	700.5
371.802	715.5
372.028	679.5
372.254	681.5
372.48	688.5
372.706	729.5
372.932	740.5
373.158	728.5
373.384	712.5
373.61	710.5
373.835	689.5
374.061	714.5
374.287	716.5
374.513	698.5
374.739	732.5
374.965	737.5
375.191	780.5
375.416	783.5
375.642	774.5
375.868	743.5
376.094	702.5
376.319	712.5
376.545	712.5
376.771	688.5
376.997	680.5
377.222	705.5
377.448	714.5
377.674	714.5
377.899	699.5
378.125	692.5
378.35	670.5
378.576	679.5
378.802	688.5
379.027	688.5
379.253	711.5
379.478	704.5
379.704	690.5
379.929	701.5
380.155	713.5
380.38	674.5
380.606	702.5
380.831	695.5
381.057	698.5
381.282	694.5
381.507	703.5
381.733	707.5
381.958	710.5
382.184	712.5
382.409	732.5
382.634	740.5
382.86	738.5
383.085	759.5
383.31	752.5
383.535	785.5
383.761	769.5
383.986	788.5
384.211	802.5
384.436	794.5
384.662	834.5
384.887	869.5
385.112	860.5
385.337	846.5
385.562	847.5
385.787	868.5
386.013	855.5
386.238	848.5
386.463	845.5
386.688	855.5
386.913	844.5
387.138	828.5
387.363	835.5
387.588	822.5
387.813	864.5
388.038	834.5
388.263	853.5
388.488	850.5
388.713	854.5
388.938	843.5
389.163	861.5
389.387	838.5
389.612	814.5
389.837	849.5
390.062	841.5
390.287	838.5
390.512	832.5
390.736	838.5
390.961	847.5
391.186	880.5
391.411	886.5
391.636	901.5
391.86	919.5
392.085	916.5
392.31	965.5
392.534	902.5
392.759	892.5
392.984	892.5
393.208	872.5
393.433	878.5
393.658	902.5
393.882	898.5
394.107	915.5
394.331	900.5
394.556	920.5
394.78	922.5
395.005	911.5
395.229	920.5
395.454	953.5
395.678	956.5
395.903	948.5
396.127	963.5
396.352	890.5
396.576	898.5
396.801	890.5
397.025	935.5
397.249	927.5
397.474	936.5
397.698	936.5
397.922	948.5
398.147	947.5
398.371	953.5
398.595	1015.5
398.82	1060.5
399.044	1135.5
399.268	1223.5
399.492	1390.5
399.717	1568.5
399.941	1636.5
400.165	1456.5
400.389	1302.5
400.613	1210.5
400.837	1145.5
401.062	1061.5
401.286	1058.5
401.51	1058.5
401.734	1058.5
401.958	1071.5
402.182	1078.5
402.406	1063.5
402.63	1079.5
402.854	1137.5
403.078	1161.5
403.302	1155.5
403.526	1175.5
403.75	1187.5
403.974	1194.5
404.198	1215.5
404.422	1218.5
404.645	1193.5
404.869	1193.5
405.093	1190.5
405.317	1159.5
405.541	1199.5
405.765	1153.5
405.988	1160.5
406.212	1165.5
406.436	1152.5
406.66	1214.5
406.883	1204.5
407.107	1232.5
407.331	1335.5
407.555	1386.5
407.778	1355.5
408.002	1335.5
408.226	1315.5
408.449	1267.5
408.673	1209.5
408.896	1224.5
409.12	1204.5
409.344	1220.5
409.567	1183.5
409.791	1221.5
410.014	1206.5
410.238	1195.5
410.461	1180.5
410.685	1165.5
410.908	1168.5
411.132	1168.5
411.355	1111.5
411.578	1120.5
411.802	1088.5
412.025	1136.5
412.249	1119.5
412.472	1135.5
412.695	1075.5
412.919	1014.5
413.142	1080.5
413.365	1072.5
413.589	1080.5
413.812	1065.5
414.035	1054.5
414.258	1039.5
414.482	1069.5
414.705	1087.5
414.928	1077.5
415.151	1082.5
415.374	1051.5
415.597	1047.5
415.821	1041.5
416.044	1022.5
416.267	1044.5
416.49	1035.5
416.713	1022.5
416.936	1040.5
417.159	1055.5
417.382	1055.5
417.605	1032.5
417.828	1052.5
418.051	1031.5
418.274	1056.5
418.497	1018.5
418.72	1084.5
418.943	1049.5
419.166	1165.5
419.389	1216.5
419.611	1216.5
419.834	1142.5
420.057	1112.5
420.28	1063.5
420.503	1052.5
420.726	1022.5
420.948	1033.5
421.171	1032.5
421.394	1039.5
421.617	1044.5
421.839	1055.5
422.062	1026.5
422.285	1028.5
422.507	1081.5
422.73	1091.5
422.953	1090.5
423.175	1073.5
423.398	1091.5
423.621	1092.5
423.843	1110.5
424.066	1120.5
424.288	1117.5
424.511	1093.5
424.733	1101.5
424.956	1089.5
425.178	1083.5
425.401	1059.5
425.623	1007.5
425.846	1028.5
426.068	1031.5
426.291	1025.5
426.513	1024.5
426.735	1011.5
426.958	1007.5
427.18	974.5
427.402	985.5
427.625	994.5
427.847	949.5
428.069	967.5
428.292	962.5
428.514	948.5
428.736	955.5
428.958	945.5
429.181	928.5
429.403	915.5
429.625	891.5
429.847	908.5
430.069	939.5
430.292	931.5
430.514	915.5
430.736	894.5
430.958	927.5
431.18	909.5
431.402	921.5
431.624	940.5
431.846	945.5
432.068	948.5
432.29	971.5
432.512	968.5
432.734	955.5
432.956	924.5
433.178	982.5
433.4	946.5
433.622	944.5
433.844	978.5
434.066	983.5
434.287	973.5
434.509	994.5
434.731	1060.5
434.953	1044.5
435.175	1058.5
435.397	1090.5
435.618	1024.5
435.84	984.5
436.062	978.5
436.284	969.5
436.505	963.5
436.727	974.5
436.949	940.5
437.17	952.5
437.392	960.5
437.614	949.5
437.835	910.5
438.057	916.5
438.278	912.5
438.5	899.5
438.721	936.5
438.943	919.5
439.165	929.5
439.386	914.5
439.608	929.5
439.829	954.5
440.05	961.5
440.272	943.5
440.493	955.5
440.715	983.5
440.936	972.5
441.158	1014.5
441.379	1031.5
441.6	1070.5
441.822	1072.5
442.043	1092.5
442.264	1053.5
442.486	1053.5
442.707	1047.5
442.928	1044.5
443.149	1040.5
443.371	1037.5
443.592	1016.5
443.813	1080.5
444.034	1056.5
444.255	1120.5
444.476	1168.5
444.698	1222.5
444.919	1271.5
445.14	1371.5
445.361	1214.5
445.582	1152.5
445.803	1059.5
446.024	1045.5
446.245	1026.5
446.466	1027.5
446.687	976.5
446.908	978.5
447.129	952.5
447.35	923.5
447.571	923.5
447.792	929.5
448.013	945.5
448.234	900.5
448.455	880.5
448.675	912.5
448.896	896.5
449.117	873.5
449.338	882.5
449.559	886.5
449.779	891.5
450	869.5
450.221	874.5
450.442	847.5
450.662	884.5
450.883	896.5
451.104	914.5
451.324	911.5
451.545	891.5
451.766	930.5
451.986	888.5
452.207	892.5
452.428	876.5
452.648	882.5
452.869	843.5
453.089	845.5
453.31	885.5
453.53	836.5
453.751	858.5
453.971	852.5
454.192	856.5
454.412	826.5
454.633	826.5
454.853	837.5
455.073	833.5
455.294	831.5
455.514	836.5
455.734	817.5
455.955	816.5
456.175	846.5
456.395	841.5
456.616	799.5
456.836	840.5
457.056	818.5
457.276	803.5
457.497	839.5
457.717	835.5
457.937	867.5
458.157	831.5
458.377	832.5
458.598	859.5
458.818	872.5
459.038	887.5
459.258	917.5
459.478	978.5
459.698	988.5
459.918	1025.5
460.138	1055.5
460.358	1128.5
460.578	1107.5
460.798	1141.5
461.018	1154.5
461.238	1152.5
461.458	1115.5
461.678	1137.5
461.898	1154.5
462.118	1152.5
462.338	1242.5
462.558	1238.5
462.777	1273.5
462.997	1383.5
463.217	1478.5
463.437	1519.5
463.657	1420.5
463.876	1325.5
464.096	1315.5
464.316	1306.5
464.536	1328.5
464.755	1239.5
464.975	1217.5
465.195	1184.5
465.414	1102.5
465.634	1032.5
465.854	989.5
466.073	1001.5
466.293	996.5
466.512	961.5
466.732	910.5
466.951	931.5
467.171	969.5
467.391	946.5
467.61	923.5
467.829	927.5
468.049	909.5
468.268	912.5
468.488	902.5
468.707	890.5
468.927	905.5
469.146	878.5
469.365	910.5
469.585	919.5
469.804	948.5
470.023	937.5
470.243	937.5
470.462	964.5
470.681	947.5
470.901	950.5
471.12	935.5
471.339	950.5
471.558	910.5
471.777	922.5
471.997	887.5
472.216	870.5
472.435	875.5
472.654	851.5
472.873	878.5
473.092	862.5
473.311	871.5
473.53	855.5
473.749	871.5
473.968	883.5
474.187	871.5
474.406	883.5
474.625	870.5
474.844	862.5
475.063	885.5
475.282	902.5
475.501	870.5
475.72	880.5
475.939	878.5
476.158	891.5
476.377	913.5
476.596	894.5
476.814	920.5
477.033	938.5
477.252	953.5
477.471	974.5
477.69	983.5
477.908	988.5
478.127	1040.5
478.346	1045.5
478.564	1047.5
478.783	1058.5
479.002	1091.5
479.22	1100.5
479.439	1095.5
479.658	1050.5
479.876	1063.5
480.095	1077.5
480.313	1125.5
480.532	1146.5
480.751	1176.5
480.969	1085.5
481.188	1070.5
481.406	1093.5
481.624	1010.5
481.843	1038.5
482.061	998.5
482.28	1003.5
482.498	1010.5
482.717	993.5
482.935	975.5
483.153	1019.5
483.372	1028.5
483.59	1014.5
483.808	1027.5
484.027	1020.5
484.245	1015.5
484.463	1009.5
484.681	1036.5
484.9	1019.5
485.118	1032.5
485.336	1035.5
485.554	1059.5
485.772	1082.5
485.99	1062.5
486.209	1063.5
486.427	1091.5
486.645	1038.5
486.863	1091.5
487.081	1067.5
487.299	1061.5
487.517	1069.5
487.735	1040.5
487.953	1042.5
488.171	1043.5
488.389	1033.5
488.607	1060.5
488.825	1030.5
489.043	1055.5
489.261	1051.5
489.479	1061.5
489.696	1012.5
489.914	1049.5
490.132	1060.5
490.35	1056.5
490.568	1043.5
490.786	1035.5
491.003	1057.5
491.221	1051.5
491.439	1085.5
491.657	1084.5
491.874	1048.5
492.092	1056.5
492.31	1074.5
492.527	1064.5
492.745	1089.5
492.963	1096.5
493.18	1097.5
493.398	1078.5
493.615	1047.5
493.833	1096.5
494.05	1095.5
494.268	1127.5
494.485	1131.5
494.703	1119.5
494.92	1157.5
495.138	1121.5
495.355	1102.5
495.573	1123.5
495.79	1123.5
496.008	1105.5
496.225	1141.5
496.442	1152.5
496.66	1159.5
496.877	1157.5
497.094	1185.5
497.312	1212.5
497.529	1200.5
497.746	1249.5
497.963	1281.5
498.181	1374.5
498.398	1395.5
498.615	1495.5
498.832	1568.5
499.049	1724.5
499.267	1819.5
499.484	1984.5
499.701	2198.5
499.918	2427.5
500.135	2738.5
500.352	3044.5
500.569	3251.5
500.786	3182.5
501.003	2976.5
501.22	2721.5
501.437	2415.5
501.654	2139.5
501.871	1960.5
502.088	1797.5
502.305	1667.5
502.522	1606.5
502.739	1575.5
502.956	1484.5
503.172	1354.5
503.389	1349.5
503.606	1296.5
503.823	1285.5
504.04	1271.5
504.256	1292.5
504.473	1317.5
504.69	1326.5
504.907	1294.5
505.123	1230.5
505.34	1165.5
505.557	1099.5
505.773	1061.5
505.99	1077.5
506.207	1065.5
506.423	1013.5
506.64	1014.5
506.856	1013.5
507.073	1014.5
507.289	1003.5
507.506	1002.5
507.722	988.5
507.939	975.5
508.155	960.5
508.372	956.5
508.588	923.5
508.805	956.5
509.021	937.5
509.238	921.5
509.454	918.5
509.67	931.5
509.887	899.5
510.103	939.5
510.319	908.5
510.536	944.5
510.752	918.5
510.968	893.5
511.184	908.5
511.401	898.5
511.617	905.5
511.833	854.5
512.049	894.5
512.265	882.5
512.481	908.5
512.698	891.5
512.914	928.5
513.13	917.5
513.346	882.5
513.562	912.5
513.778	890.5
513.994	891.5
514.21	912.5
514.426	898.5
514.642	903.5
514.858	886.5
515.074	946.5
515.29	907.5
515.506	930.5
515.721	958.5
515.937	990.5
516.153	951.5
516.369	990.5
516.585	1020.5
516.801	1028.5
517.016	1082.5
517.232	1161.5
517.448	1154.5
517.664	1233.5
517.879	1239.5
518.095	1258.5
518.311	1212.5
518.527	1180.5
518.742	1136.5
518.958	1077.5
519.173	1052.5
519.389	988.5
519.605	988.5
519.82	951.5
520.036	958.5
520.251	917.5
520.467	939.5
520.682	922.5
520.898	912.5
521.113	883.5
521.329	859.5
521.544	877.5
521.76	889.5
521.975	882.5
522.19	874.5
522.406	873.5
522.621	871.5
522.836	848.5
523.052	831.5
523.267	850.5
523.482	846.5
523.698	852.5
523.913	822.5
524.128	868.5
524.343	851.5
524.559	827.5
524.774	811.5
524.989	855.5
525.204	837.5
525.419	819.5
525.634	809.5
525.849	818.5
526.064	814.5
526.28	822.5
526.495	817.5
526.71	795.5
526.925	834.5
527.14	840.5
527.355	814.5
527.57	801.5
527.785	802.5
527.999	802.5
528.214	802.5
528.429	805.5
528.644	831.5
528.859	798.5
529.074	820.5
529.289	798.5
529.503	807.5
529.718	827.5
529.933	811.5
530.148	805.5
530.363	859.5
530.577	822.5
530.792	806.5
531.007	831.5
531.221	833.5
531.436	797.5
531.651	799.5
531.865	811.5
532.08	804.5
532.295	801.5
532.509	818.5
532.724	802.5
532.938	803.5
533.153	795.5
533.367	807.5
533.582	833.5
533.796	816.5
534.011	785.5
534.225	794.5
534.44	786.5
534.654	795.5
534.868	800.5
535.083	817.5
535.297	795.5
535.511	776.5
535.726	795.5
535.94	806.5
536.154	802.5
536.369	778.5
536.583	754.5
536.797	752.5
537.011	764.5
537.225	758.5
537.44	760.5
537.654	745.5
537.868	762.5
538.082	753.5
538.296	739.5
538.51	750.5
538.724	736.5
538.938	701.5
539.153	738.5
539.367	744.5
539.581	707.5
539.795	728.5
540.009	710.5
540.222	721.5
540.436	746.5
540.65	722.5
540.864	728.5
541.078	733.5
541.292	751.5
541.506	711.5
541.72	709.5
541.934	739.5
542.147	735.5
542.361	747.5
542.575	754.5
542.789	704.5
543.002	739.5
543.216	691.5
543.43	718.5
543.644	712.5
543.857	713.5
544.071	720.5
544.285	727.5
544.498	727.5
544.712	719.5
544.925	749.5
545.139	760.5
545.352	724.5
545.566	743.5
545.779	777.5
545.993	770.5
546.206	758.5
546.42	759.5
546.633	754.5
546.847	736.5
547.06	744.5
547.274	738.5
547.487	739.5
547.7	764.5
547.914	760.5
548.127	738.5
548.34	730.5
548.554	770.5
548.767	764.5
548.98	762.5
549.193	748.5
549.407	755.5
549.62	772.5
549.833	777.5
550.046	770.5
550.259	778.5
550.473	739.5
550.686	755.5
550.899	730.5
551.112	731.5
551.325	716.5
551.538	730.5
551.751	719.5
551.964	727.5
552.177	745.5
552.39	771.5
552.603	768.5
552.816	791.5
553.029	803.5
553.242	812.5
553.455	806.5
553.667	812.5
553.88	802.5
554.093	780.5
554.306	739.5
554.519	768.5
554.732	756.5
554.944	730.5
555.157	720.5
555.37	707.5
555.583	710.5
555.795	680.5
556.008	712.5
556.221	661.5
556.433	679.5
556.646	662.5
556.859	682.5
557.071	642.5
557.284	645.5
557.496	662.5
557.709	653.5
557.921	644.5
558.134	634.5
558.346	642.5
558.559	635.5
558.771	611.5
558.984	634.5
559.196	644.5
559.409	626.5
559.621	622.5
559.833	625.5
560.046	623.5
560.258	616.5
560.47	622.5
560.683	606.5
560.895	618.5
561.107	599.5
561.32	598.5
561.532	609.5
561.744	610.5
561.956	622.5
562.168	632.5
562.381	622.5
562.593	611.5
562.805	628.5
563.017	622.5
563.229	644.5
563.441	645.5
563.653	626.5
563.865	643.5
564.077	642.5
564.289	650.5
564.501	635.5
564.713	665.5
564.925	679.5
565.137	690.5
565.349	680.5
565.561	719.5
565.773	752.5
565.985	754.5
566.197	838.5
566.408	841.5
566.62	915.5
566.832	980.5
567.044	996.5
567.255	1000.5
567.467	1050.5
567.679	1103.5
567.891	1152.5
568.102	1207.5
568.314	1101.5
568.526	1035.5
568.737	951.5
568.949	859.5
569.161	802.5
569.372	736.5
569.584	708.5
569.795	700.5
570.007	679.5
570.218	664.5
570.43	653.5
570.641	643.5
570.853	636.5
571.064	651.5
571.276	643.5
571.487	643.5
571.698	611.5
571.91	599.5
572.121	567.5
572.333	567.5
572.544	569.5
572.755	545.5
572.966	542.5
573.178	570.5
573.389	545.5
573.6	524.5
573.811	512.5
574.023	534.5
574.234	535.5
574.445	522.5
574.656	532.5
574.867	514.5
575.078	511.5
575.289	507.5
575.501	510.5
575.712	501.5
575.923	504.5
576.134	508.5
576.345	502.5
576.556	473.5
576.767	473.5
576.978	507.5
577.188	486.5
577.399	491.5
577.61	480.5
577.821	487.5
578.032	468.5
578.243	475.5
578.454	465.5
578.665	468.5
578.875	460.5
579.086	464.5
579.297	468.5
579.508	461.5
579.718	479.5
579.929	427.5
580.14	452.5
580.35	463.5
580.561	452.5
580.772	470.5
580.982	439.5
581.193	442.5
581.403	458.5
581.614	451.5
581.825	431.5
582.035	434.5
582.246	433.5
582.456	442.5
582.667	439.5
582.877	430.5
583.087	434.5
583.298	426.5
583.508	420.5
583.719	431.5
583.929	465.5
584.139	419.5
584.35	434.5
584.56	424.5
584.77	448.5
584.981	427.5
585.191	417.5
585.401	432.5
585.611	420.5
585.821	418.5
586.032	419.5
586.242	428.5
586.452	430.5
586.662	406.5
586.872	404.5
587.082	419.5
587.292	430.5
587.502	421.5
587.713	412.5
587.923	417.5
588.133	426.5
588.343	415.5
588.553	425.5
588.762	421.5
588.972	428.5
589.182	441.5
589.392	434.5
589.602	407.5
589.812	422.5
590.022	422.5
590.232	415.5
590.441	423.5
590.651	419.5
590.861	434.5
591.071	434.5
591.281	446.5
591.49	430.5
591.7	435.5
591.91	444.5
592.119	447.5
592.329	465.5
592.539	491.5
592.748	480.5
592.958	511.5
593.167	504.5
593.377	514.5
593.587	530.5
593.796	515.5
594.006	522.5
594.215	542.5
594.424	538.5
594.634	503.5
594.843	503.5
595.053	494.5
595.262	455.5
595.472	460.5
595.681	437.5
595.89	424.5
596.1	409.5
596.309	423.5
596.518	404.5
596.727	400.5
596.937	401.5
597.146	394.5
597.355	398.5
597.564	359.5
597.774	384.5
597.983	386.5
598.192	381.5
598.401	384.5
598.61	397.5
598.819	362.5
599.028	368.5
599.237	376.5
599.446	366.5
599.655	363.5
599.864	362.5
600.073	336.5
600.282	356.5
600.491	372.5
600.7	353.5
600.909	369.5
601.118	342.5
601.327	359.5
601.536	342.5
601.745	343.5
601.953	338.5
602.162	347.5
602.371	332.5
602.58	333.5
602.789	346.5
602.997	331.5
603.206	361.5
603.415	325.5
603.623	347.5
603.832	331.5
604.041	342.5
604.249	335.5
604.458	334.5
604.666	350.5
604.875	320.5
605.084	336.5
605.292	310.5
605.501	339.5
605.709	339.5
605.918	338.5
606.126	325.5
606.334	331.5
606.543	333.5
606.751	338.5
606.96	325.5
607.168	318.5
607.376	319.5
607.585	332.5
607.793	320.5
608.001	326.5
608.21	338.5
608.418	311.5
608.626	324.5
608.834	332.5
609.043	306.5
609.251	331.5
609.459	306.5
609.667	330.5
609.875	322.5
610.083	312.5
610.291	324.5
610.499	314.5
610.707	308.5
610.916	319.5
611.124	310.5
611.332	288.5
611.54	322.5
611.748	318.5
611.955	292.5
612.163	304.5
612.371	312.5
612.579	322.5
612.787	307.5
612.995	318.5
613.203	304.5
613.411	310.5
613.618	311.5
613.826	322.5
614.034	311.5
614.242	298.5
614.449	324.5
614.657	297.5
614.865	311.5
615.072	298.5
615.28	298.5
615.488	308.5
615.695	312.5
615.903	324.5
616.111	304.5
616.318	324.5
616.526	311.5
616.733	309.5
616.941	289.5
617.148	324.5
617.356	311.5
617.563	306.5
617.771	304.5
617.978	303.5
618.185	296.5
618.393	299.5
618.6	314.5
618.807	293.5
619.015	307.5
619.222	315.5
619.429	290.5
619.637	307.5
619.844	314.5
620.051	299.5
620.258	291.5
620.466	278.5
620.673	290.5
620.88	299.5
621.087	279.5
621.294	282.5
621.501	278.5
621.708	284.5
621.915	287.5
622.122	276.5
622.329	284.5
622.536	297.5
622.743	286.5
622.95	293.5
623.157	283.5
623.364	277.5
623.571	279.5
623.778	272.5
623.985	282.5
624.192	267.5
624.399	252.5
624.606	255.5
624.812	282.5
625.019	272.5
625.226	266.5
625.433	273.5
625.639	264.5
625.846	277.5
626.053	260.5
626.259	244.5
626.466	264.5
626.673	275.5
626.879	278.5
627.086	252.5
627.293	246.5
627.499	259.5
627.706	261.5
627.912	265.5
628.119	256.5
628.325	272.5
628.532	252.5
628.738	257.5
628.945	254.5
629.151	238.5
629.357	253.5
629.564	244.5
629.77	241.5
629.976	234.5
630.183	234.5
630.389	242.5
630.595	242.5
630.802	242.5
631.008	226.5
631.214	242.5
631.42	250.5
631.627	250.5
631.833	229.5
632.039	227.5
632.245	225.5
632.451	227.5
632.657	230.5
632.863	222.5
633.069	239.5
633.275	231.5
633.481	226.5
633.688	227.5
633.893	244.5
634.099	252.5
634.305	224.5
634.511	228.5
634.717	221.5
634.923	229.5
635.129	234.5
635.335	233.5
635.541	210.5
635.747	229.5
635.952	226.5
636.158	221.5
636.364	214.5
636.57	219.5
636.775	224.5
636.981	234.5
637.187	204.5
637.392	218.5
637.598	217.5
637.804	218.5
638.009	210.5
638.215	214.5
638.421	216.5
638.626	210.5
638.832	218.5
639.037	210.5
639.243	209.5
639.448	224.5
639.654	212.5
639.859	198.5
640.065	207.5
640.27	207.5
640.475	215.5
640.681	213.5
640.886	218.5
641.091	202.5
641.297	201.5
641.502	192.5
641.707	208.5
641.913	199.5
642.118	208.5
642.323	207.5
642.528	209.5
642.733	201.5
642.939	197.5
643.144	225.5
643.349	212.5
643.554	192.5
643.759	206.5
643.964	208.5
644.169	194.5
644.374	206.5
644.579	204.5
644.784	210.5
644.989	207.5
645.194	209.5
645.399	212.5
645.604	216.5
645.809	207.5
646.014	199.5
646.219	208.5
646.423	203.5
646.628	190.5
646.833	192.5
647.038	205.5
647.243	214.5
647.447	216.5
647.652	196.5
647.857	213.5
648.062	214.5
648.266	226.5
648.471	219.5
648.676	222.5
648.88	217.5
649.085	207.5
649.289	209.5
649.494	208.5
649.698	222.5
649.903	202.5
650.107	202.5
650.312	183.5
650.516	195.5
650.721	189.5
650.925	186.5
651.13	182.5
651.334	192.5
651.539	186.5
651.743	187.5
651.947	167.5
652.152	181.5
652.356	178.5
652.56	172.5
652.764	162.5
652.969	176.5
653.173	171.5
653.377	166.5
653.581	165.5
653.785	173.5
653.99	167.5
654.194	161.5
654.398	165.5
654.602	154.5
654.806	164.5
655.01	158.5
655.214	146.5
655.418	163.5
655.622	135.5
655.826	145.5
656.03	153.5
656.234	153.5
656.438	146.5
656.642	145.5
656.846	154.5
657.049	139.5
657.253	152.5
657.457	143.5
657.661	140.5
657.865	123.5
658.068	142.5
658.272	123.5
658.476	118.5
658.68	106.5
658.883	121.5
659.087	114.5
659.291	91.5
659.494	112.5
659.698	111.5
659.901	107.5
660.105	93.5
660.309	99.5
660.512	98.5
660.716	104.5
660.919	87.5
661.123	93.5
661.326	91.5
661.53	89.5
661.733	78.5
661.936	93.5
662.14	103.5
662.343	80.5
662.546	85.5
662.75	91.5
662.953	105.5
663.156	79.5
663.36	84.5
663.563	90.5
663.766	98.5
663.969	81.5
664.173	73.5
664.376	74.5
664.579	89.5
664.782	91.5
664.985	91.5
665.188	82.5
665.391	81.5
665.594	82.5
665.797	88.5
666	76.5
666.203	80.5
666.406	75.5
666.609	84.5
666.812	82.5
667.015	71.5
667.218	68.5
667.421	90.5
667.624	81.5
667.827	74.5
668.03	82.5
668.232	83.5
668.435	81.5
668.638	85.5
668.841	91.5
669.043	74.5
669.246	76.5
669.449	82.5
669.651	82.5
669.854	69.5
670.057	69.5
670.259	73.5
670.462	81.5
670.665	88.5
670.867	80.5
671.07	84.5
671.272	93.5
671.475	83.5
671.677	93.5
671.88	90.5
672.082	82.5
672.284	75.5
672.487	69.5
672.689	77.5
672.892	75.5
