Data from NiCl2@0.25M.TitratingCurve.Agarose3%dH2O.NegLispCup.LampEnergy10.LIBS07252019_HRD10591_18-25-34-573.txt Node
Date: Thu Jul 25 18:25:34 EDT 2019
User: cochatt
Spectrometer: HR+D1059
Trigger mode: 1
Integration Time (sec): 1.000000E-1
Scans to average: 1
Electric dark correction enabled: true
Nonlinearity correction enabled: false
Boxcar width: 0
XAxis mode: Wavelengths
Number of Pixels in Spectrum: 2048
>>>>>Begin Spectral Data<<<<<
223.165	-14.44
223.4	-14.44
223.635	-14.44
223.869	-25.44
224.104	-30.44
224.338	-21.44
224.573	-17.44
224.808	-26.44
225.042	6.56
225.277	3.56
225.511	-6.44
225.746	5.56
225.98	-5.44
226.215	16.56
226.449	19.56
226.683	30.56
226.918	25.56
227.152	39.56
227.387	22.56
227.621	44.56
227.856	39.56
228.09	54.56
228.324	49.56
228.559	54.56
228.793	83.56
229.027	120.56
229.262	117.56
229.496	127.56
229.73	131.56
229.964	151.56
230.199	146.56
230.433	158.56
230.667	166.56
230.901	140.56
231.136	154.56
231.37	163.56
231.604	167.56
231.838	172.56
232.072	170.56
232.306	184.56
232.541	169.56
232.775	170.56
233.009	189.56
233.243	175.56
233.477	169.56
233.711	183.56
233.945	189.56
234.179	171.56
234.413	180.56
234.647	173.56
234.881	183.56
235.115	181.56
235.349	194.56
235.583	204.56
235.817	182.56
236.051	199.56
236.285	188.56
236.519	190.56
236.753	185.56
236.987	207.56
237.221	181.56
237.455	197.56
237.689	197.56
237.922	196.56
238.156	202.56
238.39	202.56
238.624	206.56
238.858	202.56
239.091	199.56
239.325	198.56
239.559	205.56
239.793	217.56
240.027	205.56
240.26	201.56
240.494	214.56
240.728	225.56
240.961	213.56
241.195	226.56
241.429	225.56
241.662	209.56
241.896	235.56
242.13	238.56
242.363	253.56
242.597	234.56
242.83	253.56
243.064	250.56
243.298	256.56
243.531	250.56
243.765	266.56
243.998	261.56
244.232	265.56
244.465	249.56
244.699	278.56
244.932	275.56
245.166	271.56
245.399	279.56
245.633	260.56
245.866	251.56
246.099	254.56
246.333	273.56
246.566	261.56
246.8	271.56
247.033	283.56
247.266	281.56
247.5	271.56
247.733	270.56
247.966	286.56
248.2	286.56
248.433	287.56
248.666	292.56
248.899	317.56
249.133	299.56
249.366	286.56
249.599	308.56
249.832	303.56
250.066	301.56
250.299	301.56
250.532	331.56
250.765	313.56
250.998	324.56
251.231	321.56
251.465	326.56
251.698	329.56
251.931	338.56
252.164	334.56
252.397	342.56
252.63	341.56
252.863	344.56
253.096	351.56
253.329	342.56
253.562	360.56
253.795	358.56
254.028	368.56
254.261	345.56
254.494	350.56
254.727	343.56
254.96	345.56
255.193	358.56
255.426	358.56
255.659	366.56
255.892	379.56
256.124	380.56
256.357	371.56
256.59	372.56
256.823	372.56
257.056	359.56
257.289	376.56
257.521	401.56
257.754	375.56
257.987	392.56
258.22	393.56
258.452	380.56
258.685	398.56
258.918	386.56
259.151	388.56
259.383	402.56
259.616	377.56
259.849	393.56
260.081	398.56
260.314	391.56
260.547	394.56
260.779	402.56
261.012	417.56
261.244	405.56
261.477	413.56
261.71	423.56
261.942	402.56
262.175	419.56
262.407	403.56
262.64	426.56
262.872	445.56
263.105	412.56
263.337	421.56
263.57	417.56
263.802	443.56
264.035	428.56
264.267	451.56
264.499	443.56
264.732	444.56
264.964	420.56
265.197	446.56
265.429	470.56
265.661	457.56
265.894	453.56
266.126	453.56
266.358	455.56
266.591	450.56
266.823	449.56
267.055	436.56
267.287	458.56
267.52	461.56
267.752	467.56
267.984	458.56
268.216	470.56
268.448	441.56
268.681	474.56
268.913	454.56
269.145	476.56
269.377	470.56
269.609	487.56
269.841	495.56
270.073	521.56
270.306	501.56
270.538	477.56
270.77	495.56
271.002	473.56
271.234	490.56
271.466	491.56
271.698	501.56
271.93	504.56
272.162	471.56
272.394	522.56
272.626	493.56
272.858	496.56
273.09	519.56
273.322	512.56
273.553	498.56
273.785	516.56
274.017	501.56
274.249	516.56
274.481	509.56
274.713	511.56
274.945	501.56
275.176	532.56
275.408	550.56
275.64	538.56
275.872	554.56
276.104	531.56
276.335	531.56
276.567	541.56
276.799	539.56
277.031	551.56
277.262	553.56
277.494	558.56
277.726	570.56
277.957	543.56
278.189	565.56
278.421	569.56
278.652	568.56
278.884	551.56
279.115	569.56
279.347	567.56
279.579	574.56
279.81	588.56
280.042	584.56
280.273	614.56
280.505	576.56
280.736	570.56
280.968	596.56
281.199	580.56
281.431	597.56
281.662	604.56
281.894	590.56
282.125	591.56
282.356	601.56
282.588	630.56
282.819	608.56
283.051	617.56
283.282	607.56
283.513	641.56
283.745	619.56
283.976	604.56
284.207	604.56
284.439	602.56
284.67	605.56
284.901	633.56
285.132	618.56
285.364	649.56
285.595	645.56
285.826	612.56
286.057	663.56
286.288	637.56
286.52	673.56
286.751	658.56
286.982	657.56
287.213	658.56
287.444	648.56
287.675	656.56
287.906	656.56
288.138	649.56
288.369	666.56
288.6	672.56
288.831	648.56
289.062	668.56
289.293	678.56
289.524	686.56
289.755	673.56
289.986	666.56
290.217	683.56
290.448	685.56
290.679	663.56
290.91	651.56
291.141	676.56
291.371	696.56
291.602	669.56
291.833	692.56
292.064	674.56
292.295	668.56
292.526	661.56
292.757	676.56
292.987	670.56
293.218	688.56
293.449	698.56
293.68	701.56
293.91	700.56
294.141	690.56
294.372	675.56
294.603	724.56
294.833	682.56
295.064	669.56
295.295	713.56
295.525	694.56
295.756	713.56
295.987	710.56
296.217	695.56
296.448	738.56
296.679	727.56
296.909	706.56
297.14	705.56
297.37	729.56
297.601	715.56
297.831	723.56
298.062	741.56
298.292	747.56
298.523	762.56
298.753	757.56
298.984	729.56
299.214	747.56
299.445	743.56
299.675	763.56
299.905	745.56
300.136	747.56
300.366	749.56
300.597	783.56
300.827	742.56
301.057	769.56
301.288	770.56
301.518	767.56
301.748	793.56
301.979	808.56
302.209	792.56
302.439	778.56
302.669	801.56
302.9	767.56
303.13	777.56
303.36	791.56
303.59	750.56
303.82	791.56
304.051	785.56
304.281	787.56
304.511	775.56
304.741	776.56
304.971	791.56
305.201	784.56
305.431	778.56
305.661	764.56
305.891	761.56
306.121	746.56
306.352	767.56
306.582	771.56
306.812	749.56
307.042	743.56
307.272	741.56
307.502	726.56
307.731	750.56
307.961	748.56
308.191	756.56
308.421	773.56
308.651	735.56
308.881	726.56
309.111	741.56
309.341	743.56
309.571	740.56
309.8	778.56
310.03	770.56
310.26	775.56
310.49	769.56
310.72	746.56
310.949	759.56
311.179	773.56
311.409	785.56
311.639	774.56
311.868	799.56
312.098	784.56
312.328	797.56
312.557	803.56
312.787	755.56
313.017	803.56
313.246	809.56
313.476	811.56
313.706	796.56
313.935	852.56
314.165	841.56
314.394	796.56
314.624	826.56
314.853	807.56
315.083	819.56
315.312	826.56
315.542	822.56
315.771	818.56
316.001	781.56
316.23	806.56
316.46	790.56
316.689	820.56
316.919	793.56
317.148	827.56
317.377	784.56
317.607	821.56
317.836	789.56
318.065	775.56
318.295	794.56
318.524	760.56
318.753	783.56
318.983	786.56
319.212	796.56
319.441	795.56
319.67	792.56
319.9	797.56
320.129	790.56
320.358	812.56
320.587	793.56
320.816	808.56
321.046	819.56
321.275	789.56
321.504	794.56
321.733	808.56
321.962	799.56
322.191	804.56
322.42	784.56
322.649	795.56
322.878	823.56
323.108	817.56
323.337	801.56
323.566	830.56
323.795	836.56
324.024	786.56
324.253	827.56
324.482	813.56
324.71	820.56
324.939	838.56
325.168	837.56
325.397	848.56
325.626	829.56
325.855	858.56
326.084	861.56
326.313	893.56
326.542	853.56
326.77	893.56
326.999	894.56
327.228	837.56
327.457	883.56
327.686	865.56
327.914	886.56
328.143	871.56
328.372	876.56
328.6	872.56
328.829	898.56
329.058	885.56
329.287	888.56
329.515	898.56
329.744	877.56
329.972	905.56
330.201	891.56
330.43	892.56
330.658	879.56
330.887	922.56
331.115	916.56
331.344	907.56
331.572	908.56
331.801	949.56
332.03	1003.56
332.258	1001.56
332.486	1002.56
332.715	1033.56
332.943	1066.56
333.172	1108.56
333.4	1144.56
333.629	1153.56
333.857	1197.56
334.085	1187.56
334.314	1185.56
334.542	1197.56
334.771	1180.56
334.999	1127.56
335.227	1152.56
335.455	1137.56
335.684	1116.56
335.912	1124.56
336.14	1113.56
336.369	1076.56
336.597	1100.56
336.825	1091.56
337.053	1057.56
337.281	1023.56
337.51	1019.56
337.738	1064.56
337.966	989.56
338.194	991.56
338.422	958.56
338.65	967.56
338.878	964.56
339.106	956.56
339.334	972.56
339.562	950.56
339.79	921.56
340.018	888.56
340.246	910.56
340.474	893.56
340.702	895.56
340.93	930.56
341.158	952.56
341.386	951.56
341.614	981.56
341.842	924.56
342.07	915.56
342.298	934.56
342.526	906.56
342.754	918.56
342.981	898.56
343.209	947.56
343.437	978.56
343.665	1002.56
343.893	1094.56
344.12	1146.56
344.348	1129.56
344.576	1075.56
344.804	1039.56
345.031	973.56
345.259	949.56
345.487	947.56
345.714	942.56
345.942	904.56
346.17	939.56
346.397	909.56
346.625	907.56
346.853	912.56
347.08	892.56
347.308	881.56
347.535	902.56
347.763	895.56
347.99	895.56
348.218	905.56
348.445	908.56
348.673	888.56
348.9	879.56
349.128	875.56
349.355	903.56
349.583	885.56
349.81	892.56
350.037	871.56
350.265	859.56
350.492	884.56
350.72	881.56
350.947	871.56
351.174	845.56
351.402	841.56
351.629	851.56
351.856	851.56
352.083	861.56
352.311	859.56
352.538	869.56
352.765	852.56
352.992	814.56
353.22	831.56
353.447	839.56
353.674	826.56
353.901	862.56
354.128	843.56
354.355	839.56
354.583	854.56
354.81	849.56
355.037	845.56
355.264	867.56
355.491	869.56
355.718	841.56
355.945	841.56
356.172	846.56
356.399	855.56
356.626	857.56
356.853	861.56
357.08	839.56
357.307	862.56
357.534	876.56
357.761	840.56
357.988	848.56
358.215	830.56
358.441	840.56
358.668	848.56
358.895	842.56
359.122	855.56
359.349	893.56
359.576	821.56
359.802	850.56
360.029	846.56
360.256	849.56
360.483	855.56
360.709	837.56
360.936	847.56
361.163	847.56
361.39	832.56
361.616	873.56
361.843	845.56
362.07	847.56
362.296	851.56
362.523	822.56
362.749	873.56
362.976	842.56
363.203	847.56
363.429	860.56
363.656	856.56
363.882	832.56
364.109	860.56
364.335	831.56
364.562	858.56
364.788	858.56
365.015	856.56
365.241	849.56
365.468	838.56
365.694	865.56
365.92	871.56
366.147	854.56
366.373	858.56
366.599	835.56
366.826	865.56
367.052	845.56
367.278	847.56
367.505	855.56
367.731	844.56
367.957	834.56
368.184	876.56
368.41	850.56
368.636	829.56
368.862	869.56
369.089	853.56
369.315	878.56
369.541	908.56
369.767	867.56
369.993	878.56
370.219	876.56
370.445	907.56
370.672	888.56
370.898	917.56
371.124	932.56
371.35	932.56
371.576	926.56
371.802	930.56
372.028	917.56
372.254	930.56
372.48	935.56
372.706	955.56
372.932	990.56
373.158	966.56
373.384	951.56
373.61	941.56
373.835	934.56
374.061	934.56
374.287	952.56
374.513	945.56
374.739	999.56
374.965	960.56
375.191	1027.56
375.416	1038.56
375.642	987.56
375.868	978.56
376.094	971.56
376.319	969.56
376.545	936.56
376.771	919.56
376.997	920.56
377.222	926.56
377.448	925.56
377.674	938.56
377.899	939.56
378.125	931.56
378.35	894.56
378.576	905.56
378.802	898.56
379.027	949.56
379.253	899.56
379.478	899.56
379.704	900.56
379.929	894.56
380.155	919.56
380.38	893.56
380.606	895.56
380.831	926.56
381.057	948.56
381.282	917.56
381.507	929.56
381.733	920.56
381.958	947.56
382.184	935.56
382.409	942.56
382.634	951.56
382.86	978.56
383.085	976.56
383.31	989.56
383.535	1028.56
383.761	1024.56
383.986	1054.56
384.211	1069.56
384.436	1061.56
384.662	1112.56
384.887	1089.56
385.112	1116.56
385.337	1137.56
385.562	1127.56
385.787	1137.56
386.013	1154.56
386.238	1153.56
386.463	1172.56
386.688	1171.56
386.913	1174.56
387.138	1144.56
387.363	1158.56
387.588	1149.56
387.813	1149.56
388.038	1122.56
388.263	1126.56
388.488	1116.56
388.713	1157.56
388.938	1125.56
389.163	1102.56
389.387	1125.56
389.612	1101.56
389.837	1114.56
390.062	1127.56
390.287	1125.56
390.512	1109.56
390.736	1141.56
390.961	1120.56
391.186	1160.56
391.411	1201.56
391.636	1295.56
391.86	1309.56
392.085	1277.56
392.31	1302.56
392.534	1286.56
392.759	1244.56
392.984	1233.56
393.208	1209.56
393.433	1221.56
393.658	1196.56
393.882	1183.56
394.107	1211.56
394.331	1216.56
394.556	1218.56
394.78	1220.56
395.005	1260.56
395.229	1212.56
395.454	1263.56
395.678	1295.56
395.903	1286.56
396.127	1298.56
396.352	1248.56
396.576	1237.56
396.801	1206.56
397.025	1265.56
397.249	1279.56
397.474	1291.56
397.698	1290.56
397.922	1337.56
398.147	1332.56
398.371	1348.56
398.595	1401.56
398.82	1489.56
399.044	1551.56
399.268	1665.56
399.492	1931.56
399.717	2147.56
399.941	2182.56
400.165	2012.56
400.389	1836.56
400.613	1702.56
400.837	1581.56
401.062	1540.56
401.286	1473.56
401.51	1505.56
401.734	1457.56
401.958	1492.56
402.182	1517.56
402.406	1539.56
402.63	1507.56
402.854	1557.56
403.078	1585.56
403.302	1618.56
403.526	1581.56
403.75	1621.56
403.974	1617.56
404.198	1626.56
404.422	1641.56
404.645	1641.56
404.869	1581.56
405.093	1623.56
405.317	1622.56
405.541	1615.56
405.765	1628.56
405.988	1598.56
406.212	1653.56
406.436	1585.56
406.66	1702.56
406.883	1665.56
407.107	1768.56
407.331	1830.56
407.555	1952.56
407.778	1905.56
408.002	1866.56
408.226	1804.56
408.449	1826.56
408.673	1714.56
408.896	1678.56
409.12	1677.56
409.344	1678.56
409.567	1668.56
409.791	1709.56
410.014	1671.56
410.238	1605.56
410.461	1573.56
410.685	1646.56
410.908	1578.56
411.132	1592.56
411.355	1485.56
411.578	1486.56
411.802	1522.56
412.025	1536.56
412.249	1533.56
412.472	1546.56
412.695	1512.56
412.919	1451.56
413.142	1464.56
413.365	1454.56
413.589	1475.56
413.812	1459.56
414.035	1438.56
414.258	1450.56
414.482	1474.56
414.705	1474.56
414.928	1484.56
415.151	1470.56
415.374	1476.56
415.597	1441.56
415.821	1408.56
416.044	1388.56
416.267	1408.56
416.49	1389.56
416.713	1423.56
416.936	1427.56
417.159	1380.56
417.382	1361.56
417.605	1418.56
417.828	1423.56
418.051	1429.56
418.274	1459.56
418.497	1426.56
418.72	1438.56
418.943	1446.56
419.166	1580.56
419.389	1659.56
419.611	1651.56
419.834	1544.56
420.057	1509.56
420.28	1450.56
420.503	1397.56
420.726	1414.56
420.948	1414.56
421.171	1426.56
421.394	1426.56
421.617	1413.56
421.839	1455.56
422.062	1422.56
422.285	1408.56
422.507	1436.56
422.73	1426.56
422.953	1469.56
423.175	1480.56
423.398	1479.56
423.621	1442.56
423.843	1495.56
424.066	1501.56
424.288	1462.56
424.511	1461.56
424.733	1458.56
424.956	1419.56
425.178	1437.56
425.401	1406.56
425.623	1441.56
425.846	1381.56
426.068	1377.56
426.291	1368.56
426.513	1361.56
426.735	1366.56
426.958	1382.56
427.18	1300.56
427.402	1285.56
427.625	1314.56
427.847	1257.56
428.069	1311.56
428.292	1331.56
428.514	1289.56
428.736	1287.56
428.958	1287.56
429.181	1234.56
429.403	1273.56
429.625	1204.56
429.847	1221.56
430.069	1239.56
430.292	1249.56
430.514	1189.56
430.736	1237.56
430.958	1235.56
431.18	1201.56
431.402	1196.56
431.624	1241.56
431.846	1265.56
432.068	1233.56
432.29	1296.56
432.512	1251.56
432.734	1274.56
432.956	1237.56
433.178	1252.56
433.4	1245.56
433.622	1262.56
433.844	1281.56
434.066	1281.56
434.287	1286.56
434.509	1330.56
434.731	1404.56
434.953	1406.56
435.175	1413.56
435.397	1418.56
435.618	1352.56
435.84	1301.56
436.062	1263.56
436.284	1265.56
436.505	1273.56
436.727	1257.56
436.949	1279.56
437.17	1287.56
437.392	1246.56
437.614	1226.56
437.835	1206.56
438.057	1217.56
438.278	1193.56
438.5	1169.56
438.721	1219.56
438.943	1187.56
439.165	1209.56
439.386	1217.56
439.608	1269.56
439.829	1247.56
440.05	1238.56
440.272	1290.56
440.493	1254.56
440.715	1301.56
440.936	1294.56
441.158	1310.56
441.379	1349.56
441.6	1370.56
441.822	1443.56
442.043	1406.56
442.264	1426.56
442.486	1401.56
442.707	1367.56
442.928	1365.56
443.149	1344.56
443.371	1377.56
443.592	1365.56
443.813	1383.56
444.034	1431.56
444.255	1463.56
444.476	1542.56
444.698	1597.56
444.919	1632.56
445.14	1695.56
445.361	1553.56
445.582	1477.56
445.803	1402.56
446.024	1363.56
446.245	1353.56
446.466	1346.56
446.687	1260.56
446.908	1278.56
447.129	1242.56
447.35	1234.56
447.571	1205.56
447.792	1175.56
448.013	1187.56
448.234	1180.56
448.455	1149.56
448.675	1183.56
448.896	1157.56
449.117	1119.56
449.338	1160.56
449.559	1137.56
449.779	1117.56
450	1134.56
450.221	1126.56
450.442	1127.56
450.662	1131.56
450.883	1125.56
451.104	1159.56
451.324	1165.56
451.545	1181.56
451.766	1141.56
451.986	1127.56
452.207	1110.56
452.428	1095.56
452.648	1134.56
452.869	1068.56
453.089	1123.56
453.31	1109.56
453.53	1115.56
453.751	1104.56
453.971	1120.56
454.192	1089.56
454.412	1074.56
454.633	1094.56
454.853	1063.56
455.073	1085.56
455.294	1078.56
455.514	1067.56
455.734	1069.56
455.955	1057.56
456.175	1059.56
456.395	1043.56
456.616	1051.56
456.836	1065.56
457.056	1084.56
457.276	1078.56
457.497	1077.56
457.717	1077.56
457.937	1108.56
458.157	1095.56
458.377	1103.56
458.598	1149.56
458.818	1195.56
459.038	1179.56
459.258	1255.56
459.478	1244.56
459.698	1318.56
459.918	1373.56
460.138	1396.56
460.358	1462.56
460.578	1506.56
460.798	1483.56
461.018	1517.56
461.238	1532.56
461.458	1493.56
461.678	1509.56
461.898	1542.56
462.118	1528.56
462.338	1573.56
462.558	1661.56
462.777	1715.56
462.997	1806.56
463.217	1960.56
463.437	2001.56
463.657	1902.56
463.876	1791.56
464.096	1744.56
464.316	1759.56
464.536	1783.56
464.755	1700.56
464.975	1659.56
465.195	1563.56
465.414	1481.56
465.634	1385.56
465.854	1325.56
466.073	1338.56
466.293	1291.56
466.512	1240.56
466.732	1215.56
466.951	1231.56
467.171	1197.56
467.391	1198.56
467.61	1172.56
467.829	1164.56
468.049	1169.56
468.268	1196.56
468.488	1161.56
468.707	1153.56
468.927	1150.56
469.146	1165.56
469.365	1181.56
469.585	1161.56
469.804	1230.56
470.023	1223.56
470.243	1216.56
470.462	1208.56
470.681	1249.56
470.901	1267.56
471.12	1239.56
471.339	1206.56
471.558	1209.56
471.777	1181.56
471.997	1177.56
472.216	1151.56
472.435	1162.56
472.654	1137.56
472.873	1143.56
473.092	1145.56
473.311	1151.56
473.53	1125.56
473.749	1089.56
473.968	1146.56
474.187	1111.56
474.406	1133.56
474.625	1112.56
474.844	1116.56
475.063	1137.56
475.282	1108.56
475.501	1149.56
475.72	1143.56
475.939	1155.56
476.158	1154.56
476.377	1171.56
476.596	1167.56
476.814	1216.56
477.033	1193.56
477.252	1228.56
477.471	1242.56
477.69	1286.56
477.908	1275.56
478.127	1329.56
478.346	1372.56
478.564	1373.56
478.783	1372.56
479.002	1437.56
479.22	1452.56
479.439	1424.56
479.658	1414.56
479.876	1428.56
480.095	1462.56
480.313	1502.56
480.532	1498.56
480.751	1508.56
480.969	1434.56
481.188	1423.56
481.406	1399.56
481.624	1373.56
481.843	1344.56
482.061	1340.56
482.28	1274.56
482.498	1319.56
482.717	1295.56
482.935	1287.56
483.153	1307.56
483.372	1292.56
483.59	1302.56
483.808	1309.56
484.027	1281.56
484.245	1277.56
484.463	1286.56
484.681	1342.56
484.9	1337.56
485.118	1357.56
485.336	1315.56
485.554	1351.56
485.772	1362.56
485.99	1337.56
486.209	1341.56
486.427	1367.56
486.645	1344.56
486.863	1348.56
487.081	1359.56
487.299	1323.56
487.517	1298.56
487.735	1330.56
487.953	1358.56
488.171	1347.56
488.389	1343.56
488.607	1324.56
488.825	1324.56
489.043	1330.56
489.261	1329.56
489.479	1291.56
489.696	1370.56
489.914	1355.56
490.132	1369.56
490.35	1338.56
490.568	1349.56
490.786	1381.56
491.003	1330.56
491.221	1345.56
491.439	1345.56
491.657	1361.56
491.874	1380.56
492.092	1360.56
492.31	1369.56
492.527	1394.56
492.745	1424.56
492.963	1423.56
493.18	1415.56
493.398	1399.56
493.615	1428.56
493.833	1408.56
494.05	1407.56
494.268	1415.56
494.485	1440.56
494.703	1428.56
494.92	1481.56
495.138	1448.56
495.355	1436.56
495.573	1456.56
495.79	1515.56
496.008	1516.56
496.225	1521.56
496.442	1508.56
496.66	1544.56
496.877	1570.56
497.094	1609.56
497.312	1638.56
497.529	1659.56
497.746	1697.56
497.963	1755.56
498.181	1878.56
498.398	1950.56
498.615	2062.56
498.832	2217.56
499.049	2323.56
499.267	2587.56
499.484	2781.56
499.701	3114.56
499.918	3413.56
500.135	3819.56
500.352	4215.56
500.569	4298.56
500.786	4299.56
501.003	4229.56
501.22	3790.56
501.437	3395.56
501.654	3050.56
501.871	2827.56
502.088	2588.56
502.305	2383.56
502.522	2221.56
502.739	2149.56
502.956	2003.56
503.172	1911.56
503.389	1863.56
503.606	1804.56
503.823	1750.56
504.04	1759.56
504.256	1749.56
504.473	1739.56
504.69	1766.56
504.907	1742.56
505.123	1658.56
505.34	1568.56
505.557	1491.56
505.773	1471.56
505.99	1428.56
506.207	1387.56
506.423	1372.56
506.64	1355.56
506.856	1307.56
507.073	1326.56
507.289	1268.56
507.506	1329.56
507.722	1307.56
507.939	1280.56
508.155	1287.56
508.372	1212.56
508.588	1247.56
508.805	1197.56
509.021	1234.56
509.238	1195.56
509.454	1195.56
509.67	1166.56
509.887	1188.56
510.103	1174.56
510.319	1203.56
510.536	1183.56
510.752	1175.56
510.968	1142.56
511.184	1165.56
511.401	1161.56
511.617	1169.56
511.833	1161.56
512.049	1154.56
512.265	1161.56
512.481	1145.56
512.698	1159.56
512.914	1161.56
513.13	1147.56
513.346	1177.56
513.562	1179.56
513.778	1145.56
513.994	1163.56
514.21	1181.56
514.426	1203.56
514.642	1208.56
514.858	1237.56
515.074	1177.56
515.29	1237.56
515.506	1214.56
515.721	1231.56
515.937	1260.56
516.153	1293.56
516.369	1345.56
516.585	1327.56
516.801	1407.56
517.016	1445.56
517.232	1515.56
517.448	1602.56
517.664	1585.56
517.879	1638.56
518.095	1683.56
518.311	1627.56
518.527	1578.56
518.742	1521.56
518.958	1443.56
519.173	1409.56
519.389	1343.56
519.605	1292.56
519.82	1274.56
520.036	1230.56
520.251	1218.56
520.467	1206.56
520.682	1177.56
520.898	1182.56
521.113	1123.56
521.329	1144.56
521.544	1152.56
521.76	1151.56
521.975	1127.56
522.19	1095.56
522.406	1110.56
522.621	1097.56
522.836	1091.56
523.052	1090.56
523.267	1087.56
523.482	1081.56
523.698	1087.56
523.913	1077.56
524.128	1084.56
524.343	1090.56
524.559	1069.56
524.774	1081.56
524.989	1064.56
525.204	1052.56
525.419	1050.56
525.634	1045.56
525.849	1063.56
526.064	1045.56
526.28	1045.56
526.495	1031.56
526.71	1038.56
526.925	1060.56
527.14	1049.56
527.355	1038.56
527.57	1046.56
527.785	1035.56
527.999	1029.56
528.214	1039.56
528.429	1030.56
528.644	1010.56
528.859	1054.56
529.074	1059.56
529.289	1060.56
529.503	1011.56
529.718	1005.56
529.933	1025.56
530.148	1031.56
530.363	1028.56
530.577	1028.56
530.792	1048.56
531.007	1028.56
531.221	1054.56
531.436	1034.56
531.651	1055.56
531.865	1043.56
532.08	1039.56
532.295	1016.56
532.509	1033.56
532.724	1046.56
532.938	1041.56
533.153	1046.56
533.367	1007.56
533.582	1034.56
533.796	1021.56
534.011	1027.56
534.225	1034.56
534.44	1005.56
534.654	1001.56
534.868	1011.56
535.083	1031.56
535.297	993.56
535.511	987.56
535.726	980.56
535.94	1014.56
536.154	988.56
536.369	979.56
536.583	955.56
536.797	970.56
537.011	964.56
537.225	972.56
537.44	964.56
537.654	945.56
537.868	927.56
538.082	912.56
538.296	923.56
538.51	946.56
538.724	972.56
538.938	940.56
539.153	933.56
539.367	923.56
539.581	934.56
539.795	927.56
540.009	941.56
540.222	943.56
540.436	939.56
540.65	911.56
540.864	925.56
541.078	931.56
541.292	908.56
541.506	920.56
541.72	919.56
541.934	897.56
542.147	928.56
542.361	929.56
542.575	920.56
542.789	912.56
543.002	890.56
543.216	899.56
543.43	893.56
543.644	895.56
543.857	901.56
544.071	927.56
544.285	932.56
544.498	908.56
544.712	921.56
544.925	936.56
545.139	947.56
545.352	915.56
545.566	968.56
545.779	953.56
545.993	970.56
546.206	939.56
546.42	958.56
546.633	951.56
546.847	962.56
547.06	940.56
547.274	925.56
547.487	979.56
547.7	977.56
547.914	957.56
548.127	962.56
548.34	976.56
548.554	955.56
548.767	946.56
548.98	1003.56
549.193	957.56
549.407	1015.56
549.62	996.56
549.833	978.56
550.046	959.56
550.259	972.56
550.473	926.56
550.686	947.56
550.899	950.56
551.112	932.56
551.325	979.56
551.538	947.56
551.751	959.56
551.964	953.56
552.177	963.56
552.39	950.56
552.603	981.56
552.816	1037.56
553.029	1033.56
553.242	1054.56
553.455	1071.56
553.667	1068.56
553.88	1045.56
554.093	993.56
554.306	1023.56
554.519	958.56
554.732	959.56
554.944	935.56
555.157	912.56
555.37	905.56
555.583	889.56
555.795	904.56
556.008	876.56
556.221	865.56
556.433	828.56
556.646	837.56
556.859	843.56
557.071	821.56
557.284	827.56
557.496	837.56
557.709	807.56
557.921	817.56
558.134	788.56
558.346	779.56
558.559	783.56
558.771	807.56
558.984	776.56
559.196	788.56
559.409	796.56
559.621	788.56
559.833	804.56
560.046	758.56
560.258	759.56
560.47	776.56
560.683	760.56
560.895	796.56
561.107	761.56
561.32	759.56
561.532	780.56
561.744	777.56
561.956	796.56
562.168	789.56
562.381	801.56
562.593	783.56
562.805	780.56
563.017	781.56
563.229	790.56
563.441	819.56
563.653	822.56
563.865	807.56
564.077	851.56
564.289	817.56
564.501	855.56
564.713	859.56
564.925	865.56
565.137	890.56
565.349	909.56
565.561	951.56
565.773	989.56
565.985	1037.56
566.197	1072.56
566.408	1150.56
566.62	1203.56
566.832	1276.56
567.044	1331.56
567.255	1353.56
567.467	1377.56
567.679	1434.56
567.891	1498.56
568.102	1482.56
568.314	1433.56
568.526	1321.56
568.737	1249.56
568.949	1130.56
569.161	1031.56
569.372	982.56
569.584	939.56
569.795	903.56
570.007	870.56
570.218	847.56
570.43	846.56
570.641	839.56
570.853	815.56
571.064	831.56
571.276	827.56
571.487	814.56
571.698	785.56
571.91	745.56
572.121	718.56
572.333	712.56
572.544	708.56
572.755	703.56
572.966	678.56
573.178	698.56
573.389	667.56
573.6	679.56
573.811	675.56
574.023	621.56
574.234	641.56
574.445	650.56
574.656	647.56
574.867	648.56
575.078	661.56
575.289	659.56
575.501	626.56
575.712	626.56
575.923	632.56
576.134	584.56
576.345	591.56
576.556	596.56
576.767	592.56
576.978	603.56
577.188	575.56
577.399	602.56
577.61	613.56
577.821	585.56
578.032	592.56
578.243	587.56
578.454	577.56
578.665	561.56
578.875	592.56
579.086	567.56
579.297	561.56
579.508	575.56
579.718	590.56
579.929	576.56
580.14	556.56
580.35	557.56
580.561	566.56
580.772	555.56
580.982	529.56
581.193	554.56
581.403	538.56
581.614	571.56
581.825	562.56
582.035	532.56
582.246	532.56
582.456	540.56
582.667	537.56
582.877	522.56
583.087	531.56
583.298	517.56
583.508	527.56
583.719	545.56
583.929	544.56
584.139	509.56
584.35	522.56
584.56	527.56
584.77	538.56
584.981	527.56
585.191	533.56
585.401	517.56
585.611	510.56
585.821	507.56
586.032	534.56
586.242	513.56
586.452	521.56
586.662	518.56
586.872	501.56
587.082	518.56
587.292	522.56
587.502	511.56
587.713	511.56
587.923	524.56
588.133	529.56
588.343	513.56
588.553	520.56
588.762	521.56
588.972	526.56
589.182	544.56
589.392	546.56
589.602	510.56
589.812	532.56
590.022	498.56
590.232	501.56
590.441	541.56
590.651	531.56
590.861	535.56
591.071	542.56
591.281	545.56
591.49	548.56
591.7	564.56
591.91	565.56
592.119	562.56
592.329	571.56
592.539	598.56
592.748	622.56
592.958	651.56
593.167	644.56
593.377	646.56
593.587	673.56
593.796	657.56
594.006	651.56
594.215	676.56
594.424	663.56
594.634	647.56
594.843	637.56
595.053	629.56
595.262	573.56
595.472	577.56
595.681	587.56
595.89	535.56
596.1	527.56
596.309	510.56
596.518	491.56
596.727	491.56
596.937	476.56
597.146	479.56
597.355	477.56
597.564	453.56
597.774	459.56
597.983	460.56
598.192	457.56
598.401	463.56
598.61	446.56
598.819	450.56
599.028	438.56
599.237	431.56
599.446	439.56
599.655	444.56
599.864	429.56
600.073	445.56
600.282	433.56
600.491	444.56
600.7	459.56
600.909	403.56
601.118	420.56
601.327	418.56
601.536	421.56
601.745	421.56
601.953	408.56
602.162	411.56
602.371	392.56
602.58	415.56
602.789	420.56
602.997	414.56
603.206	406.56
603.415	381.56
603.623	386.56
603.832	391.56
604.041	397.56
604.249	395.56
604.458	387.56
604.666	400.56
604.875	377.56
605.084	391.56
605.292	411.56
605.501	379.56
605.709	412.56
605.918	390.56
606.126	387.56
606.334	395.56
606.543	388.56
606.751	382.56
606.96	380.56
607.168	378.56
607.376	381.56
607.585	376.56
607.793	400.56
608.001	377.56
608.21	378.56
608.418	358.56
608.626	380.56
608.834	377.56
609.043	378.56
609.251	375.56
609.459	379.56
609.667	381.56
609.875	370.56
610.083	381.56
610.291	382.56
610.499	357.56
610.707	381.56
610.916	365.56
611.124	366.56
611.332	386.56
611.54	355.56
611.748	369.56
611.955	372.56
612.163	375.56
612.371	357.56
612.579	359.56
612.787	377.56
612.995	356.56
613.203	343.56
613.411	351.56
613.618	345.56
613.826	359.56
614.034	351.56
614.242	351.56
614.449	348.56
614.657	350.56
614.865	346.56
615.072	340.56
615.28	356.56
615.488	356.56
615.695	334.56
615.903	372.56
616.111	345.56
616.318	372.56
616.526	363.56
616.733	343.56
616.941	353.56
617.148	340.56
617.356	373.56
617.563	341.56
617.771	358.56
617.978	362.56
618.185	352.56
618.393	371.56
618.6	341.56
618.807	349.56
619.015	357.56
619.222	345.56
619.429	345.56
619.637	357.56
619.844	348.56
620.051	338.56
620.258	332.56
620.466	315.56
620.673	322.56
620.88	314.56
621.087	328.56
621.294	333.56
621.501	334.56
621.708	346.56
621.915	342.56
622.122	322.56
622.329	358.56
622.536	324.56
622.743	330.56
622.95	332.56
623.157	314.56
623.364	343.56
623.571	322.56
623.778	303.56
623.985	316.56
624.192	305.56
624.399	331.56
624.606	325.56
624.812	316.56
625.019	303.56
625.226	311.56
625.433	322.56
625.639	326.56
625.846	283.56
626.053	314.56
626.259	289.56
626.466	317.56
626.673	295.56
626.879	316.56
627.086	327.56
627.293	291.56
627.499	325.56
627.706	303.56
627.912	325.56
628.119	296.56
628.325	298.56
628.532	296.56
628.738	295.56
628.945	300.56
629.151	300.56
629.357	286.56
629.564	279.56
629.77	285.56
629.976	263.56
630.183	303.56
630.389	287.56
630.595	271.56
630.802	292.56
631.008	281.56
631.214	279.56
631.42	294.56
631.627	286.56
631.833	276.56
632.039	263.56
632.245	268.56
632.451	269.56
632.657	277.56
632.863	281.56
633.069	274.56
633.275	251.56
633.481	275.56
633.688	268.56
633.893	279.56
634.099	275.56
634.305	272.56
634.511	274.56
634.717	254.56
634.923	271.56
635.129	266.56
635.335	253.56
635.541	261.56
635.747	259.56
635.952	246.56
636.158	253.56
636.364	252.56
636.57	267.56
636.775	255.56
636.981	255.56
637.187	263.56
637.392	244.56
637.598	246.56
637.804	265.56
638.009	262.56
638.215	244.56
638.421	259.56
638.626	224.56
638.832	243.56
639.037	247.56
639.243	242.56
639.448	234.56
639.654	249.56
639.859	257.56
640.065	251.56
640.27	241.56
640.475	241.56
640.681	244.56
640.886	235.56
641.091	229.56
641.297	246.56
641.502	235.56
641.707	227.56
641.913	240.56
642.118	241.56
642.323	227.56
642.528	225.56
642.733	229.56
642.939	231.56
643.144	250.56
643.349	222.56
643.554	232.56
643.759	225.56
643.964	228.56
644.169	242.56
644.374	236.56
644.579	221.56
644.784	228.56
644.989	220.56
645.194	228.56
645.399	235.56
645.604	210.56
645.809	217.56
646.014	233.56
646.219	234.56
646.423	233.56
646.628	224.56
646.833	225.56
647.038	218.56
647.243	220.56
647.447	227.56
647.652	237.56
647.857	249.56
648.062	241.56
648.266	248.56
648.471	236.56
648.676	239.56
648.88	227.56
649.085	227.56
649.289	231.56
649.494	213.56
649.698	212.56
649.903	214.56
650.107	232.56
650.312	217.56
650.516	204.56
650.721	208.56
650.925	186.56
651.13	206.56
651.334	211.56
651.539	193.56
651.743	210.56
651.947	199.56
652.152	207.56
652.356	202.56
652.56	180.56
652.764	194.56
652.969	188.56
653.173	182.56
653.377	182.56
653.581	172.56
653.785	186.56
653.99	177.56
654.194	171.56
654.398	193.56
654.602	158.56
654.806	165.56
655.01	168.56
655.214	162.56
655.418	167.56
655.622	162.56
655.826	166.56
656.03	148.56
656.234	148.56
656.438	142.56
656.642	149.56
656.846	149.56
657.049	150.56
657.253	145.56
657.457	137.56
657.661	137.56
657.865	124.56
658.068	144.56
658.272	127.56
658.476	115.56
658.68	129.56
658.883	117.56
659.087	119.56
659.291	114.56
659.494	115.56
659.698	115.56
659.901	107.56
660.105	107.56
660.309	101.56
660.512	121.56
660.716	104.56
660.919	110.56
661.123	100.56
661.326	106.56
661.53	79.56
661.733	106.56
661.936	87.56
662.14	90.56
662.343	90.56
662.546	88.56
662.75	107.56
662.953	89.56
663.156	92.56
663.36	87.56
663.563	86.56
663.766	73.56
663.969	67.56
664.173	89.56
664.376	72.56
664.579	85.56
664.782	88.56
664.985	99.56
665.188	77.56
665.391	85.56
665.594	87.56
665.797	82.56
666	88.56
666.203	91.56
666.406	93.56
666.609	79.56
666.812	68.56
667.015	76.56
667.218	80.56
667.421	91.56
667.624	79.56
667.827	90.56
668.03	84.56
668.232	82.56
668.435	85.56
668.638	85.56
668.841	86.56
669.043	83.56
669.246	81.56
669.449	94.56
669.651	92.56
669.854	97.56
670.057	92.56
670.259	88.56
670.462	79.56
670.665	69.56
670.867	71.56
671.07	102.56
671.272	96.56
671.475	97.56
671.677	81.56
671.88	76.56
672.082	78.56
672.284	75.56
672.487	96.56
672.689	90.56
672.892	75.56
