Data from NiCl2@0.25M.TitratingCurve.Agarose3%dH2O.NegLispCup.LampEnergy10.LIBS07252019_HRD10591_18-23-37-574.txt Node
Date: Thu Jul 25 18:23:37 EDT 2019
User: cochatt
Spectrometer: HR+D1059
Trigger mode: 1
Integration Time (sec): 1.000000E-1
Scans to average: 1
Electric dark correction enabled: true
Nonlinearity correction enabled: false
Boxcar width: 0
XAxis mode: Wavelengths
Number of Pixels in Spectrum: 2048
>>>>>Begin Spectral Data<<<<<
223.165	-18.56
223.4	-18.56
223.635	-18.56
223.869	1.44
224.104	-27.56
224.338	-9.56
224.573	-21.56
224.808	-18.56
225.042	-8.56
225.277	5.44
225.511	7.44
225.746	10.44
225.98	11.44
226.215	-1.56
226.449	-2.56
226.683	20.44
226.918	25.44
227.152	26.44
227.387	28.44
227.621	39.44
227.856	46.44
228.09	37.44
228.324	50.44
228.559	61.44
228.793	67.44
229.027	109.44
229.262	113.44
229.496	122.44
229.73	118.44
229.964	126.44
230.199	115.44
230.433	117.44
230.667	134.44
230.901	130.44
231.136	130.44
231.37	147.44
231.604	128.44
231.838	143.44
232.072	167.44
232.306	163.44
232.541	139.44
232.775	140.44
233.009	142.44
233.243	151.44
233.477	148.44
233.711	139.44
233.945	153.44
234.179	145.44
234.413	154.44
234.647	147.44
234.881	161.44
235.115	145.44
235.349	151.44
235.583	149.44
235.817	162.44
236.051	164.44
236.285	152.44
236.519	152.44
236.753	146.44
236.987	146.44
237.221	171.44
237.455	161.44
237.689	182.44
237.922	179.44
238.156	171.44
238.39	165.44
238.624	157.44
238.858	170.44
239.091	172.44
239.325	165.44
239.559	181.44
239.793	170.44
240.027	171.44
240.26	165.44
240.494	178.44
240.728	185.44
240.961	194.44
241.195	195.44
241.429	198.44
241.662	183.44
241.896	195.44
242.13	203.44
242.363	200.44
242.597	193.44
242.83	197.44
243.064	201.44
243.298	197.44
243.531	214.44
243.765	193.44
243.998	202.44
244.232	198.44
244.465	216.44
244.699	221.44
244.932	218.44
245.166	210.44
245.399	210.44
245.633	227.44
245.866	218.44
246.099	234.44
246.333	216.44
246.566	215.44
246.8	203.44
247.033	222.44
247.266	242.44
247.5	248.44
247.733	234.44
247.966	253.44
248.2	243.44
248.433	244.44
248.666	263.44
248.899	241.44
249.133	261.44
249.366	250.44
249.599	241.44
249.832	259.44
250.066	259.44
250.299	254.44
250.532	258.44
250.765	276.44
250.998	257.44
251.231	273.44
251.465	257.44
251.698	273.44
251.931	279.44
252.164	272.44
252.397	274.44
252.63	279.44
252.863	271.44
253.096	274.44
253.329	293.44
253.562	292.44
253.795	281.44
254.028	293.44
254.261	286.44
254.494	289.44
254.727	287.44
254.96	274.44
255.193	277.44
255.426	311.44
255.659	308.44
255.892	291.44
256.124	277.44
256.357	292.44
256.59	289.44
256.823	306.44
257.056	290.44
257.289	309.44
257.521	315.44
257.754	313.44
257.987	311.44
258.22	306.44
258.452	310.44
258.685	334.44
258.918	312.44
259.151	290.44
259.383	303.44
259.616	314.44
259.849	317.44
260.081	322.44
260.314	309.44
260.547	289.44
260.779	326.44
261.012	343.44
261.244	344.44
261.477	325.44
261.71	328.44
261.942	336.44
262.175	321.44
262.407	335.44
262.64	334.44
262.872	322.44
263.105	337.44
263.337	337.44
263.57	329.44
263.802	354.44
264.035	352.44
264.267	342.44
264.499	344.44
264.732	351.44
264.964	357.44
265.197	361.44
265.429	349.44
265.661	354.44
265.894	344.44
266.126	363.44
266.358	358.44
266.591	375.44
266.823	381.44
267.055	370.44
267.287	379.44
267.52	381.44
267.752	374.44
267.984	375.44
268.216	354.44
268.448	385.44
268.681	377.44
268.913	393.44
269.145	392.44
269.377	387.44
269.609	382.44
269.841	382.44
270.073	376.44
270.306	378.44
270.538	371.44
270.77	376.44
271.002	391.44
271.234	387.44
271.466	408.44
271.698	397.44
271.93	393.44
272.162	383.44
272.394	410.44
272.626	401.44
272.858	398.44
273.09	415.44
273.322	404.44
273.553	437.44
273.785	399.44
274.017	405.44
274.249	425.44
274.481	426.44
274.713	435.44
274.945	444.44
275.176	402.44
275.408	423.44
275.64	443.44
275.872	418.44
276.104	440.44
276.335	413.44
276.567	429.44
276.799	437.44
277.031	426.44
277.262	428.44
277.494	421.44
277.726	418.44
277.957	434.44
278.189	447.44
278.421	461.44
278.652	443.44
278.884	469.44
279.115	455.44
279.347	476.44
279.579	447.44
279.81	438.44
280.042	465.44
280.273	465.44
280.505	459.44
280.736	496.44
280.968	458.44
281.199	457.44
281.431	470.44
281.662	480.44
281.894	466.44
282.125	478.44
282.356	490.44
282.588	468.44
282.819	476.44
283.051	484.44
283.282	493.44
283.513	495.44
283.745	486.44
283.976	489.44
284.207	479.44
284.439	471.44
284.67	500.44
284.901	506.44
285.132	506.44
285.364	523.44
285.595	493.44
285.826	496.44
286.057	495.44
286.288	489.44
286.52	538.44
286.751	518.44
286.982	525.44
287.213	527.44
287.444	524.44
287.675	547.44
287.906	534.44
288.138	513.44
288.369	543.44
288.6	536.44
288.831	515.44
289.062	535.44
289.293	525.44
289.524	519.44
289.755	536.44
289.986	546.44
290.217	541.44
290.448	536.44
290.679	533.44
290.91	530.44
291.141	524.44
291.371	535.44
291.602	543.44
291.833	530.44
292.064	529.44
292.295	538.44
292.526	529.44
292.757	535.44
292.987	535.44
293.218	562.44
293.449	574.44
293.68	558.44
293.91	553.44
294.141	550.44
294.372	537.44
294.603	560.44
294.833	549.44
295.064	543.44
295.295	554.44
295.525	559.44
295.756	561.44
295.987	543.44
296.217	567.44
296.448	560.44
296.679	574.44
296.909	568.44
297.14	537.44
297.37	582.44
297.601	595.44
297.831	570.44
298.062	578.44
298.292	591.44
298.523	591.44
298.753	626.44
298.984	592.44
299.214	588.44
299.445	582.44
299.675	578.44
299.905	612.44
300.136	598.44
300.366	607.44
300.597	609.44
300.827	614.44
301.057	632.44
301.288	630.44
301.518	625.44
301.748	633.44
301.979	627.44
302.209	641.44
302.439	626.44
302.669	636.44
302.9	618.44
303.13	609.44
303.36	610.44
303.59	632.44
303.82	619.44
304.051	623.44
304.281	623.44
304.511	628.44
304.741	614.44
304.971	637.44
305.201	635.44
305.431	621.44
305.661	594.44
305.891	645.44
306.121	595.44
306.352	599.44
306.582	615.44
306.812	588.44
307.042	622.44
307.272	597.44
307.502	598.44
307.731	617.44
307.961	623.44
308.191	610.44
308.421	588.44
308.651	591.44
308.881	599.44
309.111	602.44
309.341	596.44
309.571	597.44
309.8	597.44
310.03	576.44
310.26	632.44
310.49	617.44
310.72	611.44
310.949	606.44
311.179	622.44
311.409	621.44
311.639	631.44
311.868	622.44
312.098	627.44
312.328	652.44
312.557	639.44
312.787	613.44
313.017	635.44
313.246	639.44
313.476	651.44
313.706	679.44
313.935	643.44
314.165	664.44
314.394	655.44
314.624	656.44
314.853	655.44
315.083	647.44
315.312	645.44
315.542	665.44
315.771	656.44
316.001	649.44
316.23	652.44
316.46	626.44
316.689	659.44
316.919	660.44
317.148	673.44
317.377	635.44
317.607	646.44
317.836	618.44
318.065	651.44
318.295	669.44
318.524	646.44
318.753	662.44
318.983	631.44
319.212	624.44
319.441	643.44
319.67	621.44
319.9	662.44
320.129	654.44
320.358	627.44
320.587	635.44
320.816	643.44
321.046	625.44
321.275	634.44
321.504	652.44
321.733	646.44
321.962	669.44
322.191	641.44
322.42	638.44
322.649	656.44
322.878	665.44
323.108	649.44
323.337	651.44
323.566	684.44
323.795	671.44
324.024	675.44
324.253	687.44
324.482	653.44
324.71	676.44
324.939	653.44
325.168	663.44
325.397	692.44
325.626	699.44
325.855	706.44
326.084	703.44
326.313	707.44
326.542	705.44
326.77	743.44
326.999	699.44
327.228	707.44
327.457	705.44
327.686	694.44
327.914	704.44
328.143	706.44
328.372	713.44
328.6	722.44
328.829	703.44
329.058	698.44
329.287	725.44
329.515	718.44
329.744	689.44
329.972	723.44
330.201	724.44
330.43	742.44
330.658	705.44
330.887	711.44
331.115	734.44
331.344	756.44
331.572	747.44
331.801	767.44
332.03	772.44
332.258	815.44
332.486	844.44
332.715	847.44
332.943	896.44
333.172	882.44
333.4	941.44
333.629	960.44
333.857	982.44
334.085	972.44
334.314	937.44
334.542	918.44
334.771	918.44
334.999	906.44
335.227	890.44
335.455	867.44
335.684	887.44
335.912	856.44
336.14	855.44
336.369	846.44
336.597	853.44
336.825	859.44
337.053	865.44
337.281	847.44
337.51	825.44
337.738	824.44
337.966	805.44
338.194	804.44
338.422	790.44
338.65	770.44
338.878	775.44
339.106	780.44
339.334	776.44
339.562	763.44
339.79	769.44
340.018	744.44
340.246	740.44
340.474	738.44
340.702	745.44
340.93	745.44
341.158	734.44
341.386	770.44
341.614	757.44
341.842	745.44
342.07	746.44
342.298	731.44
342.526	756.44
342.754	746.44
342.981	746.44
343.209	751.44
343.437	771.44
343.665	846.44
343.893	895.44
344.12	917.44
344.348	889.44
344.576	836.44
344.804	815.44
345.031	779.44
345.259	754.44
345.487	752.44
345.714	738.44
345.942	733.44
346.17	722.44
346.397	749.44
346.625	734.44
346.853	709.44
347.08	689.44
347.308	721.44
347.535	711.44
347.763	726.44
347.99	721.44
348.218	701.44
348.445	681.44
348.673	724.44
348.9	721.44
349.128	708.44
349.355	693.44
349.583	692.44
349.81	686.44
350.037	685.44
350.265	679.44
350.492	683.44
350.72	678.44
350.947	683.44
351.174	691.44
351.402	681.44
351.629	700.44
351.856	689.44
352.083	679.44
352.311	708.44
352.538	687.44
352.765	705.44
352.992	694.44
353.22	676.44
353.447	673.44
353.674	686.44
353.901	659.44
354.128	694.44
354.355	676.44
354.583	673.44
354.81	693.44
355.037	711.44
355.264	685.44
355.491	704.44
355.718	680.44
355.945	704.44
356.172	694.44
356.399	704.44
356.626	692.44
356.853	711.44
357.08	705.44
357.307	689.44
357.534	703.44
357.761	693.44
357.988	672.44
358.215	682.44
358.441	685.44
358.668	695.44
358.895	690.44
359.122	675.44
359.349	694.44
359.576	702.44
359.802	675.44
360.029	707.44
360.256	724.44
360.483	698.44
360.709	689.44
360.936	711.44
361.163	691.44
361.39	701.44
361.616	693.44
361.843	724.44
362.07	726.44
362.296	682.44
362.523	710.44
362.749	711.44
362.976	688.44
363.203	678.44
363.429	675.44
363.656	707.44
363.882	701.44
364.109	676.44
364.335	703.44
364.562	694.44
364.788	675.44
365.015	689.44
365.241	666.44
365.468	679.44
365.694	685.44
365.92	677.44
366.147	676.44
366.373	675.44
366.599	695.44
366.826	680.44
367.052	663.44
367.278	719.44
367.505	675.44
367.731	698.44
367.957	701.44
368.184	663.44
368.41	705.44
368.636	699.44
368.862	714.44
369.089	715.44
369.315	723.44
369.541	708.44
369.767	737.44
369.993	713.44
370.219	721.44
370.445	705.44
370.672	723.44
370.898	738.44
371.124	715.44
371.35	720.44
371.576	743.44
371.802	750.44
372.028	762.44
372.254	730.44
372.48	740.44
372.706	745.44
372.932	763.44
373.158	771.44
373.384	747.44
373.61	731.44
373.835	741.44
374.061	770.44
374.287	742.44
374.513	790.44
374.739	781.44
374.965	830.44
375.191	868.44
375.416	835.44
375.642	784.44
375.868	768.44
376.094	782.44
376.319	763.44
376.545	774.44
376.771	751.44
376.997	775.44
377.222	759.44
377.448	738.44
377.674	754.44
377.899	749.44
378.125	755.44
378.35	754.44
378.576	746.44
378.802	742.44
379.027	739.44
379.253	733.44
379.478	739.44
379.704	716.44
379.929	733.44
380.155	723.44
380.38	742.44
380.606	742.44
380.831	722.44
381.057	729.44
381.282	724.44
381.507	745.44
381.733	758.44
381.958	777.44
382.184	781.44
382.409	789.44
382.634	784.44
382.86	767.44
383.085	774.44
383.31	807.44
383.535	796.44
383.761	798.44
383.986	843.44
384.211	822.44
384.436	857.44
384.662	894.44
384.887	882.44
385.112	876.44
385.337	907.44
385.562	877.44
385.787	885.44
386.013	922.44
386.238	913.44
386.463	907.44
386.688	919.44
386.913	908.44
387.138	904.44
387.363	911.44
387.588	876.44
387.813	905.44
388.038	890.44
388.263	889.44
388.488	909.44
388.713	892.44
388.938	883.44
389.163	864.44
389.387	884.44
389.612	883.44
389.837	867.44
390.062	888.44
390.287	883.44
390.512	891.44
390.736	903.44
390.961	928.44
391.186	951.44
391.411	945.44
391.636	970.44
391.86	1026.44
392.085	1035.44
392.31	1035.44
392.534	995.44
392.759	997.44
392.984	977.44
393.208	947.44
393.433	938.44
393.658	962.44
393.882	964.44
394.107	952.44
394.331	948.44
394.556	953.44
394.78	971.44
395.005	952.44
395.229	962.44
395.454	999.44
395.678	1014.44
395.903	1017.44
396.127	1031.44
396.352	975.44
396.576	940.44
396.801	963.44
397.025	990.44
397.249	990.44
397.474	1023.44
397.698	1015.44
397.922	1051.44
398.147	1002.44
398.371	1035.44
398.595	1074.44
398.82	1127.44
399.044	1230.44
399.268	1313.44
399.492	1527.44
399.717	1731.44
399.941	1740.44
400.165	1534.44
400.389	1384.44
400.613	1255.44
400.837	1209.44
401.062	1162.44
401.286	1188.44
401.51	1123.44
401.734	1128.44
401.958	1159.44
402.182	1177.44
402.406	1178.44
402.63	1192.44
402.854	1217.44
403.078	1248.44
403.302	1264.44
403.526	1311.44
403.75	1310.44
403.974	1322.44
404.198	1300.44
404.422	1319.44
404.645	1313.44
404.869	1300.44
405.093	1308.44
405.317	1266.44
405.541	1290.44
405.765	1255.44
405.988	1255.44
406.212	1253.44
406.436	1249.44
406.66	1277.44
406.883	1301.44
407.107	1386.44
407.331	1426.44
407.555	1486.44
407.778	1465.44
408.002	1435.44
408.226	1398.44
408.449	1362.44
408.673	1325.44
408.896	1286.44
409.12	1272.44
409.344	1307.44
409.567	1262.44
409.791	1273.44
410.014	1274.44
410.238	1281.44
410.461	1273.44
410.685	1216.44
410.908	1215.44
411.132	1189.44
411.355	1173.44
411.578	1211.44
411.802	1189.44
412.025	1205.44
412.249	1239.44
412.472	1220.44
412.695	1145.44
412.919	1156.44
413.142	1150.44
413.365	1138.44
413.589	1161.44
413.812	1138.44
414.035	1125.44
414.258	1141.44
414.482	1147.44
414.705	1151.44
414.928	1153.44
415.151	1157.44
415.374	1155.44
415.597	1093.44
415.821	1119.44
416.044	1127.44
416.267	1103.44
416.49	1129.44
416.713	1105.44
416.936	1136.44
417.159	1104.44
417.382	1109.44
417.605	1130.44
417.828	1088.44
418.051	1117.44
418.274	1134.44
418.497	1140.44
418.72	1171.44
418.943	1128.44
419.166	1221.44
419.389	1310.44
419.611	1261.44
419.834	1185.44
420.057	1179.44
420.28	1150.44
420.503	1125.44
420.726	1112.44
420.948	1098.44
421.171	1119.44
421.394	1117.44
421.617	1124.44
421.839	1094.44
422.062	1122.44
422.285	1125.44
422.507	1134.44
422.73	1131.44
422.953	1159.44
423.175	1165.44
423.398	1178.44
423.621	1172.44
423.843	1181.44
424.066	1175.44
424.288	1199.44
424.511	1185.44
424.733	1162.44
424.956	1177.44
425.178	1151.44
425.401	1128.44
425.623	1125.44
425.846	1073.44
426.068	1048.44
426.291	1065.44
426.513	1051.44
426.735	1048.44
426.958	1046.44
427.18	995.44
427.402	1000.44
427.625	1058.44
427.847	982.44
428.069	1009.44
428.292	1018.44
428.514	994.44
428.736	980.44
428.958	1002.44
429.181	961.44
429.403	992.44
429.625	957.44
429.847	962.44
430.069	974.44
430.292	953.44
430.514	962.44
430.736	953.44
430.958	993.44
431.18	989.44
431.402	1019.44
431.624	962.44
431.846	1000.44
432.068	1022.44
432.29	1008.44
432.512	1001.44
432.734	1007.44
432.956	975.44
433.178	984.44
433.4	990.44
433.622	993.44
433.844	1003.44
434.066	1008.44
434.287	1017.44
434.509	1062.44
434.731	1075.44
434.953	1097.44
435.175	1098.44
435.397	1099.44
435.618	1049.44
435.84	1027.44
436.062	988.44
436.284	1005.44
436.505	985.44
436.727	996.44
436.949	981.44
437.17	959.44
437.392	966.44
437.614	983.44
437.835	945.44
438.057	953.44
438.278	953.44
438.5	964.44
438.721	937.44
438.943	975.44
439.165	947.44
439.386	936.44
439.608	970.44
439.829	969.44
440.05	981.44
440.272	1006.44
440.493	978.44
440.715	1014.44
440.936	1059.44
441.158	1047.44
441.379	1069.44
441.6	1110.44
441.822	1126.44
442.043	1121.44
442.264	1107.44
442.486	1099.44
442.707	1098.44
442.928	1117.44
443.149	1091.44
443.371	1093.44
443.592	1085.44
443.813	1136.44
444.034	1144.44
444.255	1151.44
444.476	1231.44
444.698	1282.44
444.919	1319.44
445.14	1393.44
445.361	1267.44
445.582	1166.44
445.803	1110.44
446.024	1040.44
446.245	1024.44
446.466	1019.44
446.687	969.44
446.908	998.44
447.129	982.44
447.35	968.44
447.571	947.44
447.792	929.44
448.013	937.44
448.234	907.44
448.455	926.44
448.675	907.44
448.896	930.44
449.117	913.44
449.338	901.44
449.559	870.44
449.779	873.44
450	895.44
450.221	895.44
450.442	894.44
450.662	915.44
450.883	903.44
451.104	931.44
451.324	905.44
451.545	922.44
451.766	911.44
451.986	895.44
452.207	922.44
452.428	894.44
452.648	896.44
452.869	881.44
453.089	869.44
453.31	870.44
453.53	859.44
453.751	859.44
453.971	853.44
454.192	863.44
454.412	843.44
454.633	839.44
454.853	850.44
455.073	850.44
455.294	852.44
455.514	849.44
455.734	823.44
455.955	823.44
456.175	849.44
456.395	838.44
456.616	840.44
456.836	831.44
457.056	828.44
457.276	843.44
457.497	834.44
457.717	839.44
457.937	867.44
458.157	843.44
458.377	873.44
458.598	870.44
458.818	909.44
459.038	935.44
459.258	966.44
459.478	1003.44
459.698	1041.44
459.918	1059.44
460.138	1103.44
460.358	1170.44
460.578	1153.44
460.798	1188.44
461.018	1207.44
461.238	1184.44
461.458	1154.44
461.678	1176.44
461.898	1170.44
462.118	1207.44
462.338	1248.44
462.558	1300.44
462.777	1336.44
462.997	1433.44
463.217	1581.44
463.437	1607.44
463.657	1438.44
463.876	1398.44
464.096	1369.44
464.316	1343.44
464.536	1385.44
464.755	1338.44
464.975	1263.44
465.195	1205.44
465.414	1155.44
465.634	1101.44
465.854	1027.44
466.073	1018.44
466.293	993.44
466.512	981.44
466.732	962.44
466.951	952.44
467.171	943.44
467.391	947.44
467.61	908.44
467.829	954.44
468.049	914.44
468.268	943.44
468.488	912.44
468.707	927.44
468.927	901.44
469.146	890.44
469.365	928.44
469.585	937.44
469.804	957.44
470.023	977.44
470.243	971.44
470.462	965.44
470.681	1001.44
470.901	1000.44
471.12	989.44
471.339	950.44
471.558	937.44
471.777	952.44
471.997	939.44
472.216	910.44
472.435	936.44
472.654	937.44
472.873	889.44
473.092	899.44
473.311	894.44
473.53	914.44
473.749	890.44
473.968	885.44
474.187	857.44
474.406	888.44
474.625	888.44
474.844	883.44
475.063	870.44
475.282	898.44
475.501	887.44
475.72	919.44
475.939	911.44
476.158	913.44
476.377	924.44
476.596	919.44
476.814	959.44
477.033	957.44
477.252	939.44
477.471	970.44
477.69	1007.44
477.908	1015.44
478.127	1074.44
478.346	1065.44
478.564	1059.44
478.783	1107.44
479.002	1128.44
479.22	1127.44
479.439	1112.44
479.658	1103.44
479.876	1119.44
480.095	1144.44
480.313	1155.44
480.532	1183.44
480.751	1184.44
480.969	1143.44
481.188	1118.44
481.406	1065.44
481.624	1074.44
481.843	1033.44
482.061	994.44
482.28	1001.44
482.498	1006.44
482.717	999.44
482.935	1005.44
483.153	991.44
483.372	1028.44
483.59	1002.44
483.808	1013.44
484.027	977.44
484.245	1024.44
484.463	1041.44
484.681	1033.44
484.9	1050.44
485.118	1042.44
485.336	1031.44
485.554	1029.44
485.772	1069.44
485.99	1049.44
486.209	1047.44
486.427	1058.44
486.645	1087.44
486.863	1068.44
487.081	1066.44
487.299	1088.44
487.517	1061.44
487.735	1046.44
487.953	1051.44
488.171	1061.44
488.389	1067.44
488.607	1047.44
488.825	1028.44
489.043	1044.44
489.261	1064.44
489.479	1060.44
489.696	1074.44
489.914	1087.44
490.132	1081.44
490.35	1084.44
490.568	1083.44
490.786	1075.44
491.003	1091.44
491.221	1108.44
491.439	1053.44
491.657	1069.44
491.874	1081.44
492.092	1099.44
492.31	1102.44
492.527	1067.44
492.745	1092.44
492.963	1110.44
493.18	1115.44
493.398	1083.44
493.615	1118.44
493.833	1096.44
494.05	1138.44
494.268	1140.44
494.485	1142.44
494.703	1137.44
494.92	1155.44
495.138	1121.44
495.355	1153.44
495.573	1157.44
495.79	1142.44
496.008	1183.44
496.225	1155.44
496.442	1159.44
496.66	1184.44
496.877	1174.44
497.094	1225.44
497.312	1258.44
497.529	1258.44
497.746	1329.44
497.963	1363.44
498.181	1426.44
498.398	1484.44
498.615	1538.44
498.832	1672.44
499.049	1801.44
499.267	1942.44
499.484	2138.44
499.701	2358.44
499.918	2596.44
500.135	3023.44
500.352	3385.44
500.569	3586.44
500.786	3510.44
501.003	3278.44
501.22	2971.44
501.437	2579.44
501.654	2280.44
501.871	2049.44
502.088	1913.44
502.305	1781.44
502.522	1654.44
502.739	1638.44
502.956	1571.44
503.172	1461.44
503.389	1407.44
503.606	1366.44
503.823	1323.44
504.04	1315.44
504.256	1330.44
504.473	1365.44
504.69	1382.44
504.907	1346.44
505.123	1229.44
505.34	1198.44
505.557	1126.44
505.773	1138.44
505.99	1087.44
506.207	1085.44
506.423	1072.44
506.64	1061.44
506.856	1032.44
507.073	1029.44
507.289	1028.44
507.506	998.44
507.722	968.44
507.939	1024.44
508.155	970.44
508.372	996.44
508.588	947.44
508.805	949.44
509.021	964.44
509.238	955.44
509.454	919.44
509.67	945.44
509.887	923.44
510.103	944.44
510.319	910.44
510.536	945.44
510.752	917.44
510.968	921.44
511.184	913.44
511.401	934.44
511.617	903.44
511.833	938.44
512.049	910.44
512.265	901.44
512.481	914.44
512.698	890.44
512.914	935.44
513.13	909.44
513.346	884.44
513.562	904.44
513.778	932.44
513.994	927.44
514.21	935.44
514.426	950.44
514.642	925.44
514.858	958.44
515.074	963.44
515.29	976.44
515.506	946.44
515.721	982.44
515.937	978.44
516.153	1023.44
516.369	1045.44
516.585	1039.44
516.801	1082.44
517.016	1149.44
517.232	1181.44
517.448	1216.44
517.664	1271.44
517.879	1298.44
518.095	1320.44
518.311	1292.44
518.527	1189.44
518.742	1178.44
518.958	1115.44
519.173	1106.44
519.389	1029.44
519.605	1001.44
519.82	1008.44
520.036	998.44
520.251	977.44
520.467	957.44
520.682	945.44
520.898	937.44
521.113	872.44
521.329	883.44
521.544	905.44
521.76	890.44
521.975	901.44
522.19	874.44
522.406	852.44
522.621	836.44
522.836	911.44
523.052	861.44
523.267	879.44
523.482	869.44
523.698	877.44
523.913	844.44
524.128	855.44
524.343	849.44
524.559	830.44
524.774	862.44
524.989	835.44
525.204	837.44
525.419	816.44
525.634	803.44
525.849	843.44
526.064	853.44
526.28	806.44
526.495	821.44
526.71	826.44
526.925	843.44
527.14	817.44
527.355	818.44
527.57	825.44
527.785	821.44
527.999	803.44
528.214	827.44
528.429	826.44
528.644	831.44
528.859	858.44
529.074	845.44
529.289	833.44
529.503	833.44
529.718	823.44
529.933	829.44
530.148	821.44
530.363	817.44
530.577	810.44
530.792	804.44
531.007	811.44
531.221	833.44
531.436	805.44
531.651	828.44
531.865	832.44
532.08	818.44
532.295	818.44
532.509	800.44
532.724	822.44
532.938	810.44
533.153	799.44
533.367	817.44
533.582	815.44
533.796	809.44
534.011	804.44
534.225	792.44
534.44	807.44
534.654	794.44
534.868	817.44
535.083	798.44
535.297	815.44
535.511	817.44
535.726	774.44
535.94	769.44
536.154	799.44
536.369	791.44
536.583	783.44
536.797	767.44
537.011	774.44
537.225	779.44
537.44	746.44
537.654	751.44
537.868	760.44
538.082	741.44
538.296	729.44
538.51	770.44
538.724	777.44
538.938	744.44
539.153	729.44
539.367	751.44
539.581	747.44
539.795	690.44
540.009	733.44
540.222	731.44
540.436	740.44
540.65	721.44
540.864	743.44
541.078	719.44
541.292	743.44
541.506	750.44
541.72	740.44
541.934	707.44
542.147	754.44
542.361	698.44
542.575	728.44
542.789	767.44
543.002	730.44
543.216	713.44
543.43	719.44
543.644	722.44
543.857	738.44
544.071	714.44
544.285	741.44
544.498	725.44
544.712	736.44
544.925	752.44
545.139	741.44
545.352	731.44
545.566	761.44
545.779	752.44
545.993	753.44
546.206	766.44
546.42	750.44
546.633	751.44
546.847	747.44
547.06	744.44
547.274	770.44
547.487	740.44
547.7	766.44
547.914	771.44
548.127	787.44
548.34	778.44
548.554	770.44
548.767	766.44
548.98	753.44
549.193	747.44
549.407	751.44
549.62	788.44
549.833	789.44
550.046	767.44
550.259	794.44
550.473	772.44
550.686	755.44
550.899	762.44
551.112	738.44
551.325	717.44
551.538	717.44
551.751	740.44
551.964	701.44
552.177	742.44
552.39	735.44
552.603	798.44
552.816	773.44
553.029	802.44
553.242	793.44
553.455	827.44
553.667	854.44
553.88	820.44
554.093	803.44
554.306	793.44
554.519	763.44
554.732	742.44
554.944	758.44
555.157	712.44
555.37	734.44
555.583	693.44
555.795	706.44
556.008	684.44
556.221	654.44
556.433	671.44
556.646	638.44
556.859	677.44
557.071	677.44
557.284	650.44
557.496	646.44
557.709	637.44
557.921	648.44
558.134	639.44
558.346	624.44
558.559	594.44
558.771	627.44
558.984	626.44
559.196	628.44
559.409	632.44
559.621	616.44
559.833	626.44
560.046	609.44
560.258	633.44
560.47	611.44
560.683	612.44
560.895	621.44
561.107	621.44
561.32	606.44
561.532	595.44
561.744	611.44
561.956	599.44
562.168	626.44
562.381	606.44
562.593	623.44
562.805	605.44
563.017	602.44
563.229	645.44
563.441	617.44
563.653	619.44
563.865	640.44
564.077	641.44
564.289	629.44
564.501	643.44
564.713	682.44
564.925	673.44
565.137	706.44
565.349	702.44
565.561	722.44
565.773	754.44
565.985	767.44
566.197	799.44
566.408	887.44
566.62	935.44
566.832	1002.44
567.044	1053.44
567.255	1015.44
567.467	1062.44
567.679	1105.44
567.891	1177.44
568.102	1219.44
568.314	1168.44
568.526	1065.44
568.737	934.44
568.949	880.44
569.161	803.44
569.372	745.44
569.584	741.44
569.795	664.44
570.007	656.44
570.218	643.44
570.43	683.44
570.641	625.44
570.853	631.44
571.064	648.44
571.276	655.44
571.487	624.44
571.698	583.44
571.91	579.44
572.121	573.44
572.333	554.44
572.544	551.44
572.755	556.44
572.966	535.44
573.178	526.44
573.389	525.44
573.6	528.44
573.811	515.44
574.023	505.44
574.234	517.44
574.445	510.44
574.656	510.44
574.867	539.44
575.078	512.44
575.289	513.44
575.501	499.44
575.712	472.44
575.923	479.44
576.134	482.44
576.345	474.44
576.556	482.44
576.767	481.44
576.978	492.44
577.188	468.44
577.399	451.44
577.61	471.44
577.821	457.44
578.032	478.44
578.243	465.44
578.454	459.44
578.665	444.44
578.875	463.44
579.086	430.44
579.297	436.44
579.508	440.44
579.718	441.44
579.929	441.44
580.14	435.44
580.35	449.44
580.561	430.44
580.772	441.44
580.982	425.44
581.193	447.44
581.403	429.44
581.614	431.44
581.825	426.44
582.035	414.44
582.246	413.44
582.456	433.44
582.667	424.44
582.877	423.44
583.087	440.44
583.298	434.44
583.508	428.44
583.719	439.44
583.929	416.44
584.139	396.44
584.35	426.44
584.56	447.44
584.77	411.44
584.981	408.44
585.191	408.44
585.401	382.44
585.611	401.44
585.821	420.44
586.032	411.44
586.242	422.44
586.452	395.44
586.662	403.44
586.872	402.44
587.082	394.44
587.292	406.44
587.502	392.44
587.713	377.44
587.923	413.44
588.133	424.44
588.343	403.44
588.553	404.44
588.762	409.44
588.972	421.44
589.182	419.44
589.392	423.44
589.602	424.44
589.812	418.44
590.022	397.44
590.232	398.44
590.441	425.44
590.651	413.44
590.861	431.44
591.071	415.44
591.281	405.44
591.49	410.44
591.7	429.44
591.91	441.44
592.119	443.44
592.329	447.44
592.539	457.44
592.748	474.44
592.958	494.44
593.167	518.44
593.377	511.44
593.587	531.44
593.796	521.44
594.006	533.44
594.215	537.44
594.424	514.44
594.634	524.44
594.843	492.44
595.053	487.44
595.262	470.44
595.472	441.44
595.681	429.44
595.89	445.44
596.1	420.44
596.309	386.44
596.518	413.44
596.727	394.44
596.937	383.44
597.146	382.44
597.355	409.44
597.564	363.44
597.774	366.44
597.983	359.44
598.192	360.44
598.401	353.44
598.61	343.44
598.819	341.44
599.028	335.44
599.237	345.44
599.446	344.44
599.655	352.44
599.864	343.44
600.073	328.44
600.282	365.44
600.491	342.44
600.7	342.44
600.909	335.44
601.118	332.44
601.327	350.44
601.536	351.44
601.745	352.44
601.953	324.44
602.162	338.44
602.371	331.44
602.58	315.44
602.789	325.44
602.997	330.44
603.206	332.44
603.415	339.44
603.623	326.44
603.832	331.44
604.041	333.44
604.249	317.44
604.458	310.44
604.666	314.44
604.875	309.44
605.084	327.44
605.292	331.44
605.501	335.44
605.709	309.44
605.918	323.44
606.126	298.44
606.334	324.44
606.543	321.44
606.751	322.44
606.96	306.44
607.168	313.44
607.376	305.44
607.585	304.44
607.793	313.44
608.001	322.44
608.21	311.44
608.418	307.44
608.626	301.44
608.834	309.44
609.043	299.44
609.251	289.44
609.459	304.44
609.667	309.44
609.875	320.44
610.083	292.44
610.291	302.44
610.499	299.44
610.707	308.44
610.916	314.44
611.124	287.44
611.332	294.44
611.54	297.44
611.748	303.44
611.955	288.44
612.163	285.44
612.371	291.44
612.579	280.44
612.787	283.44
612.995	293.44
613.203	298.44
613.411	314.44
613.618	290.44
613.826	297.44
614.034	295.44
614.242	292.44
614.449	267.44
614.657	298.44
614.865	283.44
615.072	297.44
615.28	303.44
615.488	274.44
615.695	275.44
615.903	304.44
616.111	295.44
616.318	298.44
616.526	302.44
616.733	298.44
616.941	278.44
617.148	296.44
617.356	292.44
617.563	283.44
617.771	277.44
617.978	268.44
618.185	270.44
618.393	282.44
618.6	272.44
618.807	288.44
619.015	303.44
619.222	289.44
619.429	301.44
619.637	304.44
619.844	267.44
620.051	278.44
620.258	293.44
620.466	281.44
620.673	272.44
620.88	277.44
621.087	277.44
621.294	284.44
621.501	275.44
621.708	262.44
621.915	280.44
622.122	277.44
622.329	243.44
622.536	276.44
622.743	256.44
622.95	272.44
623.157	267.44
623.364	252.44
623.571	260.44
623.778	276.44
623.985	258.44
624.192	273.44
624.399	261.44
624.606	248.44
624.812	275.44
625.019	240.44
625.226	256.44
625.433	252.44
625.639	245.44
625.846	254.44
626.053	245.44
626.259	237.44
626.466	244.44
626.673	258.44
626.879	250.44
627.086	245.44
627.293	243.44
627.499	260.44
627.706	245.44
627.912	259.44
628.119	227.44
628.325	231.44
628.532	244.44
628.738	249.44
628.945	242.44
629.151	241.44
629.357	232.44
629.564	229.44
629.77	253.44
629.976	258.44
630.183	251.44
630.389	221.44
630.595	227.44
630.802	226.44
631.008	203.44
631.214	228.44
631.42	228.44
631.627	238.44
631.833	239.44
632.039	229.44
632.245	216.44
632.451	223.44
632.657	210.44
632.863	216.44
633.069	217.44
633.275	214.44
633.481	213.44
633.688	214.44
633.893	219.44
634.099	222.44
634.305	224.44
634.511	212.44
634.717	212.44
634.923	203.44
635.129	218.44
635.335	203.44
635.541	223.44
635.747	206.44
635.952	207.44
636.158	195.44
636.364	213.44
636.57	209.44
636.775	219.44
636.981	216.44
637.187	197.44
637.392	202.44
637.598	204.44
637.804	205.44
638.009	198.44
638.215	203.44
638.421	201.44
638.626	202.44
638.832	213.44
639.037	217.44
639.243	195.44
639.448	197.44
639.654	192.44
639.859	190.44
640.065	198.44
640.27	211.44
640.475	191.44
640.681	180.44
640.886	210.44
641.091	210.44
641.297	211.44
641.502	195.44
641.707	201.44
641.913	199.44
642.118	207.44
642.323	202.44
642.528	192.44
642.733	196.44
642.939	198.44
643.144	192.44
643.349	199.44
643.554	207.44
643.759	193.44
643.964	187.44
644.169	188.44
644.374	190.44
644.579	198.44
644.784	202.44
644.989	193.44
645.194	162.44
645.399	174.44
645.604	178.44
645.809	183.44
646.014	183.44
646.219	182.44
646.423	185.44
646.628	189.44
646.833	183.44
647.038	195.44
647.243	195.44
647.447	198.44
647.652	203.44
647.857	210.44
648.062	188.44
648.266	205.44
648.471	196.44
648.676	205.44
648.88	182.44
649.085	195.44
649.289	187.44
649.494	199.44
649.698	195.44
649.903	195.44
650.107	188.44
650.312	165.44
650.516	170.44
650.721	190.44
650.925	177.44
651.13	166.44
651.334	175.44
651.539	180.44
651.743	176.44
651.947	168.44
652.152	152.44
652.356	176.44
652.56	143.44
652.764	161.44
652.969	143.44
653.173	146.44
653.377	155.44
653.581	145.44
653.785	158.44
653.99	143.44
654.194	151.44
654.398	136.44
654.602	135.44
654.806	150.44
655.01	138.44
655.214	134.44
655.418	141.44
655.622	144.44
655.826	136.44
656.03	147.44
656.234	137.44
656.438	122.44
656.642	131.44
656.846	131.44
657.049	118.44
657.253	114.44
657.457	107.44
657.661	120.44
657.865	109.44
658.068	108.44
658.272	109.44
658.476	109.44
658.68	112.44
658.883	88.44
659.087	125.44
659.291	101.44
659.494	95.44
659.698	105.44
659.901	94.44
660.105	106.44
660.309	79.44
660.512	85.44
660.716	100.44
660.919	107.44
661.123	102.44
661.326	94.44
661.53	70.44
661.733	88.44
661.936	82.44
662.14	79.44
662.343	108.44
662.546	106.44
662.75	76.44
662.953	89.44
663.156	87.44
663.36	74.44
663.563	83.44
663.766	91.44
663.969	98.44
664.173	79.44
664.376	89.44
664.579	89.44
664.782	93.44
664.985	92.44
665.188	79.44
665.391	84.44
665.594	80.44
665.797	67.44
666	69.44
666.203	82.44
666.406	73.44
666.609	82.44
666.812	77.44
667.015	82.44
667.218	82.44
667.421	67.44
667.624	85.44
667.827	69.44
668.03	80.44
668.232	85.44
668.435	66.44
668.638	79.44
668.841	82.44
669.043	73.44
669.246	88.44
669.449	83.44
669.651	82.44
669.854	87.44
670.057	78.44
670.259	74.44
670.462	79.44
670.665	83.44
670.867	89.44
671.07	87.44
671.272	66.44
671.475	85.44
671.677	89.44
671.88	102.44
672.082	64.44
672.284	79.44
672.487	74.44
672.689	84.44
672.892	81.44
