Data from NiCl2@0.25M.TitratingCurve.Agarose3%dH2O.NegLispCup.LampEnergy10.LIBS07252019_HRD10591_18-24-36-573.txt Node
Date: Thu Jul 25 18:24:36 EDT 2019
User: cochatt
Spectrometer: HR+D1059
Trigger mode: 1
Integration Time (sec): 1.000000E-1
Scans to average: 1
Electric dark correction enabled: true
Nonlinearity correction enabled: false
Boxcar width: 0
XAxis mode: Wavelengths
Number of Pixels in Spectrum: 2048
>>>>>Begin Spectral Data<<<<<
223.165	-5.06
223.4	-5.06
223.635	-5.06
223.869	-14.06
224.104	-28.06
224.338	-16.06
224.573	-16.06
224.808	-7.06
225.042	0.94
225.277	-16.06
225.511	-5.06
225.746	1.94
225.98	9.94
226.215	25.94
226.449	2.94
226.683	17.94
226.918	18.94
227.152	28.94
227.387	45.94
227.621	33.94
227.856	34.94
228.09	47.94
228.324	46.94
228.559	53.94
228.793	61.94
229.027	90.94
229.262	108.94
229.496	96.94
229.73	111.94
229.964	115.94
230.199	113.94
230.433	118.94
230.667	121.94
230.901	134.94
231.136	129.94
231.37	136.94
231.604	134.94
231.838	132.94
232.072	128.94
232.306	134.94
232.541	136.94
232.775	131.94
233.009	148.94
233.243	139.94
233.477	156.94
233.711	144.94
233.945	155.94
234.179	134.94
234.413	138.94
234.647	136.94
234.881	135.94
235.115	134.94
235.349	146.94
235.583	149.94
235.817	148.94
236.051	147.94
236.285	135.94
236.519	135.94
236.753	137.94
236.987	136.94
237.221	152.94
237.455	150.94
237.689	153.94
237.922	163.94
238.156	157.94
238.39	168.94
238.624	157.94
238.858	168.94
239.091	162.94
239.325	148.94
239.559	161.94
239.793	164.94
240.027	172.94
240.26	166.94
240.494	178.94
240.728	173.94
240.961	176.94
241.195	182.94
241.429	175.94
241.662	170.94
241.896	174.94
242.13	160.94
242.363	179.94
242.597	188.94
242.83	169.94
243.064	188.94
243.298	167.94
243.531	193.94
243.765	190.94
243.998	184.94
244.232	193.94
244.465	207.94
244.699	193.94
244.932	193.94
245.166	199.94
245.399	213.94
245.633	196.94
245.866	207.94
246.099	204.94
246.333	206.94
246.566	197.94
246.8	202.94
247.033	217.94
247.266	218.94
247.5	202.94
247.733	212.94
247.966	205.94
248.2	229.94
248.433	208.94
248.666	220.94
248.899	222.94
249.133	217.94
249.366	216.94
249.599	231.94
249.832	228.94
250.066	236.94
250.299	232.94
250.532	229.94
250.765	232.94
250.998	227.94
251.231	229.94
251.465	228.94
251.698	231.94
251.931	237.94
252.164	252.94
252.397	249.94
252.63	242.94
252.863	245.94
253.096	253.94
253.329	244.94
253.562	263.94
253.795	252.94
254.028	237.94
254.261	255.94
254.494	266.94
254.727	263.94
254.96	258.94
255.193	247.94
255.426	267.94
255.659	261.94
255.892	274.94
256.124	260.94
256.357	261.94
256.59	297.94
256.823	291.94
257.056	275.94
257.289	245.94
257.521	276.94
257.754	273.94
257.987	281.94
258.22	292.94
258.452	286.94
258.685	272.94
258.918	284.94
259.151	280.94
259.383	275.94
259.616	286.94
259.849	285.94
260.081	290.94
260.314	300.94
260.547	297.94
260.779	287.94
261.012	295.94
261.244	297.94
261.477	303.94
261.71	305.94
261.942	296.94
262.175	310.94
262.407	292.94
262.64	312.94
262.872	290.94
263.105	306.94
263.337	305.94
263.57	292.94
263.802	318.94
264.035	288.94
264.267	310.94
264.499	318.94
264.732	318.94
264.964	329.94
265.197	338.94
265.429	323.94
265.661	312.94
265.894	319.94
266.126	328.94
266.358	327.94
266.591	354.94
266.823	345.94
267.055	331.94
267.287	351.94
267.52	327.94
267.752	348.94
267.984	350.94
268.216	342.94
268.448	341.94
268.681	339.94
268.913	364.94
269.145	349.94
269.377	340.94
269.609	342.94
269.841	357.94
270.073	343.94
270.306	358.94
270.538	361.94
270.77	342.94
271.002	350.94
271.234	345.94
271.466	361.94
271.698	344.94
271.93	371.94
272.162	371.94
272.394	365.94
272.626	352.94
272.858	375.94
273.09	349.94
273.322	361.94
273.553	350.94
273.785	371.94
274.017	378.94
274.249	381.94
274.481	363.94
274.713	376.94
274.945	368.94
275.176	367.94
275.408	390.94
275.64	379.94
275.872	382.94
276.104	383.94
276.335	384.94
276.567	401.94
276.799	391.94
277.031	387.94
277.262	412.94
277.494	417.94
277.726	406.94
277.957	383.94
278.189	413.94
278.421	392.94
278.652	388.94
278.884	418.94
279.115	417.94
279.347	402.94
279.579	420.94
279.81	406.94
280.042	408.94
280.273	430.94
280.505	402.94
280.736	388.94
280.968	431.94
281.199	449.94
281.431	428.94
281.662	436.94
281.894	432.94
282.125	412.94
282.356	424.94
282.588	441.94
282.819	418.94
283.051	441.94
283.282	464.94
283.513	432.94
283.745	440.94
283.976	426.94
284.207	436.94
284.439	439.94
284.67	458.94
284.901	446.94
285.132	466.94
285.364	461.94
285.595	454.94
285.826	440.94
286.057	450.94
286.288	445.94
286.52	454.94
286.751	461.94
286.982	464.94
287.213	453.94
287.444	465.94
287.675	474.94
287.906	466.94
288.138	463.94
288.369	476.94
288.6	487.94
288.831	478.94
289.062	477.94
289.293	482.94
289.524	464.94
289.755	468.94
289.986	472.94
290.217	480.94
290.448	470.94
290.679	504.94
290.91	486.94
291.141	504.94
291.371	493.94
291.602	464.94
291.833	484.94
292.064	478.94
292.295	464.94
292.526	486.94
292.757	484.94
292.987	486.94
293.218	472.94
293.449	511.94
293.68	514.94
293.91	495.94
294.141	494.94
294.372	497.94
294.603	503.94
294.833	505.94
295.064	502.94
295.295	503.94
295.525	496.94
295.756	475.94
295.987	506.94
296.217	490.94
296.448	506.94
296.679	505.94
296.909	472.94
297.14	513.94
297.37	521.94
297.601	526.94
297.831	517.94
298.062	545.94
298.292	503.94
298.523	543.94
298.753	547.94
298.984	519.94
299.214	545.94
299.445	513.94
299.675	534.94
299.905	548.94
300.136	530.94
300.366	526.94
300.597	540.94
300.827	533.94
301.057	553.94
301.288	544.94
301.518	568.94
301.748	550.94
301.979	578.94
302.209	575.94
302.439	558.94
302.669	573.94
302.9	558.94
303.13	553.94
303.36	538.94
303.59	558.94
303.82	564.94
304.051	560.94
304.281	566.94
304.511	569.94
304.741	547.94
304.971	551.94
305.201	534.94
305.431	558.94
305.661	551.94
305.891	538.94
306.121	526.94
306.352	555.94
306.582	553.94
306.812	544.94
307.042	546.94
307.272	539.94
307.502	541.94
307.731	548.94
307.961	526.94
308.191	538.94
308.421	541.94
308.651	536.94
308.881	555.94
309.111	549.94
309.341	541.94
309.571	519.94
309.8	544.94
310.03	548.94
310.26	554.94
310.49	534.94
310.72	566.94
310.949	559.94
311.179	572.94
311.409	557.94
311.639	551.94
311.868	575.94
312.098	581.94
312.328	583.94
312.557	570.94
312.787	577.94
313.017	574.94
313.246	569.94
313.476	575.94
313.706	588.94
313.935	594.94
314.165	592.94
314.394	580.94
314.624	604.94
314.853	584.94
315.083	561.94
315.312	583.94
315.542	559.94
315.771	576.94
316.001	569.94
316.23	590.94
316.46	576.94
316.689	571.94
316.919	598.94
317.148	584.94
317.377	592.94
317.607	592.94
317.836	597.94
318.065	569.94
318.295	568.94
318.524	585.94
318.753	572.94
318.983	589.94
319.212	557.94
319.441	591.94
319.67	604.94
319.9	565.94
320.129	585.94
320.358	590.94
320.587	581.94
320.816	583.94
321.046	577.94
321.275	584.94
321.504	577.94
321.733	590.94
321.962	595.94
322.191	595.94
322.42	590.94
322.649	566.94
322.878	564.94
323.108	582.94
323.337	595.94
323.566	617.94
323.795	597.94
324.024	614.94
324.253	604.94
324.482	597.94
324.71	578.94
324.939	593.94
325.168	606.94
325.397	617.94
325.626	633.94
325.855	630.94
326.084	644.94
326.313	645.94
326.542	628.94
326.77	638.94
326.999	627.94
327.228	646.94
327.457	608.94
327.686	653.94
327.914	640.94
328.143	634.94
328.372	648.94
328.6	655.94
328.829	647.94
329.058	639.94
329.287	640.94
329.515	638.94
329.744	643.94
329.972	639.94
330.201	662.94
330.43	668.94
330.658	658.94
330.887	689.94
331.115	669.94
331.344	676.94
331.572	684.94
331.801	700.94
332.03	700.94
332.258	748.94
332.486	743.94
332.715	768.94
332.943	802.94
333.172	842.94
333.4	869.94
333.629	891.94
333.857	890.94
334.085	886.94
334.314	860.94
334.542	844.94
334.771	830.94
334.999	824.94
335.227	813.94
335.455	816.94
335.684	805.94
335.912	774.94
336.14	786.94
336.369	750.94
336.597	782.94
336.825	768.94
337.053	783.94
337.281	752.94
337.51	735.94
337.738	752.94
337.966	697.94
338.194	704.94
338.422	678.94
338.65	694.94
338.878	687.94
339.106	685.94
339.334	715.94
339.562	689.94
339.79	687.94
340.018	676.94
340.246	660.94
340.474	662.94
340.702	674.94
340.93	686.94
341.158	668.94
341.386	662.94
341.614	664.94
341.842	698.94
342.07	650.94
342.298	644.94
342.526	679.94
342.754	678.94
342.981	688.94
343.209	694.94
343.437	726.94
343.665	771.94
343.893	820.94
344.12	858.94
344.348	801.94
344.576	752.94
344.804	744.94
345.031	690.94
345.259	700.94
345.487	671.94
345.714	691.94
345.942	676.94
346.17	678.94
346.397	676.94
346.625	664.94
346.853	622.94
347.08	642.94
347.308	644.94
347.535	665.94
347.763	656.94
347.99	634.94
348.218	663.94
348.445	639.94
348.673	654.94
348.9	645.94
349.128	682.94
349.355	661.94
349.583	660.94
349.81	646.94
350.037	638.94
350.265	646.94
350.492	634.94
350.72	605.94
350.947	626.94
351.174	615.94
351.402	631.94
351.629	622.94
351.856	627.94
352.083	625.94
352.311	602.94
352.538	646.94
352.765	613.94
352.992	616.94
353.22	631.94
353.447	626.94
353.674	617.94
353.901	625.94
354.128	623.94
354.355	624.94
354.583	621.94
354.81	642.94
355.037	635.94
355.264	632.94
355.491	636.94
355.718	640.94
355.945	617.94
356.172	632.94
356.399	644.94
356.626	646.94
356.853	620.94
357.08	648.94
357.307	636.94
357.534	619.94
357.761	632.94
357.988	633.94
358.215	626.94
358.441	648.94
358.668	609.94
358.895	638.94
359.122	626.94
359.349	649.94
359.576	624.94
359.802	629.94
360.029	630.94
360.256	636.94
360.483	618.94
360.709	634.94
360.936	642.94
361.163	621.94
361.39	645.94
361.616	620.94
361.843	626.94
362.07	635.94
362.296	629.94
362.523	643.94
362.749	634.94
362.976	616.94
363.203	614.94
363.429	606.94
363.656	629.94
363.882	612.94
364.109	640.94
364.335	640.94
364.562	620.94
364.788	612.94
365.015	640.94
365.241	630.94
365.468	636.94
365.694	626.94
365.92	600.94
366.147	618.94
366.373	646.94
366.599	640.94
366.826	621.94
367.052	614.94
367.278	638.94
367.505	636.94
367.731	642.94
367.957	639.94
368.184	636.94
368.41	639.94
368.636	632.94
368.862	667.94
369.089	629.94
369.315	640.94
369.541	636.94
369.767	650.94
369.993	640.94
370.219	670.94
370.445	673.94
370.672	653.94
370.898	670.94
371.124	689.94
371.35	681.94
371.576	681.94
371.802	687.94
372.028	696.94
372.254	678.94
372.48	704.94
372.706	706.94
372.932	714.94
373.158	696.94
373.384	676.94
373.61	668.94
373.835	707.94
374.061	676.94
374.287	704.94
374.513	697.94
374.739	722.94
374.965	740.94
375.191	761.94
375.416	772.94
375.642	730.94
375.868	693.94
376.094	691.94
376.319	693.94
376.545	688.94
376.771	679.94
376.997	695.94
377.222	684.94
377.448	692.94
377.674	703.94
377.899	678.94
378.125	688.94
378.35	651.94
378.576	660.94
378.802	667.94
379.027	662.94
379.253	682.94
379.478	671.94
379.704	673.94
379.929	686.94
380.155	684.94
380.38	680.94
380.606	676.94
380.831	692.94
381.057	689.94
381.282	676.94
381.507	709.94
381.733	700.94
381.958	704.94
382.184	712.94
382.409	707.94
382.634	692.94
382.86	728.94
383.085	703.94
383.31	729.94
383.535	753.94
383.761	772.94
383.986	784.94
384.211	790.94
384.436	805.94
384.662	836.94
384.887	837.94
385.112	833.94
385.337	836.94
385.562	825.94
385.787	831.94
386.013	835.94
386.238	834.94
386.463	813.94
386.688	828.94
386.913	816.94
387.138	819.94
387.363	808.94
387.588	793.94
387.813	841.94
388.038	820.94
388.263	837.94
388.488	825.94
388.713	811.94
388.938	804.94
389.163	813.94
389.387	820.94
389.612	807.94
389.837	819.94
390.062	804.94
390.287	804.94
390.512	808.94
390.736	824.94
390.961	864.94
391.186	879.94
391.411	886.94
391.636	928.94
391.86	929.94
392.085	946.94
392.31	941.94
392.534	936.94
392.759	912.94
392.984	870.94
393.208	866.94
393.433	869.94
393.658	855.94
393.882	893.94
394.107	870.94
394.331	889.94
394.556	884.94
394.78	886.94
395.005	893.94
395.229	886.94
395.454	919.94
395.678	923.94
395.903	924.94
396.127	924.94
396.352	882.94
396.576	894.94
396.801	869.94
397.025	877.94
397.249	912.94
397.474	912.94
397.698	944.94
397.922	952.94
398.147	947.94
398.371	956.94
398.595	968.94
398.82	995.94
399.044	1116.94
399.268	1251.94
399.492	1461.94
399.717	1631.94
399.941	1602.94
400.165	1345.94
400.389	1253.94
400.613	1172.94
400.837	1102.94
401.062	1074.94
401.286	1049.94
401.51	1033.94
401.734	1065.94
401.958	1046.94
402.182	1062.94
402.406	1094.94
402.63	1073.94
402.854	1120.94
403.078	1145.94
403.302	1177.94
403.526	1186.94
403.75	1196.94
403.974	1240.94
404.198	1205.94
404.422	1192.94
404.645	1191.94
404.869	1184.94
405.093	1150.94
405.317	1163.94
405.541	1151.94
405.765	1134.94
405.988	1139.94
406.212	1148.94
406.436	1141.94
406.66	1143.94
406.883	1182.94
407.107	1254.94
407.331	1310.94
407.555	1353.94
407.778	1350.94
408.002	1315.94
408.226	1245.94
408.449	1219.94
408.673	1165.94
408.896	1189.94
409.12	1170.94
409.344	1167.94
409.567	1176.94
409.791	1193.94
410.014	1179.94
410.238	1132.94
410.461	1145.94
410.685	1124.94
410.908	1105.94
411.132	1072.94
411.355	1098.94
411.578	1084.94
411.802	1079.94
412.025	1117.94
412.249	1121.94
412.472	1078.94
412.695	1080.94
412.919	1042.94
413.142	1053.94
413.365	1021.94
413.589	1040.94
413.812	1047.94
414.035	1004.94
414.258	1015.94
414.482	1032.94
414.705	1033.94
414.928	1073.94
415.151	1054.94
415.374	1019.94
415.597	1045.94
415.821	1036.94
416.044	1036.94
416.267	989.94
416.49	1002.94
416.713	1034.94
416.936	1040.94
417.159	1007.94
417.382	1022.94
417.605	995.94
417.828	989.94
418.051	1017.94
418.274	1052.94
418.497	1022.94
418.72	1087.94
418.943	1068.94
419.166	1134.94
419.389	1203.94
419.611	1152.94
419.834	1109.94
420.057	1072.94
420.28	1049.94
420.503	997.94
420.726	995.94
420.948	1016.94
421.171	996.94
421.394	1030.94
421.617	1040.94
421.839	1023.94
422.062	1020.94
422.285	999.94
422.507	1022.94
422.73	1074.94
422.953	1078.94
423.175	1097.94
423.398	1095.94
423.621	1080.94
423.843	1133.94
424.066	1107.94
424.288	1101.94
424.511	1071.94
424.733	1074.94
424.956	1061.94
425.178	1056.94
425.401	1036.94
425.623	1032.94
425.846	991.94
426.068	990.94
426.291	945.94
426.513	963.94
426.735	951.94
426.958	946.94
427.18	912.94
427.402	949.94
427.625	901.94
427.847	903.94
428.069	900.94
428.292	938.94
428.514	903.94
428.736	890.94
428.958	916.94
429.181	870.94
429.403	883.94
429.625	873.94
429.847	867.94
430.069	866.94
430.292	879.94
430.514	873.94
430.736	883.94
430.958	896.94
431.18	872.94
431.402	857.94
431.624	879.94
431.846	889.94
432.068	906.94
432.29	959.94
432.512	920.94
432.734	892.94
432.956	888.94
433.178	905.94
433.4	907.94
433.622	897.94
433.844	942.94
434.066	916.94
434.287	947.94
434.509	978.94
434.731	981.94
434.953	1028.94
435.175	1013.94
435.397	990.94
435.618	947.94
435.84	906.94
436.062	926.94
436.284	894.94
436.505	900.94
436.727	899.94
436.949	913.94
437.17	910.94
437.392	904.94
437.614	869.94
437.835	832.94
438.057	883.94
438.278	848.94
438.5	833.94
438.721	852.94
438.943	855.94
439.165	840.94
439.386	850.94
439.608	886.94
439.829	896.94
440.05	878.94
440.272	917.94
440.493	916.94
440.715	903.94
440.936	913.94
441.158	918.94
441.379	946.94
441.6	1001.94
441.822	1001.94
442.043	1038.94
442.264	998.94
442.486	994.94
442.707	972.94
442.928	1015.94
443.149	988.94
443.371	986.94
443.592	1001.94
443.813	1001.94
444.034	1028.94
444.255	1032.94
444.476	1124.94
444.698	1193.94
444.919	1266.94
445.14	1327.94
445.361	1146.94
445.582	1042.94
445.803	969.94
446.024	944.94
446.245	939.94
446.466	919.94
446.687	908.94
446.908	910.94
447.129	869.94
447.35	863.94
447.571	881.94
447.792	856.94
448.013	822.94
448.234	834.94
448.455	828.94
448.675	804.94
448.896	812.94
449.117	796.94
449.338	830.94
449.559	796.94
449.779	790.94
450	817.94
450.221	813.94
450.442	821.94
450.662	832.94
450.883	850.94
451.104	862.94
451.324	833.94
451.545	822.94
451.766	816.94
451.986	810.94
452.207	818.94
452.428	852.94
452.648	801.94
452.869	812.94
453.089	783.94
453.31	820.94
453.53	801.94
453.751	782.94
453.971	779.94
454.192	791.94
454.412	748.94
454.633	769.94
454.853	791.94
455.073	776.94
455.294	754.94
455.514	771.94
455.734	757.94
455.955	753.94
456.175	783.94
456.395	754.94
456.616	787.94
456.836	772.94
457.056	760.94
457.276	740.94
457.497	774.94
457.717	772.94
457.937	761.94
458.157	786.94
458.377	803.94
458.598	800.94
458.818	839.94
459.038	833.94
459.258	888.94
459.478	912.94
459.698	948.94
459.918	969.94
460.138	1021.94
460.358	1044.94
460.578	1092.94
460.798	1095.94
461.018	1102.94
461.238	1066.94
461.458	1063.94
461.678	1032.94
461.898	1094.94
462.118	1094.94
462.338	1129.94
462.558	1149.94
462.777	1209.94
462.997	1321.94
463.217	1454.94
463.437	1448.94
463.657	1313.94
463.876	1222.94
464.096	1217.94
464.316	1265.94
464.536	1263.94
464.755	1178.94
464.975	1171.94
465.195	1128.94
465.414	1016.94
465.634	991.94
465.854	963.94
466.073	900.94
466.293	901.94
466.512	887.94
466.732	863.94
466.951	853.94
467.171	865.94
467.391	873.94
467.61	886.94
467.829	879.94
468.049	846.94
468.268	832.94
468.488	819.94
468.707	804.94
468.927	804.94
469.146	821.94
469.365	834.94
469.585	837.94
469.804	852.94
470.023	860.94
470.243	878.94
470.462	888.94
470.681	895.94
470.901	886.94
471.12	877.94
471.339	843.94
471.558	845.94
471.777	832.94
471.997	807.94
472.216	830.94
472.435	836.94
472.654	815.94
472.873	798.94
473.092	801.94
473.311	797.94
473.53	787.94
473.749	781.94
473.968	804.94
474.187	793.94
474.406	781.94
474.625	795.94
474.844	801.94
475.063	784.94
475.282	815.94
475.501	838.94
475.72	817.94
475.939	829.94
476.158	803.94
476.377	825.94
476.596	829.94
476.814	850.94
477.033	836.94
477.252	873.94
477.471	872.94
477.69	896.94
477.908	926.94
478.127	972.94
478.346	1016.94
478.564	963.94
478.783	990.94
479.002	1004.94
479.22	1029.94
479.439	982.94
479.658	993.94
479.876	988.94
480.095	1009.94
480.313	1044.94
480.532	1059.94
480.751	1101.94
480.969	1048.94
481.188	962.94
481.406	945.94
481.624	956.94
481.843	974.94
482.061	923.94
482.28	930.94
482.498	937.94
482.717	895.94
482.935	913.94
483.153	932.94
483.372	898.94
483.59	901.94
483.808	910.94
484.027	926.94
484.245	933.94
484.463	904.94
484.681	944.94
484.9	958.94
485.118	933.94
485.336	929.94
485.554	941.94
485.772	944.94
485.99	976.94
486.209	959.94
486.427	945.94
486.645	950.94
486.863	965.94
487.081	965.94
487.299	982.94
487.517	951.94
487.735	959.94
487.953	983.94
488.171	979.94
488.389	961.94
488.607	919.94
488.825	930.94
489.043	942.94
489.261	964.94
489.479	983.94
489.696	951.94
489.914	967.94
490.132	991.94
490.35	944.94
490.568	955.94
490.786	962.94
491.003	938.94
491.221	955.94
491.439	993.94
491.657	957.94
491.874	970.94
492.092	996.94
492.31	992.94
492.527	993.94
492.745	985.94
492.963	1011.94
493.18	1021.94
493.398	1034.94
493.615	998.94
493.833	1005.94
494.05	1000.94
494.268	1054.94
494.485	1048.94
494.703	1063.94
494.92	1018.94
495.138	1013.94
495.355	1024.94
495.573	1054.94
495.79	1040.94
496.008	1053.94
496.225	1034.94
496.442	1062.94
496.66	1095.94
496.877	1093.94
497.094	1120.94
497.312	1108.94
497.529	1162.94
497.746	1140.94
497.963	1178.94
498.181	1247.94
498.398	1307.94
498.615	1413.94
498.832	1536.94
499.049	1622.94
499.267	1731.94
499.484	1902.94
499.701	2181.94
499.918	2375.94
500.135	2772.94
500.352	3148.94
500.569	3256.94
500.786	3311.94
501.003	2972.94
501.22	2653.94
501.437	2344.94
501.654	2044.94
501.871	1809.94
502.088	1701.94
502.305	1555.94
502.522	1484.94
502.739	1428.94
502.956	1360.94
503.172	1307.94
503.389	1260.94
503.606	1185.94
503.823	1179.94
504.04	1187.94
504.256	1186.94
504.473	1240.94
504.69	1260.94
504.907	1264.94
505.123	1137.94
505.34	1080.94
505.557	1064.94
505.773	1008.94
505.99	1008.94
506.207	921.94
506.423	965.94
506.64	953.94
506.856	911.94
507.073	917.94
507.289	929.94
507.506	912.94
507.722	914.94
507.939	902.94
508.155	860.94
508.372	880.94
508.588	866.94
508.805	876.94
509.021	881.94
509.238	866.94
509.454	838.94
509.67	837.94
509.887	867.94
510.103	861.94
510.319	827.94
510.536	844.94
510.752	814.94
510.968	825.94
511.184	838.94
511.401	856.94
511.617	839.94
511.833	829.94
512.049	807.94
512.265	828.94
512.481	832.94
512.698	839.94
512.914	822.94
513.13	828.94
513.346	821.94
513.562	834.94
513.778	821.94
513.994	859.94
514.21	831.94
514.426	845.94
514.642	844.94
514.858	867.94
515.074	869.94
515.29	842.94
515.506	850.94
515.721	861.94
515.937	893.94
516.153	906.94
516.369	921.94
516.585	961.94
516.801	974.94
517.016	1036.94
517.232	1078.94
517.448	1122.94
517.664	1160.94
517.879	1177.94
518.095	1164.94
518.311	1166.94
518.527	1063.94
518.742	1042.94
518.958	991.94
519.173	993.94
519.389	961.94
519.605	893.94
519.82	901.94
520.036	868.94
520.251	859.94
520.467	880.94
520.682	830.94
520.898	814.94
521.113	804.94
521.329	819.94
521.544	785.94
521.76	813.94
521.975	807.94
522.19	771.94
522.406	800.94
522.621	790.94
522.836	751.94
523.052	789.94
523.267	769.94
523.482	772.94
523.698	755.94
523.913	731.94
524.128	754.94
524.343	760.94
524.559	757.94
524.774	764.94
524.989	786.94
525.204	782.94
525.419	743.94
525.634	758.94
525.849	750.94
526.064	766.94
526.28	738.94
526.495	733.94
526.71	743.94
526.925	743.94
527.14	739.94
527.355	749.94
527.57	739.94
527.785	718.94
527.999	727.94
528.214	760.94
528.429	729.94
528.644	760.94
528.859	753.94
529.074	767.94
529.289	758.94
529.503	737.94
529.718	758.94
529.933	737.94
530.148	736.94
530.363	748.94
530.577	753.94
530.792	716.94
531.007	752.94
531.221	749.94
531.436	729.94
531.651	735.94
531.865	764.94
532.08	751.94
532.295	760.94
532.509	754.94
532.724	732.94
532.938	752.94
533.153	733.94
533.367	743.94
533.582	739.94
533.796	721.94
534.011	736.94
534.225	718.94
534.44	709.94
534.654	700.94
534.868	735.94
535.083	735.94
535.297	736.94
535.511	711.94
535.726	728.94
535.94	693.94
536.154	696.94
536.369	692.94
536.583	684.94
536.797	688.94
537.011	695.94
537.225	680.94
537.44	700.94
537.654	708.94
537.868	677.94
538.082	674.94
538.296	665.94
538.51	664.94
538.724	670.94
538.938	688.94
539.153	656.94
539.367	696.94
539.581	668.94
539.795	634.94
540.009	661.94
540.222	662.94
540.436	635.94
540.65	673.94
540.864	658.94
541.078	674.94
541.292	676.94
541.506	679.94
541.72	674.94
541.934	664.94
542.147	675.94
542.361	670.94
542.575	641.94
542.789	654.94
543.002	662.94
543.216	661.94
543.43	662.94
543.644	666.94
543.857	650.94
544.071	639.94
544.285	660.94
544.498	668.94
544.712	680.94
544.925	669.94
545.139	670.94
545.352	695.94
545.566	689.94
545.779	694.94
545.993	686.94
546.206	691.94
546.42	690.94
546.633	684.94
546.847	682.94
547.06	680.94
547.274	680.94
547.487	670.94
547.7	664.94
547.914	685.94
548.127	672.94
548.34	699.94
548.554	673.94
548.767	680.94
548.98	710.94
549.193	701.94
549.407	699.94
549.62	694.94
549.833	712.94
550.046	706.94
550.259	690.94
550.473	679.94
550.686	685.94
550.899	702.94
551.112	663.94
551.325	658.94
551.538	681.94
551.751	673.94
551.964	697.94
552.177	701.94
552.39	690.94
552.603	697.94
552.816	707.94
553.029	733.94
553.242	757.94
553.455	738.94
553.667	754.94
553.88	753.94
554.093	714.94
554.306	715.94
554.519	686.94
554.732	679.94
554.944	663.94
555.157	671.94
555.37	654.94
555.583	637.94
555.795	649.94
556.008	636.94
556.221	596.94
556.433	574.94
556.646	597.94
556.859	588.94
557.071	581.94
557.284	585.94
557.496	567.94
557.709	581.94
557.921	582.94
558.134	559.94
558.346	582.94
558.559	553.94
558.771	551.94
558.984	560.94
559.196	578.94
559.409	584.94
559.621	567.94
559.833	567.94
560.046	570.94
560.258	549.94
560.47	556.94
560.683	574.94
560.895	551.94
561.107	565.94
561.32	555.94
561.532	548.94
561.744	559.94
561.956	566.94
562.168	545.94
562.381	533.94
562.593	532.94
562.805	559.94
563.017	570.94
563.229	561.94
563.441	558.94
563.653	570.94
563.865	572.94
564.077	567.94
564.289	563.94
564.501	583.94
564.713	596.94
564.925	593.94
565.137	615.94
565.349	628.94
565.561	642.94
565.773	677.94
565.985	700.94
566.197	730.94
566.408	775.94
566.62	857.94
566.832	951.94
567.044	974.94
567.255	924.94
567.467	952.94
567.679	1006.94
567.891	1106.94
568.102	1142.94
568.314	1058.94
568.526	934.94
568.737	848.94
568.949	776.94
569.161	729.94
569.372	670.94
569.584	636.94
569.795	592.94
570.007	602.94
570.218	598.94
570.43	597.94
570.641	579.94
570.853	585.94
571.064	580.94
571.276	582.94
571.487	565.94
571.698	544.94
571.91	525.94
572.121	506.94
572.333	512.94
572.544	495.94
572.755	477.94
572.966	463.94
573.178	475.94
573.389	476.94
573.6	480.94
573.811	452.94
574.023	476.94
574.234	449.94
574.445	440.94
574.656	468.94
574.867	459.94
575.078	462.94
575.289	440.94
575.501	452.94
575.712	431.94
575.923	457.94
576.134	443.94
576.345	449.94
576.556	426.94
576.767	426.94
576.978	447.94
577.188	422.94
577.399	435.94
577.61	410.94
577.821	424.94
578.032	402.94
578.243	393.94
578.454	417.94
578.665	399.94
578.875	404.94
579.086	406.94
579.297	406.94
579.508	408.94
579.718	410.94
579.929	399.94
580.14	396.94
580.35	401.94
580.561	382.94
580.772	393.94
580.982	392.94
581.193	392.94
581.403	390.94
581.614	393.94
581.825	374.94
582.035	384.94
582.246	408.94
582.456	405.94
582.667	373.94
582.877	381.94
583.087	380.94
583.298	364.94
583.508	378.94
583.719	383.94
583.929	378.94
584.139	365.94
584.35	370.94
584.56	391.94
584.77	377.94
584.981	385.94
585.191	369.94
585.401	368.94
585.611	368.94
585.821	358.94
586.032	378.94
586.242	377.94
586.452	372.94
586.662	357.94
586.872	361.94
587.082	366.94
587.292	348.94
587.502	371.94
587.713	370.94
587.923	352.94
588.133	356.94
588.343	336.94
588.553	354.94
588.762	346.94
588.972	384.94
589.182	355.94
589.392	370.94
589.602	378.94
589.812	364.94
590.022	391.94
590.232	374.94
590.441	386.94
590.651	360.94
590.861	369.94
591.071	394.94
591.281	381.94
591.49	386.94
591.7	408.94
591.91	384.94
592.119	389.94
592.329	397.94
592.539	421.94
592.748	423.94
592.958	465.94
593.167	461.94
593.377	487.94
593.587	478.94
593.796	483.94
594.006	488.94
594.215	478.94
594.424	478.94
594.634	468.94
594.843	451.94
595.053	421.94
595.262	411.94
595.472	380.94
595.681	395.94
595.89	386.94
596.1	369.94
596.309	380.94
596.518	365.94
596.727	358.94
596.937	350.94
597.146	342.94
597.355	351.94
597.564	325.94
597.774	332.94
597.983	329.94
598.192	329.94
598.401	314.94
598.61	313.94
598.819	317.94
599.028	328.94
599.237	328.94
599.446	331.94
599.655	314.94
599.864	325.94
600.073	317.94
600.282	289.94
600.491	305.94
600.7	290.94
600.909	297.94
601.118	290.94
601.327	312.94
601.536	306.94
601.745	289.94
601.953	317.94
602.162	303.94
602.371	303.94
602.58	319.94
602.789	286.94
602.997	293.94
603.206	306.94
603.415	309.94
603.623	296.94
603.832	291.94
604.041	286.94
604.249	305.94
604.458	304.94
604.666	282.94
604.875	285.94
605.084	288.94
605.292	297.94
605.501	287.94
605.709	303.94
605.918	286.94
606.126	281.94
606.334	291.94
606.543	280.94
606.751	300.94
606.96	292.94
607.168	271.94
607.376	274.94
607.585	274.94
607.793	269.94
608.001	281.94
608.21	291.94
608.418	279.94
608.626	274.94
608.834	289.94
609.043	308.94
609.251	278.94
609.459	274.94
609.667	280.94
609.875	263.94
610.083	290.94
610.291	284.94
610.499	294.94
610.707	285.94
610.916	258.94
611.124	265.94
611.332	281.94
611.54	277.94
611.748	290.94
611.955	250.94
612.163	264.94
612.371	277.94
612.579	278.94
612.787	268.94
612.995	271.94
613.203	273.94
613.411	286.94
613.618	258.94
613.826	281.94
614.034	257.94
614.242	265.94
614.449	267.94
614.657	283.94
614.865	263.94
615.072	258.94
615.28	252.94
615.488	273.94
615.695	275.94
615.903	265.94
616.111	275.94
616.318	280.94
616.526	269.94
616.733	269.94
616.941	270.94
617.148	292.94
617.356	261.94
617.563	261.94
617.771	274.94
617.978	270.94
618.185	274.94
618.393	270.94
618.6	263.94
618.807	254.94
619.015	277.94
619.222	242.94
619.429	255.94
619.637	279.94
619.844	273.94
620.051	258.94
620.258	250.94
620.466	253.94
620.673	240.94
620.88	239.94
621.087	230.94
621.294	262.94
621.501	257.94
621.708	259.94
621.915	257.94
622.122	257.94
622.329	247.94
622.536	241.94
622.743	237.94
622.95	241.94
623.157	254.94
623.364	235.94
623.571	231.94
623.778	245.94
623.985	255.94
624.192	242.94
624.399	233.94
624.606	215.94
624.812	228.94
625.019	213.94
625.226	245.94
625.433	253.94
625.639	243.94
625.846	223.94
626.053	221.94
626.259	229.94
626.466	226.94
626.673	218.94
626.879	226.94
627.086	225.94
627.293	228.94
627.499	222.94
627.706	216.94
627.912	213.94
628.119	223.94
628.325	226.94
628.532	217.94
628.738	238.94
628.945	218.94
629.151	218.94
629.357	220.94
629.564	212.94
629.77	210.94
629.976	208.94
630.183	213.94
630.389	209.94
630.595	225.94
630.802	218.94
631.008	211.94
631.214	210.94
631.42	210.94
631.627	220.94
631.833	222.94
632.039	206.94
632.245	217.94
632.451	206.94
632.657	213.94
632.863	198.94
633.069	192.94
633.275	194.94
633.481	198.94
633.688	203.94
633.893	205.94
634.099	213.94
634.305	197.94
634.511	219.94
634.717	200.94
634.923	187.94
635.129	188.94
635.335	196.94
635.541	200.94
635.747	199.94
635.952	191.94
636.158	197.94
636.364	188.94
636.57	203.94
636.775	197.94
636.981	206.94
637.187	198.94
637.392	200.94
637.598	198.94
637.804	191.94
638.009	196.94
638.215	195.94
638.421	210.94
638.626	194.94
638.832	186.94
639.037	193.94
639.243	188.94
639.448	190.94
639.654	203.94
639.859	186.94
640.065	182.94
640.27	192.94
640.475	182.94
640.681	185.94
640.886	197.94
641.091	166.94
641.297	175.94
641.502	185.94
641.707	192.94
641.913	183.94
642.118	167.94
642.323	177.94
642.528	172.94
642.733	175.94
642.939	183.94
643.144	176.94
643.349	178.94
643.554	175.94
643.759	181.94
643.964	170.94
644.169	188.94
644.374	185.94
644.579	180.94
644.784	190.94
644.989	169.94
645.194	177.94
645.399	164.94
645.604	180.94
645.809	169.94
646.014	173.94
646.219	174.94
646.423	185.94
646.628	173.94
646.833	186.94
647.038	185.94
647.243	181.94
647.447	185.94
647.652	201.94
647.857	187.94
648.062	191.94
648.266	179.94
648.471	176.94
648.676	187.94
648.88	212.94
649.085	180.94
649.289	180.94
649.494	186.94
649.698	177.94
649.903	187.94
650.107	182.94
650.312	190.94
650.516	168.94
650.721	174.94
650.925	176.94
651.13	161.94
651.334	171.94
651.539	140.94
651.743	172.94
651.947	149.94
652.152	160.94
652.356	152.94
652.56	149.94
652.764	161.94
652.969	137.94
653.173	166.94
653.377	142.94
653.581	137.94
653.785	137.94
653.99	137.94
654.194	132.94
654.398	141.94
654.602	136.94
654.806	143.94
655.01	135.94
655.214	128.94
655.418	125.94
655.622	131.94
655.826	129.94
656.03	131.94
656.234	128.94
656.438	127.94
656.642	134.94
656.846	140.94
657.049	119.94
657.253	122.94
657.457	128.94
657.661	132.94
657.865	98.94
658.068	122.94
658.272	100.94
658.476	117.94
658.68	100.94
658.883	96.94
659.087	96.94
659.291	99.94
659.494	110.94
659.698	88.94
659.901	98.94
660.105	101.94
660.309	87.94
660.512	84.94
660.716	97.94
660.919	102.94
661.123	97.94
661.326	85.94
661.53	102.94
661.733	94.94
661.936	84.94
662.14	75.94
662.343	78.94
662.546	85.94
662.75	75.94
662.953	93.94
663.156	72.94
663.36	76.94
663.563	92.94
663.766	72.94
663.969	73.94
664.173	86.94
664.376	89.94
664.579	77.94
664.782	73.94
664.985	92.94
665.188	82.94
665.391	87.94
665.594	102.94
665.797	73.94
666	88.94
666.203	80.94
666.406	80.94
666.609	86.94
666.812	70.94
667.015	88.94
667.218	82.94
667.421	81.94
667.624	79.94
667.827	72.94
668.03	74.94
668.232	79.94
668.435	78.94
668.638	88.94
668.841	76.94
669.043	80.94
669.246	90.94
669.449	76.94
669.651	75.94
669.854	68.94
670.057	85.94
670.259	74.94
670.462	78.94
670.665	73.94
670.867	82.94
671.07	90.94
671.272	87.94
671.475	84.94
671.677	84.94
671.88	84.94
672.082	81.94
672.284	73.94
672.487	78.94
672.689	84.94
672.892	82.94
