Data from NiCl2@0.125M.TitratingCurve.Agarose3%dH2O.NegLispCup.LampEnergy10.LIBS07252019_HRD10591_18-30-25-575.txt Node
Date: Thu Jul 25 18:30:25 EDT 2019
User: cochatt
Spectrometer: HR+D1059
Trigger mode: 1
Integration Time (sec): 1.000000E-1
Scans to average: 1
Electric dark correction enabled: true
Nonlinearity correction enabled: false
Boxcar width: 0
XAxis mode: Wavelengths
Number of Pixels in Spectrum: 2048
>>>>>Begin Spectral Data<<<<<
223.165	-19.38
223.4	-19.38
223.635	-19.38
223.869	-21.38
224.104	-27.38
224.338	-14.38
224.573	-19.38
224.808	-11.38
225.042	-3.38
225.277	-12.38
225.511	6.62
225.746	30.62
225.98	2.62
226.215	9.62
226.449	15.62
226.683	18.62
226.918	24.62
227.152	20.62
227.387	37.62
227.621	50.62
227.856	36.62
228.09	52.62
228.324	55.62
228.559	55.62
228.793	78.62
229.027	121.62
229.262	95.62
229.496	122.62
229.73	100.62
229.964	134.62
230.199	117.62
230.433	128.62
230.667	120.62
230.901	136.62
231.136	118.62
231.37	115.62
231.604	136.62
231.838	140.62
232.072	141.62
232.306	143.62
232.541	145.62
232.775	149.62
233.009	148.62
233.243	144.62
233.477	133.62
233.711	136.62
233.945	142.62
234.179	159.62
234.413	139.62
234.647	148.62
234.881	126.62
235.115	139.62
235.349	151.62
235.583	137.62
235.817	157.62
236.051	151.62
236.285	161.62
236.519	160.62
236.753	160.62
236.987	138.62
237.221	148.62
237.455	152.62
237.689	179.62
237.922	171.62
238.156	168.62
238.39	163.62
238.624	159.62
238.858	166.62
239.091	163.62
239.325	170.62
239.559	172.62
239.793	177.62
240.027	178.62
240.26	180.62
240.494	185.62
240.728	176.62
240.961	175.62
241.195	187.62
241.429	178.62
241.662	187.62
241.896	178.62
242.13	188.62
242.363	184.62
242.597	185.62
242.83	199.62
243.064	176.62
243.298	188.62
243.531	202.62
243.765	197.62
243.998	216.62
244.232	214.62
244.465	200.62
244.699	201.62
244.932	207.62
245.166	220.62
245.399	202.62
245.633	219.62
245.866	200.62
246.099	206.62
246.333	209.62
246.566	209.62
246.8	216.62
247.033	220.62
247.266	215.62
247.5	207.62
247.733	237.62
247.966	222.62
248.2	226.62
248.433	229.62
248.666	224.62
248.899	230.62
249.133	231.62
249.366	247.62
249.599	238.62
249.832	235.62
250.066	228.62
250.299	258.62
250.532	250.62
250.765	244.62
250.998	234.62
251.231	256.62
251.465	256.62
251.698	258.62
251.931	270.62
252.164	278.62
252.397	280.62
252.63	265.62
252.863	282.62
253.096	259.62
253.329	261.62
253.562	282.62
253.795	263.62
254.028	269.62
254.261	270.62
254.494	277.62
254.727	268.62
254.96	261.62
255.193	253.62
255.426	263.62
255.659	262.62
255.892	268.62
256.124	265.62
256.357	276.62
256.59	282.62
256.823	287.62
257.056	285.62
257.289	283.62
257.521	295.62
257.754	279.62
257.987	283.62
258.22	290.62
258.452	288.62
258.685	279.62
258.918	284.62
259.151	293.62
259.383	289.62
259.616	310.62
259.849	297.62
260.081	299.62
260.314	307.62
260.547	308.62
260.779	321.62
261.012	313.62
261.244	312.62
261.477	299.62
261.71	290.62
261.942	306.62
262.175	310.62
262.407	320.62
262.64	318.62
262.872	320.62
263.105	339.62
263.337	332.62
263.57	343.62
263.802	327.62
264.035	326.62
264.267	336.62
264.499	318.62
264.732	325.62
264.964	329.62
265.197	358.62
265.429	358.62
265.661	349.62
265.894	364.62
266.126	353.62
266.358	345.62
266.591	342.62
266.823	353.62
267.055	356.62
267.287	352.62
267.52	349.62
267.752	368.62
267.984	368.62
268.216	362.62
268.448	341.62
268.681	359.62
268.913	364.62
269.145	359.62
269.377	364.62
269.609	366.62
269.841	354.62
270.073	356.62
270.306	373.62
270.538	365.62
270.77	353.62
271.002	373.62
271.234	390.62
271.466	378.62
271.698	371.62
271.93	370.62
272.162	386.62
272.394	379.62
272.626	366.62
272.858	366.62
273.09	390.62
273.322	385.62
273.553	380.62
273.785	365.62
274.017	392.62
274.249	383.62
274.481	397.62
274.713	398.62
274.945	396.62
275.176	400.62
275.408	395.62
275.64	398.62
275.872	405.62
276.104	396.62
276.335	384.62
276.567	399.62
276.799	410.62
277.031	411.62
277.262	405.62
277.494	409.62
277.726	411.62
277.957	424.62
278.189	402.62
278.421	417.62
278.652	416.62
278.884	419.62
279.115	428.62
279.347	419.62
279.579	427.62
279.81	413.62
280.042	413.62
280.273	435.62
280.505	436.62
280.736	438.62
280.968	434.62
281.199	431.62
281.431	448.62
281.662	420.62
281.894	437.62
282.125	438.62
282.356	449.62
282.588	446.62
282.819	447.62
283.051	455.62
283.282	456.62
283.513	422.62
283.745	463.62
283.976	464.62
284.207	464.62
284.439	474.62
284.67	474.62
284.901	473.62
285.132	470.62
285.364	468.62
285.595	457.62
285.826	453.62
286.057	465.62
286.288	483.62
286.52	457.62
286.751	482.62
286.982	484.62
287.213	491.62
287.444	501.62
287.675	489.62
287.906	484.62
288.138	455.62
288.369	482.62
288.6	477.62
288.831	471.62
289.062	478.62
289.293	498.62
289.524	499.62
289.755	472.62
289.986	489.62
290.217	501.62
290.448	504.62
290.679	512.62
290.91	492.62
291.141	480.62
291.371	504.62
291.602	485.62
291.833	506.62
292.064	508.62
292.295	518.62
292.526	498.62
292.757	506.62
292.987	510.62
293.218	510.62
293.449	502.62
293.68	487.62
293.91	492.62
294.141	483.62
294.372	489.62
294.603	516.62
294.833	505.62
295.064	519.62
295.295	509.62
295.525	524.62
295.756	535.62
295.987	505.62
296.217	540.62
296.448	525.62
296.679	517.62
296.909	532.62
297.14	520.62
297.37	544.62
297.601	550.62
297.831	536.62
298.062	544.62
298.292	560.62
298.523	553.62
298.753	536.62
298.984	550.62
299.214	539.62
299.445	565.62
299.675	560.62
299.905	544.62
300.136	561.62
300.366	569.62
300.597	566.62
300.827	551.62
301.057	574.62
301.288	551.62
301.518	567.62
301.748	595.62
301.979	571.62
302.209	568.62
302.439	587.62
302.669	577.62
302.9	556.62
303.13	556.62
303.36	565.62
303.59	554.62
303.82	543.62
304.051	567.62
304.281	568.62
304.511	562.62
304.741	557.62
304.971	573.62
305.201	556.62
305.431	569.62
305.661	567.62
305.891	577.62
306.121	552.62
306.352	570.62
306.582	564.62
306.812	550.62
307.042	522.62
307.272	550.62
307.502	551.62
307.731	560.62
307.961	539.62
308.191	556.62
308.421	553.62
308.651	554.62
308.881	552.62
309.111	548.62
309.341	537.62
309.571	539.62
309.8	561.62
310.03	565.62
310.26	565.62
310.49	552.62
310.72	560.62
310.949	556.62
311.179	578.62
311.409	566.62
311.639	579.62
311.868	577.62
312.098	561.62
312.328	566.62
312.557	586.62
312.787	578.62
313.017	553.62
313.246	575.62
313.476	588.62
313.706	597.62
313.935	585.62
314.165	577.62
314.394	600.62
314.624	610.62
314.853	596.62
315.083	602.62
315.312	582.62
315.542	580.62
315.771	581.62
316.001	572.62
316.23	561.62
316.46	570.62
316.689	584.62
316.919	596.62
317.148	610.62
317.377	582.62
317.607	565.62
317.836	560.62
318.065	568.62
318.295	568.62
318.524	575.62
318.753	553.62
318.983	580.62
319.212	568.62
319.441	580.62
319.67	555.62
319.9	561.62
320.129	595.62
320.358	562.62
320.587	568.62
320.816	576.62
321.046	586.62
321.275	609.62
321.504	586.62
321.733	588.62
321.962	572.62
322.191	577.62
322.42	577.62
322.649	585.62
322.878	576.62
323.108	599.62
323.337	571.62
323.566	589.62
323.795	608.62
324.024	595.62
324.253	586.62
324.482	600.62
324.71	601.62
324.939	598.62
325.168	569.62
325.397	626.62
325.626	619.62
325.855	624.62
326.084	628.62
326.313	625.62
326.542	663.62
326.77	635.62
326.999	629.62
327.228	625.62
327.457	627.62
327.686	616.62
327.914	611.62
328.143	618.62
328.372	628.62
328.6	646.62
328.829	626.62
329.058	619.62
329.287	631.62
329.515	642.62
329.744	654.62
329.972	640.62
330.201	650.62
330.43	672.62
330.658	649.62
330.887	643.62
331.115	663.62
331.344	664.62
331.572	653.62
331.801	670.62
332.03	690.62
332.258	688.62
332.486	739.62
332.715	743.62
332.943	805.62
333.172	819.62
333.4	847.62
333.629	889.62
333.857	874.62
334.085	877.62
334.314	871.62
334.542	825.62
334.771	780.62
334.999	798.62
335.227	796.62
335.455	789.62
335.684	795.62
335.912	787.62
336.14	750.62
336.369	737.62
336.597	758.62
336.825	764.62
337.053	767.62
337.281	741.62
337.51	728.62
337.738	712.62
337.966	677.62
338.194	688.62
338.422	699.62
338.65	660.62
338.878	709.62
339.106	683.62
339.334	693.62
339.562	686.62
339.79	642.62
340.018	660.62
340.246	655.62
340.474	654.62
340.702	638.62
340.93	665.62
341.158	684.62
341.386	672.62
341.614	665.62
341.842	651.62
342.07	650.62
342.298	634.62
342.526	644.62
342.754	644.62
342.981	666.62
343.209	671.62
343.437	724.62
343.665	741.62
343.893	810.62
344.12	830.62
344.348	800.62
344.576	749.62
344.804	731.62
345.031	698.62
345.259	670.62
345.487	668.62
345.714	680.62
345.942	652.62
346.17	641.62
346.397	653.62
346.625	640.62
346.853	631.62
347.08	622.62
347.308	654.62
347.535	685.62
347.763	678.62
347.99	644.62
348.218	650.62
348.445	669.62
348.673	636.62
348.9	643.62
349.128	638.62
349.355	634.62
349.583	653.62
349.81	631.62
350.037	618.62
350.265	636.62
350.492	602.62
350.72	626.62
350.947	611.62
351.174	618.62
351.402	619.62
351.629	611.62
351.856	598.62
352.083	626.62
352.311	633.62
352.538	597.62
352.765	614.62
352.992	617.62
353.22	643.62
353.447	614.62
353.674	620.62
353.901	606.62
354.128	596.62
354.355	588.62
354.583	615.62
354.81	616.62
355.037	636.62
355.264	625.62
355.491	610.62
355.718	621.62
355.945	621.62
356.172	639.62
356.399	630.62
356.626	618.62
356.853	626.62
357.08	630.62
357.307	601.62
357.534	615.62
357.761	601.62
357.988	627.62
358.215	610.62
358.441	615.62
358.668	630.62
358.895	617.62
359.122	624.62
359.349	630.62
359.576	664.62
359.802	605.62
360.029	611.62
360.256	630.62
360.483	612.62
360.709	624.62
360.936	628.62
361.163	641.62
361.39	620.62
361.616	634.62
361.843	620.62
362.07	602.62
362.296	621.62
362.523	608.62
362.749	621.62
362.976	581.62
363.203	613.62
363.429	610.62
363.656	620.62
363.882	610.62
364.109	625.62
364.335	615.62
364.562	630.62
364.788	632.62
365.015	626.62
365.241	609.62
365.468	605.62
365.694	609.62
365.92	608.62
366.147	607.62
366.373	600.62
366.599	613.62
366.826	614.62
367.052	603.62
367.278	623.62
367.505	626.62
367.731	620.62
367.957	609.62
368.184	637.62
368.41	603.62
368.636	629.62
368.862	634.62
369.089	632.62
369.315	645.62
369.541	654.62
369.767	649.62
369.993	629.62
370.219	624.62
370.445	666.62
370.672	673.62
370.898	678.62
371.124	661.62
371.35	662.62
371.576	677.62
371.802	681.62
372.028	670.62
372.254	677.62
372.48	689.62
372.706	714.62
372.932	691.62
373.158	702.62
373.384	706.62
373.61	663.62
373.835	680.62
374.061	693.62
374.287	688.62
374.513	682.62
374.739	711.62
374.965	740.62
375.191	752.62
375.416	762.62
375.642	721.62
375.868	710.62
376.094	708.62
376.319	703.62
376.545	702.62
376.771	676.62
376.997	652.62
377.222	650.62
377.448	676.62
377.674	694.62
377.899	679.62
378.125	662.62
378.35	672.62
378.576	691.62
378.802	678.62
379.027	665.62
379.253	652.62
379.478	682.62
379.704	659.62
379.929	688.62
380.155	666.62
380.38	656.62
380.606	681.62
380.831	656.62
381.057	702.62
381.282	661.62
381.507	690.62
381.733	700.62
381.958	688.62
382.184	672.62
382.409	675.62
382.634	715.62
382.86	721.62
383.085	721.62
383.31	726.62
383.535	727.62
383.761	749.62
383.986	747.62
384.211	782.62
384.436	781.62
384.662	772.62
384.887	793.62
385.112	781.62
385.337	816.62
385.562	811.62
385.787	843.62
386.013	833.62
386.238	837.62
386.463	804.62
386.688	814.62
386.913	816.62
387.138	780.62
387.363	789.62
387.588	762.62
387.813	801.62
388.038	787.62
388.263	809.62
388.488	810.62
388.713	779.62
388.938	777.62
389.163	774.62
389.387	782.62
389.612	788.62
389.837	768.62
390.062	795.62
390.287	801.62
390.512	781.62
390.736	810.62
390.961	820.62
391.186	838.62
391.411	838.62
391.636	884.62
391.86	882.62
392.085	906.62
392.31	895.62
392.534	881.62
392.759	896.62
392.984	868.62
393.208	851.62
393.433	889.62
393.658	856.62
393.882	872.62
394.107	850.62
394.331	872.62
394.556	872.62
394.78	835.62
395.005	881.62
395.229	855.62
395.454	884.62
395.678	910.62
395.903	930.62
396.127	906.62
396.352	858.62
396.576	835.62
396.801	820.62
397.025	835.62
397.249	869.62
397.474	871.62
397.698	887.62
397.922	871.62
398.147	870.62
398.371	909.62
398.595	930.62
398.82	973.62
399.044	1062.62
399.268	1157.62
399.492	1370.62
399.717	1572.62
399.941	1579.62
400.165	1396.62
400.389	1221.62
400.613	1127.62
400.837	1069.62
401.062	1026.62
401.286	1018.62
401.51	1021.62
401.734	986.62
401.958	1035.62
402.182	1024.62
402.406	1052.62
402.63	1046.62
402.854	1086.62
403.078	1099.62
403.302	1131.62
403.526	1179.62
403.75	1202.62
403.974	1188.62
404.198	1209.62
404.422	1202.62
404.645	1190.62
404.869	1144.62
405.093	1149.62
405.317	1141.62
405.541	1125.62
405.765	1128.62
405.988	1126.62
406.212	1117.62
406.436	1113.62
406.66	1163.62
406.883	1157.62
407.107	1234.62
407.331	1316.62
407.555	1337.62
407.778	1322.62
408.002	1284.62
408.226	1267.62
408.449	1220.62
408.673	1167.62
408.896	1155.62
409.12	1171.62
409.344	1173.62
409.567	1160.62
409.791	1168.62
410.014	1179.62
410.238	1128.62
410.461	1154.62
410.685	1116.62
410.908	1115.62
411.132	1084.62
411.355	997.62
411.578	1036.62
411.802	1042.62
412.025	1076.62
412.249	1074.62
412.472	1077.62
412.695	1038.62
412.919	993.62
413.142	1006.62
413.365	1006.62
413.589	1002.62
413.812	987.62
414.035	984.62
414.258	1005.62
414.482	1039.62
414.705	1032.62
414.928	1024.62
415.151	1039.62
415.374	1028.62
415.597	1003.62
415.821	993.62
416.044	980.62
416.267	999.62
416.49	981.62
416.713	973.62
416.936	1003.62
417.159	987.62
417.382	998.62
417.605	1008.62
417.828	982.62
418.051	995.62
418.274	1014.62
418.497	1003.62
418.72	1068.62
418.943	1049.62
419.166	1106.62
419.389	1197.62
419.611	1195.62
419.834	1117.62
420.057	1051.62
420.28	1043.62
420.503	992.62
420.726	1011.62
420.948	1000.62
421.171	1056.62
421.394	1036.62
421.617	986.62
421.839	982.62
422.062	1023.62
422.285	1005.62
422.507	1037.62
422.73	1044.62
422.953	1060.62
423.175	1095.62
423.398	1069.62
423.621	1052.62
423.843	1109.62
424.066	1104.62
424.288	1083.62
424.511	1073.62
424.733	1076.62
424.956	1052.62
425.178	1017.62
425.401	1005.62
425.623	1014.62
425.846	982.62
426.068	972.62
426.291	974.62
426.513	949.62
426.735	932.62
426.958	952.62
427.18	928.62
427.402	939.62
427.625	896.62
427.847	889.62
428.069	903.62
428.292	916.62
428.514	898.62
428.736	901.62
428.958	899.62
429.181	905.62
429.403	883.62
429.625	872.62
429.847	869.62
430.069	898.62
430.292	880.62
430.514	886.62
430.736	908.62
430.958	871.62
431.18	890.62
431.402	882.62
431.624	876.62
431.846	908.62
432.068	939.62
432.29	931.62
432.512	906.62
432.734	903.62
432.956	913.62
433.178	941.62
433.4	904.62
433.622	895.62
433.844	913.62
434.066	923.62
434.287	947.62
434.509	938.62
434.731	983.62
434.953	1044.62
435.175	1046.62
435.397	1046.62
435.618	971.62
435.84	940.62
436.062	950.62
436.284	928.62
436.505	902.62
436.727	934.62
436.949	900.62
437.17	900.62
437.392	898.62
437.614	882.62
437.835	866.62
438.057	887.62
438.278	882.62
438.5	886.62
438.721	871.62
438.943	885.62
439.165	888.62
439.386	878.62
439.608	904.62
439.829	934.62
440.05	923.62
440.272	924.62
440.493	913.62
440.715	930.62
440.936	962.62
441.158	966.62
441.379	971.62
441.6	1044.62
441.822	1043.62
442.043	1051.62
442.264	1025.62
442.486	1010.62
442.707	1018.62
442.928	1032.62
443.149	1008.62
443.371	1015.62
443.592	1037.62
443.813	1009.62
444.034	1029.62
444.255	1049.62
444.476	1141.62
444.698	1209.62
444.919	1254.62
445.14	1317.62
445.361	1184.62
445.582	1072.62
445.803	983.62
446.024	980.62
446.245	954.62
446.466	946.62
446.687	909.62
446.908	926.62
447.129	909.62
447.35	900.62
447.571	886.62
447.792	847.62
448.013	880.62
448.234	864.62
448.455	857.62
448.675	890.62
448.896	844.62
449.117	821.62
449.338	837.62
449.559	844.62
449.779	830.62
450	823.62
450.221	846.62
450.442	854.62
450.662	861.62
450.883	873.62
451.104	900.62
451.324	896.62
451.545	885.62
451.766	864.62
451.986	864.62
452.207	853.62
452.428	839.62
452.648	863.62
452.869	832.62
453.089	821.62
453.31	828.62
453.53	814.62
453.751	840.62
453.971	827.62
454.192	827.62
454.412	813.62
454.633	800.62
454.853	800.62
455.073	808.62
455.294	798.62
455.514	804.62
455.734	801.62
455.955	781.62
456.175	758.62
456.395	768.62
456.616	819.62
456.836	779.62
457.056	773.62
457.276	765.62
457.497	793.62
457.717	777.62
457.937	779.62
458.157	819.62
458.377	798.62
458.598	818.62
458.818	845.62
459.038	844.62
459.258	882.62
459.478	903.62
459.698	942.62
459.918	986.62
460.138	1028.62
460.358	1060.62
460.578	1085.62
460.798	1099.62
461.018	1113.62
461.238	1080.62
461.458	1104.62
461.678	1043.62
461.898	1090.62
462.118	1109.62
462.338	1170.62
462.558	1174.62
462.777	1235.62
462.997	1346.62
463.217	1481.62
463.437	1505.62
463.657	1395.62
463.876	1321.62
464.096	1319.62
464.316	1305.62
464.536	1291.62
464.755	1234.62
464.975	1185.62
465.195	1134.62
465.414	1066.62
465.634	1008.62
465.854	970.62
466.073	929.62
466.293	951.62
466.512	914.62
466.732	904.62
466.951	888.62
467.171	880.62
467.391	908.62
467.61	880.62
467.829	860.62
468.049	892.62
468.268	848.62
468.488	828.62
468.707	854.62
468.927	840.62
469.146	836.62
469.365	874.62
469.585	883.62
469.804	898.62
470.023	883.62
470.243	916.62
470.462	920.62
470.681	925.62
470.901	890.62
471.12	909.62
471.339	884.62
471.558	855.62
471.777	867.62
471.997	861.62
472.216	844.62
472.435	836.62
472.654	849.62
472.873	809.62
473.092	833.62
473.311	816.62
473.53	824.62
473.749	820.62
473.968	813.62
474.187	808.62
474.406	829.62
474.625	824.62
474.844	826.62
475.063	826.62
475.282	847.62
475.501	831.62
475.72	856.62
475.939	852.62
476.158	866.62
476.377	855.62
476.596	860.62
476.814	874.62
477.033	875.62
477.252	896.62
477.471	938.62
477.69	933.62
477.908	918.62
478.127	951.62
478.346	978.62
478.564	998.62
478.783	1006.62
479.002	1017.62
479.22	1050.62
479.439	1031.62
479.658	1043.62
479.876	1017.62
480.095	1028.62
480.313	1090.62
480.532	1144.62
480.751	1144.62
480.969	1077.62
481.188	1039.62
481.406	984.62
481.624	982.62
481.843	984.62
482.061	949.62
482.28	930.62
482.498	926.62
482.717	910.62
482.935	962.62
483.153	949.62
483.372	955.62
483.59	948.62
483.808	964.62
484.027	953.62
484.245	977.62
484.463	953.62
484.681	976.62
484.9	978.62
485.118	1010.62
485.336	978.62
485.554	1015.62
485.772	1027.62
485.99	1016.62
486.209	1018.62
486.427	999.62
486.645	1024.62
486.863	1046.62
487.081	1022.62
487.299	1012.62
487.517	1019.62
487.735	1004.62
487.953	1008.62
488.171	994.62
488.389	983.62
488.607	964.62
488.825	972.62
489.043	969.62
489.261	980.62
489.479	985.62
489.696	966.62
489.914	992.62
490.132	987.62
490.35	998.62
490.568	989.62
490.786	1036.62
491.003	980.62
491.221	989.62
491.439	997.62
491.657	981.62
491.874	996.62
492.092	1010.62
492.31	1014.62
492.527	974.62
492.745	1022.62
492.963	1014.62
493.18	1016.62
493.398	1027.62
493.615	1050.62
493.833	1035.62
494.05	1015.62
494.268	1061.62
494.485	1067.62
494.703	1051.62
494.92	1046.62
495.138	1054.62
495.355	1036.62
495.573	1024.62
495.79	1052.62
496.008	1040.62
496.225	1050.62
496.442	1057.62
496.66	1086.62
496.877	1116.62
497.094	1126.62
497.312	1112.62
497.529	1140.62
497.746	1161.62
497.963	1202.62
498.181	1218.62
498.398	1277.62
498.615	1360.62
498.832	1469.62
499.049	1603.62
499.267	1734.62
499.484	1878.62
499.701	2102.62
499.918	2285.62
500.135	2695.62
500.352	3137.62
500.569	3346.62
500.786	3268.62
501.003	3035.62
501.22	2679.62
501.437	2392.62
501.654	2021.62
501.871	1821.62
502.088	1666.62
502.305	1576.62
502.522	1477.62
502.739	1432.62
502.956	1360.62
503.172	1286.62
503.389	1219.62
503.606	1216.62
503.823	1190.62
504.04	1192.62
504.256	1174.62
504.473	1231.62
504.69	1247.62
504.907	1229.62
505.123	1184.62
505.34	1104.62
505.557	1030.62
505.773	1015.62
505.99	988.62
506.207	946.62
506.423	963.62
506.64	944.62
506.856	908.62
507.073	931.62
507.289	908.62
507.506	932.62
507.722	920.62
507.939	912.62
508.155	900.62
508.372	913.62
508.588	896.62
508.805	874.62
509.021	871.62
509.238	874.62
509.454	837.62
509.67	842.62
509.887	833.62
510.103	829.62
510.319	857.62
510.536	858.62
510.752	829.62
510.968	854.62
511.184	840.62
511.401	834.62
511.617	842.62
511.833	857.62
512.049	832.62
512.265	833.62
512.481	836.62
512.698	861.62
512.914	839.62
513.13	848.62
513.346	840.62
513.562	823.62
513.778	828.62
513.994	852.62
514.21	852.62
514.426	823.62
514.642	855.62
514.858	855.62
515.074	856.62
515.29	884.62
515.506	877.62
515.721	903.62
515.937	868.62
516.153	893.62
516.369	931.62
516.585	948.62
516.801	968.62
517.016	1022.62
517.232	1088.62
517.448	1137.62
517.664	1188.62
517.879	1204.62
518.095	1214.62
518.311	1166.62
518.527	1090.62
518.742	1085.62
518.958	1013.62
519.173	1008.62
519.389	974.62
519.605	944.62
519.82	914.62
520.036	924.62
520.251	888.62
520.467	898.62
520.682	864.62
520.898	838.62
521.113	838.62
521.329	833.62
521.544	803.62
521.76	838.62
521.975	789.62
522.19	853.62
522.406	809.62
522.621	805.62
522.836	814.62
523.052	808.62
523.267	772.62
523.482	796.62
523.698	779.62
523.913	780.62
524.128	791.62
524.343	778.62
524.559	783.62
524.774	768.62
524.989	747.62
525.204	820.62
525.419	788.62
525.634	776.62
525.849	782.62
526.064	768.62
526.28	770.62
526.495	776.62
526.71	772.62
526.925	765.62
527.14	783.62
527.355	776.62
527.57	731.62
527.785	784.62
527.999	764.62
528.214	786.62
528.429	778.62
528.644	745.62
528.859	735.62
529.074	771.62
529.289	786.62
529.503	747.62
529.718	770.62
529.933	770.62
530.148	786.62
530.363	755.62
530.577	721.62
530.792	745.62
531.007	758.62
531.221	774.62
531.436	805.62
531.651	762.62
531.865	774.62
532.08	745.62
532.295	740.62
532.509	773.62
532.724	768.62
532.938	775.62
533.153	758.62
533.367	748.62
533.582	748.62
533.796	786.62
534.011	752.62
534.225	770.62
534.44	746.62
534.654	744.62
534.868	742.62
535.083	753.62
535.297	738.62
535.511	731.62
535.726	768.62
535.94	743.62
536.154	733.62
536.369	715.62
536.583	710.62
536.797	706.62
537.011	712.62
537.225	714.62
537.44	702.62
537.654	722.62
537.868	707.62
538.082	697.62
538.296	706.62
538.51	698.62
538.724	708.62
538.938	710.62
539.153	707.62
539.367	685.62
539.581	688.62
539.795	694.62
540.009	708.62
540.222	678.62
540.436	683.62
540.65	689.62
540.864	685.62
541.078	691.62
541.292	689.62
541.506	685.62
541.72	694.62
541.934	683.62
542.147	693.62
542.361	675.62
542.575	684.62
542.789	651.62
543.002	666.62
543.216	668.62
543.43	659.62
543.644	655.62
543.857	655.62
544.071	675.62
544.285	693.62
544.498	682.62
544.712	688.62
544.925	695.62
545.139	746.62
545.352	724.62
545.566	721.62
545.779	681.62
545.993	729.62
546.206	691.62
546.42	733.62
546.633	692.62
546.847	698.62
547.06	704.62
547.274	678.62
547.487	697.62
547.7	694.62
547.914	699.62
548.127	745.62
548.34	700.62
548.554	720.62
548.767	711.62
548.98	732.62
549.193	714.62
549.407	710.62
549.62	717.62
549.833	768.62
550.046	718.62
550.259	709.62
550.473	683.62
550.686	686.62
550.899	706.62
551.112	677.62
551.325	702.62
551.538	698.62
551.751	695.62
551.964	679.62
552.177	677.62
552.39	684.62
552.603	714.62
552.816	718.62
553.029	756.62
553.242	782.62
553.455	781.62
553.667	780.62
553.88	792.62
554.093	734.62
554.306	709.62
554.519	709.62
554.732	698.62
554.944	674.62
555.157	684.62
555.37	650.62
555.583	669.62
555.795	653.62
556.008	641.62
556.221	626.62
556.433	618.62
556.646	614.62
556.859	612.62
557.071	625.62
557.284	604.62
557.496	612.62
557.709	590.62
557.921	589.62
558.134	580.62
558.346	588.62
558.559	595.62
558.771	586.62
558.984	571.62
559.196	599.62
559.409	568.62
559.621	594.62
559.833	571.62
560.046	589.62
560.258	583.62
560.47	568.62
560.683	575.62
560.895	563.62
561.107	565.62
561.32	580.62
561.532	590.62
561.744	583.62
561.956	598.62
562.168	573.62
562.381	580.62
562.593	590.62
562.805	575.62
563.017	566.62
563.229	573.62
563.441	595.62
563.653	587.62
563.865	600.62
564.077	598.62
564.289	612.62
564.501	598.62
564.713	648.62
564.925	600.62
565.137	638.62
565.349	660.62
565.561	679.62
565.773	699.62
565.985	717.62
566.197	752.62
566.408	802.62
566.62	884.62
566.832	952.62
567.044	967.62
567.255	960.62
567.467	1007.62
567.679	1075.62
567.891	1180.62
568.102	1162.62
568.314	1128.62
568.526	982.62
568.737	897.62
568.949	813.62
569.161	772.62
569.372	696.62
569.584	640.62
569.795	641.62
570.007	619.62
570.218	589.62
570.43	594.62
570.641	608.62
570.853	604.62
571.064	630.62
571.276	606.62
571.487	607.62
571.698	572.62
571.91	557.62
572.121	556.62
572.333	526.62
572.544	523.62
572.755	509.62
572.966	505.62
573.178	500.62
573.389	515.62
573.6	485.62
573.811	509.62
574.023	480.62
574.234	494.62
574.445	490.62
574.656	498.62
574.867	486.62
575.078	500.62
575.289	482.62
575.501	467.62
575.712	460.62
575.923	468.62
576.134	463.62
576.345	462.62
576.556	461.62
576.767	452.62
576.978	465.62
577.188	471.62
577.399	458.62
577.61	434.62
577.821	447.62
578.032	446.62
578.243	452.62
578.454	436.62
578.665	451.62
578.875	443.62
579.086	450.62
579.297	453.62
579.508	417.62
579.718	423.62
579.929	445.62
580.14	413.62
580.35	419.62
580.561	416.62
580.772	433.62
580.982	409.62
581.193	421.62
581.403	426.62
581.614	416.62
581.825	402.62
582.035	408.62
582.246	402.62
582.456	424.62
582.667	420.62
582.877	409.62
583.087	401.62
583.298	398.62
583.508	422.62
583.719	406.62
583.929	414.62
584.139	403.62
584.35	419.62
584.56	413.62
584.77	397.62
584.981	404.62
585.191	409.62
585.401	410.62
585.611	388.62
585.821	392.62
586.032	402.62
586.242	405.62
586.452	408.62
586.662	390.62
586.872	385.62
587.082	401.62
587.292	397.62
587.502	392.62
587.713	388.62
587.923	394.62
588.133	378.62
588.343	399.62
588.553	396.62
588.762	397.62
588.972	394.62
589.182	389.62
589.392	398.62
589.602	412.62
589.812	392.62
590.022	386.62
590.232	414.62
590.441	396.62
590.651	403.62
590.861	419.62
591.071	395.62
591.281	398.62
591.49	415.62
591.7	411.62
591.91	416.62
592.119	418.62
592.329	430.62
592.539	433.62
592.748	458.62
592.958	484.62
593.167	472.62
593.377	494.62
593.587	524.62
593.796	513.62
594.006	519.62
594.215	529.62
594.424	514.62
594.634	512.62
594.843	485.62
595.053	444.62
595.262	444.62
595.472	446.62
595.681	424.62
595.89	414.62
596.1	413.62
596.309	411.62
596.518	379.62
596.727	361.62
596.937	384.62
597.146	394.62
597.355	379.62
597.564	373.62
597.774	372.62
597.983	347.62
598.192	338.62
598.401	356.62
598.61	345.62
598.819	374.62
599.028	356.62
599.237	369.62
599.446	336.62
599.655	328.62
599.864	347.62
600.073	324.62
600.282	338.62
600.491	342.62
600.7	338.62
600.909	366.62
601.118	337.62
601.327	331.62
601.536	331.62
601.745	322.62
601.953	337.62
602.162	323.62
602.371	320.62
602.58	318.62
602.789	344.62
602.997	325.62
603.206	334.62
603.415	331.62
603.623	318.62
603.832	331.62
604.041	332.62
604.249	328.62
604.458	320.62
604.666	309.62
604.875	324.62
605.084	323.62
605.292	329.62
605.501	317.62
605.709	317.62
605.918	310.62
606.126	329.62
606.334	308.62
606.543	293.62
606.751	313.62
606.96	306.62
607.168	301.62
607.376	308.62
607.585	306.62
607.793	317.62
608.001	300.62
608.21	298.62
608.418	295.62
608.626	293.62
608.834	308.62
609.043	299.62
609.251	310.62
609.459	308.62
609.667	290.62
609.875	290.62
610.083	295.62
610.291	301.62
610.499	294.62
610.707	290.62
610.916	291.62
611.124	304.62
611.332	292.62
611.54	317.62
611.748	304.62
611.955	294.62
612.163	307.62
612.371	297.62
612.579	299.62
612.787	315.62
612.995	291.62
613.203	298.62
613.411	295.62
613.618	297.62
613.826	308.62
614.034	288.62
614.242	282.62
614.449	280.62
614.657	297.62
614.865	287.62
615.072	288.62
615.28	301.62
615.488	298.62
615.695	275.62
615.903	296.62
616.111	293.62
616.318	322.62
616.526	308.62
616.733	291.62
616.941	300.62
617.148	291.62
617.356	284.62
617.563	297.62
617.771	292.62
617.978	280.62
618.185	289.62
618.393	310.62
618.6	294.62
618.807	285.62
619.015	290.62
619.222	297.62
619.429	272.62
619.637	270.62
619.844	260.62
620.051	260.62
620.258	288.62
620.466	276.62
620.673	289.62
620.88	264.62
621.087	275.62
621.294	281.62
621.501	277.62
621.708	299.62
621.915	270.62
622.122	267.62
622.329	266.62
622.536	264.62
622.743	268.62
622.95	257.62
623.157	282.62
623.364	269.62
623.571	275.62
623.778	261.62
623.985	264.62
624.192	252.62
624.399	270.62
624.606	261.62
624.812	251.62
625.019	269.62
625.226	263.62
625.433	255.62
625.639	256.62
625.846	227.62
626.053	240.62
626.259	250.62
626.466	254.62
626.673	250.62
626.879	255.62
627.086	258.62
627.293	249.62
627.499	247.62
627.706	240.62
627.912	242.62
628.119	240.62
628.325	246.62
628.532	244.62
628.738	228.62
628.945	234.62
629.151	229.62
629.357	253.62
629.564	226.62
629.77	228.62
629.976	233.62
630.183	229.62
630.389	230.62
630.595	236.62
630.802	237.62
631.008	206.62
631.214	241.62
631.42	236.62
631.627	240.62
631.833	241.62
632.039	218.62
632.245	233.62
632.451	232.62
632.657	217.62
632.863	221.62
633.069	217.62
633.275	219.62
633.481	221.62
633.688	227.62
633.893	231.62
634.099	214.62
634.305	206.62
634.511	218.62
634.717	216.62
634.923	224.62
635.129	224.62
635.335	216.62
635.541	228.62
635.747	217.62
635.952	225.62
636.158	216.62
636.364	214.62
636.57	212.62
636.775	217.62
636.981	210.62
637.187	203.62
637.392	215.62
637.598	208.62
637.804	215.62
638.009	234.62
638.215	196.62
638.421	219.62
638.626	205.62
638.832	205.62
639.037	206.62
639.243	221.62
639.448	200.62
639.654	204.62
639.859	216.62
640.065	212.62
640.27	224.62
640.475	220.62
640.681	205.62
640.886	212.62
641.091	195.62
641.297	198.62
641.502	192.62
641.707	206.62
641.913	203.62
642.118	217.62
642.323	196.62
642.528	197.62
642.733	194.62
642.939	209.62
643.144	184.62
643.349	190.62
643.554	205.62
643.759	203.62
643.964	210.62
644.169	181.62
644.374	192.62
644.579	215.62
644.784	202.62
644.989	213.62
645.194	201.62
645.399	222.62
645.604	189.62
645.809	193.62
646.014	219.62
646.219	193.62
646.423	197.62
646.628	198.62
646.833	205.62
647.038	217.62
647.243	203.62
647.447	213.62
647.652	209.62
647.857	209.62
648.062	210.62
648.266	232.62
648.471	217.62
648.676	217.62
648.88	211.62
649.085	202.62
649.289	213.62
649.494	192.62
649.698	180.62
649.903	198.62
650.107	198.62
650.312	190.62
650.516	181.62
650.721	208.62
650.925	181.62
651.13	180.62
651.334	164.62
651.539	178.62
651.743	185.62
651.947	169.62
652.152	177.62
652.356	182.62
652.56	183.62
652.764	174.62
652.969	163.62
653.173	160.62
653.377	172.62
653.581	182.62
653.785	168.62
653.99	164.62
654.194	165.62
654.398	156.62
654.602	148.62
654.806	159.62
655.01	166.62
655.214	149.62
655.418	144.62
655.622	152.62
655.826	161.62
656.03	157.62
656.234	146.62
656.438	156.62
656.642	142.62
656.846	158.62
657.049	136.62
657.253	155.62
657.457	140.62
657.661	132.62
657.865	132.62
658.068	130.62
658.272	120.62
658.476	123.62
658.68	109.62
658.883	113.62
659.087	120.62
659.291	107.62
659.494	120.62
659.698	105.62
659.901	121.62
660.105	100.62
660.309	91.62
660.512	96.62
660.716	99.62
660.919	88.62
661.123	91.62
661.326	104.62
661.53	88.62
661.733	91.62
661.936	85.62
662.14	89.62
662.343	78.62
662.546	62.62
662.75	75.62
662.953	84.62
663.156	92.62
663.36	98.62
663.563	74.62
663.766	89.62
663.969	85.62
664.173	72.62
664.376	97.62
664.579	71.62
664.782	83.62
664.985	91.62
665.188	79.62
665.391	89.62
665.594	85.62
665.797	76.62
666	83.62
666.203	77.62
666.406	92.62
666.609	92.62
666.812	79.62
667.015	89.62
667.218	68.62
667.421	82.62
667.624	78.62
667.827	82.62
668.03	79.62
668.232	73.62
668.435	73.62
668.638	89.62
668.841	88.62
669.043	88.62
669.246	83.62
669.449	73.62
669.651	79.62
669.854	74.62
670.057	79.62
670.259	80.62
670.462	75.62
670.665	95.62
670.867	78.62
671.07	94.62
671.272	86.62
671.475	76.62
671.677	78.62
671.88	76.62
672.082	86.62
672.284	81.62
672.487	82.62
672.689	85.62
672.892	84.62
