Data from NiCl2@0.5M.TitratingCurve.Agarose3%dH2O.NegLispCup.LampEnergy10.LIBS07252019_HRD10591_18-20-29-571.txt Node
Date: Thu Jul 25 18:20:29 EDT 2019
User: cochatt
Spectrometer: HR+D1059
Trigger mode: 1
Integration Time (sec): 1.000000E-1
Scans to average: 1
Electric dark correction enabled: true
Nonlinearity correction enabled: false
Boxcar width: 0
XAxis mode: Wavelengths
Number of Pixels in Spectrum: 2048
>>>>>Begin Spectral Data<<<<<
223.165	-9.25
223.4	-9.25
223.635	-9.25
223.869	-13.25
224.104	-8.25
224.338	-11.25
224.573	-17.25
224.808	-22.25
225.042	-3.25
225.277	-6.25
225.511	-4.25
225.746	1.75
225.98	9.75
226.215	9.75
226.449	15.75
226.683	14.75
226.918	18.75
227.152	24.75
227.387	30.75
227.621	48.75
227.856	48.75
228.09	31.75
228.324	43.75
228.559	52.75
228.793	83.75
229.027	116.75
229.262	145.75
229.496	152.75
229.73	142.75
229.964	156.75
230.199	182.75
230.433	194.75
230.667	168.75
230.901	180.75
231.136	166.75
231.37	173.75
231.604	195.75
231.838	195.75
232.072	196.75
232.306	179.75
232.541	190.75
232.775	196.75
233.009	195.75
233.243	178.75
233.477	165.75
233.711	178.75
233.945	192.75
234.179	176.75
234.413	186.75
234.647	197.75
234.881	204.75
235.115	192.75
235.349	186.75
235.583	185.75
235.817	180.75
236.051	200.75
236.285	209.75
236.519	188.75
236.753	209.75
236.987	185.75
237.221	205.75
237.455	196.75
237.689	197.75
237.922	212.75
238.156	210.75
238.39	204.75
238.624	203.75
238.858	205.75
239.091	221.75
239.325	224.75
239.559	226.75
239.793	227.75
240.027	234.75
240.26	241.75
240.494	235.75
240.728	231.75
240.961	226.75
241.195	228.75
241.429	246.75
241.662	229.75
241.896	243.75
242.13	285.75
242.363	254.75
242.597	240.75
242.83	260.75
243.064	256.75
243.298	264.75
243.531	265.75
243.765	266.75
243.998	286.75
244.232	268.75
244.465	278.75
244.699	268.75
244.932	276.75
245.166	276.75
245.399	297.75
245.633	273.75
245.866	288.75
246.099	284.75
246.333	308.75
246.566	290.75
246.8	278.75
247.033	300.75
247.266	288.75
247.5	297.75
247.733	308.75
247.966	310.75
248.2	309.75
248.433	306.75
248.666	301.75
248.899	312.75
249.133	313.75
249.366	312.75
249.599	325.75
249.832	339.75
250.066	306.75
250.299	311.75
250.532	330.75
250.765	349.75
250.998	342.75
251.231	352.75
251.465	348.75
251.698	330.75
251.931	365.75
252.164	357.75
252.397	346.75
252.63	342.75
252.863	363.75
253.096	352.75
253.329	357.75
253.562	357.75
253.795	373.75
254.028	378.75
254.261	374.75
254.494	349.75
254.727	366.75
254.96	362.75
255.193	374.75
255.426	361.75
255.659	373.75
255.892	378.75
256.124	380.75
256.357	371.75
256.59	388.75
256.823	392.75
257.056	394.75
257.289	392.75
257.521	392.75
257.754	381.75
257.987	402.75
258.22	400.75
258.452	404.75
258.685	402.75
258.918	426.75
259.151	388.75
259.383	420.75
259.616	404.75
259.849	410.75
260.081	432.75
260.314	433.75
260.547	425.75
260.779	410.75
261.012	441.75
261.244	445.75
261.477	441.75
261.71	442.75
261.942	438.75
262.175	444.75
262.407	439.75
262.64	434.75
262.872	458.75
263.105	438.75
263.337	437.75
263.57	460.75
263.802	449.75
264.035	470.75
264.267	492.75
264.499	455.75
264.732	429.75
264.964	441.75
265.197	477.75
265.429	487.75
265.661	495.75
265.894	472.75
266.126	486.75
266.358	509.75
266.591	485.75
266.823	498.75
267.055	508.75
267.287	513.75
267.52	488.75
267.752	506.75
267.984	484.75
268.216	498.75
268.448	483.75
268.681	484.75
268.913	501.75
269.145	517.75
269.377	504.75
269.609	496.75
269.841	522.75
270.073	524.75
270.306	526.75
270.538	511.75
270.77	511.75
271.002	517.75
271.234	536.75
271.466	517.75
271.698	510.75
271.93	533.75
272.162	541.75
272.394	566.75
272.626	541.75
272.858	544.75
273.09	576.75
273.322	552.75
273.553	566.75
273.785	559.75
274.017	565.75
274.249	573.75
274.481	556.75
274.713	556.75
274.945	547.75
275.176	573.75
275.408	561.75
275.64	572.75
275.872	584.75
276.104	573.75
276.335	614.75
276.567	600.75
276.799	601.75
277.031	581.75
277.262	584.75
277.494	598.75
277.726	589.75
277.957	616.75
278.189	605.75
278.421	613.75
278.652	591.75
278.884	601.75
279.115	625.75
279.347	616.75
279.579	621.75
279.81	617.75
280.042	616.75
280.273	632.75
280.505	623.75
280.736	633.75
280.968	627.75
281.199	633.75
281.431	636.75
281.662	630.75
281.894	647.75
282.125	646.75
282.356	631.75
282.588	650.75
282.819	653.75
283.051	655.75
283.282	658.75
283.513	667.75
283.745	666.75
283.976	649.75
284.207	665.75
284.439	680.75
284.67	677.75
284.901	682.75
285.132	697.75
285.364	664.75
285.595	648.75
285.826	649.75
286.057	707.75
286.288	676.75
286.52	673.75
286.751	684.75
286.982	680.75
287.213	682.75
287.444	687.75
287.675	696.75
287.906	697.75
288.138	713.75
288.369	701.75
288.6	683.75
288.831	682.75
289.062	708.75
289.293	711.75
289.524	695.75
289.755	718.75
289.986	711.75
290.217	724.75
290.448	714.75
290.679	716.75
290.91	706.75
291.141	709.75
291.371	704.75
291.602	745.75
291.833	741.75
292.064	708.75
292.295	708.75
292.526	731.75
292.757	716.75
292.987	757.75
293.218	718.75
293.449	718.75
293.68	745.75
293.91	744.75
294.141	711.75
294.372	720.75
294.603	733.75
294.833	745.75
295.064	737.75
295.295	732.75
295.525	715.75
295.756	745.75
295.987	729.75
296.217	741.75
296.448	767.75
296.679	752.75
296.909	770.75
297.14	773.75
297.37	780.75
297.601	784.75
297.831	763.75
298.062	776.75
298.292	811.75
298.523	833.75
298.753	799.75
298.984	807.75
299.214	808.75
299.445	837.75
299.675	807.75
299.905	803.75
300.136	804.75
300.366	840.75
300.597	862.75
300.827	824.75
301.057	822.75
301.288	842.75
301.518	829.75
301.748	840.75
301.979	824.75
302.209	848.75
302.439	836.75
302.669	838.75
302.9	832.75
303.13	835.75
303.36	845.75
303.59	848.75
303.82	831.75
304.051	877.75
304.281	857.75
304.511	844.75
304.741	854.75
304.971	872.75
305.201	896.75
305.431	896.75
305.661	869.75
305.891	877.75
306.121	830.75
306.352	843.75
306.582	829.75
306.812	833.75
307.042	823.75
307.272	837.75
307.502	819.75
307.731	834.75
307.961	818.75
308.191	814.75
308.421	831.75
308.651	848.75
308.881	843.75
309.111	836.75
309.341	836.75
309.571	825.75
309.8	839.75
310.03	861.75
310.26	906.75
310.49	893.75
310.72	859.75
310.949	835.75
311.179	850.75
311.409	861.75
311.639	877.75
311.868	864.75
312.098	857.75
312.328	884.75
312.557	886.75
312.787	890.75
313.017	893.75
313.246	891.75
313.476	894.75
313.706	918.75
313.935	889.75
314.165	888.75
314.394	877.75
314.624	860.75
314.853	874.75
315.083	871.75
315.312	884.75
315.542	925.75
315.771	905.75
316.001	897.75
316.23	913.75
316.46	894.75
316.689	877.75
316.919	883.75
317.148	900.75
317.377	902.75
317.607	873.75
317.836	883.75
318.065	877.75
318.295	908.75
318.524	904.75
318.753	907.75
318.983	901.75
319.212	881.75
319.441	897.75
319.67	897.75
319.9	895.75
320.129	881.75
320.358	884.75
320.587	930.75
320.816	922.75
321.046	913.75
321.275	914.75
321.504	903.75
321.733	893.75
321.962	937.75
322.191	909.75
322.42	913.75
322.649	914.75
322.878	926.75
323.108	897.75
323.337	932.75
323.566	923.75
323.795	957.75
324.024	938.75
324.253	924.75
324.482	937.75
324.71	924.75
324.939	955.75
325.168	940.75
325.397	954.75
325.626	951.75
325.855	989.75
326.084	970.75
326.313	983.75
326.542	970.75
326.77	966.75
326.999	990.75
327.228	963.75
327.457	958.75
327.686	968.75
327.914	971.75
328.143	974.75
328.372	938.75
328.6	980.75
328.829	942.75
329.058	962.75
329.287	960.75
329.515	967.75
329.744	994.75
329.972	980.75
330.201	1015.75
330.43	988.75
330.658	991.75
330.887	1014.75
331.115	1046.75
331.344	1010.75
331.572	1062.75
331.801	1049.75
332.03	1051.75
332.258	1038.75
332.486	1058.75
332.715	1092.75
332.943	1083.75
333.172	1110.75
333.4	1149.75
333.629	1145.75
333.857	1168.75
334.085	1188.75
334.314	1187.75
334.542	1188.75
334.771	1193.75
334.999	1176.75
335.227	1190.75
335.455	1194.75
335.684	1229.75
335.912	1211.75
336.14	1207.75
336.369	1182.75
336.597	1217.75
336.825	1217.75
337.053	1240.75
337.281	1202.75
337.51	1158.75
337.738	1141.75
337.966	1146.75
338.194	1170.75
338.422	1121.75
338.65	1089.75
338.878	1074.75
339.106	1076.75
339.334	1110.75
339.562	1082.75
339.79	1028.75
340.018	1042.75
340.246	1035.75
340.474	1054.75
340.702	1028.75
340.93	1043.75
341.158	1042.75
341.386	1043.75
341.614	1102.75
341.842	1102.75
342.07	1030.75
342.298	1029.75
342.526	1013.75
342.754	1037.75
342.981	1028.75
343.209	1021.75
343.437	1080.75
343.665	1110.75
343.893	1129.75
344.12	1147.75
344.348	1143.75
344.576	1128.75
344.804	1170.75
345.031	1088.75
345.259	1079.75
345.487	1056.75
345.714	1051.75
345.942	1103.75
346.17	1094.75
346.397	1095.75
346.625	1026.75
346.853	992.75
347.08	978.75
347.308	986.75
347.535	1036.75
347.763	1008.75
347.99	983.75
348.218	1004.75
348.445	992.75
348.673	960.75
348.9	974.75
349.128	979.75
349.355	1015.75
349.583	1001.75
349.81	977.75
350.037	961.75
350.265	953.75
350.492	957.75
350.72	961.75
350.947	923.75
351.174	1028.75
351.402	1001.75
351.629	1008.75
351.856	1012.75
352.083	941.75
352.311	965.75
352.538	1029.75
352.765	1023.75
352.992	946.75
353.22	927.75
353.447	926.75
353.674	898.75
353.901	947.75
354.128	946.75
354.355	924.75
354.583	938.75
354.81	940.75
355.037	933.75
355.264	935.75
355.491	939.75
355.718	936.75
355.945	906.75
356.172	910.75
356.399	926.75
356.626	976.75
356.853	983.75
357.08	981.75
357.307	952.75
357.534	950.75
357.761	932.75
357.988	942.75
358.215	940.75
358.441	905.75
358.668	943.75
358.895	924.75
359.122	929.75
359.349	931.75
359.576	924.75
359.802	948.75
360.029	952.75
360.256	928.75
360.483	924.75
360.709	918.75
360.936	934.75
361.163	951.75
361.39	940.75
361.616	932.75
361.843	962.75
362.07	1012.75
362.296	1012.75
362.523	933.75
362.749	930.75
362.976	925.75
363.203	938.75
363.429	935.75
363.656	930.75
363.882	933.75
364.109	919.75
364.335	908.75
364.562	912.75
364.788	917.75
365.015	930.75
365.241	904.75
365.468	917.75
365.694	941.75
365.92	890.75
366.147	904.75
366.373	907.75
366.599	934.75
366.826	937.75
367.052	938.75
367.278	932.75
367.505	935.75
367.731	934.75
367.957	934.75
368.184	898.75
368.41	921.75
368.636	922.75
368.862	938.75
369.089	929.75
369.315	945.75
369.541	946.75
369.767	955.75
369.993	940.75
370.219	946.75
370.445	944.75
370.672	990.75
370.898	973.75
371.124	975.75
371.35	999.75
371.576	974.75
371.802	980.75
372.028	982.75
372.254	1001.75
372.48	985.75
372.706	1002.75
372.932	1010.75
373.158	998.75
373.384	993.75
373.61	988.75
373.835	997.75
374.061	981.75
374.287	995.75
374.513	1021.75
374.739	1045.75
374.965	1026.75
375.191	1034.75
375.416	1036.75
375.642	1030.75
375.868	1004.75
376.094	1022.75
376.319	980.75
376.545	994.75
376.771	1014.75
376.997	978.75
377.222	984.75
377.448	990.75
377.674	956.75
377.899	981.75
378.125	968.75
378.35	939.75
378.576	932.75
378.802	948.75
379.027	970.75
379.253	966.75
379.478	986.75
379.704	975.75
379.929	963.75
380.155	961.75
380.38	968.75
380.606	945.75
380.831	978.75
381.057	978.75
381.282	968.75
381.507	949.75
381.733	973.75
381.958	976.75
382.184	995.75
382.409	989.75
382.634	998.75
382.86	1003.75
383.085	983.75
383.31	993.75
383.535	1058.75
383.761	1032.75
383.986	1065.75
384.211	1035.75
384.436	1064.75
384.662	1052.75
384.887	1075.75
385.112	1068.75
385.337	1104.75
385.562	1117.75
385.787	1126.75
386.013	1144.75
386.238	1154.75
386.463	1115.75
386.688	1151.75
386.913	1099.75
387.138	1127.75
387.363	1154.75
387.588	1138.75
387.813	1139.75
388.038	1118.75
388.263	1155.75
388.488	1160.75
388.713	1146.75
388.938	1130.75
389.163	1132.75
389.387	1144.75
389.612	1119.75
389.837	1123.75
390.062	1113.75
390.287	1097.75
390.512	1148.75
390.736	1156.75
390.961	1137.75
391.186	1153.75
391.411	1166.75
391.636	1226.75
391.86	1224.75
392.085	1210.75
392.31	1232.75
392.534	1205.75
392.759	1263.75
392.984	1211.75
393.208	1192.75
393.433	1197.75
393.658	1206.75
393.882	1210.75
394.107	1231.75
394.331	1221.75
394.556	1204.75
394.78	1195.75
395.005	1195.75
395.229	1229.75
395.454	1251.75
395.678	1249.75
395.903	1272.75
396.127	1234.75
396.352	1262.75
396.576	1221.75
396.801	1227.75
397.025	1266.75
397.249	1220.75
397.474	1269.75
397.698	1287.75
397.922	1302.75
398.147	1264.75
398.371	1369.75
398.595	1374.75
398.82	1415.75
399.044	1480.75
399.268	1506.75
399.492	1648.75
399.717	1699.75
399.941	1773.75
400.165	1673.75
400.389	1648.75
400.613	1575.75
400.837	1515.75
401.062	1475.75
401.286	1416.75
401.51	1433.75
401.734	1439.75
401.958	1392.75
402.182	1397.75
402.406	1404.75
402.63	1417.75
402.854	1422.75
403.078	1447.75
403.302	1426.75
403.526	1446.75
403.75	1467.75
403.974	1450.75
404.198	1455.75
404.422	1464.75
404.645	1463.75
404.869	1454.75
405.093	1486.75
405.317	1454.75
405.541	1459.75
405.765	1536.75
405.988	1484.75
406.212	1504.75
406.436	1520.75
406.66	1554.75
406.883	1524.75
407.107	1615.75
407.331	1625.75
407.555	1699.75
407.778	1695.75
408.002	1662.75
408.226	1654.75
408.449	1665.75
408.673	1578.75
408.896	1599.75
409.12	1570.75
409.344	1616.75
409.567	1540.75
409.791	1570.75
410.014	1537.75
410.238	1563.75
410.461	1548.75
410.685	1537.75
410.908	1523.75
411.132	1495.75
411.355	1464.75
411.578	1445.75
411.802	1456.75
412.025	1448.75
412.249	1508.75
412.472	1462.75
412.695	1458.75
412.919	1461.75
413.142	1448.75
413.365	1427.75
413.589	1440.75
413.812	1422.75
414.035	1436.75
414.258	1427.75
414.482	1415.75
414.705	1436.75
414.928	1400.75
415.151	1396.75
415.374	1402.75
415.597	1389.75
415.821	1396.75
416.044	1396.75
416.267	1416.75
416.49	1397.75
416.713	1364.75
416.936	1368.75
417.159	1370.75
417.382	1366.75
417.605	1321.75
417.828	1356.75
418.051	1397.75
418.274	1410.75
418.497	1347.75
418.72	1388.75
418.943	1378.75
419.166	1508.75
419.389	1564.75
419.611	1542.75
419.834	1492.75
420.057	1458.75
420.28	1396.75
420.503	1336.75
420.726	1356.75
420.948	1368.75
421.171	1366.75
421.394	1333.75
421.617	1377.75
421.839	1388.75
422.062	1370.75
422.285	1325.75
422.507	1368.75
422.73	1354.75
422.953	1403.75
423.175	1423.75
423.398	1392.75
423.621	1377.75
423.843	1404.75
424.066	1360.75
424.288	1390.75
424.511	1390.75
424.733	1372.75
424.956	1386.75
425.178	1392.75
425.401	1355.75
425.623	1363.75
425.846	1312.75
426.068	1362.75
426.291	1363.75
426.513	1364.75
426.735	1337.75
426.958	1389.75
427.18	1328.75
427.402	1332.75
427.625	1333.75
427.847	1312.75
428.069	1287.75
428.292	1282.75
428.514	1315.75
428.736	1305.75
428.958	1335.75
429.181	1290.75
429.403	1278.75
429.625	1275.75
429.847	1290.75
430.069	1273.75
430.292	1253.75
430.514	1228.75
430.736	1322.75
430.958	1324.75
431.18	1302.75
431.402	1320.75
431.624	1269.75
431.846	1300.75
432.068	1280.75
432.29	1313.75
432.512	1274.75
432.734	1338.75
432.956	1306.75
433.178	1331.75
433.4	1312.75
433.622	1347.75
433.844	1334.75
434.066	1340.75
434.287	1349.75
434.509	1361.75
434.731	1380.75
434.953	1401.75
435.175	1400.75
435.397	1410.75
435.618	1376.75
435.84	1381.75
436.062	1330.75
436.284	1345.75
436.505	1277.75
436.727	1333.75
436.949	1303.75
437.17	1299.75
437.392	1320.75
437.614	1294.75
437.835	1237.75
438.057	1286.75
438.278	1237.75
438.5	1275.75
438.721	1256.75
438.943	1269.75
439.165	1255.75
439.386	1267.75
439.608	1272.75
439.829	1279.75
440.05	1281.75
440.272	1331.75
440.493	1331.75
440.715	1366.75
440.936	1326.75
441.158	1359.75
441.379	1368.75
441.6	1397.75
441.822	1384.75
442.043	1392.75
442.264	1428.75
442.486	1361.75
442.707	1397.75
442.928	1375.75
443.149	1384.75
443.371	1376.75
443.592	1437.75
443.813	1412.75
444.034	1387.75
444.255	1418.75
444.476	1422.75
444.698	1529.75
444.919	1559.75
445.14	1589.75
445.361	1529.75
445.582	1480.75
445.803	1425.75
446.024	1379.75
446.245	1396.75
446.466	1365.75
446.687	1336.75
446.908	1315.75
447.129	1318.75
447.35	1289.75
447.571	1270.75
447.792	1240.75
448.013	1249.75
448.234	1254.75
448.455	1233.75
448.675	1214.75
448.896	1244.75
449.117	1218.75
449.338	1238.75
449.559	1180.75
449.779	1188.75
450	1154.75
450.221	1202.75
450.442	1214.75
450.662	1218.75
450.883	1234.75
451.104	1226.75
451.324	1237.75
451.545	1227.75
451.766	1229.75
451.986	1196.75
452.207	1162.75
452.428	1178.75
452.648	1208.75
452.869	1166.75
453.089	1181.75
453.31	1187.75
453.53	1164.75
453.751	1175.75
453.971	1125.75
454.192	1175.75
454.412	1161.75
454.633	1156.75
454.853	1190.75
455.073	1131.75
455.294	1152.75
455.514	1168.75
455.734	1155.75
455.955	1147.75
456.175	1144.75
456.395	1126.75
456.616	1143.75
456.836	1136.75
457.056	1115.75
457.276	1145.75
457.497	1156.75
457.717	1150.75
457.937	1155.75
458.157	1168.75
458.377	1177.75
458.598	1198.75
458.818	1244.75
459.038	1223.75
459.258	1253.75
459.478	1367.75
459.698	1399.75
459.918	1404.75
460.138	1452.75
460.358	1437.75
460.578	1465.75
460.798	1492.75
461.018	1500.75
461.238	1476.75
461.458	1503.75
461.678	1482.75
461.898	1538.75
462.118	1546.75
462.338	1504.75
462.558	1634.75
462.777	1665.75
462.997	1728.75
463.217	1745.75
463.437	1827.75
463.657	1757.75
463.876	1664.75
464.096	1712.75
464.316	1667.75
464.536	1699.75
464.755	1631.75
464.975	1584.75
465.195	1500.75
465.414	1512.75
465.634	1446.75
465.854	1372.75
466.073	1364.75
466.293	1343.75
466.512	1323.75
466.732	1306.75
466.951	1304.75
467.171	1307.75
467.391	1302.75
467.61	1251.75
467.829	1249.75
468.049	1220.75
468.268	1220.75
468.488	1238.75
468.707	1230.75
468.927	1237.75
469.146	1242.75
469.365	1257.75
469.585	1228.75
469.804	1289.75
470.023	1289.75
470.243	1257.75
470.462	1299.75
470.681	1292.75
470.901	1297.75
471.12	1322.75
471.339	1294.75
471.558	1286.75
471.777	1288.75
471.997	1257.75
472.216	1224.75
472.435	1260.75
472.654	1218.75
472.873	1218.75
473.092	1218.75
473.311	1224.75
473.53	1235.75
473.749	1231.75
473.968	1234.75
474.187	1230.75
474.406	1218.75
474.625	1241.75
474.844	1212.75
475.063	1258.75
475.282	1266.75
475.501	1296.75
475.72	1271.75
475.939	1270.75
476.158	1306.75
476.377	1310.75
476.596	1269.75
476.814	1321.75
477.033	1308.75
477.252	1348.75
477.471	1342.75
477.69	1362.75
477.908	1388.75
478.127	1409.75
478.346	1414.75
478.564	1435.75
478.783	1474.75
479.002	1492.75
479.22	1549.75
479.439	1513.75
479.658	1512.75
479.876	1508.75
480.095	1494.75
480.313	1566.75
480.532	1539.75
480.751	1524.75
480.969	1492.75
481.188	1494.75
481.406	1478.75
481.624	1459.75
481.843	1424.75
482.061	1429.75
482.28	1435.75
482.498	1432.75
482.717	1436.75
482.935	1402.75
483.153	1450.75
483.372	1495.75
483.59	1472.75
483.808	1452.75
484.027	1419.75
484.245	1445.75
484.463	1466.75
484.681	1492.75
484.9	1502.75
485.118	1509.75
485.336	1469.75
485.554	1521.75
485.772	1504.75
485.99	1491.75
486.209	1497.75
486.427	1506.75
486.645	1507.75
486.863	1542.75
487.081	1526.75
487.299	1496.75
487.517	1528.75
487.735	1520.75
487.953	1515.75
488.171	1496.75
488.389	1542.75
488.607	1477.75
488.825	1457.75
489.043	1461.75
489.261	1497.75
489.479	1470.75
489.696	1510.75
489.914	1485.75
490.132	1483.75
490.35	1487.75
490.568	1543.75
490.786	1532.75
491.003	1472.75
491.221	1527.75
491.439	1541.75
491.657	1551.75
491.874	1542.75
492.092	1559.75
492.31	1558.75
492.527	1538.75
492.745	1562.75
492.963	1572.75
493.18	1547.75
493.398	1574.75
493.615	1582.75
493.833	1527.75
494.05	1584.75
494.268	1540.75
494.485	1580.75
494.703	1600.75
494.92	1610.75
495.138	1594.75
495.355	1609.75
495.573	1604.75
495.79	1603.75
496.008	1661.75
496.225	1677.75
496.442	1652.75
496.66	1705.75
496.877	1714.75
497.094	1747.75
497.312	1788.75
497.529	1795.75
497.746	1866.75
497.963	1857.75
498.181	1962.75
498.398	2021.75
498.615	2107.75
498.832	2156.75
499.049	2262.75
499.267	2399.75
499.484	2594.75
499.701	2716.75
499.918	2894.75
500.135	3047.75
500.352	3223.75
500.569	3277.75
500.786	3310.75
501.003	3204.75
501.22	3124.75
501.437	2930.75
501.654	2714.75
501.871	2553.75
502.088	2449.75
502.305	2312.75
502.522	2230.75
502.739	2134.75
502.956	2009.75
503.172	1972.75
503.389	1901.75
503.606	1899.75
503.823	1882.75
504.04	1842.75
504.256	1795.75
504.473	1760.75
504.69	1758.75
504.907	1735.75
505.123	1687.75
505.34	1612.75
505.557	1553.75
505.773	1548.75
505.99	1541.75
506.207	1469.75
506.423	1462.75
506.64	1454.75
506.856	1458.75
507.073	1432.75
507.289	1419.75
507.506	1391.75
507.722	1398.75
507.939	1389.75
508.155	1371.75
508.372	1384.75
508.588	1337.75
508.805	1344.75
509.021	1341.75
509.238	1297.75
509.454	1300.75
509.67	1294.75
509.887	1286.75
510.103	1301.75
510.319	1267.75
510.536	1272.75
510.752	1261.75
510.968	1275.75
511.184	1241.75
511.401	1260.75
511.617	1272.75
511.833	1278.75
512.049	1246.75
512.265	1216.75
512.481	1251.75
512.698	1251.75
512.914	1220.75
513.13	1250.75
513.346	1260.75
513.562	1302.75
513.778	1269.75
513.994	1270.75
514.21	1242.75
514.426	1252.75
514.642	1294.75
514.858	1286.75
515.074	1316.75
515.29	1289.75
515.506	1337.75
515.721	1364.75
515.937	1344.75
516.153	1372.75
516.369	1368.75
516.585	1386.75
516.801	1436.75
517.016	1462.75
517.232	1443.75
517.448	1502.75
517.664	1531.75
517.879	1529.75
518.095	1525.75
518.311	1544.75
518.527	1540.75
518.742	1479.75
518.958	1428.75
519.173	1400.75
519.389	1364.75
519.605	1322.75
519.82	1336.75
520.036	1316.75
520.251	1275.75
520.467	1280.75
520.682	1264.75
520.898	1272.75
521.113	1244.75
521.329	1162.75
521.544	1199.75
521.76	1202.75
521.975	1183.75
522.19	1174.75
522.406	1191.75
522.621	1164.75
522.836	1139.75
523.052	1162.75
523.267	1167.75
523.482	1160.75
523.698	1170.75
523.913	1168.75
524.128	1175.75
524.343	1157.75
524.559	1142.75
524.774	1122.75
524.989	1138.75
525.204	1134.75
525.419	1137.75
525.634	1114.75
525.849	1140.75
526.064	1100.75
526.28	1128.75
526.495	1091.75
526.71	1132.75
526.925	1122.75
527.14	1143.75
527.355	1072.75
527.57	1112.75
527.785	1107.75
527.999	1090.75
528.214	1101.75
528.429	1113.75
528.644	1105.75
528.859	1128.75
529.074	1091.75
529.289	1130.75
529.503	1118.75
529.718	1088.75
529.933	1140.75
530.148	1090.75
530.363	1108.75
530.577	1095.75
530.792	1078.75
531.007	1070.75
531.221	1068.75
531.436	1099.75
531.651	1110.75
531.865	1101.75
532.08	1083.75
532.295	1084.75
532.509	1089.75
532.724	1066.75
532.938	1097.75
533.153	1105.75
533.367	1078.75
533.582	1081.75
533.796	1075.75
534.011	1066.75
534.225	1078.75
534.44	1052.75
534.654	1062.75
534.868	1057.75
535.083	1075.75
535.297	1049.75
535.511	1060.75
535.726	1034.75
535.94	1053.75
536.154	1032.75
536.369	1014.75
536.583	1032.75
536.797	1026.75
537.011	1010.75
537.225	1022.75
537.44	992.75
537.654	1003.75
537.868	1019.75
538.082	996.75
538.296	998.75
538.51	1005.75
538.724	1017.75
538.938	1011.75
539.153	994.75
539.367	984.75
539.581	986.75
539.795	967.75
540.009	981.75
540.222	992.75
540.436	981.75
540.65	989.75
540.864	977.75
541.078	977.75
541.292	1022.75
541.506	1003.75
541.72	954.75
541.934	981.75
542.147	975.75
542.361	988.75
542.575	958.75
542.789	982.75
543.002	956.75
543.216	935.75
543.43	973.75
543.644	948.75
543.857	956.75
544.071	976.75
544.285	982.75
544.498	971.75
544.712	984.75
544.925	1016.75
545.139	987.75
545.352	1027.75
545.566	979.75
545.779	982.75
545.993	960.75
546.206	987.75
546.42	977.75
546.633	977.75
546.847	970.75
547.06	992.75
547.274	990.75
547.487	998.75
547.7	974.75
547.914	971.75
548.127	1003.75
548.34	993.75
548.554	960.75
548.767	958.75
548.98	1001.75
549.193	992.75
549.407	991.75
549.62	987.75
549.833	1004.75
550.046	982.75
550.259	988.75
550.473	993.75
550.686	995.75
550.899	1004.75
551.112	971.75
551.325	956.75
551.538	980.75
551.751	979.75
551.964	968.75
552.177	973.75
552.39	990.75
552.603	978.75
552.816	1045.75
553.029	1021.75
553.242	995.75
553.455	990.75
553.667	1001.75
553.88	997.75
554.093	993.75
554.306	973.75
554.519	973.75
554.732	979.75
554.944	948.75
555.157	908.75
555.37	924.75
555.583	920.75
555.795	935.75
556.008	897.75
556.221	858.75
556.433	887.75
556.646	859.75
556.859	855.75
557.071	884.75
557.284	852.75
557.496	852.75
557.709	857.75
557.921	854.75
558.134	859.75
558.346	837.75
558.559	866.75
558.771	850.75
558.984	852.75
559.196	805.75
559.409	834.75
559.621	821.75
559.833	821.75
560.046	795.75
560.258	802.75
560.47	837.75
560.683	804.75
560.895	794.75
561.107	825.75
561.32	822.75
561.532	813.75
561.744	818.75
561.956	805.75
562.168	794.75
562.381	824.75
562.593	811.75
562.805	810.75
563.017	826.75
563.229	834.75
563.441	837.75
563.653	844.75
563.865	845.75
564.077	831.75
564.289	841.75
564.501	870.75
564.713	894.75
564.925	876.75
565.137	924.75
565.349	924.75
565.561	933.75
565.773	986.75
565.985	973.75
566.197	989.75
566.408	1025.75
566.62	1102.75
566.832	1124.75
567.044	1124.75
567.255	1141.75
567.467	1176.75
567.679	1165.75
567.891	1197.75
568.102	1197.75
568.314	1155.75
568.526	1101.75
568.737	1047.75
568.949	1004.75
569.161	981.75
569.372	928.75
569.584	900.75
569.795	882.75
570.007	844.75
570.218	835.75
570.43	836.75
570.641	804.75
570.853	818.75
571.064	804.75
571.276	818.75
571.487	792.75
571.698	751.75
571.91	728.75
572.121	737.75
572.333	714.75
572.544	728.75
572.755	704.75
572.966	718.75
573.178	707.75
573.389	701.75
573.6	709.75
573.811	677.75
574.023	677.75
574.234	640.75
574.445	654.75
574.656	652.75
574.867	641.75
575.078	658.75
575.289	641.75
575.501	662.75
575.712	644.75
575.923	635.75
576.134	633.75
576.345	627.75
576.556	649.75
576.767	626.75
576.978	605.75
577.188	631.75
577.399	620.75
577.61	620.75
577.821	610.75
578.032	598.75
578.243	613.75
578.454	604.75
578.665	563.75
578.875	592.75
579.086	576.75
579.297	594.75
579.508	574.75
579.718	568.75
579.929	570.75
580.14	578.75
580.35	579.75
580.561	593.75
580.772	579.75
580.982	583.75
581.193	578.75
581.403	573.75
581.614	582.75
581.825	565.75
582.035	555.75
582.246	533.75
582.456	548.75
582.667	572.75
582.877	562.75
583.087	555.75
583.298	532.75
583.508	566.75
583.719	540.75
583.929	564.75
584.139	557.75
584.35	532.75
584.56	530.75
584.77	549.75
584.981	536.75
585.191	537.75
585.401	538.75
585.611	525.75
585.821	536.75
586.032	518.75
586.242	552.75
586.452	544.75
586.662	530.75
586.872	497.75
587.082	536.75
587.292	534.75
587.502	529.75
587.713	525.75
587.923	530.75
588.133	539.75
588.343	526.75
588.553	534.75
588.762	523.75
588.972	553.75
589.182	649.75
589.392	645.75
589.602	563.75
589.812	627.75
590.022	594.75
590.232	552.75
590.441	534.75
590.651	515.75
590.861	527.75
591.071	540.75
591.281	536.75
591.49	545.75
591.7	539.75
591.91	532.75
592.119	541.75
592.329	538.75
592.539	572.75
592.748	572.75
592.958	601.75
593.167	582.75
593.377	601.75
593.587	610.75
593.796	582.75
594.006	573.75
594.215	603.75
594.424	582.75
594.634	597.75
594.843	564.75
595.053	562.75
595.262	556.75
595.472	546.75
595.681	520.75
595.89	512.75
596.1	500.75
596.309	501.75
596.518	504.75
596.727	516.75
596.937	503.75
597.146	476.75
597.355	502.75
597.564	473.75
597.774	470.75
597.983	467.75
598.192	456.75
598.401	434.75
598.61	437.75
598.819	432.75
599.028	462.75
599.237	430.75
599.446	444.75
599.655	432.75
599.864	438.75
600.073	436.75
600.282	435.75
600.491	441.75
600.7	422.75
600.909	421.75
601.118	449.75
601.327	424.75
601.536	414.75
601.745	413.75
601.953	414.75
602.162	419.75
602.371	410.75
602.58	431.75
602.789	401.75
602.997	425.75
603.206	414.75
603.415	412.75
603.623	384.75
603.832	398.75
604.041	392.75
604.249	400.75
604.458	397.75
604.666	403.75
604.875	391.75
605.084	384.75
605.292	390.75
605.501	398.75
605.709	406.75
605.918	386.75
606.126	394.75
606.334	387.75
606.543	396.75
606.751	389.75
606.96	398.75
607.168	389.75
607.376	381.75
607.585	387.75
607.793	389.75
608.001	384.75
608.21	391.75
608.418	380.75
608.626	379.75
608.834	397.75
609.043	389.75
609.251	365.75
609.459	357.75
609.667	384.75
609.875	380.75
610.083	361.75
610.291	383.75
610.499	381.75
610.707	382.75
610.916	370.75
611.124	393.75
611.332	385.75
611.54	353.75
611.748	362.75
611.955	383.75
612.163	368.75
612.371	384.75
612.579	378.75
612.787	360.75
612.995	374.75
613.203	364.75
613.411	354.75
613.618	380.75
613.826	365.75
614.034	362.75
614.242	349.75
614.449	346.75
614.657	370.75
614.865	348.75
615.072	362.75
615.28	352.75
615.488	356.75
615.695	338.75
615.903	361.75
616.111	361.75
616.318	366.75
616.526	373.75
616.733	346.75
616.941	362.75
617.148	341.75
617.356	334.75
617.563	353.75
617.771	341.75
617.978	332.75
618.185	340.75
618.393	347.75
618.6	349.75
618.807	357.75
619.015	352.75
619.222	337.75
619.429	340.75
619.637	363.75
619.844	327.75
620.051	339.75
620.258	346.75
620.466	326.75
620.673	312.75
620.88	339.75
621.087	324.75
621.294	328.75
621.501	340.75
621.708	341.75
621.915	332.75
622.122	335.75
622.329	323.75
622.536	341.75
622.743	321.75
622.95	318.75
623.157	322.75
623.364	325.75
623.571	326.75
623.778	316.75
623.985	322.75
624.192	299.75
624.399	338.75
624.606	316.75
624.812	319.75
625.019	297.75
625.226	309.75
625.433	310.75
625.639	293.75
625.846	306.75
626.053	294.75
626.259	310.75
626.466	313.75
626.673	296.75
626.879	302.75
627.086	308.75
627.293	297.75
627.499	289.75
627.706	297.75
627.912	300.75
628.119	303.75
628.325	294.75
628.532	276.75
628.738	276.75
628.945	269.75
629.151	277.75
629.357	285.75
629.564	287.75
629.77	279.75
629.976	283.75
630.183	284.75
630.389	283.75
630.595	275.75
630.802	283.75
631.008	279.75
631.214	277.75
631.42	296.75
631.627	283.75
631.833	285.75
632.039	282.75
632.245	280.75
632.451	284.75
632.657	280.75
632.863	261.75
633.069	272.75
633.275	268.75
633.481	274.75
633.688	242.75
633.893	266.75
634.099	264.75
634.305	267.75
634.511	256.75
634.717	265.75
634.923	245.75
635.129	243.75
635.335	257.75
635.541	274.75
635.747	253.75
635.952	261.75
636.158	237.75
636.364	270.75
636.57	264.75
636.775	243.75
636.981	264.75
637.187	265.75
637.392	235.75
637.598	254.75
637.804	247.75
638.009	263.75
638.215	253.75
638.421	245.75
638.626	234.75
638.832	247.75
639.037	245.75
639.243	249.75
639.448	235.75
639.654	261.75
639.859	254.75
640.065	246.75
640.27	262.75
640.475	242.75
640.681	240.75
640.886	235.75
641.091	243.75
641.297	253.75
641.502	228.75
641.707	235.75
641.913	228.75
642.118	237.75
642.323	242.75
642.528	233.75
642.733	245.75
642.939	238.75
643.144	216.75
643.349	245.75
643.554	216.75
643.759	237.75
643.964	249.75
644.169	221.75
644.374	226.75
644.579	244.75
644.784	235.75
644.989	240.75
645.194	234.75
645.399	221.75
645.604	222.75
645.809	236.75
646.014	239.75
646.219	218.75
646.423	241.75
646.628	228.75
646.833	223.75
647.038	237.75
647.243	241.75
647.447	246.75
647.652	236.75
647.857	216.75
648.062	227.75
648.266	236.75
648.471	232.75
648.676	230.75
648.88	241.75
649.085	225.75
649.289	233.75
649.494	222.75
649.698	229.75
649.903	229.75
650.107	214.75
650.312	238.75
650.516	206.75
650.721	218.75
650.925	208.75
651.13	209.75
651.334	201.75
651.539	209.75
651.743	215.75
651.947	203.75
652.152	219.75
652.356	213.75
652.56	205.75
652.764	212.75
652.969	211.75
653.173	195.75
653.377	199.75
653.581	204.75
653.785	194.75
653.99	188.75
654.194	188.75
654.398	201.75
654.602	194.75
654.806	191.75
655.01	188.75
655.214	200.75
655.418	195.75
655.622	165.75
655.826	181.75
656.03	186.75
656.234	203.75
656.438	181.75
656.642	168.75
656.846	175.75
657.049	177.75
657.253	162.75
657.457	152.75
657.661	160.75
657.865	140.75
658.068	147.75
658.272	132.75
658.476	130.75
658.68	137.75
658.883	132.75
659.087	118.75
659.291	121.75
659.494	119.75
659.698	118.75
659.901	113.75
660.105	116.75
660.309	102.75
660.512	115.75
660.716	104.75
660.919	84.75
661.123	113.75
661.326	98.75
661.53	93.75
661.733	97.75
661.936	91.75
662.14	74.75
662.343	93.75
662.546	88.75
662.75	105.75
662.953	92.75
663.156	81.75
663.36	92.75
663.563	94.75
663.766	98.75
663.969	82.75
664.173	81.75
664.376	73.75
664.579	78.75
664.782	83.75
664.985	74.75
665.188	97.75
665.391	77.75
665.594	92.75
665.797	93.75
666	85.75
666.203	76.75
666.406	84.75
666.609	76.75
666.812	90.75
667.015	83.75
667.218	91.75
667.421	89.75
667.624	88.75
667.827	94.75
668.03	95.75
668.232	74.75
668.435	87.75
668.638	95.75
668.841	81.75
669.043	88.75
669.246	86.75
669.449	71.75
669.651	94.75
669.854	89.75
670.057	92.75
670.259	90.75
670.462	80.75
670.665	87.75
670.867	69.75
671.07	69.75
671.272	77.75
671.475	70.75
671.677	93.75
671.88	79.75
672.082	77.75
672.284	88.75
672.487	77.75
672.689	82.75
672.892	99.75
