Data from NiCl2@0.25M.TitratingCurve.Agarose3%dH2O.NegLispCup.LampEnergy10.LIBS07252019_HRD10591_18-25-30-575.txt Node
Date: Thu Jul 25 18:25:30 EDT 2019
User: cochatt
Spectrometer: HR+D1059
Trigger mode: 1
Integration Time (sec): 1.000000E-1
Scans to average: 1
Electric dark correction enabled: true
Nonlinearity correction enabled: false
Boxcar width: 0
XAxis mode: Wavelengths
Number of Pixels in Spectrum: 2048
>>>>>Begin Spectral Data<<<<<
223.165	-12.25
223.4	-12.25
223.635	-12.25
223.869	-18.25
224.104	-27.25
224.338	-11.25
224.573	-10.25
224.808	-23.25
225.042	2.75
225.277	-14.25
225.511	-7.25
225.746	-3.25
225.98	0.75
226.215	16.75
226.449	19.75
226.683	29.75
226.918	36.75
227.152	20.75
227.387	27.75
227.621	25.75
227.856	36.75
228.09	39.75
228.324	42.75
228.559	63.75
228.793	70.75
229.027	106.75
229.262	132.75
229.496	127.75
229.73	142.75
229.964	136.75
230.199	145.75
230.433	160.75
230.667	161.75
230.901	167.75
231.136	158.75
231.37	151.75
231.604	171.75
231.838	149.75
232.072	163.75
232.306	172.75
232.541	166.75
232.775	168.75
233.009	182.75
233.243	180.75
233.477	185.75
233.711	165.75
233.945	175.75
234.179	182.75
234.413	176.75
234.647	190.75
234.881	172.75
235.115	180.75
235.349	156.75
235.583	170.75
235.817	163.75
236.051	188.75
236.285	183.75
236.519	181.75
236.753	191.75
236.987	187.75
237.221	195.75
237.455	188.75
237.689	188.75
237.922	192.75
238.156	197.75
238.39	193.75
238.624	220.75
238.858	197.75
239.091	207.75
239.325	222.75
239.559	197.75
239.793	212.75
240.027	208.75
240.26	214.75
240.494	227.75
240.728	224.75
240.961	226.75
241.195	225.75
241.429	224.75
241.662	232.75
241.896	256.75
242.13	247.75
242.363	253.75
242.597	234.75
242.83	245.75
243.064	249.75
243.298	258.75
243.531	259.75
243.765	265.75
243.998	264.75
244.232	268.75
244.465	260.75
244.699	253.75
244.932	280.75
245.166	277.75
245.399	269.75
245.633	270.75
245.866	260.75
246.099	288.75
246.333	293.75
246.566	292.75
246.8	288.75
247.033	269.75
247.266	289.75
247.5	279.75
247.733	298.75
247.966	291.75
248.2	306.75
248.433	305.75
248.666	311.75
248.899	300.75
249.133	310.75
249.366	303.75
249.599	321.75
249.832	307.75
250.066	302.75
250.299	325.75
250.532	320.75
250.765	319.75
250.998	315.75
251.231	320.75
251.465	328.75
251.698	339.75
251.931	327.75
252.164	328.75
252.397	331.75
252.63	325.75
252.863	351.75
253.096	337.75
253.329	362.75
253.562	349.75
253.795	360.75
254.028	341.75
254.261	355.75
254.494	357.75
254.727	358.75
254.96	355.75
255.193	358.75
255.426	358.75
255.659	362.75
255.892	381.75
256.124	367.75
256.357	379.75
256.59	365.75
256.823	365.75
257.056	374.75
257.289	372.75
257.521	367.75
257.754	394.75
257.987	377.75
258.22	400.75
258.452	378.75
258.685	387.75
258.918	409.75
259.151	383.75
259.383	396.75
259.616	395.75
259.849	389.75
260.081	404.75
260.314	397.75
260.547	402.75
260.779	397.75
261.012	409.75
261.244	407.75
261.477	433.75
261.71	418.75
261.942	422.75
262.175	411.75
262.407	421.75
262.64	411.75
262.872	433.75
263.105	436.75
263.337	415.75
263.57	414.75
263.802	443.75
264.035	433.75
264.267	443.75
264.499	439.75
264.732	452.75
264.964	472.75
265.197	471.75
265.429	442.75
265.661	466.75
265.894	470.75
266.126	461.75
266.358	441.75
266.591	452.75
266.823	467.75
267.055	472.75
267.287	480.75
267.52	462.75
267.752	481.75
267.984	476.75
268.216	471.75
268.448	486.75
268.681	455.75
268.913	467.75
269.145	481.75
269.377	483.75
269.609	491.75
269.841	487.75
270.073	481.75
270.306	484.75
270.538	469.75
270.77	486.75
271.002	492.75
271.234	518.75
271.466	513.75
271.698	508.75
271.93	492.75
272.162	511.75
272.394	503.75
272.626	502.75
272.858	529.75
273.09	519.75
273.322	524.75
273.553	491.75
273.785	529.75
274.017	511.75
274.249	546.75
274.481	550.75
274.713	522.75
274.945	553.75
275.176	546.75
275.408	546.75
275.64	566.75
275.872	552.75
276.104	570.75
276.335	541.75
276.567	542.75
276.799	545.75
277.031	561.75
277.262	550.75
277.494	553.75
277.726	552.75
277.957	582.75
278.189	576.75
278.421	570.75
278.652	593.75
278.884	545.75
279.115	580.75
279.347	575.75
279.579	566.75
279.81	577.75
280.042	595.75
280.273	590.75
280.505	592.75
280.736	580.75
280.968	596.75
281.199	611.75
281.431	629.75
281.662	629.75
281.894	599.75
282.125	621.75
282.356	617.75
282.588	627.75
282.819	633.75
283.051	616.75
283.282	625.75
283.513	616.75
283.745	632.75
283.976	625.75
284.207	616.75
284.439	623.75
284.67	635.75
284.901	636.75
285.132	661.75
285.364	650.75
285.595	661.75
285.826	635.75
286.057	651.75
286.288	668.75
286.52	660.75
286.751	659.75
286.982	660.75
287.213	663.75
287.444	683.75
287.675	666.75
287.906	652.75
288.138	659.75
288.369	671.75
288.6	655.75
288.831	668.75
289.062	678.75
289.293	671.75
289.524	669.75
289.755	680.75
289.986	681.75
290.217	681.75
290.448	700.75
290.679	683.75
290.91	699.75
291.141	679.75
291.371	684.75
291.602	702.75
291.833	685.75
292.064	672.75
292.295	720.75
292.526	712.75
292.757	683.75
292.987	697.75
293.218	691.75
293.449	685.75
293.68	714.75
293.91	691.75
294.141	726.75
294.372	659.75
294.603	708.75
294.833	722.75
295.064	701.75
295.295	697.75
295.525	686.75
295.756	696.75
295.987	709.75
296.217	714.75
296.448	727.75
296.679	737.75
296.909	693.75
297.14	714.75
297.37	749.75
297.601	738.75
297.831	744.75
298.062	744.75
298.292	756.75
298.523	738.75
298.753	778.75
298.984	759.75
299.214	745.75
299.445	774.75
299.675	782.75
299.905	742.75
300.136	757.75
300.366	786.75
300.597	791.75
300.827	782.75
301.057	787.75
301.288	787.75
301.518	804.75
301.748	789.75
301.979	804.75
302.209	811.75
302.439	813.75
302.669	810.75
302.9	768.75
303.13	788.75
303.36	813.75
303.59	769.75
303.82	784.75
304.051	792.75
304.281	803.75
304.511	789.75
304.741	768.75
304.971	811.75
305.201	776.75
305.431	781.75
305.661	788.75
305.891	789.75
306.121	776.75
306.352	778.75
306.582	768.75
306.812	776.75
307.042	777.75
307.272	788.75
307.502	765.75
307.731	767.75
307.961	766.75
308.191	764.75
308.421	764.75
308.651	776.75
308.881	787.75
309.111	770.75
309.341	764.75
309.571	764.75
309.8	780.75
310.03	803.75
310.26	765.75
310.49	781.75
310.72	795.75
310.949	778.75
311.179	809.75
311.409	793.75
311.639	778.75
311.868	787.75
312.098	789.75
312.328	793.75
312.557	815.75
312.787	798.75
313.017	819.75
313.246	811.75
313.476	800.75
313.706	832.75
313.935	827.75
314.165	839.75
314.394	853.75
314.624	856.75
314.853	830.75
315.083	836.75
315.312	836.75
315.542	827.75
315.771	827.75
316.001	793.75
316.23	808.75
316.46	785.75
316.689	833.75
316.919	818.75
317.148	815.75
317.377	807.75
317.607	815.75
317.836	806.75
318.065	804.75
318.295	799.75
318.524	828.75
318.753	780.75
318.983	781.75
319.212	787.75
319.441	813.75
319.67	793.75
319.9	808.75
320.129	827.75
320.358	827.75
320.587	816.75
320.816	817.75
321.046	820.75
321.275	819.75
321.504	807.75
321.733	805.75
321.962	813.75
322.191	838.75
322.42	831.75
322.649	804.75
322.878	824.75
323.108	825.75
323.337	819.75
323.566	829.75
323.795	840.75
324.024	836.75
324.253	829.75
324.482	859.75
324.71	809.75
324.939	848.75
325.168	827.75
325.397	845.75
325.626	842.75
325.855	869.75
326.084	887.75
326.313	875.75
326.542	901.75
326.77	869.75
326.999	891.75
327.228	856.75
327.457	860.75
327.686	868.75
327.914	872.75
328.143	899.75
328.372	892.75
328.6	893.75
328.829	886.75
329.058	882.75
329.287	930.75
329.515	908.75
329.744	901.75
329.972	929.75
330.201	911.75
330.43	931.75
330.658	903.75
330.887	950.75
331.115	938.75
331.344	945.75
331.572	963.75
331.801	957.75
332.03	980.75
332.258	990.75
332.486	1031.75
332.715	1019.75
332.943	1067.75
333.172	1132.75
333.4	1136.75
333.629	1209.75
333.857	1197.75
334.085	1261.75
334.314	1227.75
334.542	1215.75
334.771	1187.75
334.999	1178.75
335.227	1170.75
335.455	1176.75
335.684	1121.75
335.912	1100.75
336.14	1123.75
336.369	1090.75
336.597	1119.75
336.825	1102.75
337.053	1125.75
337.281	1065.75
337.51	1045.75
337.738	1029.75
337.966	995.75
338.194	1004.75
338.422	983.75
338.65	975.75
338.878	959.75
339.106	980.75
339.334	963.75
339.562	1001.75
339.79	957.75
340.018	920.75
340.246	913.75
340.474	954.75
340.702	931.75
340.93	917.75
341.158	951.75
341.386	925.75
341.614	965.75
341.842	937.75
342.07	914.75
342.298	915.75
342.526	936.75
342.754	936.75
342.981	952.75
343.209	953.75
343.437	1009.75
343.665	1068.75
343.893	1101.75
344.12	1168.75
344.348	1119.75
344.576	1099.75
344.804	1058.75
345.031	1013.75
345.259	983.75
345.487	965.75
345.714	953.75
345.942	931.75
346.17	948.75
346.397	936.75
346.625	918.75
346.853	887.75
347.08	895.75
347.308	886.75
347.535	886.75
347.763	901.75
347.99	920.75
348.218	907.75
348.445	895.75
348.673	905.75
348.9	881.75
349.128	875.75
349.355	883.75
349.583	899.75
349.81	884.75
350.037	862.75
350.265	878.75
350.492	873.75
350.72	868.75
350.947	876.75
351.174	888.75
351.402	879.75
351.629	880.75
351.856	879.75
352.083	852.75
352.311	861.75
352.538	873.75
352.765	895.75
352.992	861.75
353.22	859.75
353.447	830.75
353.674	828.75
353.901	867.75
354.128	873.75
354.355	834.75
354.583	835.75
354.81	872.75
355.037	892.75
355.264	864.75
355.491	852.75
355.718	856.75
355.945	877.75
356.172	876.75
356.399	877.75
356.626	882.75
356.853	891.75
357.08	871.75
357.307	888.75
357.534	849.75
357.761	896.75
357.988	881.75
358.215	864.75
358.441	863.75
358.668	877.75
358.895	876.75
359.122	873.75
359.349	845.75
359.576	837.75
359.802	853.75
360.029	845.75
360.256	888.75
360.483	881.75
360.709	837.75
360.936	869.75
361.163	892.75
361.39	885.75
361.616	879.75
361.843	855.75
362.07	864.75
362.296	845.75
362.523	855.75
362.749	875.75
362.976	875.75
363.203	881.75
363.429	857.75
363.656	876.75
363.882	852.75
364.109	868.75
364.335	877.75
364.562	855.75
364.788	845.75
365.015	849.75
365.241	849.75
365.468	856.75
365.694	843.75
365.92	838.75
366.147	840.75
366.373	870.75
366.599	853.75
366.826	869.75
367.052	880.75
367.278	861.75
367.505	855.75
367.731	881.75
367.957	891.75
368.184	872.75
368.41	866.75
368.636	864.75
368.862	885.75
369.089	883.75
369.315	879.75
369.541	893.75
369.767	898.75
369.993	897.75
370.219	881.75
370.445	929.75
370.672	901.75
370.898	919.75
371.124	920.75
371.35	939.75
371.576	937.75
371.802	949.75
372.028	947.75
372.254	915.75
372.48	966.75
372.706	948.75
372.932	985.75
373.158	981.75
373.384	977.75
373.61	952.75
373.835	937.75
374.061	929.75
374.287	959.75
374.513	959.75
374.739	1028.75
374.965	1054.75
375.191	1047.75
375.416	1050.75
375.642	1025.75
375.868	1003.75
376.094	967.75
376.319	948.75
376.545	978.75
376.771	963.75
376.997	944.75
377.222	925.75
377.448	929.75
377.674	961.75
377.899	963.75
378.125	933.75
378.35	940.75
378.576	934.75
378.802	952.75
379.027	920.75
379.253	959.75
379.478	926.75
379.704	929.75
379.929	956.75
380.155	947.75
380.38	932.75
380.606	948.75
380.831	952.75
381.057	950.75
381.282	981.75
381.507	938.75
381.733	963.75
381.958	902.75
382.184	927.75
382.409	964.75
382.634	993.75
382.86	983.75
383.085	1008.75
383.31	1029.75
383.535	1015.75
383.761	1013.75
383.986	1015.75
384.211	1048.75
384.436	1094.75
384.662	1123.75
384.887	1110.75
385.112	1113.75
385.337	1145.75
385.562	1153.75
385.787	1156.75
386.013	1157.75
386.238	1180.75
386.463	1203.75
386.688	1172.75
386.913	1169.75
387.138	1163.75
387.363	1125.75
387.588	1127.75
387.813	1176.75
388.038	1132.75
388.263	1154.75
388.488	1150.75
388.713	1176.75
388.938	1140.75
389.163	1173.75
389.387	1139.75
389.612	1135.75
389.837	1131.75
390.062	1139.75
390.287	1159.75
390.512	1155.75
390.736	1171.75
390.961	1157.75
391.186	1195.75
391.411	1203.75
391.636	1265.75
391.86	1284.75
392.085	1338.75
392.31	1272.75
392.534	1293.75
392.759	1254.75
392.984	1266.75
393.208	1240.75
393.433	1235.75
393.658	1222.75
393.882	1219.75
394.107	1219.75
394.331	1259.75
394.556	1266.75
394.78	1234.75
395.005	1252.75
395.229	1246.75
395.454	1312.75
395.678	1298.75
395.903	1283.75
396.127	1277.75
396.352	1259.75
396.576	1258.75
396.801	1227.75
397.025	1279.75
397.249	1308.75
397.474	1338.75
397.698	1313.75
397.922	1348.75
398.147	1322.75
398.371	1380.75
398.595	1415.75
398.82	1475.75
399.044	1567.75
399.268	1712.75
399.492	1943.75
399.717	2121.75
399.941	2167.75
400.165	2068.75
400.389	1908.75
400.613	1729.75
400.837	1638.75
401.062	1567.75
401.286	1513.75
401.51	1500.75
401.734	1505.75
401.958	1507.75
402.182	1489.75
402.406	1527.75
402.63	1514.75
402.854	1543.75
403.078	1578.75
403.302	1605.75
403.526	1597.75
403.75	1673.75
403.974	1685.75
404.198	1633.75
404.422	1665.75
404.645	1689.75
404.869	1654.75
405.093	1693.75
405.317	1626.75
405.541	1648.75
405.765	1620.75
405.988	1616.75
406.212	1621.75
406.436	1673.75
406.66	1647.75
406.883	1697.75
407.107	1794.75
407.331	1844.75
407.555	1924.75
407.778	1919.75
408.002	1854.75
408.226	1859.75
408.449	1774.75
408.673	1703.75
408.896	1701.75
409.12	1680.75
409.344	1659.75
409.567	1634.75
409.791	1675.75
410.014	1661.75
410.238	1589.75
410.461	1623.75
410.685	1595.75
410.908	1598.75
411.132	1563.75
411.355	1545.75
411.578	1522.75
411.802	1511.75
412.025	1543.75
412.249	1571.75
412.472	1606.75
412.695	1503.75
412.919	1472.75
413.142	1473.75
413.365	1474.75
413.589	1493.75
413.812	1439.75
414.035	1433.75
414.258	1495.75
414.482	1455.75
414.705	1481.75
414.928	1500.75
415.151	1494.75
415.374	1455.75
415.597	1431.75
415.821	1442.75
416.044	1444.75
416.267	1444.75
416.49	1440.75
416.713	1394.75
416.936	1462.75
417.159	1436.75
417.382	1432.75
417.605	1421.75
417.828	1434.75
418.051	1469.75
418.274	1441.75
418.497	1432.75
418.72	1465.75
418.943	1501.75
419.166	1564.75
419.389	1727.75
419.611	1650.75
419.834	1612.75
420.057	1513.75
420.28	1473.75
420.503	1424.75
420.726	1446.75
420.948	1419.75
421.171	1452.75
421.394	1426.75
421.617	1394.75
421.839	1421.75
422.062	1435.75
422.285	1426.75
422.507	1440.75
422.73	1478.75
422.953	1447.75
423.175	1457.75
423.398	1490.75
423.621	1473.75
423.843	1495.75
424.066	1496.75
424.288	1520.75
424.511	1445.75
424.733	1494.75
424.956	1465.75
425.178	1458.75
425.401	1433.75
425.623	1463.75
425.846	1431.75
426.068	1413.75
426.291	1361.75
426.513	1380.75
426.735	1340.75
426.958	1343.75
427.18	1329.75
427.402	1297.75
427.625	1337.75
427.847	1259.75
428.069	1312.75
428.292	1306.75
428.514	1280.75
428.736	1247.75
428.958	1334.75
429.181	1279.75
429.403	1258.75
429.625	1239.75
429.847	1232.75
430.069	1246.75
430.292	1243.75
430.514	1235.75
430.736	1248.75
430.958	1234.75
431.18	1251.75
431.402	1263.75
431.624	1224.75
431.846	1240.75
432.068	1273.75
432.29	1322.75
432.512	1263.75
432.734	1259.75
432.956	1265.75
433.178	1276.75
433.4	1281.75
433.622	1291.75
433.844	1288.75
434.066	1304.75
434.287	1313.75
434.509	1338.75
434.731	1399.75
434.953	1459.75
435.175	1436.75
435.397	1397.75
435.618	1367.75
435.84	1323.75
436.062	1289.75
436.284	1263.75
436.505	1252.75
436.727	1283.75
436.949	1262.75
437.17	1276.75
437.392	1242.75
437.614	1249.75
437.835	1226.75
438.057	1263.75
438.278	1193.75
438.5	1215.75
438.721	1212.75
438.943	1244.75
439.165	1206.75
439.386	1227.75
439.608	1253.75
439.829	1248.75
440.05	1244.75
440.272	1247.75
440.493	1275.75
440.715	1316.75
440.936	1344.75
441.158	1328.75
441.379	1393.75
441.6	1418.75
441.822	1426.75
442.043	1436.75
442.264	1421.75
442.486	1364.75
442.707	1386.75
442.928	1376.75
443.149	1389.75
443.371	1385.75
443.592	1411.75
443.813	1406.75
444.034	1431.75
444.255	1491.75
444.476	1529.75
444.698	1611.75
444.919	1667.75
445.14	1705.75
445.361	1611.75
445.582	1493.75
445.803	1432.75
446.024	1395.75
446.245	1355.75
446.466	1329.75
446.687	1303.75
446.908	1271.75
447.129	1254.75
447.35	1252.75
447.571	1216.75
447.792	1190.75
448.013	1212.75
448.234	1171.75
448.455	1159.75
448.675	1183.75
448.896	1166.75
449.117	1120.75
449.338	1127.75
449.559	1139.75
449.779	1125.75
450	1116.75
450.221	1165.75
450.442	1153.75
450.662	1146.75
450.883	1172.75
451.104	1187.75
451.324	1154.75
451.545	1155.75
451.766	1139.75
451.986	1120.75
452.207	1128.75
452.428	1152.75
452.648	1138.75
452.869	1120.75
453.089	1100.75
453.31	1133.75
453.53	1080.75
453.751	1077.75
453.971	1103.75
454.192	1095.75
454.412	1088.75
454.633	1090.75
454.853	1089.75
455.073	1060.75
455.294	1079.75
455.514	1084.75
455.734	1068.75
455.955	1037.75
456.175	1048.75
456.395	1056.75
456.616	1054.75
456.836	1096.75
457.056	1063.75
457.276	1069.75
457.497	1109.75
457.717	1078.75
457.937	1105.75
458.157	1129.75
458.377	1148.75
458.598	1153.75
458.818	1165.75
459.038	1217.75
459.258	1255.75
459.478	1284.75
459.698	1307.75
459.918	1351.75
460.138	1403.75
460.358	1473.75
460.578	1500.75
460.798	1539.75
461.018	1536.75
461.238	1519.75
461.458	1528.75
461.678	1504.75
461.898	1560.75
462.118	1576.75
462.338	1638.75
462.558	1667.75
462.777	1731.75
462.997	1885.75
463.217	1945.75
463.437	1988.75
463.657	1855.75
463.876	1803.75
464.096	1763.75
464.316	1799.75
464.536	1797.75
464.755	1666.75
464.975	1651.75
465.195	1582.75
465.414	1515.75
465.634	1420.75
465.854	1357.75
466.073	1345.75
466.293	1294.75
466.512	1276.75
466.732	1218.75
466.951	1222.75
467.171	1191.75
467.391	1233.75
467.61	1229.75
467.829	1237.75
468.049	1230.75
468.268	1152.75
468.488	1161.75
468.707	1154.75
468.927	1172.75
469.146	1141.75
469.365	1207.75
469.585	1217.75
469.804	1220.75
470.023	1232.75
470.243	1228.75
470.462	1294.75
470.681	1297.75
470.901	1248.75
471.12	1262.75
471.339	1218.75
471.558	1235.75
471.777	1189.75
471.997	1190.75
472.216	1194.75
472.435	1163.75
472.654	1167.75
472.873	1139.75
473.092	1123.75
473.311	1139.75
473.53	1146.75
473.749	1122.75
473.968	1112.75
474.187	1103.75
474.406	1124.75
474.625	1115.75
474.844	1112.75
475.063	1124.75
475.282	1152.75
475.501	1155.75
475.72	1147.75
475.939	1166.75
476.158	1154.75
476.377	1205.75
476.596	1192.75
476.814	1203.75
477.033	1213.75
477.252	1295.75
477.471	1267.75
477.69	1260.75
477.908	1314.75
478.127	1328.75
478.346	1404.75
478.564	1412.75
478.783	1406.75
479.002	1423.75
479.22	1445.75
479.439	1450.75
479.658	1442.75
479.876	1427.75
480.095	1469.75
480.313	1518.75
480.532	1519.75
480.751	1540.75
480.969	1501.75
481.188	1436.75
481.406	1398.75
481.624	1367.75
481.843	1305.75
482.061	1320.75
482.28	1359.75
482.498	1312.75
482.717	1258.75
482.935	1267.75
483.153	1296.75
483.372	1307.75
483.59	1319.75
483.808	1316.75
484.027	1303.75
484.245	1294.75
484.463	1314.75
484.681	1362.75
484.9	1350.75
485.118	1324.75
485.336	1331.75
485.554	1363.75
485.772	1371.75
485.99	1353.75
486.209	1379.75
486.427	1407.75
486.645	1376.75
486.863	1375.75
487.081	1360.75
487.299	1372.75
487.517	1372.75
487.735	1381.75
487.953	1385.75
488.171	1354.75
488.389	1371.75
488.607	1344.75
488.825	1326.75
489.043	1339.75
489.261	1376.75
489.479	1389.75
489.696	1365.75
489.914	1359.75
490.132	1364.75
490.35	1383.75
490.568	1388.75
490.786	1387.75
491.003	1376.75
491.221	1388.75
491.439	1379.75
491.657	1382.75
491.874	1383.75
492.092	1408.75
492.31	1393.75
492.527	1408.75
492.745	1426.75
492.963	1411.75
493.18	1473.75
493.398	1406.75
493.615	1433.75
493.833	1420.75
494.05	1434.75
494.268	1425.75
494.485	1435.75
494.703	1456.75
494.92	1493.75
495.138	1471.75
495.355	1476.75
495.573	1475.75
495.79	1495.75
496.008	1480.75
496.225	1507.75
496.442	1524.75
496.66	1549.75
496.877	1602.75
497.094	1642.75
497.312	1604.75
497.529	1689.75
497.746	1698.75
497.963	1792.75
498.181	1896.75
498.398	1924.75
498.615	2074.75
498.832	2173.75
499.049	2369.75
499.267	2580.75
499.484	2821.75
499.701	3105.75
499.918	3398.75
500.135	3804.75
500.352	4151.75
500.569	4351.75
500.786	4304.75
501.003	4121.75
501.22	3743.75
501.437	3431.75
501.654	3080.75
501.871	2785.75
502.088	2550.75
502.305	2347.75
502.522	2245.75
502.739	2188.75
502.956	1999.75
503.172	1961.75
503.389	1869.75
503.606	1752.75
503.823	1784.75
504.04	1724.75
504.256	1783.75
504.473	1802.75
504.69	1743.75
504.907	1723.75
505.123	1656.75
505.34	1572.75
505.557	1499.75
505.773	1483.75
505.99	1453.75
506.207	1380.75
506.423	1393.75
506.64	1353.75
506.856	1333.75
507.073	1302.75
507.289	1316.75
507.506	1269.75
507.722	1305.75
507.939	1310.75
508.155	1263.75
508.372	1242.75
508.588	1258.75
508.805	1217.75
509.021	1226.75
509.238	1228.75
509.454	1234.75
509.67	1218.75
509.887	1207.75
510.103	1171.75
510.319	1180.75
510.536	1196.75
510.752	1203.75
510.968	1175.75
511.184	1176.75
511.401	1169.75
511.617	1175.75
511.833	1188.75
512.049	1164.75
512.265	1180.75
512.481	1166.75
512.698	1169.75
512.914	1183.75
513.13	1186.75
513.346	1167.75
513.562	1164.75
513.778	1178.75
513.994	1191.75
514.21	1183.75
514.426	1183.75
514.642	1193.75
514.858	1221.75
515.074	1224.75
515.29	1235.75
515.506	1258.75
515.721	1293.75
515.937	1291.75
516.153	1312.75
516.369	1317.75
516.585	1376.75
516.801	1407.75
517.016	1469.75
517.232	1532.75
517.448	1593.75
517.664	1631.75
517.879	1640.75
518.095	1633.75
518.311	1668.75
518.527	1598.75
518.742	1500.75
518.958	1488.75
519.173	1420.75
519.389	1373.75
519.605	1322.75
519.82	1305.75
520.036	1244.75
520.251	1259.75
520.467	1238.75
520.682	1239.75
520.898	1209.75
521.113	1183.75
521.329	1155.75
521.544	1144.75
521.76	1161.75
521.975	1121.75
522.19	1159.75
522.406	1130.75
522.621	1118.75
522.836	1111.75
523.052	1143.75
523.267	1101.75
523.482	1094.75
523.698	1110.75
523.913	1083.75
524.128	1106.75
524.343	1080.75
524.559	1061.75
524.774	1073.75
524.989	1089.75
525.204	1065.75
525.419	1058.75
525.634	1037.75
525.849	1071.75
526.064	1069.75
526.28	1056.75
526.495	1079.75
526.71	1052.75
526.925	1053.75
527.14	1036.75
527.355	1058.75
527.57	1059.75
527.785	1063.75
527.999	1027.75
528.214	1031.75
528.429	1046.75
528.644	1066.75
528.859	1052.75
529.074	1080.75
529.289	1037.75
529.503	1059.75
529.718	1056.75
529.933	1044.75
530.148	1010.75
530.363	1055.75
530.577	1052.75
530.792	1041.75
531.007	1028.75
531.221	1050.75
531.436	1067.75
531.651	1061.75
531.865	1041.75
532.08	1036.75
532.295	1036.75
532.509	1044.75
532.724	1027.75
532.938	1043.75
533.153	1063.75
533.367	1070.75
533.582	1025.75
533.796	1057.75
534.011	1055.75
534.225	1011.75
534.44	991.75
534.654	1047.75
534.868	1036.75
535.083	999.75
535.297	1019.75
535.511	1029.75
535.726	1014.75
535.94	1004.75
536.154	1015.75
536.369	999.75
536.583	971.75
536.797	977.75
537.011	971.75
537.225	980.75
537.44	971.75
537.654	965.75
537.868	970.75
538.082	950.75
538.296	943.75
538.51	943.75
538.724	947.75
538.938	962.75
539.153	930.75
539.367	947.75
539.581	942.75
539.795	925.75
540.009	947.75
540.222	955.75
540.436	927.75
540.65	944.75
540.864	913.75
541.078	928.75
541.292	915.75
541.506	937.75
541.72	927.75
541.934	940.75
542.147	964.75
542.361	936.75
542.575	925.75
542.789	946.75
543.002	927.75
543.216	916.75
543.43	929.75
543.644	922.75
543.857	929.75
544.071	923.75
544.285	922.75
544.498	941.75
544.712	941.75
544.925	947.75
545.139	945.75
545.352	948.75
545.566	955.75
545.779	964.75
545.993	991.75
546.206	965.75
546.42	944.75
546.633	965.75
546.847	975.75
547.06	964.75
547.274	952.75
547.487	937.75
547.7	949.75
547.914	939.75
548.127	981.75
548.34	966.75
548.554	983.75
548.767	967.75
548.98	965.75
549.193	991.75
549.407	986.75
549.62	1005.75
549.833	981.75
550.046	980.75
550.259	978.75
550.473	952.75
550.686	963.75
550.899	961.75
551.112	948.75
551.325	944.75
551.538	948.75
551.751	954.75
551.964	948.75
552.177	977.75
552.39	989.75
552.603	1035.75
552.816	1026.75
553.029	1049.75
553.242	1028.75
553.455	1068.75
553.667	1097.75
553.88	1058.75
554.093	1041.75
554.306	998.75
554.519	987.75
554.732	964.75
554.944	917.75
555.157	908.75
555.37	923.75
555.583	896.75
555.795	887.75
556.008	853.75
556.221	862.75
556.433	853.75
556.646	844.75
556.859	844.75
557.071	834.75
557.284	816.75
557.496	813.75
557.709	825.75
557.921	835.75
558.134	791.75
558.346	830.75
558.559	808.75
558.771	791.75
558.984	800.75
559.196	790.75
559.409	773.75
559.621	805.75
559.833	801.75
560.046	806.75
560.258	779.75
560.47	762.75
560.683	795.75
560.895	788.75
561.107	783.75
561.32	803.75
561.532	777.75
561.744	800.75
561.956	809.75
562.168	799.75
562.381	789.75
562.593	792.75
562.805	798.75
563.017	775.75
563.229	793.75
563.441	812.75
563.653	845.75
563.865	848.75
564.077	794.75
564.289	836.75
564.501	855.75
564.713	855.75
564.925	893.75
565.137	883.75
565.349	909.75
565.561	911.75
565.773	977.75
565.985	1021.75
566.197	1059.75
566.408	1168.75
566.62	1220.75
566.832	1292.75
567.044	1331.75
567.255	1321.75
567.467	1383.75
567.679	1448.75
567.891	1500.75
568.102	1459.75
568.314	1445.75
568.526	1323.75
568.737	1217.75
568.949	1128.75
569.161	1029.75
569.372	973.75
569.584	935.75
569.795	892.75
570.007	876.75
570.218	879.75
570.43	803.75
570.641	820.75
570.853	840.75
571.064	824.75
571.276	822.75
571.487	810.75
571.698	780.75
571.91	753.75
572.121	738.75
572.333	713.75
572.544	708.75
572.755	679.75
572.966	699.75
573.178	667.75
573.389	677.75
573.6	657.75
573.811	674.75
574.023	650.75
574.234	634.75
574.445	667.75
574.656	650.75
574.867	626.75
575.078	648.75
575.289	658.75
575.501	618.75
575.712	616.75
575.923	633.75
576.134	612.75
576.345	623.75
576.556	620.75
576.767	595.75
576.978	580.75
577.188	611.75
577.399	608.75
577.61	604.75
577.821	592.75
578.032	586.75
578.243	573.75
578.454	582.75
578.665	566.75
578.875	579.75
579.086	585.75
579.297	585.75
579.508	560.75
579.718	550.75
579.929	572.75
580.14	583.75
580.35	571.75
580.561	556.75
580.772	550.75
580.982	570.75
581.193	559.75
581.403	568.75
581.614	549.75
581.825	543.75
582.035	535.75
582.246	554.75
582.456	538.75
582.667	543.75
582.877	513.75
583.087	517.75
583.298	543.75
583.508	532.75
583.719	539.75
583.929	542.75
584.139	543.75
584.35	521.75
584.56	517.75
584.77	538.75
584.981	496.75
585.191	522.75
585.401	505.75
585.611	518.75
585.821	506.75
586.032	544.75
586.242	518.75
586.452	512.75
586.662	519.75
586.872	516.75
587.082	519.75
587.292	519.75
587.502	518.75
587.713	500.75
587.923	513.75
588.133	508.75
588.343	529.75
588.553	518.75
588.762	517.75
588.972	519.75
589.182	533.75
589.392	529.75
589.602	522.75
589.812	561.75
590.022	523.75
590.232	517.75
590.441	502.75
590.651	533.75
590.861	539.75
591.071	545.75
591.281	552.75
591.49	540.75
591.7	557.75
591.91	547.75
592.119	559.75
592.329	581.75
592.539	602.75
592.748	620.75
592.958	657.75
593.167	645.75
593.377	665.75
593.587	661.75
593.796	673.75
594.006	665.75
594.215	664.75
594.424	664.75
594.634	619.75
594.843	637.75
595.053	607.75
595.262	603.75
595.472	584.75
595.681	577.75
595.89	538.75
596.1	517.75
596.309	515.75
596.518	523.75
596.727	507.75
596.937	478.75
597.146	480.75
597.355	498.75
597.564	464.75
597.774	464.75
597.983	451.75
598.192	460.75
598.401	456.75
598.61	449.75
598.819	460.75
599.028	455.75
599.237	455.75
599.446	437.75
599.655	452.75
599.864	446.75
600.073	441.75
600.282	437.75
600.491	435.75
600.7	422.75
600.909	424.75
601.118	421.75
601.327	421.75
601.536	441.75
601.745	406.75
601.953	407.75
602.162	411.75
602.371	411.75
602.58	415.75
602.789	398.75
602.997	431.75
603.206	401.75
603.415	413.75
603.623	408.75
603.832	395.75
604.041	400.75
604.249	395.75
604.458	411.75
604.666	400.75
604.875	399.75
605.084	413.75
605.292	397.75
605.501	409.75
605.709	401.75
605.918	395.75
606.126	375.75
606.334	405.75
606.543	384.75
606.751	404.75
606.96	393.75
607.168	400.75
607.376	375.75
607.585	397.75
607.793	391.75
608.001	372.75
608.21	393.75
608.418	393.75
608.626	381.75
608.834	369.75
609.043	371.75
609.251	364.75
609.459	380.75
609.667	358.75
609.875	360.75
610.083	365.75
610.291	381.75
610.499	371.75
610.707	383.75
610.916	372.75
611.124	369.75
611.332	372.75
611.54	374.75
611.748	362.75
611.955	366.75
612.163	377.75
612.371	375.75
612.579	377.75
612.787	374.75
612.995	355.75
613.203	367.75
613.411	358.75
613.618	370.75
613.826	358.75
614.034	383.75
614.242	370.75
614.449	362.75
614.657	348.75
614.865	360.75
615.072	360.75
615.28	362.75
615.488	347.75
615.695	369.75
615.903	358.75
616.111	356.75
616.318	370.75
616.526	362.75
616.733	353.75
616.941	373.75
617.148	356.75
617.356	339.75
617.563	348.75
617.771	362.75
617.978	344.75
618.185	369.75
618.393	348.75
618.6	346.75
618.807	353.75
619.015	348.75
619.222	356.75
619.429	346.75
619.637	351.75
619.844	342.75
620.051	363.75
620.258	344.75
620.466	341.75
620.673	339.75
620.88	337.75
621.087	333.75
621.294	323.75
621.501	329.75
621.708	340.75
621.915	330.75
622.122	344.75
622.329	329.75
622.536	333.75
622.743	336.75
622.95	328.75
623.157	331.75
623.364	319.75
623.571	328.75
623.778	330.75
623.985	313.75
624.192	326.75
624.399	329.75
624.606	319.75
624.812	309.75
625.019	319.75
625.226	311.75
625.433	315.75
625.639	303.75
625.846	298.75
626.053	303.75
626.259	297.75
626.466	311.75
626.673	303.75
626.879	288.75
627.086	297.75
627.293	298.75
627.499	271.75
627.706	292.75
627.912	312.75
628.119	294.75
628.325	289.75
628.532	305.75
628.738	286.75
628.945	292.75
629.151	282.75
629.357	285.75
629.564	285.75
629.77	276.75
629.976	275.75
630.183	281.75
630.389	290.75
630.595	281.75
630.802	284.75
631.008	287.75
631.214	267.75
631.42	265.75
631.627	275.75
631.833	274.75
632.039	289.75
632.245	278.75
632.451	266.75
632.657	279.75
632.863	279.75
633.069	287.75
633.275	284.75
633.481	272.75
633.688	261.75
633.893	271.75
634.099	274.75
634.305	267.75
634.511	255.75
634.717	251.75
634.923	273.75
635.129	268.75
635.335	259.75
635.541	260.75
635.747	280.75
635.952	259.75
636.158	234.75
636.364	243.75
636.57	271.75
636.775	255.75
636.981	261.75
637.187	267.75
637.392	255.75
637.598	249.75
637.804	263.75
638.009	247.75
638.215	245.75
638.421	258.75
638.626	260.75
638.832	252.75
639.037	257.75
639.243	232.75
639.448	255.75
639.654	255.75
639.859	229.75
640.065	232.75
640.27	236.75
640.475	227.75
640.681	253.75
640.886	244.75
641.091	242.75
641.297	240.75
641.502	247.75
641.707	262.75
641.913	232.75
642.118	226.75
642.323	222.75
642.528	224.75
642.733	235.75
642.939	231.75
643.144	219.75
643.349	239.75
643.554	231.75
643.759	222.75
643.964	217.75
644.169	226.75
644.374	217.75
644.579	241.75
644.784	216.75
644.989	221.75
645.194	234.75
645.399	215.75
645.604	235.75
645.809	236.75
646.014	235.75
646.219	212.75
646.423	214.75
646.628	231.75
646.833	217.75
647.038	223.75
647.243	224.75
647.447	237.75
647.652	232.75
647.857	214.75
648.062	222.75
648.266	216.75
648.471	232.75
648.676	255.75
648.88	222.75
649.085	207.75
649.289	226.75
649.494	231.75
649.698	213.75
649.903	222.75
650.107	230.75
650.312	215.75
650.516	193.75
650.721	196.75
650.925	203.75
651.13	199.75
651.334	192.75
651.539	203.75
651.743	173.75
651.947	199.75
652.152	185.75
652.356	189.75
652.56	181.75
652.764	167.75
652.969	177.75
653.173	183.75
653.377	174.75
653.581	175.75
653.785	171.75
653.99	165.75
654.194	163.75
654.398	160.75
654.602	168.75
654.806	163.75
655.01	166.75
655.214	148.75
655.418	159.75
655.622	152.75
655.826	154.75
656.03	139.75
656.234	161.75
656.438	153.75
656.642	152.75
656.846	158.75
657.049	140.75
657.253	124.75
657.457	151.75
657.661	130.75
657.865	124.75
658.068	135.75
658.272	140.75
658.476	132.75
658.68	123.75
658.883	115.75
659.087	107.75
659.291	116.75
659.494	105.75
659.698	106.75
659.901	103.75
660.105	84.75
660.309	98.75
660.512	95.75
660.716	99.75
660.919	92.75
661.123	107.75
661.326	114.75
661.53	100.75
661.733	96.75
661.936	100.75
662.14	91.75
662.343	106.75
662.546	100.75
662.75	86.75
662.953	92.75
663.156	99.75
663.36	74.75
663.563	84.75
663.766	80.75
663.969	85.75
664.173	87.75
664.376	96.75
664.579	89.75
664.782	82.75
664.985	71.75
665.188	80.75
665.391	90.75
665.594	84.75
665.797	76.75
666	83.75
666.203	75.75
666.406	74.75
666.609	92.75
666.812	85.75
667.015	78.75
667.218	80.75
667.421	77.75
667.624	82.75
667.827	79.75
668.03	90.75
668.232	80.75
668.435	74.75
668.638	83.75
668.841	77.75
669.043	78.75
669.246	80.75
669.449	88.75
669.651	91.75
669.854	90.75
670.057	81.75
670.259	87.75
670.462	67.75
670.665	85.75
670.867	73.75
671.07	78.75
671.272	72.75
671.475	79.75
671.677	74.75
671.88	85.75
672.082	80.75
672.284	90.75
672.487	72.75
672.689	82.75
672.892	72.75
