Data from NiCl2@0.25M.TitratingCurve.Agarose3%dH2O.NegLispCup.LampEnergy10.LIBS07252019_HRD10591_18-25-17-573.txt Node
Date: Thu Jul 25 18:25:17 EDT 2019
User: cochatt
Spectrometer: HR+D1059
Trigger mode: 1
Integration Time (sec): 1.000000E-1
Scans to average: 1
Electric dark correction enabled: true
Nonlinearity correction enabled: false
Boxcar width: 0
XAxis mode: Wavelengths
Number of Pixels in Spectrum: 2048
>>>>>Begin Spectral Data<<<<<
223.165	-3.06
223.4	-3.06
223.635	-3.06
223.869	-21.06
224.104	-7.06
224.338	-20.06
224.573	-17.06
224.808	-23.06
225.042	-10.06
225.277	-4.06
225.511	3.94
225.746	5.94
225.98	-4.06
226.215	-1.06
226.449	23.94
226.683	18.94
226.918	18.94
227.152	38.94
227.387	38.94
227.621	22.94
227.856	29.94
228.09	36.94
228.324	44.94
228.559	57.94
228.793	70.94
229.027	103.94
229.262	113.94
229.496	119.94
229.73	117.94
229.964	118.94
230.199	129.94
230.433	122.94
230.667	124.94
230.901	121.94
231.136	132.94
231.37	127.94
231.604	141.94
231.838	151.94
232.072	149.94
232.306	160.94
232.541	159.94
232.775	145.94
233.009	157.94
233.243	159.94
233.477	136.94
233.711	147.94
233.945	145.94
234.179	143.94
234.413	149.94
234.647	161.94
234.881	151.94
235.115	159.94
235.349	151.94
235.583	149.94
235.817	149.94
236.051	150.94
236.285	161.94
236.519	159.94
236.753	174.94
236.987	150.94
237.221	163.94
237.455	161.94
237.689	158.94
237.922	158.94
238.156	167.94
238.39	177.94
238.624	181.94
238.858	177.94
239.091	170.94
239.325	168.94
239.559	169.94
239.793	177.94
240.027	187.94
240.26	176.94
240.494	178.94
240.728	193.94
240.961	181.94
241.195	170.94
241.429	182.94
241.662	181.94
241.896	192.94
242.13	201.94
242.363	195.94
242.597	208.94
242.83	212.94
243.064	196.94
243.298	190.94
243.531	206.94
243.765	205.94
243.998	225.94
244.232	216.94
244.465	206.94
244.699	209.94
244.932	214.94
245.166	218.94
245.399	224.94
245.633	228.94
245.866	216.94
246.099	237.94
246.333	243.94
246.566	231.94
246.8	216.94
247.033	211.94
247.266	230.94
247.5	231.94
247.733	225.94
247.966	240.94
248.2	237.94
248.433	239.94
248.666	249.94
248.899	235.94
249.133	255.94
249.366	257.94
249.599	242.94
249.832	254.94
250.066	255.94
250.299	248.94
250.532	261.94
250.765	254.94
250.998	269.94
251.231	265.94
251.465	277.94
251.698	246.94
251.931	288.94
252.164	265.94
252.397	285.94
252.63	268.94
252.863	293.94
253.096	285.94
253.329	279.94
253.562	275.94
253.795	285.94
254.028	296.94
254.261	298.94
254.494	292.94
254.727	291.94
254.96	281.94
255.193	278.94
255.426	294.94
255.659	293.94
255.892	292.94
256.124	310.94
256.357	295.94
256.59	311.94
256.823	306.94
257.056	314.94
257.289	313.94
257.521	298.94
257.754	294.94
257.987	321.94
258.22	305.94
258.452	302.94
258.685	324.94
258.918	294.94
259.151	301.94
259.383	315.94
259.616	312.94
259.849	323.94
260.081	315.94
260.314	328.94
260.547	329.94
260.779	334.94
261.012	335.94
261.244	317.94
261.477	332.94
261.71	343.94
261.942	340.94
262.175	332.94
262.407	338.94
262.64	337.94
262.872	348.94
263.105	344.94
263.337	352.94
263.57	367.94
263.802	371.94
264.035	360.94
264.267	371.94
264.499	354.94
264.732	359.94
264.964	369.94
265.197	349.94
265.429	366.94
265.661	365.94
265.894	370.94
266.126	367.94
266.358	355.94
266.591	369.94
266.823	360.94
267.055	377.94
267.287	376.94
267.52	383.94
267.752	392.94
267.984	376.94
268.216	375.94
268.448	383.94
268.681	387.94
268.913	375.94
269.145	393.94
269.377	385.94
269.609	394.94
269.841	368.94
270.073	395.94
270.306	397.94
270.538	386.94
270.77	411.94
271.002	387.94
271.234	394.94
271.466	397.94
271.698	387.94
271.93	396.94
272.162	404.94
272.394	386.94
272.626	402.94
272.858	414.94
273.09	398.94
273.322	409.94
273.553	393.94
273.785	394.94
274.017	395.94
274.249	411.94
274.481	410.94
274.713	428.94
274.945	404.94
275.176	442.94
275.408	427.94
275.64	422.94
275.872	429.94
276.104	417.94
276.335	446.94
276.567	440.94
276.799	440.94
277.031	451.94
277.262	441.94
277.494	447.94
277.726	426.94
277.957	437.94
278.189	439.94
278.421	436.94
278.652	428.94
278.884	454.94
279.115	465.94
279.347	463.94
279.579	446.94
279.81	467.94
280.042	477.94
280.273	462.94
280.505	455.94
280.736	472.94
280.968	465.94
281.199	480.94
281.431	454.94
281.662	474.94
281.894	481.94
282.125	490.94
282.356	470.94
282.588	485.94
282.819	475.94
283.051	471.94
283.282	471.94
283.513	490.94
283.745	510.94
283.976	480.94
284.207	496.94
284.439	497.94
284.67	502.94
284.901	505.94
285.132	509.94
285.364	502.94
285.595	484.94
285.826	485.94
286.057	498.94
286.288	491.94
286.52	525.94
286.751	517.94
286.982	516.94
287.213	511.94
287.444	519.94
287.675	514.94
287.906	517.94
288.138	507.94
288.369	530.94
288.6	538.94
288.831	520.94
289.062	538.94
289.293	513.94
289.524	541.94
289.755	527.94
289.986	559.94
290.217	533.94
290.448	536.94
290.679	542.94
290.91	538.94
291.141	523.94
291.371	543.94
291.602	540.94
291.833	563.94
292.064	539.94
292.295	552.94
292.526	546.94
292.757	533.94
292.987	542.94
293.218	543.94
293.449	552.94
293.68	538.94
293.91	570.94
294.141	552.94
294.372	523.94
294.603	550.94
294.833	559.94
295.064	553.94
295.295	552.94
295.525	539.94
295.756	568.94
295.987	529.94
296.217	561.94
296.448	566.94
296.679	567.94
296.909	586.94
297.14	552.94
297.37	562.94
297.601	599.94
297.831	579.94
298.062	604.94
298.292	589.94
298.523	603.94
298.753	612.94
298.984	589.94
299.214	590.94
299.445	598.94
299.675	581.94
299.905	579.94
300.136	582.94
300.366	597.94
300.597	606.94
300.827	624.94
301.057	620.94
301.288	625.94
301.518	608.94
301.748	633.94
301.979	632.94
302.209	638.94
302.439	629.94
302.669	625.94
302.9	602.94
303.13	613.94
303.36	622.94
303.59	615.94
303.82	619.94
304.051	641.94
304.281	625.94
304.511	609.94
304.741	621.94
304.971	623.94
305.201	613.94
305.431	601.94
305.661	644.94
305.891	630.94
306.121	580.94
306.352	599.94
306.582	595.94
306.812	624.94
307.042	606.94
307.272	610.94
307.502	598.94
307.731	607.94
307.961	590.94
308.191	609.94
308.421	606.94
308.651	623.94
308.881	606.94
309.111	595.94
309.341	609.94
309.571	607.94
309.8	600.94
310.03	609.94
310.26	615.94
310.49	612.94
310.72	605.94
310.949	600.94
311.179	614.94
311.409	614.94
311.639	630.94
311.868	604.94
312.098	623.94
312.328	646.94
312.557	621.94
312.787	633.94
313.017	643.94
313.246	642.94
313.476	635.94
313.706	637.94
313.935	646.94
314.165	638.94
314.394	632.94
314.624	649.94
314.853	660.94
315.083	657.94
315.312	639.94
315.542	647.94
315.771	609.94
316.001	633.94
316.23	635.94
316.46	638.94
316.689	655.94
316.919	633.94
317.148	612.94
317.377	637.94
317.607	630.94
317.836	618.94
318.065	635.94
318.295	664.94
318.524	641.94
318.753	635.94
318.983	622.94
319.212	615.94
319.441	633.94
319.67	643.94
319.9	662.94
320.129	637.94
320.358	649.94
320.587	633.94
320.816	654.94
321.046	624.94
321.275	639.94
321.504	630.94
321.733	646.94
321.962	652.94
322.191	639.94
322.42	658.94
322.649	654.94
322.878	636.94
323.108	651.94
323.337	659.94
323.566	665.94
323.795	695.94
324.024	689.94
324.253	646.94
324.482	670.94
324.71	669.94
324.939	661.94
325.168	689.94
325.397	667.94
325.626	679.94
325.855	664.94
326.084	681.94
326.313	693.94
326.542	717.94
326.77	716.94
326.999	683.94
327.228	687.94
327.457	693.94
327.686	680.94
327.914	723.94
328.143	704.94
328.372	711.94
328.6	708.94
328.829	701.94
329.058	706.94
329.287	683.94
329.515	697.94
329.744	702.94
329.972	731.94
330.201	728.94
330.43	742.94
330.658	714.94
330.887	743.94
331.115	734.94
331.344	715.94
331.572	745.94
331.801	757.94
332.03	771.94
332.258	762.94
332.486	782.94
332.715	830.94
332.943	848.94
333.172	861.94
333.4	897.94
333.629	945.94
333.857	934.94
334.085	973.94
334.314	939.94
334.542	924.94
334.771	928.94
334.999	888.94
335.227	897.94
335.455	887.94
335.684	893.94
335.912	878.94
336.14	856.94
336.369	853.94
336.597	859.94
336.825	852.94
337.053	867.94
337.281	827.94
337.51	797.94
337.738	817.94
337.966	793.94
338.194	781.94
338.422	790.94
338.65	758.94
338.878	783.94
339.106	767.94
339.334	777.94
339.562	768.94
339.79	737.94
340.018	727.94
340.246	722.94
340.474	735.94
340.702	733.94
340.93	730.94
341.158	737.94
341.386	751.94
341.614	733.94
341.842	745.94
342.07	720.94
342.298	722.94
342.526	737.94
342.754	725.94
342.981	740.94
343.209	748.94
343.437	775.94
343.665	807.94
343.893	865.94
344.12	938.94
344.348	909.94
344.576	847.94
344.804	834.94
345.031	778.94
345.259	751.94
345.487	752.94
345.714	735.94
345.942	728.94
346.17	748.94
346.397	729.94
346.625	706.94
346.853	720.94
347.08	699.94
347.308	711.94
347.535	711.94
347.763	697.94
347.99	728.94
348.218	732.94
348.445	693.94
348.673	715.94
348.9	692.94
349.128	700.94
349.355	733.94
349.583	710.94
349.81	689.94
350.037	693.94
350.265	693.94
350.492	700.94
350.72	695.94
350.947	675.94
351.174	685.94
351.402	708.94
351.629	695.94
351.856	671.94
352.083	693.94
352.311	667.94
352.538	654.94
352.765	673.94
352.992	667.94
353.22	659.94
353.447	649.94
353.674	644.94
353.901	689.94
354.128	680.94
354.355	647.94
354.583	675.94
354.81	666.94
355.037	697.94
355.264	682.94
355.491	677.94
355.718	690.94
355.945	672.94
356.172	681.94
356.399	689.94
356.626	682.94
356.853	681.94
357.08	698.94
357.307	689.94
357.534	683.94
357.761	702.94
357.988	707.94
358.215	688.94
358.441	703.94
358.668	663.94
358.895	686.94
359.122	710.94
359.349	687.94
359.576	674.94
359.802	670.94
360.029	692.94
360.256	693.94
360.483	701.94
360.709	683.94
360.936	678.94
361.163	670.94
361.39	680.94
361.616	669.94
361.843	670.94
362.07	705.94
362.296	685.94
362.523	697.94
362.749	691.94
362.976	695.94
363.203	695.94
363.429	678.94
363.656	673.94
363.882	693.94
364.109	693.94
364.335	684.94
364.562	678.94
364.788	669.94
365.015	698.94
365.241	669.94
365.468	681.94
365.694	667.94
365.92	693.94
366.147	677.94
366.373	694.94
366.599	683.94
366.826	669.94
367.052	695.94
367.278	679.94
367.505	680.94
367.731	689.94
367.957	685.94
368.184	700.94
368.41	693.94
368.636	701.94
368.862	698.94
369.089	700.94
369.315	689.94
369.541	713.94
369.767	738.94
369.993	711.94
370.219	697.94
370.445	712.94
370.672	705.94
370.898	735.94
371.124	732.94
371.35	722.94
371.576	744.94
371.802	739.94
372.028	741.94
372.254	734.94
372.48	750.94
372.706	803.94
372.932	782.94
373.158	782.94
373.384	751.94
373.61	728.94
373.835	746.94
374.061	753.94
374.287	745.94
374.513	765.94
374.739	802.94
374.965	821.94
375.191	819.94
375.416	802.94
375.642	771.94
375.868	801.94
376.094	776.94
376.319	750.94
376.545	769.94
376.771	750.94
376.997	761.94
377.222	767.94
377.448	749.94
377.674	759.94
377.899	729.94
378.125	743.94
378.35	738.94
378.576	732.94
378.802	726.94
379.027	761.94
379.253	747.94
379.478	741.94
379.704	740.94
379.929	753.94
380.155	746.94
380.38	734.94
380.606	721.94
380.831	725.94
381.057	755.94
381.282	743.94
381.507	749.94
381.733	767.94
381.958	747.94
382.184	778.94
382.409	778.94
382.634	772.94
382.86	773.94
383.085	776.94
383.31	802.94
383.535	793.94
383.761	810.94
383.986	822.94
384.211	837.94
384.436	853.94
384.662	911.94
384.887	883.94
385.112	900.94
385.337	911.94
385.562	924.94
385.787	907.94
386.013	914.94
386.238	896.94
386.463	899.94
386.688	915.94
386.913	921.94
387.138	887.94
387.363	862.94
387.588	883.94
387.813	910.94
388.038	863.94
388.263	907.94
388.488	907.94
388.713	910.94
388.938	906.94
389.163	884.94
389.387	878.94
389.612	866.94
389.837	903.94
390.062	898.94
390.287	900.94
390.512	926.94
390.736	869.94
390.961	876.94
391.186	933.94
391.411	943.94
391.636	1017.94
391.86	991.94
392.085	1012.94
392.31	1006.94
392.534	977.94
392.759	994.94
392.984	980.94
393.208	972.94
393.433	982.94
393.658	958.94
393.882	958.94
394.107	943.94
394.331	959.94
394.556	965.94
394.78	956.94
395.005	954.94
395.229	982.94
395.454	972.94
395.678	994.94
395.903	1011.94
396.127	1016.94
396.352	976.94
396.576	959.94
396.801	954.94
397.025	956.94
397.249	1001.94
397.474	1021.94
397.698	1022.94
397.922	998.94
398.147	1057.94
398.371	1044.94
398.595	1071.94
398.82	1125.94
399.044	1202.94
399.268	1321.94
399.492	1491.94
399.717	1665.94
399.941	1678.94
400.165	1547.94
400.389	1395.94
400.613	1299.94
400.837	1253.94
401.062	1186.94
401.286	1179.94
401.51	1177.94
401.734	1136.94
401.958	1152.94
402.182	1195.94
402.406	1189.94
402.63	1206.94
402.854	1235.94
403.078	1230.94
403.302	1232.94
403.526	1271.94
403.75	1252.94
403.974	1318.94
404.198	1304.94
404.422	1307.94
404.645	1302.94
404.869	1278.94
405.093	1251.94
405.317	1224.94
405.541	1260.94
405.765	1286.94
405.988	1218.94
406.212	1253.94
406.436	1274.94
406.66	1284.94
406.883	1327.94
407.107	1380.94
407.331	1423.94
407.555	1475.94
407.778	1468.94
408.002	1418.94
408.226	1407.94
408.449	1378.94
408.673	1309.94
408.896	1312.94
409.12	1269.94
409.344	1299.94
409.567	1273.94
409.791	1270.94
410.014	1285.94
410.238	1270.94
410.461	1267.94
410.685	1257.94
410.908	1223.94
411.132	1201.94
411.355	1201.94
411.578	1187.94
411.802	1182.94
412.025	1157.94
412.249	1203.94
412.472	1187.94
412.695	1192.94
412.919	1141.94
413.142	1170.94
413.365	1140.94
413.589	1153.94
413.812	1147.94
414.035	1120.94
414.258	1143.94
414.482	1137.94
414.705	1151.94
414.928	1159.94
415.151	1155.94
415.374	1161.94
415.597	1146.94
415.821	1098.94
416.044	1122.94
416.267	1128.94
416.49	1075.94
416.713	1066.94
416.936	1107.94
417.159	1101.94
417.382	1137.94
417.605	1110.94
417.828	1101.94
418.051	1120.94
418.274	1118.94
418.497	1136.94
418.72	1175.94
418.943	1139.94
419.166	1212.94
419.389	1329.94
419.611	1263.94
419.834	1207.94
420.057	1156.94
420.28	1132.94
420.503	1136.94
420.726	1109.94
420.948	1121.94
421.171	1098.94
421.394	1133.94
421.617	1104.94
421.839	1115.94
422.062	1108.94
422.285	1108.94
422.507	1150.94
422.73	1121.94
422.953	1147.94
423.175	1182.94
423.398	1171.94
423.621	1151.94
423.843	1185.94
424.066	1159.94
424.288	1179.94
424.511	1157.94
424.733	1163.94
424.956	1126.94
425.178	1116.94
425.401	1118.94
425.623	1128.94
425.846	1080.94
426.068	1092.94
426.291	1078.94
426.513	1057.94
426.735	1082.94
426.958	1064.94
427.18	1027.94
427.402	1020.94
427.625	1033.94
427.847	996.94
428.069	1021.94
428.292	1026.94
428.514	1013.94
428.736	997.94
428.958	996.94
429.181	977.94
429.403	990.94
429.625	1010.94
429.847	987.94
430.069	951.94
430.292	965.94
430.514	964.94
430.736	952.94
430.958	952.94
431.18	947.94
431.402	982.94
431.624	986.94
431.846	998.94
432.068	998.94
432.29	1011.94
432.512	1000.94
432.734	1026.94
432.956	984.94
433.178	987.94
433.4	999.94
433.622	997.94
433.844	1017.94
434.066	1053.94
434.287	1021.94
434.509	1034.94
434.731	1063.94
434.953	1098.94
435.175	1131.94
435.397	1091.94
435.618	1042.94
435.84	1040.94
436.062	1003.94
436.284	1004.94
436.505	981.94
436.727	985.94
436.949	1004.94
437.17	1005.94
437.392	971.94
437.614	928.94
437.835	934.94
438.057	963.94
438.278	938.94
438.5	967.94
438.721	959.94
438.943	982.94
439.165	937.94
439.386	973.94
439.608	983.94
439.829	966.94
440.05	953.94
440.272	1008.94
440.493	1027.94
440.715	1015.94
440.936	1049.94
441.158	1058.94
441.379	1071.94
441.6	1092.94
441.822	1078.94
442.043	1148.94
442.264	1095.94
442.486	1064.94
442.707	1098.94
442.928	1117.94
443.149	1090.94
443.371	1074.94
443.592	1107.94
443.813	1097.94
444.034	1143.94
444.255	1145.94
444.476	1232.94
444.698	1302.94
444.919	1351.94
445.14	1374.94
445.361	1265.94
445.582	1149.94
445.803	1088.94
446.024	1085.94
446.245	1041.94
446.466	1007.94
446.687	1010.94
446.908	986.94
447.129	971.94
447.35	979.94
447.571	955.94
447.792	935.94
448.013	954.94
448.234	961.94
448.455	916.94
448.675	903.94
448.896	896.94
449.117	919.94
449.338	891.94
449.559	909.94
449.779	913.94
450	893.94
450.221	925.94
450.442	917.94
450.662	932.94
450.883	927.94
451.104	917.94
451.324	939.94
451.545	907.94
451.766	949.94
451.986	917.94
452.207	888.94
452.428	905.94
452.648	888.94
452.869	896.94
453.089	895.94
453.31	931.94
453.53	900.94
453.751	880.94
453.971	884.94
454.192	876.94
454.412	863.94
454.633	881.94
454.853	858.94
455.073	850.94
455.294	857.94
455.514	888.94
455.734	879.94
455.955	842.94
456.175	833.94
456.395	857.94
456.616	846.94
456.836	861.94
457.056	841.94
457.276	844.94
457.497	878.94
457.717	841.94
457.937	869.94
458.157	864.94
458.377	841.94
458.598	909.94
458.818	923.94
459.038	936.94
459.258	997.94
459.478	1021.94
459.698	1022.94
459.918	1059.94
460.138	1106.94
460.358	1136.94
460.578	1179.94
460.798	1175.94
461.018	1194.94
461.238	1173.94
461.458	1178.94
461.678	1169.94
461.898	1169.94
462.118	1214.94
462.338	1235.94
462.558	1319.94
462.777	1344.94
462.997	1443.94
463.217	1543.94
463.437	1530.94
463.657	1483.94
463.876	1423.94
464.096	1401.94
464.316	1379.94
464.536	1370.94
464.755	1299.94
464.975	1288.94
465.195	1195.94
465.414	1155.94
465.634	1091.94
465.854	1068.94
466.073	1025.94
466.293	998.94
466.512	982.94
466.732	979.94
466.951	962.94
467.171	967.94
467.391	953.94
467.61	952.94
467.829	942.94
468.049	947.94
468.268	911.94
468.488	933.94
468.707	905.94
468.927	942.94
469.146	926.94
469.365	936.94
469.585	929.94
469.804	967.94
470.023	968.94
470.243	967.94
470.462	1007.94
470.681	978.94
470.901	975.94
471.12	981.94
471.339	948.94
471.558	941.94
471.777	963.94
471.997	917.94
472.216	928.94
472.435	924.94
472.654	890.94
472.873	932.94
473.092	883.94
473.311	902.94
473.53	915.94
473.749	922.94
473.968	910.94
474.187	902.94
474.406	899.94
474.625	888.94
474.844	877.94
475.063	899.94
475.282	909.94
475.501	907.94
475.72	920.94
475.939	928.94
476.158	950.94
476.377	922.94
476.596	936.94
476.814	957.94
477.033	961.94
477.252	968.94
477.471	971.94
477.69	1002.94
477.908	1053.94
478.127	1069.94
478.346	1075.94
478.564	1085.94
478.783	1110.94
479.002	1135.94
479.22	1129.94
479.439	1091.94
479.658	1138.94
479.876	1142.94
480.095	1131.94
480.313	1183.94
480.532	1241.94
480.751	1234.94
480.969	1187.94
481.188	1144.94
481.406	1093.94
481.624	1047.94
481.843	1060.94
482.061	1050.94
482.28	1035.94
482.498	1021.94
482.717	1066.94
482.935	1024.94
483.153	1039.94
483.372	1011.94
483.59	1011.94
483.808	1043.94
484.027	1045.94
484.245	1041.94
484.463	1046.94
484.681	1077.94
484.9	1043.94
485.118	1083.94
485.336	1057.94
485.554	1081.94
485.772	1077.94
485.99	1077.94
486.209	1086.94
486.427	1093.94
486.645	1106.94
486.863	1107.94
487.081	1113.94
487.299	1039.94
487.517	1092.94
487.735	1101.94
487.953	1083.94
488.171	1107.94
488.389	1088.94
488.607	1088.94
488.825	1050.94
489.043	1044.94
489.261	1048.94
489.479	1096.94
489.696	1095.94
489.914	1048.94
490.132	1080.94
490.35	1071.94
490.568	1075.94
490.786	1105.94
491.003	1104.94
491.221	1093.94
491.439	1106.94
491.657	1115.94
491.874	1089.94
492.092	1134.94
492.31	1105.94
492.527	1142.94
492.745	1106.94
492.963	1128.94
493.18	1110.94
493.398	1118.94
493.615	1144.94
493.833	1139.94
494.05	1139.94
494.268	1149.94
494.485	1147.94
494.703	1159.94
494.92	1131.94
495.138	1161.94
495.355	1135.94
495.573	1153.94
495.79	1155.94
496.008	1158.94
496.225	1157.94
496.442	1187.94
496.66	1203.94
496.877	1218.94
497.094	1243.94
497.312	1284.94
497.529	1338.94
497.746	1315.94
497.963	1353.94
498.181	1425.94
498.398	1493.94
498.615	1597.94
498.832	1689.94
499.049	1811.94
499.267	1969.94
499.484	2148.94
499.701	2351.94
499.918	2546.94
500.135	2931.94
500.352	3297.94
500.569	3472.94
500.786	3459.94
501.003	3209.94
501.22	2930.94
501.437	2607.94
501.654	2307.94
501.871	2115.94
502.088	1925.94
502.305	1803.94
502.522	1746.94
502.739	1632.94
502.956	1573.94
503.172	1489.94
503.389	1426.94
503.606	1383.94
503.823	1366.94
504.04	1352.94
504.256	1358.94
504.473	1372.94
504.69	1376.94
504.907	1353.94
505.123	1318.94
505.34	1203.94
505.557	1176.94
505.773	1155.94
505.99	1133.94
506.207	1097.94
506.423	1091.94
506.64	1063.94
506.856	1023.94
507.073	1040.94
507.289	1021.94
507.506	1051.94
507.722	1030.94
507.939	1013.94
508.155	1039.94
508.372	1010.94
508.588	988.94
508.805	986.94
509.021	956.94
509.238	973.94
509.454	935.94
509.67	970.94
509.887	934.94
510.103	938.94
510.319	923.94
510.536	936.94
510.752	923.94
510.968	954.94
511.184	922.94
511.401	946.94
511.617	931.94
511.833	926.94
512.049	931.94
512.265	935.94
512.481	949.94
512.698	903.94
512.914	928.94
513.13	973.94
513.346	938.94
513.562	935.94
513.778	932.94
513.994	958.94
514.21	941.94
514.426	936.94
514.642	947.94
514.858	948.94
515.074	955.94
515.29	963.94
515.506	974.94
515.721	1021.94
515.937	995.94
516.153	1002.94
516.369	1043.94
516.585	1065.94
516.801	1126.94
517.016	1153.94
517.232	1211.94
517.448	1243.94
517.664	1285.94
517.879	1292.94
518.095	1302.94
518.311	1285.94
518.527	1195.94
518.742	1162.94
518.958	1113.94
519.173	1078.94
519.389	1035.94
519.605	1020.94
519.82	979.94
520.036	997.94
520.251	992.94
520.467	956.94
520.682	970.94
520.898	928.94
521.113	904.94
521.329	921.94
521.544	915.94
521.76	907.94
521.975	896.94
522.19	872.94
522.406	910.94
522.621	886.94
522.836	881.94
523.052	875.94
523.267	886.94
523.482	881.94
523.698	855.94
523.913	851.94
524.128	853.94
524.343	878.94
524.559	856.94
524.774	878.94
524.989	870.94
525.204	878.94
525.419	847.94
525.634	843.94
525.849	869.94
526.064	841.94
526.28	822.94
526.495	831.94
526.71	838.94
526.925	847.94
527.14	838.94
527.355	828.94
527.57	845.94
527.785	834.94
527.999	850.94
528.214	833.94
528.429	850.94
528.644	817.94
528.859	840.94
529.074	837.94
529.289	845.94
529.503	848.94
529.718	822.94
529.933	842.94
530.148	829.94
530.363	841.94
530.577	841.94
530.792	824.94
531.007	802.94
531.221	811.94
531.436	819.94
531.651	829.94
531.865	841.94
532.08	850.94
532.295	818.94
532.509	824.94
532.724	853.94
532.938	853.94
533.153	847.94
533.367	816.94
533.582	857.94
533.796	826.94
534.011	848.94
534.225	838.94
534.44	819.94
534.654	828.94
534.868	815.94
535.083	818.94
535.297	833.94
535.511	814.94
535.726	807.94
535.94	791.94
536.154	793.94
536.369	793.94
536.583	783.94
536.797	799.94
537.011	778.94
537.225	751.94
537.44	727.94
537.654	772.94
537.868	780.94
538.082	766.94
538.296	746.94
538.51	757.94
538.724	783.94
538.938	764.94
539.153	773.94
539.367	769.94
539.581	759.94
539.795	757.94
540.009	749.94
540.222	764.94
540.436	782.94
540.65	758.94
540.864	741.94
541.078	747.94
541.292	756.94
541.506	749.94
541.72	783.94
541.934	738.94
542.147	751.94
542.361	753.94
542.575	714.94
542.789	737.94
543.002	743.94
543.216	777.94
543.43	722.94
543.644	725.94
543.857	743.94
544.071	739.94
544.285	751.94
544.498	733.94
544.712	728.94
544.925	753.94
545.139	749.94
545.352	771.94
545.566	761.94
545.779	759.94
545.993	773.94
546.206	773.94
546.42	767.94
546.633	762.94
546.847	757.94
547.06	771.94
547.274	791.94
547.487	751.94
547.7	768.94
547.914	753.94
548.127	779.94
548.34	793.94
548.554	794.94
548.767	798.94
548.98	768.94
549.193	778.94
549.407	798.94
549.62	767.94
549.833	799.94
550.046	793.94
550.259	770.94
550.473	785.94
550.686	745.94
550.899	768.94
551.112	746.94
551.325	737.94
551.538	734.94
551.751	745.94
551.964	769.94
552.177	791.94
552.39	768.94
552.603	795.94
552.816	825.94
553.029	813.94
553.242	837.94
553.455	851.94
553.667	868.94
553.88	842.94
554.093	829.94
554.306	781.94
554.519	772.94
554.732	771.94
554.944	738.94
555.157	740.94
555.37	723.94
555.583	715.94
555.795	718.94
556.008	667.94
556.221	705.94
556.433	671.94
556.646	667.94
556.859	703.94
557.071	680.94
557.284	664.94
557.496	627.94
557.709	651.94
557.921	639.94
558.134	645.94
558.346	643.94
558.559	653.94
558.771	644.94
558.984	629.94
559.196	633.94
559.409	636.94
559.621	629.94
559.833	636.94
560.046	639.94
560.258	627.94
560.47	619.94
560.683	638.94
560.895	637.94
561.107	625.94
561.32	624.94
561.532	647.94
561.744	605.94
561.956	627.94
562.168	629.94
562.381	656.94
562.593	650.94
562.805	625.94
563.017	640.94
563.229	642.94
563.441	651.94
563.653	643.94
563.865	635.94
564.077	652.94
564.289	658.94
564.501	687.94
564.713	667.94
564.925	681.94
565.137	704.94
565.349	708.94
565.561	701.94
565.773	774.94
565.985	788.94
566.197	837.94
566.408	871.94
566.62	931.94
566.832	1027.94
567.044	1035.94
567.255	1059.94
567.467	1071.94
567.679	1101.94
567.891	1168.94
568.102	1198.94
568.314	1134.94
568.526	1046.94
568.737	955.94
568.949	894.94
569.161	821.94
569.372	773.94
569.584	719.94
569.795	711.94
570.007	675.94
570.218	663.94
570.43	667.94
570.641	662.94
570.853	663.94
571.064	646.94
571.276	630.94
571.487	628.94
571.698	612.94
571.91	615.94
572.121	605.94
572.333	569.94
572.544	570.94
572.755	547.94
572.966	521.94
573.178	534.94
573.389	520.94
573.6	537.94
573.811	537.94
574.023	533.94
574.234	513.94
574.445	521.94
574.656	516.94
574.867	528.94
575.078	503.94
575.289	512.94
575.501	487.94
575.712	509.94
575.923	505.94
576.134	497.94
576.345	486.94
576.556	476.94
576.767	499.94
576.978	485.94
577.188	488.94
577.399	486.94
577.61	474.94
577.821	482.94
578.032	470.94
578.243	463.94
578.454	468.94
578.665	451.94
578.875	465.94
579.086	477.94
579.297	451.94
579.508	456.94
579.718	450.94
579.929	470.94
580.14	467.94
580.35	437.94
580.561	452.94
580.772	440.94
580.982	445.94
581.193	471.94
581.403	416.94
581.614	441.94
581.825	446.94
582.035	449.94
582.246	437.94
582.456	421.94
582.667	429.94
582.877	430.94
583.087	415.94
583.298	445.94
583.508	448.94
583.719	427.94
583.929	428.94
584.139	442.94
584.35	434.94
584.56	421.94
584.77	417.94
584.981	431.94
585.191	435.94
585.401	422.94
585.611	417.94
585.821	422.94
586.032	417.94
586.242	400.94
586.452	422.94
586.662	417.94
586.872	415.94
587.082	415.94
587.292	416.94
587.502	399.94
587.713	432.94
587.923	414.94
588.133	422.94
588.343	426.94
588.553	404.94
588.762	418.94
588.972	421.94
589.182	421.94
589.392	420.94
589.602	408.94
589.812	409.94
590.022	427.94
590.232	415.94
590.441	424.94
590.651	428.94
590.861	429.94
591.071	410.94
591.281	423.94
591.49	435.94
591.7	432.94
591.91	467.94
592.119	450.94
592.329	466.94
592.539	490.94
592.748	470.94
592.958	496.94
593.167	509.94
593.377	530.94
593.587	515.94
593.796	532.94
594.006	531.94
594.215	558.94
594.424	517.94
594.634	500.94
594.843	494.94
595.053	467.94
595.262	475.94
595.472	457.94
595.681	456.94
595.89	450.94
596.1	427.94
596.309	407.94
596.518	391.94
596.727	391.94
596.937	399.94
597.146	405.94
597.355	377.94
597.564	394.94
597.774	381.94
597.983	379.94
598.192	375.94
598.401	374.94
598.61	355.94
598.819	357.94
599.028	342.94
599.237	344.94
599.446	350.94
599.655	388.94
599.864	353.94
600.073	348.94
600.282	339.94
600.491	351.94
600.7	354.94
600.909	378.94
601.118	346.94
601.327	351.94
601.536	338.94
601.745	367.94
601.953	326.94
602.162	362.94
602.371	322.94
602.58	324.94
602.789	329.94
602.997	344.94
603.206	348.94
603.415	354.94
603.623	338.94
603.832	326.94
604.041	319.94
604.249	333.94
604.458	326.94
604.666	331.94
604.875	332.94
605.084	321.94
605.292	315.94
605.501	343.94
605.709	331.94
605.918	317.94
606.126	308.94
606.334	301.94
606.543	321.94
606.751	313.94
606.96	309.94
607.168	319.94
607.376	328.94
607.585	290.94
607.793	311.94
608.001	321.94
608.21	321.94
608.418	326.94
608.626	283.94
608.834	312.94
609.043	319.94
609.251	315.94
609.459	305.94
609.667	312.94
609.875	301.94
610.083	296.94
610.291	316.94
610.499	311.94
610.707	307.94
610.916	298.94
611.124	315.94
611.332	305.94
611.54	290.94
611.748	303.94
611.955	295.94
612.163	316.94
612.371	317.94
612.579	309.94
612.787	306.94
612.995	317.94
613.203	292.94
613.411	318.94
613.618	290.94
613.826	303.94
614.034	310.94
614.242	307.94
614.449	288.94
614.657	283.94
614.865	305.94
615.072	280.94
615.28	280.94
615.488	298.94
615.695	291.94
615.903	304.94
616.111	311.94
616.318	290.94
616.526	278.94
616.733	312.94
616.941	295.94
617.148	289.94
617.356	293.94
617.563	314.94
617.771	308.94
617.978	287.94
618.185	289.94
618.393	310.94
618.6	293.94
618.807	280.94
619.015	295.94
619.222	301.94
619.429	285.94
619.637	292.94
619.844	312.94
620.051	289.94
620.258	281.94
620.466	294.94
620.673	279.94
620.88	275.94
621.087	271.94
621.294	288.94
621.501	257.94
621.708	298.94
621.915	273.94
622.122	264.94
622.329	287.94
622.536	276.94
622.743	286.94
622.95	269.94
623.157	271.94
623.364	273.94
623.571	275.94
623.778	266.94
623.985	256.94
624.192	273.94
624.399	270.94
624.606	271.94
624.812	274.94
625.019	255.94
625.226	266.94
625.433	267.94
625.639	265.94
625.846	249.94
626.053	243.94
626.259	266.94
626.466	249.94
626.673	253.94
626.879	263.94
627.086	253.94
627.293	249.94
627.499	258.94
627.706	249.94
627.912	254.94
628.119	234.94
628.325	240.94
628.532	258.94
628.738	258.94
628.945	248.94
629.151	262.94
629.357	244.94
629.564	248.94
629.77	242.94
629.976	233.94
630.183	244.94
630.389	247.94
630.595	243.94
630.802	222.94
631.008	212.94
631.214	228.94
631.42	225.94
631.627	229.94
631.833	212.94
632.039	257.94
632.245	217.94
632.451	218.94
632.657	226.94
632.863	241.94
633.069	225.94
633.275	226.94
633.481	213.94
633.688	233.94
633.893	209.94
634.099	210.94
634.305	214.94
634.511	217.94
634.717	230.94
634.923	222.94
635.129	232.94
635.335	209.94
635.541	229.94
635.747	209.94
635.952	214.94
636.158	219.94
636.364	212.94
636.57	209.94
636.775	221.94
636.981	207.94
637.187	214.94
637.392	210.94
637.598	207.94
637.804	193.94
638.009	205.94
638.215	199.94
638.421	213.94
638.626	193.94
638.832	205.94
639.037	203.94
639.243	202.94
639.448	202.94
639.654	202.94
639.859	206.94
640.065	212.94
640.27	204.94
640.475	211.94
640.681	199.94
640.886	191.94
641.091	211.94
641.297	212.94
641.502	213.94
641.707	197.94
641.913	205.94
642.118	202.94
642.323	199.94
642.528	209.94
642.733	189.94
642.939	181.94
643.144	192.94
643.349	197.94
643.554	200.94
643.759	196.94
643.964	203.94
644.169	218.94
644.374	198.94
644.579	201.94
644.784	189.94
644.989	189.94
645.194	187.94
645.399	201.94
645.604	190.94
645.809	198.94
646.014	198.94
646.219	190.94
646.423	183.94
646.628	203.94
646.833	206.94
647.038	193.94
647.243	203.94
647.447	217.94
647.652	201.94
647.857	192.94
648.062	208.94
648.266	182.94
648.471	200.94
648.676	192.94
648.88	209.94
649.085	206.94
649.289	204.94
649.494	184.94
649.698	194.94
649.903	193.94
650.107	184.94
650.312	188.94
650.516	175.94
650.721	192.94
650.925	173.94
651.13	185.94
651.334	170.94
651.539	166.94
651.743	171.94
651.947	168.94
652.152	158.94
652.356	155.94
652.56	180.94
652.764	166.94
652.969	149.94
653.173	167.94
653.377	160.94
653.581	163.94
653.785	142.94
653.99	147.94
654.194	148.94
654.398	143.94
654.602	144.94
654.806	154.94
655.01	145.94
655.214	138.94
655.418	139.94
655.622	154.94
655.826	154.94
656.03	138.94
656.234	131.94
656.438	146.94
656.642	143.94
656.846	138.94
657.049	138.94
657.253	129.94
657.457	114.94
657.661	129.94
657.865	132.94
658.068	121.94
658.272	109.94
658.476	114.94
658.68	103.94
658.883	113.94
659.087	99.94
659.291	122.94
659.494	108.94
659.698	102.94
659.901	101.94
660.105	107.94
660.309	88.94
660.512	106.94
660.716	91.94
660.919	89.94
661.123	82.94
661.326	88.94
661.53	88.94
661.733	92.94
661.936	86.94
662.14	94.94
662.343	89.94
662.546	78.94
662.75	96.94
662.953	80.94
663.156	76.94
663.36	84.94
663.563	83.94
663.766	90.94
663.969	73.94
664.173	91.94
664.376	79.94
664.579	93.94
664.782	73.94
664.985	81.94
665.188	77.94
665.391	96.94
665.594	93.94
665.797	74.94
666	79.94
666.203	90.94
666.406	77.94
666.609	73.94
666.812	92.94
667.015	81.94
667.218	74.94
667.421	65.94
667.624	74.94
667.827	81.94
668.03	89.94
668.232	89.94
668.435	85.94
668.638	73.94
668.841	82.94
669.043	79.94
669.246	74.94
669.449	80.94
669.651	65.94
669.854	70.94
670.057	80.94
670.259	83.94
670.462	76.94
670.665	86.94
670.867	85.94
671.07	100.94
671.272	70.94
671.475	71.94
671.677	86.94
671.88	70.94
672.082	79.94
672.284	74.94
672.487	78.94
672.689	76.94
672.892	85.94
