Data from NiCl2@0.125M.TitratingCurve.Agarose3%dH2O.NegLispCup.LampEnergy10.LIBS07252019_HRD10591_18-30-44-575.txt Node
Date: Thu Jul 25 18:30:44 EDT 2019
User: cochatt
Spectrometer: HR+D1059
Trigger mode: 1
Integration Time (sec): 1.000000E-1
Scans to average: 1
Electric dark correction enabled: true
Nonlinearity correction enabled: false
Boxcar width: 0
XAxis mode: Wavelengths
Number of Pixels in Spectrum: 2048
>>>>>Begin Spectral Data<<<<<
223.165	-10.31
223.4	-10.31
223.635	-10.31
223.869	-22.31
224.104	-12.31
224.338	-27.31
224.573	-12.31
224.808	-10.31
225.042	-13.31
225.277	4.69
225.511	2.69
225.746	-3.31
225.98	0.69
226.215	2.69
226.449	11.69
226.683	30.69
226.918	29.69
227.152	28.69
227.387	40.69
227.621	39.69
227.856	54.69
228.09	55.69
228.324	61.69
228.559	52.69
228.793	67.69
229.027	63.69
229.262	68.69
229.496	69.69
229.73	74.69
229.964	67.69
230.199	63.69
230.433	101.69
230.667	83.69
230.901	68.69
231.136	76.69
231.37	77.69
231.604	79.69
231.838	85.69
232.072	88.69
232.306	84.69
232.541	70.69
232.775	87.69
233.009	72.69
233.243	77.69
233.477	89.69
233.711	98.69
233.945	85.69
234.179	87.69
234.413	80.69
234.647	82.69
234.881	88.69
235.115	81.69
235.349	88.69
235.583	66.69
235.817	84.69
236.051	84.69
236.285	81.69
236.519	72.69
236.753	74.69
236.987	85.69
237.221	87.69
237.455	85.69
237.689	92.69
237.922	77.69
238.156	84.69
238.39	80.69
238.624	83.69
238.858	78.69
239.091	74.69
239.325	74.69
239.559	80.69
239.793	66.69
240.027	72.69
240.26	91.69
240.494	76.69
240.728	72.69
240.961	76.69
241.195	77.69
241.429	82.69
241.662	70.69
241.896	87.69
242.13	82.69
242.363	69.69
242.597	70.69
242.83	83.69
243.064	75.69
243.298	74.69
243.531	83.69
243.765	80.69
243.998	74.69
244.232	85.69
244.465	64.69
244.699	80.69
244.932	80.69
245.166	79.69
245.399	79.69
245.633	96.69
245.866	79.69
246.099	74.69
246.333	71.69
246.566	75.69
246.8	78.69
247.033	79.69
247.266	76.69
247.5	98.69
247.733	80.69
247.966	74.69
248.2	80.69
248.433	75.69
248.666	94.69
248.899	78.69
249.133	73.69
249.366	69.69
249.599	87.69
249.832	75.69
250.066	84.69
250.299	94.69
250.532	100.69
250.765	94.69
250.998	88.69
251.231	79.69
251.465	88.69
251.698	83.69
251.931	82.69
252.164	81.69
252.397	82.69
252.63	72.69
252.863	79.69
253.096	76.69
253.329	82.69
253.562	77.69
253.795	94.69
254.028	75.69
254.261	89.69
254.494	82.69
254.727	85.69
254.96	84.69
255.193	79.69
255.426	76.69
255.659	79.69
255.892	79.69
256.124	94.69
256.357	75.69
256.59	93.69
256.823	84.69
257.056	91.69
257.289	87.69
257.521	75.69
257.754	93.69
257.987	82.69
258.22	78.69
258.452	71.69
258.685	91.69
258.918	67.69
259.151	85.69
259.383	84.69
259.616	76.69
259.849	89.69
260.081	78.69
260.314	82.69
260.547	91.69
260.779	77.69
261.012	91.69
261.244	90.69
261.477	88.69
261.71	92.69
261.942	86.69
262.175	71.69
262.407	81.69
262.64	82.69
262.872	85.69
263.105	88.69
263.337	93.69
263.57	85.69
263.802	79.69
264.035	72.69
264.267	96.69
264.499	89.69
264.732	78.69
264.964	72.69
265.197	83.69
265.429	80.69
265.661	75.69
265.894	84.69
266.126	82.69
266.358	79.69
266.591	91.69
266.823	89.69
267.055	95.69
267.287	83.69
267.52	79.69
267.752	102.69
267.984	93.69
268.216	82.69
268.448	84.69
268.681	98.69
268.913	96.69
269.145	75.69
269.377	88.69
269.609	78.69
269.841	87.69
270.073	75.69
270.306	87.69
270.538	79.69
270.77	95.69
271.002	76.69
271.234	96.69
271.466	93.69
271.698	86.69
271.93	85.69
272.162	87.69
272.394	67.69
272.626	81.69
272.858	86.69
273.09	95.69
273.322	83.69
273.553	86.69
273.785	86.69
274.017	85.69
274.249	77.69
274.481	94.69
274.713	100.69
274.945	89.69
275.176	81.69
275.408	75.69
275.64	78.69
275.872	84.69
276.104	94.69
276.335	77.69
276.567	82.69
276.799	79.69
277.031	79.69
277.262	94.69
277.494	98.69
277.726	78.69
277.957	84.69
278.189	93.69
278.421	102.69
278.652	76.69
278.884	98.69
279.115	85.69
279.347	68.69
279.579	85.69
279.81	79.69
280.042	84.69
280.273	95.69
280.505	78.69
280.736	75.69
280.968	86.69
281.199	79.69
281.431	82.69
281.662	86.69
281.894	92.69
282.125	96.69
282.356	79.69
282.588	91.69
282.819	82.69
283.051	79.69
283.282	84.69
283.513	91.69
283.745	94.69
283.976	81.69
284.207	86.69
284.439	84.69
284.67	102.69
284.901	86.69
285.132	83.69
285.364	79.69
285.595	83.69
285.826	85.69
286.057	93.69
286.288	91.69
286.52	92.69
286.751	71.69
286.982	77.69
287.213	84.69
287.444	90.69
287.675	98.69
287.906	82.69
288.138	74.69
288.369	82.69
288.6	87.69
288.831	87.69
289.062	86.69
289.293	90.69
289.524	102.69
289.755	87.69
289.986	79.69
290.217	72.69
290.448	102.69
290.679	68.69
290.91	86.69
291.141	91.69
291.371	89.69
291.602	80.69
291.833	88.69
292.064	89.69
292.295	87.69
292.526	75.69
292.757	85.69
292.987	84.69
293.218	97.69
293.449	91.69
293.68	91.69
293.91	82.69
294.141	84.69
294.372	92.69
294.603	94.69
294.833	100.69
295.064	86.69
295.295	86.69
295.525	110.69
295.756	93.69
295.987	86.69
296.217	92.69
296.448	81.69
296.679	76.69
296.909	77.69
297.14	91.69
297.37	76.69
297.601	79.69
297.831	91.69
298.062	97.69
298.292	85.69
298.523	88.69
298.753	77.69
298.984	88.69
299.214	98.69
299.445	83.69
299.675	96.69
299.905	102.69
300.136	96.69
300.366	77.69
300.597	87.69
300.827	90.69
301.057	90.69
301.288	97.69
301.518	88.69
301.748	77.69
301.979	93.69
302.209	85.69
302.439	71.69
302.669	95.69
302.9	87.69
303.13	95.69
303.36	71.69
303.59	86.69
303.82	85.69
304.051	90.69
304.281	88.69
304.511	93.69
304.741	87.69
304.971	88.69
305.201	85.69
305.431	88.69
305.661	88.69
305.891	90.69
306.121	86.69
306.352	86.69
306.582	75.69
306.812	74.69
307.042	90.69
307.272	71.69
307.502	91.69
307.731	90.69
307.961	67.69
308.191	93.69
308.421	88.69
308.651	87.69
308.881	89.69
309.111	86.69
309.341	95.69
309.571	83.69
309.8	92.69
310.03	83.69
310.26	87.69
310.49	89.69
310.72	76.69
310.949	94.69
311.179	85.69
311.409	102.69
311.639	91.69
311.868	101.69
312.098	96.69
312.328	81.69
312.557	81.69
312.787	71.69
313.017	64.69
313.246	89.69
313.476	74.69
313.706	85.69
313.935	82.69
314.165	91.69
314.394	92.69
314.624	84.69
314.853	80.69
315.083	92.69
315.312	84.69
315.542	73.69
315.771	74.69
316.001	89.69
316.23	85.69
316.46	72.69
316.689	89.69
316.919	85.69
317.148	92.69
317.377	98.69
317.607	85.69
317.836	82.69
318.065	94.69
318.295	82.69
318.524	73.69
318.753	79.69
318.983	72.69
319.212	95.69
319.441	71.69
319.67	83.69
319.9	103.69
320.129	74.69
320.358	96.69
320.587	108.69
320.816	83.69
321.046	91.69
321.275	83.69
321.504	84.69
321.733	104.69
321.962	79.69
322.191	90.69
322.42	86.69
322.649	87.69
322.878	92.69
323.108	95.69
323.337	90.69
323.566	77.69
323.795	80.69
324.024	86.69
324.253	87.69
324.482	90.69
324.71	86.69
324.939	99.69
325.168	91.69
325.397	83.69
325.626	82.69
325.855	78.69
326.084	88.69
326.313	93.69
326.542	82.69
326.77	96.69
326.999	78.69
327.228	88.69
327.457	100.69
327.686	87.69
327.914	79.69
328.143	88.69
328.372	87.69
328.6	92.69
328.829	76.69
329.058	86.69
329.287	82.69
329.515	83.69
329.744	81.69
329.972	77.69
330.201	94.69
330.43	94.69
330.658	89.69
330.887	88.69
331.115	93.69
331.344	87.69
331.572	98.69
331.801	83.69
332.03	81.69
332.258	90.69
332.486	98.69
332.715	98.69
332.943	87.69
333.172	94.69
333.4	84.69
333.629	82.69
333.857	90.69
334.085	89.69
334.314	70.69
334.542	90.69
334.771	72.69
334.999	70.69
335.227	80.69
335.455	75.69
335.684	74.69
335.912	81.69
336.14	89.69
336.369	88.69
336.597	76.69
336.825	91.69
337.053	81.69
337.281	94.69
337.51	99.69
337.738	71.69
337.966	83.69
338.194	95.69
338.422	86.69
338.65	82.69
338.878	94.69
339.106	88.69
339.334	83.69
339.562	86.69
339.79	96.69
340.018	91.69
340.246	82.69
340.474	90.69
340.702	90.69
340.93	91.69
341.158	80.69
341.386	82.69
341.614	76.69
341.842	63.69
342.07	84.69
342.298	90.69
342.526	89.69
342.754	102.69
342.981	87.69
343.209	87.69
343.437	86.69
343.665	91.69
343.893	86.69
344.12	86.69
344.348	77.69
344.576	88.69
344.804	78.69
345.031	81.69
345.259	90.69
345.487	92.69
345.714	85.69
345.942	62.69
346.17	80.69
346.397	98.69
346.625	90.69
346.853	91.69
347.08	94.69
347.308	83.69
347.535	89.69
347.763	95.69
347.99	79.69
348.218	86.69
348.445	88.69
348.673	88.69
348.9	76.69
349.128	95.69
349.355	71.69
349.583	99.69
349.81	82.69
350.037	85.69
350.265	102.69
350.492	92.69
350.72	76.69
350.947	79.69
351.174	91.69
351.402	80.69
351.629	70.69
351.856	74.69
352.083	74.69
352.311	77.69
352.538	80.69
352.765	85.69
352.992	64.69
353.22	97.69
353.447	79.69
353.674	90.69
353.901	86.69
354.128	77.69
354.355	84.69
354.583	84.69
354.81	100.69
355.037	90.69
355.264	75.69
355.491	87.69
355.718	85.69
355.945	86.69
356.172	71.69
356.399	77.69
356.626	91.69
356.853	83.69
357.08	88.69
357.307	92.69
357.534	75.69
357.761	79.69
357.988	95.69
358.215	94.69
358.441	89.69
358.668	84.69
358.895	102.69
359.122	81.69
359.349	96.69
359.576	91.69
359.802	92.69
360.029	85.69
360.256	80.69
360.483	88.69
360.709	84.69
360.936	81.69
361.163	74.69
361.39	93.69
361.616	83.69
361.843	77.69
362.07	76.69
362.296	82.69
362.523	92.69
362.749	89.69
362.976	77.69
363.203	81.69
363.429	96.69
363.656	85.69
363.882	77.69
364.109	75.69
364.335	84.69
364.562	87.69
364.788	96.69
365.015	80.69
365.241	90.69
365.468	87.69
365.694	84.69
365.92	101.69
366.147	93.69
366.373	78.69
366.599	81.69
366.826	95.69
367.052	88.69
367.278	89.69
367.505	90.69
367.731	70.69
367.957	85.69
368.184	83.69
368.41	82.69
368.636	84.69
368.862	85.69
369.089	71.69
369.315	72.69
369.541	86.69
369.767	77.69
369.993	101.69
370.219	85.69
370.445	85.69
370.672	88.69
370.898	96.69
371.124	99.69
371.35	82.69
371.576	70.69
371.802	79.69
372.028	79.69
372.254	83.69
372.48	79.69
372.706	80.69
372.932	88.69
373.158	90.69
373.384	81.69
373.61	52.69
373.835	83.69
374.061	77.69
374.287	84.69
374.513	93.69
374.739	88.69
374.965	82.69
375.191	82.69
375.416	74.69
375.642	95.69
375.868	100.69
376.094	83.69
376.319	72.69
376.545	69.69
376.771	83.69
376.997	80.69
377.222	72.69
377.448	78.69
377.674	77.69
377.899	83.69
378.125	81.69
378.35	72.69
378.576	85.69
378.802	83.69
379.027	80.69
379.253	85.69
379.478	94.69
379.704	73.69
379.929	85.69
380.155	58.69
380.38	80.69
380.606	91.69
380.831	93.69
381.057	92.69
381.282	96.69
381.507	87.69
381.733	84.69
381.958	99.69
382.184	76.69
382.409	69.69
382.634	86.69
382.86	85.69
383.085	80.69
383.31	90.69
383.535	102.69
383.761	86.69
383.986	76.69
384.211	80.69
384.436	85.69
384.662	90.69
384.887	87.69
385.112	94.69
385.337	101.69
385.562	90.69
385.787	68.69
386.013	87.69
386.238	75.69
386.463	103.69
386.688	86.69
386.913	73.69
387.138	80.69
387.363	79.69
387.588	100.69
387.813	78.69
388.038	84.69
388.263	77.69
388.488	79.69
388.713	95.69
388.938	73.69
389.163	101.69
389.387	98.69
389.612	62.69
389.837	87.69
390.062	70.69
390.287	79.69
390.512	84.69
390.736	85.69
390.961	91.69
391.186	95.69
391.411	93.69
391.636	101.69
391.86	89.69
392.085	89.69
392.31	79.69
392.534	78.69
392.759	80.69
392.984	94.69
393.208	80.69
393.433	97.69
393.658	80.69
393.882	85.69
394.107	91.69
394.331	70.69
394.556	97.69
394.78	97.69
395.005	82.69
395.229	81.69
395.454	94.69
395.678	87.69
395.903	79.69
396.127	105.69
396.352	99.69
396.576	90.69
396.801	74.69
397.025	78.69
397.249	79.69
397.474	93.69
397.698	89.69
397.922	105.69
398.147	93.69
398.371	64.69
398.595	98.69
398.82	76.69
399.044	83.69
399.268	91.69
399.492	80.69
399.717	82.69
399.941	89.69
400.165	80.69
400.389	91.69
400.613	82.69
400.837	88.69
401.062	83.69
401.286	93.69
401.51	84.69
401.734	92.69
401.958	91.69
402.182	92.69
402.406	94.69
402.63	79.69
402.854	98.69
403.078	89.69
403.302	72.69
403.526	102.69
403.75	91.69
403.974	80.69
404.198	85.69
404.422	79.69
404.645	85.69
404.869	82.69
405.093	85.69
405.317	90.69
405.541	75.69
405.765	84.69
405.988	72.69
406.212	87.69
406.436	88.69
406.66	84.69
406.883	89.69
407.107	85.69
407.331	98.69
407.555	100.69
407.778	93.69
408.002	94.69
408.226	96.69
408.449	78.69
408.673	97.69
408.896	91.69
409.12	89.69
409.344	92.69
409.567	86.69
409.791	89.69
410.014	84.69
410.238	94.69
410.461	103.69
410.685	94.69
410.908	94.69
411.132	90.69
411.355	88.69
411.578	95.69
411.802	85.69
412.025	91.69
412.249	85.69
412.472	78.69
412.695	98.69
412.919	106.69
413.142	98.69
413.365	91.69
413.589	96.69
413.812	95.69
414.035	92.69
414.258	82.69
414.482	93.69
414.705	98.69
414.928	89.69
415.151	96.69
415.374	90.69
415.597	103.69
415.821	83.69
416.044	93.69
416.267	94.69
416.49	83.69
416.713	84.69
416.936	84.69
417.159	92.69
417.382	96.69
417.605	83.69
417.828	99.69
418.051	71.69
418.274	84.69
418.497	94.69
418.72	93.69
418.943	103.69
419.166	84.69
419.389	87.69
419.611	96.69
419.834	103.69
420.057	102.69
420.28	104.69
420.503	92.69
420.726	87.69
420.948	96.69
421.171	99.69
421.394	96.69
421.617	86.69
421.839	101.69
422.062	88.69
422.285	92.69
422.507	88.69
422.73	93.69
422.953	91.69
423.175	88.69
423.398	95.69
423.621	101.69
423.843	96.69
424.066	73.69
424.288	106.69
424.511	112.69
424.733	89.69
424.956	98.69
425.178	98.69
425.401	105.69
425.623	76.69
425.846	91.69
426.068	101.69
426.291	89.69
426.513	85.69
426.735	105.69
426.958	96.69
427.18	86.69
427.402	104.69
427.625	86.69
427.847	94.69
428.069	88.69
428.292	83.69
428.514	97.69
428.736	93.69
428.958	80.69
429.181	82.69
429.403	91.69
429.625	98.69
429.847	88.69
430.069	102.69
430.292	95.69
430.514	89.69
430.736	93.69
430.958	92.69
431.18	84.69
431.402	87.69
431.624	91.69
431.846	83.69
432.068	93.69
432.29	86.69
432.512	80.69
432.734	85.69
432.956	100.69
433.178	104.69
433.4	103.69
433.622	94.69
433.844	82.69
434.066	76.69
434.287	90.69
434.509	84.69
434.731	84.69
434.953	91.69
435.175	98.69
435.397	99.69
435.618	81.69
435.84	85.69
436.062	88.69
436.284	92.69
436.505	99.69
436.727	100.69
436.949	109.69
437.17	93.69
437.392	88.69
437.614	85.69
437.835	97.69
438.057	75.69
438.278	99.69
438.5	90.69
438.721	86.69
438.943	107.69
439.165	104.69
439.386	98.69
439.608	93.69
439.829	101.69
440.05	92.69
440.272	101.69
440.493	104.69
440.715	104.69
440.936	101.69
441.158	99.69
441.379	103.69
441.6	92.69
441.822	109.69
442.043	109.69
442.264	87.69
442.486	101.69
442.707	103.69
442.928	92.69
443.149	96.69
443.371	106.69
443.592	88.69
443.813	83.69
444.034	88.69
444.255	105.69
444.476	102.69
444.698	100.69
444.919	90.69
445.14	222.69
445.361	165.69
445.582	87.69
445.803	98.69
446.024	100.69
446.245	95.69
446.466	112.69
446.687	101.69
446.908	104.69
447.129	107.69
447.35	93.69
447.571	91.69
447.792	108.69
448.013	103.69
448.234	125.69
448.455	112.69
448.675	96.69
448.896	93.69
449.117	97.69
449.338	96.69
449.559	102.69
449.779	118.69
450	96.69
450.221	97.69
450.442	92.69
450.662	105.69
450.883	96.69
451.104	108.69
451.324	107.69
451.545	105.69
451.766	108.69
451.986	73.69
452.207	93.69
452.428	98.69
452.648	95.69
452.869	90.69
453.089	93.69
453.31	76.69
453.53	86.69
453.751	84.69
453.971	98.69
454.192	95.69
454.412	96.69
454.633	101.69
454.853	99.69
455.073	110.69
455.294	95.69
455.514	107.69
455.734	79.69
455.955	100.69
456.175	93.69
456.395	99.69
456.616	89.69
456.836	93.69
457.056	85.69
457.276	81.69
457.497	78.69
457.717	97.69
457.937	89.69
458.157	93.69
458.377	90.69
458.598	95.69
458.818	82.69
459.038	93.69
459.258	94.69
459.478	83.69
459.698	80.69
459.918	104.69
460.138	93.69
460.358	87.69
460.578	82.69
460.798	95.69
461.018	106.69
461.238	99.69
461.458	96.69
461.678	89.69
461.898	95.69
462.118	94.69
462.338	78.69
462.558	90.69
462.777	91.69
462.997	90.69
463.217	98.69
463.437	83.69
463.657	86.69
463.876	92.69
464.096	74.69
464.316	94.69
464.536	81.69
464.755	75.69
464.975	87.69
465.195	107.69
465.414	91.69
465.634	98.69
465.854	103.69
466.073	91.69
466.293	86.69
466.512	96.69
466.732	94.69
466.951	91.69
467.171	99.69
467.391	101.69
467.61	106.69
467.829	88.69
468.049	86.69
468.268	96.69
468.488	107.69
468.707	88.69
468.927	91.69
469.146	73.69
469.365	96.69
469.585	103.69
469.804	91.69
470.023	93.69
470.243	104.69
470.462	109.69
470.681	101.69
470.901	99.69
471.12	86.69
471.339	87.69
471.558	95.69
471.777	102.69
471.997	95.69
472.216	84.69
472.435	86.69
472.654	87.69
472.873	98.69
473.092	99.69
473.311	83.69
473.53	99.69
473.749	86.69
473.968	107.69
474.187	104.69
474.406	89.69
474.625	96.69
474.844	98.69
475.063	78.69
475.282	92.69
475.501	80.69
475.72	92.69
475.939	99.69
476.158	102.69
476.377	84.69
476.596	106.69
476.814	77.69
477.033	79.69
477.252	90.69
477.471	81.69
477.69	94.69
477.908	108.69
478.127	105.69
478.346	84.69
478.564	87.69
478.783	88.69
479.002	111.69
479.22	86.69
479.439	97.69
479.658	92.69
479.876	97.69
480.095	92.69
480.313	88.69
480.532	111.69
480.751	90.69
480.969	77.69
481.188	85.69
481.406	86.69
481.624	112.69
481.843	103.69
482.061	104.69
482.28	94.69
482.498	95.69
482.717	90.69
482.935	100.69
483.153	110.69
483.372	101.69
483.59	98.69
483.808	98.69
484.027	100.69
484.245	106.69
484.463	92.69
484.681	92.69
484.9	101.69
485.118	97.69
485.336	75.69
485.554	87.69
485.772	96.69
485.99	90.69
486.209	93.69
486.427	90.69
486.645	78.69
486.863	94.69
487.081	101.69
487.299	100.69
487.517	103.69
487.735	91.69
487.953	106.69
488.171	119.69
488.389	96.69
488.607	94.69
488.825	91.69
489.043	83.69
489.261	91.69
489.479	96.69
489.696	99.69
489.914	95.69
490.132	88.69
490.35	95.69
490.568	94.69
490.786	122.69
491.003	98.69
491.221	108.69
491.439	113.69
491.657	102.69
491.874	115.69
492.092	126.69
492.31	103.69
492.527	110.69
492.745	108.69
492.963	112.69
493.18	112.69
493.398	115.69
493.615	94.69
493.833	99.69
494.05	103.69
494.268	105.69
494.485	109.69
494.703	107.69
494.92	94.69
495.138	89.69
495.355	104.69
495.573	111.69
495.79	98.69
496.008	111.69
496.225	107.69
496.442	104.69
496.66	111.69
496.877	92.69
497.094	99.69
497.312	96.69
497.529	110.69
497.746	110.69
497.963	85.69
498.181	101.69
498.398	102.69
498.615	100.69
498.832	103.69
499.049	108.69
499.267	102.69
499.484	106.69
499.701	91.69
499.918	93.69
500.135	105.69
500.352	109.69
500.569	109.69
500.786	110.69
501.003	90.69
501.22	98.69
501.437	100.69
501.654	89.69
501.871	86.69
502.088	89.69
502.305	103.69
502.522	92.69
502.739	104.69
502.956	106.69
503.172	91.69
503.389	84.69
503.606	94.69
503.823	93.69
504.04	91.69
504.256	92.69
504.473	98.69
504.69	95.69
504.907	89.69
505.123	94.69
505.34	88.69
505.557	91.69
505.773	108.69
505.99	95.69
506.207	92.69
506.423	97.69
506.64	100.69
506.856	97.69
507.073	84.69
507.289	107.69
507.506	101.69
507.722	88.69
507.939	96.69
508.155	108.69
508.372	92.69
508.588	101.69
508.805	95.69
509.021	93.69
509.238	88.69
509.454	94.69
509.67	75.69
509.887	94.69
510.103	84.69
510.319	86.69
510.536	95.69
510.752	73.69
510.968	76.69
511.184	82.69
511.401	89.69
511.617	98.69
511.833	93.69
512.049	98.69
512.265	85.69
512.481	86.69
512.698	87.69
512.914	88.69
513.13	90.69
513.346	90.69
513.562	77.69
513.778	76.69
513.994	81.69
514.21	98.69
514.426	90.69
514.642	96.69
514.858	102.69
515.074	94.69
515.29	101.69
515.506	83.69
515.721	97.69
515.937	98.69
516.153	106.69
516.369	80.69
516.585	79.69
516.801	89.69
517.016	96.69
517.232	91.69
517.448	90.69
517.664	91.69
517.879	84.69
518.095	96.69
518.311	102.69
518.527	100.69
518.742	84.69
518.958	73.69
519.173	88.69
519.389	87.69
519.605	96.69
519.82	104.69
520.036	90.69
520.251	91.69
520.467	88.69
520.682	87.69
520.898	117.69
521.113	93.69
521.329	92.69
521.544	94.69
521.76	94.69
521.975	93.69
522.19	102.69
522.406	85.69
522.621	83.69
522.836	91.69
523.052	102.69
523.267	84.69
523.482	87.69
523.698	101.69
523.913	92.69
524.128	97.69
524.343	93.69
524.559	111.69
524.774	91.69
524.989	95.69
525.204	102.69
525.419	93.69
525.634	98.69
525.849	99.69
526.064	99.69
526.28	85.69
526.495	81.69
526.71	91.69
526.925	95.69
527.14	84.69
527.355	95.69
527.57	91.69
527.785	77.69
527.999	90.69
528.214	110.69
528.429	100.69
528.644	99.69
528.859	96.69
529.074	102.69
529.289	114.69
529.503	96.69
529.718	101.69
529.933	96.69
530.148	85.69
530.363	99.69
530.577	90.69
530.792	89.69
531.007	96.69
531.221	93.69
531.436	107.69
531.651	83.69
531.865	86.69
532.08	89.69
532.295	84.69
532.509	99.69
532.724	88.69
532.938	82.69
533.153	90.69
533.367	84.69
533.582	92.69
533.796	87.69
534.011	96.69
534.225	102.69
534.44	81.69
534.654	80.69
534.868	87.69
535.083	100.69
535.297	99.69
535.511	94.69
535.726	117.69
535.94	90.69
536.154	84.69
536.369	84.69
536.583	108.69
536.797	92.69
537.011	85.69
537.225	95.69
537.44	98.69
537.654	89.69
537.868	91.69
538.082	79.69
538.296	82.69
538.51	96.69
538.724	90.69
538.938	95.69
539.153	97.69
539.367	89.69
539.581	86.69
539.795	96.69
540.009	96.69
540.222	88.69
540.436	105.69
540.65	88.69
540.864	90.69
541.078	115.69
541.292	108.69
541.506	88.69
541.72	114.69
541.934	110.69
542.147	102.69
542.361	123.69
542.575	102.69
542.789	95.69
543.002	99.69
543.216	113.69
543.43	99.69
543.644	101.69
543.857	103.69
544.071	91.69
544.285	118.69
544.498	114.69
544.712	115.69
544.925	109.69
545.139	111.69
545.352	115.69
545.566	104.69
545.779	95.69
545.993	90.69
546.206	100.69
546.42	93.69
546.633	113.69
546.847	112.69
547.06	101.69
547.274	112.69
547.487	99.69
547.7	115.69
547.914	106.69
548.127	111.69
548.34	108.69
548.554	102.69
548.767	115.69
548.98	119.69
549.193	96.69
549.407	107.69
549.62	104.69
549.833	105.69
550.046	98.69
550.259	92.69
550.473	97.69
550.686	107.69
550.899	103.69
551.112	103.69
551.325	105.69
551.538	99.69
551.751	94.69
551.964	105.69
552.177	100.69
552.39	102.69
552.603	93.69
552.816	101.69
553.029	111.69
553.242	100.69
553.455	92.69
553.667	119.69
553.88	102.69
554.093	102.69
554.306	99.69
554.519	100.69
554.732	94.69
554.944	92.69
555.157	93.69
555.37	100.69
555.583	105.69
555.795	114.69
556.008	90.69
556.221	101.69
556.433	86.69
556.646	120.69
556.859	116.69
557.071	102.69
557.284	107.69
557.496	104.69
557.709	109.69
557.921	108.69
558.134	104.69
558.346	90.69
558.559	90.69
558.771	103.69
558.984	106.69
559.196	95.69
559.409	78.69
559.621	105.69
559.833	98.69
560.046	96.69
560.258	87.69
560.47	102.69
560.683	99.69
560.895	103.69
561.107	105.69
561.32	83.69
561.532	98.69
561.744	109.69
561.956	111.69
562.168	104.69
562.381	105.69
562.593	94.69
562.805	93.69
563.017	114.69
563.229	100.69
563.441	103.69
563.653	94.69
563.865	75.69
564.077	99.69
564.289	101.69
564.501	99.69
564.713	103.69
564.925	98.69
565.137	98.69
565.349	95.69
565.561	107.69
565.773	100.69
565.985	96.69
566.197	92.69
566.408	92.69
566.62	86.69
566.832	95.69
567.044	102.69
567.255	87.69
567.467	100.69
567.679	103.69
567.891	99.69
568.102	93.69
568.314	94.69
568.526	84.69
568.737	92.69
568.949	100.69
569.161	90.69
569.372	81.69
569.584	90.69
569.795	98.69
570.007	81.69
570.218	97.69
570.43	98.69
570.641	94.69
570.853	89.69
571.064	103.69
571.276	85.69
571.487	93.69
571.698	86.69
571.91	94.69
572.121	80.69
572.333	92.69
572.544	89.69
572.755	77.69
572.966	87.69
573.178	107.69
573.389	98.69
573.6	87.69
573.811	91.69
574.023	89.69
574.234	79.69
574.445	101.69
574.656	92.69
574.867	99.69
575.078	80.69
575.289	81.69
575.501	86.69
575.712	100.69
575.923	98.69
576.134	81.69
576.345	92.69
576.556	103.69
576.767	107.69
576.978	103.69
577.188	100.69
577.399	94.69
577.61	81.69
577.821	92.69
578.032	77.69
578.243	79.69
578.454	85.69
578.665	88.69
578.875	83.69
579.086	107.69
579.297	83.69
579.508	93.69
579.718	93.69
579.929	91.69
580.14	92.69
580.35	99.69
580.561	103.69
580.772	87.69
580.982	94.69
581.193	76.69
581.403	85.69
581.614	82.69
581.825	92.69
582.035	90.69
582.246	96.69
582.456	93.69
582.667	89.69
582.877	101.69
583.087	84.69
583.298	78.69
583.508	82.69
583.719	91.69
583.929	95.69
584.139	75.69
584.35	86.69
584.56	84.69
584.77	87.69
584.981	88.69
585.191	98.69
585.401	96.69
585.611	90.69
585.821	82.69
586.032	87.69
586.242	74.69
586.452	86.69
586.662	83.69
586.872	88.69
587.082	87.69
587.292	93.69
587.502	81.69
587.713	92.69
587.923	100.69
588.133	91.69
588.343	86.69
588.553	86.69
588.762	88.69
588.972	103.69
589.182	89.69
589.392	83.69
589.602	99.69
589.812	81.69
590.022	90.69
590.232	77.69
590.441	84.69
590.651	100.69
590.861	93.69
591.071	92.69
591.281	98.69
591.49	93.69
591.7	97.69
591.91	90.69
592.119	97.69
592.329	100.69
592.539	92.69
592.748	89.69
592.958	85.69
593.167	93.69
593.377	95.69
593.587	93.69
593.796	79.69
594.006	80.69
594.215	90.69
594.424	77.69
594.634	89.69
594.843	89.69
595.053	98.69
595.262	100.69
595.472	94.69
595.681	88.69
595.89	85.69
596.1	104.69
596.309	94.69
596.518	79.69
596.727	79.69
596.937	78.69
597.146	87.69
597.355	79.69
597.564	88.69
597.774	95.69
597.983	91.69
598.192	86.69
598.401	95.69
598.61	92.69
598.819	87.69
599.028	79.69
599.237	87.69
599.446	93.69
599.655	82.69
599.864	87.69
600.073	86.69
600.282	81.69
600.491	88.69
600.7	89.69
600.909	86.69
601.118	94.69
601.327	95.69
601.536	98.69
601.745	86.69
601.953	91.69
602.162	99.69
602.371	86.69
602.58	97.69
602.789	99.69
602.997	87.69
603.206	96.69
603.415	92.69
603.623	102.69
603.832	83.69
604.041	92.69
604.249	104.69
604.458	103.69
604.666	84.69
604.875	84.69
605.084	96.69
605.292	100.69
605.501	92.69
605.709	94.69
605.918	87.69
606.126	103.69
606.334	95.69
606.543	99.69
606.751	93.69
606.96	98.69
607.168	86.69
607.376	87.69
607.585	96.69
607.793	84.69
608.001	92.69
608.21	89.69
608.418	88.69
608.626	90.69
608.834	103.69
609.043	93.69
609.251	96.69
609.459	91.69
609.667	77.69
609.875	98.69
610.083	84.69
610.291	107.69
610.499	86.69
610.707	99.69
610.916	86.69
611.124	84.69
611.332	86.69
611.54	100.69
611.748	98.69
611.955	89.69
612.163	88.69
612.371	96.69
612.579	88.69
612.787	99.69
612.995	91.69
613.203	97.69
613.411	101.69
613.618	97.69
613.826	85.69
614.034	94.69
614.242	91.69
614.449	95.69
614.657	88.69
614.865	96.69
615.072	91.69
615.28	85.69
615.488	90.69
615.695	101.69
615.903	85.69
616.111	93.69
616.318	88.69
616.526	80.69
616.733	75.69
616.941	92.69
617.148	99.69
617.356	83.69
617.563	96.69
617.771	101.69
617.978	93.69
618.185	101.69
618.393	91.69
618.6	76.69
618.807	87.69
619.015	79.69
619.222	109.69
619.429	86.69
619.637	103.69
619.844	93.69
620.051	100.69
620.258	84.69
620.466	82.69
620.673	95.69
620.88	84.69
621.087	90.69
621.294	102.69
621.501	93.69
621.708	94.69
621.915	90.69
622.122	93.69
622.329	97.69
622.536	83.69
622.743	93.69
622.95	93.69
623.157	86.69
623.364	85.69
623.571	85.69
623.778	85.69
623.985	100.69
624.192	94.69
624.399	90.69
624.606	94.69
624.812	101.69
625.019	73.69
625.226	91.69
625.433	97.69
625.639	87.69
625.846	96.69
626.053	96.69
626.259	90.69
626.466	86.69
626.673	81.69
626.879	88.69
627.086	94.69
627.293	104.69
627.499	93.69
627.706	86.69
627.912	97.69
628.119	88.69
628.325	83.69
628.532	76.69
628.738	88.69
628.945	105.69
629.151	88.69
629.357	97.69
629.564	82.69
629.77	95.69
629.976	81.69
630.183	95.69
630.389	92.69
630.595	93.69
630.802	78.69
631.008	95.69
631.214	90.69
631.42	86.69
631.627	91.69
631.833	94.69
632.039	93.69
632.245	94.69
632.451	82.69
632.657	86.69
632.863	97.69
633.069	76.69
633.275	89.69
633.481	90.69
633.688	81.69
633.893	79.69
634.099	88.69
634.305	82.69
634.511	80.69
634.717	87.69
634.923	90.69
635.129	93.69
635.335	91.69
635.541	79.69
635.747	89.69
635.952	87.69
636.158	86.69
636.364	97.69
636.57	92.69
636.775	97.69
636.981	96.69
637.187	94.69
637.392	83.69
637.598	80.69
637.804	74.69
638.009	93.69
638.215	94.69
638.421	97.69
638.626	91.69
638.832	100.69
639.037	85.69
639.243	79.69
639.448	87.69
639.654	112.69
639.859	93.69
640.065	99.69
640.27	89.69
640.475	85.69
640.681	100.69
640.886	75.69
641.091	96.69
641.297	78.69
641.502	85.69
641.707	90.69
641.913	90.69
642.118	86.69
642.323	90.69
642.528	93.69
642.733	102.69
642.939	90.69
643.144	99.69
643.349	88.69
643.554	92.69
643.759	79.69
643.964	75.69
644.169	89.69
644.374	88.69
644.579	103.69
644.784	90.69
644.989	96.69
645.194	85.69
645.399	83.69
645.604	86.69
645.809	90.69
646.014	76.69
646.219	90.69
646.423	94.69
646.628	94.69
646.833	98.69
647.038	78.69
647.243	88.69
647.447	76.69
647.652	104.69
647.857	96.69
648.062	80.69
648.266	61.69
648.471	91.69
648.676	77.69
648.88	87.69
649.085	74.69
649.289	96.69
649.494	82.69
649.698	80.69
649.903	90.69
650.107	84.69
650.312	97.69
650.516	87.69
650.721	93.69
650.925	86.69
651.13	83.69
651.334	91.69
651.539	94.69
651.743	84.69
651.947	96.69
652.152	99.69
652.356	90.69
652.56	91.69
652.764	98.69
652.969	98.69
653.173	80.69
653.377	91.69
653.581	71.69
653.785	91.69
653.99	91.69
654.194	93.69
654.398	72.69
654.602	83.69
654.806	91.69
655.01	83.69
655.214	95.69
655.418	100.69
655.622	90.69
655.826	92.69
656.03	85.69
656.234	90.69
656.438	90.69
656.642	90.69
656.846	85.69
657.049	85.69
657.253	72.69
657.457	92.69
657.661	83.69
657.865	77.69
658.068	80.69
658.272	80.69
658.476	87.69
658.68	91.69
658.883	98.69
659.087	87.69
659.291	92.69
659.494	95.69
659.698	94.69
659.901	87.69
660.105	102.69
660.309	74.69
660.512	89.69
660.716	73.69
660.919	72.69
661.123	72.69
661.326	79.69
661.53	85.69
661.733	79.69
661.936	93.69
662.14	87.69
662.343	81.69
662.546	73.69
662.75	83.69
662.953	78.69
663.156	96.69
663.36	90.69
663.563	81.69
663.766	100.69
663.969	99.69
664.173	87.69
664.376	75.69
664.579	91.69
664.782	78.69
664.985	79.69
665.188	80.69
665.391	96.69
665.594	83.69
665.797	83.69
666	93.69
666.203	91.69
666.406	88.69
666.609	100.69
666.812	89.69
667.015	82.69
667.218	80.69
667.421	102.69
667.624	93.69
667.827	89.69
668.03	76.69
668.232	78.69
668.435	86.69
668.638	75.69
668.841	76.69
669.043	103.69
669.246	80.69
669.449	86.69
669.651	89.69
669.854	78.69
670.057	67.69
670.259	98.69
670.462	91.69
670.665	81.69
670.867	80.69
671.07	93.69
671.272	74.69
671.475	91.69
671.677	90.69
671.88	86.69
672.082	77.69
672.284	78.69
672.487	95.69
672.689	111.69
672.892	89.69
