Data from NiCl2@0.0625M.TitratingCurve.Agarose3%dH2O.NegLispCup.LampEnergy10.LIBS07252019_HRD10591_18-32-47-576.txt Node
Date: Thu Jul 25 18:32:47 EDT 2019
User: cochatt
Spectrometer: HR+D1059
Trigger mode: 1
Integration Time (sec): 1.000000E-1
Scans to average: 1
Electric dark correction enabled: true
Nonlinearity correction enabled: false
Boxcar width: 0
XAxis mode: Wavelengths
Number of Pixels in Spectrum: 2048
>>>>>Begin Spectral Data<<<<<
223.165	-26.94
223.4	-26.94
223.635	-26.94
223.869	-1.94
224.104	-9.94
224.338	-11.94
224.573	-18.94
224.808	-24.94
225.042	-6.94
225.277	-0.94
225.511	-11.94
225.746	10.06
225.98	3.06
226.215	5.06
226.449	21.06
226.683	20.06
226.918	35.06
227.152	20.06
227.387	28.06
227.621	44.06
227.856	45.06
228.09	32.06
228.324	46.06
228.559	61.06
228.793	87.06
229.027	146.06
229.262	166.06
229.496	178.06
229.73	179.06
229.964	186.06
230.199	192.06
230.433	165.06
230.667	195.06
230.901	205.06
231.136	187.06
231.37	201.06
231.604	197.06
231.838	206.06
232.072	214.06
232.306	216.06
232.541	217.06
232.775	214.06
233.009	220.06
233.243	208.06
233.477	228.06
233.711	224.06
233.945	217.06
234.179	239.06
234.413	229.06
234.647	247.06
234.881	232.06
235.115	243.06
235.349	251.06
235.583	227.06
235.817	232.06
236.051	242.06
236.285	258.06
236.519	233.06
236.753	253.06
236.987	262.06
237.221	237.06
237.455	264.06
237.689	263.06
237.922	250.06
238.156	269.06
238.39	257.06
238.624	282.06
238.858	283.06
239.091	277.06
239.325	292.06
239.559	294.06
239.793	299.06
240.027	308.06
240.26	306.06
240.494	313.06
240.728	291.06
240.961	312.06
241.195	314.06
241.429	324.06
241.662	328.06
241.896	318.06
242.13	338.06
242.363	334.06
242.597	333.06
242.83	355.06
243.064	344.06
243.298	345.06
243.531	349.06
243.765	351.06
243.998	336.06
244.232	352.06
244.465	354.06
244.699	346.06
244.932	371.06
245.166	361.06
245.399	377.06
245.633	379.06
245.866	371.06
246.099	369.06
246.333	386.06
246.566	371.06
246.8	384.06
247.033	362.06
247.266	376.06
247.5	406.06
247.733	402.06
247.966	408.06
248.2	442.06
248.433	448.06
248.666	420.06
248.899	438.06
249.133	434.06
249.366	430.06
249.599	450.06
249.832	452.06
250.066	422.06
250.299	427.06
250.532	427.06
250.765	428.06
250.998	437.06
251.231	442.06
251.465	461.06
251.698	462.06
251.931	465.06
252.164	482.06
252.397	484.06
252.63	471.06
252.863	477.06
253.096	474.06
253.329	488.06
253.562	509.06
253.795	510.06
254.028	507.06
254.261	516.06
254.494	492.06
254.727	503.06
254.96	507.06
255.193	511.06
255.426	513.06
255.659	505.06
255.892	518.06
256.124	520.06
256.357	518.06
256.59	513.06
256.823	531.06
257.056	532.06
257.289	553.06
257.521	545.06
257.754	552.06
257.987	533.06
258.22	542.06
258.452	554.06
258.685	549.06
258.918	572.06
259.151	558.06
259.383	554.06
259.616	565.06
259.849	576.06
260.081	612.06
260.314	628.06
260.547	596.06
260.779	562.06
261.012	597.06
261.244	607.06
261.477	644.06
261.71	598.06
261.942	603.06
262.175	608.06
262.407	602.06
262.64	610.06
262.872	635.06
263.105	616.06
263.337	638.06
263.57	631.06
263.802	618.06
264.035	619.06
264.267	613.06
264.499	628.06
264.732	611.06
264.964	624.06
265.197	635.06
265.429	617.06
265.661	628.06
265.894	624.06
266.126	612.06
266.358	655.06
266.591	628.06
266.823	667.06
267.055	646.06
267.287	658.06
267.52	637.06
267.752	676.06
267.984	653.06
268.216	659.06
268.448	660.06
268.681	692.06
268.913	681.06
269.145	652.06
269.377	664.06
269.609	674.06
269.841	676.06
270.073	685.06
270.306	672.06
270.538	670.06
270.77	654.06
271.002	708.06
271.234	704.06
271.466	709.06
271.698	708.06
271.93	696.06
272.162	708.06
272.394	727.06
272.626	729.06
272.858	700.06
273.09	732.06
273.322	734.06
273.553	737.06
273.785	755.06
274.017	780.06
274.249	774.06
274.481	801.06
274.713	787.06
274.945	823.06
275.176	840.06
275.408	819.06
275.64	813.06
275.872	829.06
276.104	781.06
276.335	765.06
276.567	765.06
276.799	785.06
277.031	791.06
277.262	792.06
277.494	787.06
277.726	791.06
277.957	808.06
278.189	792.06
278.421	793.06
278.652	811.06
278.884	838.06
279.115	811.06
279.347	828.06
279.579	812.06
279.81	858.06
280.042	851.06
280.273	834.06
280.505	844.06
280.736	852.06
280.968	846.06
281.199	834.06
281.431	844.06
281.662	861.06
281.894	885.06
282.125	857.06
282.356	859.06
282.588	899.06
282.819	887.06
283.051	869.06
283.282	859.06
283.513	856.06
283.745	891.06
283.976	901.06
284.207	886.06
284.439	868.06
284.67	851.06
284.901	918.06
285.132	930.06
285.364	887.06
285.595	908.06
285.826	908.06
286.057	921.06
286.288	916.06
286.52	925.06
286.751	917.06
286.982	932.06
287.213	932.06
287.444	947.06
287.675	957.06
287.906	944.06
288.138	939.06
288.369	944.06
288.6	936.06
288.831	928.06
289.062	913.06
289.293	947.06
289.524	939.06
289.755	948.06
289.986	962.06
290.217	944.06
290.448	939.06
290.679	964.06
290.91	940.06
291.141	957.06
291.371	958.06
291.602	969.06
291.833	964.06
292.064	957.06
292.295	976.06
292.526	975.06
292.757	983.06
292.987	951.06
293.218	947.06
293.449	989.06
293.68	971.06
293.91	972.06
294.141	960.06
294.372	997.06
294.603	988.06
294.833	981.06
295.064	1003.06
295.295	1020.06
295.525	980.06
295.756	1004.06
295.987	975.06
296.217	1014.06
296.448	1027.06
296.679	1017.06
296.909	1027.06
297.14	1015.06
297.37	1026.06
297.601	1037.06
297.831	1014.06
298.062	1033.06
298.292	1053.06
298.523	1061.06
298.753	1080.06
298.984	1052.06
299.214	1042.06
299.445	1056.06
299.675	1048.06
299.905	1074.06
300.136	1062.06
300.366	1060.06
300.597	1046.06
300.827	1089.06
301.057	1094.06
301.288	1068.06
301.518	1113.06
301.748	1128.06
301.979	1133.06
302.209	1138.06
302.439	1146.06
302.669	1131.06
302.9	1130.06
303.13	1084.06
303.36	1130.06
303.59	1114.06
303.82	1099.06
304.051	1137.06
304.281	1142.06
304.511	1111.06
304.741	1097.06
304.971	1118.06
305.201	1118.06
305.431	1122.06
305.661	1097.06
305.891	1095.06
306.121	1108.06
306.352	1115.06
306.582	1085.06
306.812	1082.06
307.042	1106.06
307.272	1087.06
307.502	1070.06
307.731	1064.06
307.961	1080.06
308.191	1058.06
308.421	1106.06
308.651	1092.06
308.881	1084.06
309.111	1091.06
309.341	1083.06
309.571	1114.06
309.8	1089.06
310.03	1110.06
310.26	1090.06
310.49	1123.06
310.72	1102.06
310.949	1141.06
311.179	1102.06
311.409	1099.06
311.639	1108.06
311.868	1122.06
312.098	1138.06
312.328	1150.06
312.557	1147.06
312.787	1133.06
313.017	1170.06
313.246	1177.06
313.476	1155.06
313.706	1156.06
313.935	1186.06
314.165	1192.06
314.394	1186.06
314.624	1181.06
314.853	1164.06
315.083	1194.06
315.312	1203.06
315.542	1188.06
315.771	1187.06
316.001	1184.06
316.23	1191.06
316.46	1148.06
316.689	1178.06
316.919	1155.06
317.148	1150.06
317.377	1151.06
317.607	1178.06
317.836	1161.06
318.065	1187.06
318.295	1218.06
318.524	1214.06
318.753	1164.06
318.983	1192.06
319.212	1160.06
319.441	1180.06
319.67	1186.06
319.9	1174.06
320.129	1152.06
320.358	1173.06
320.587	1170.06
320.816	1205.06
321.046	1160.06
321.275	1187.06
321.504	1184.06
321.733	1179.06
321.962	1196.06
322.191	1174.06
322.42	1222.06
322.649	1200.06
322.878	1220.06
323.108	1190.06
323.337	1214.06
323.566	1223.06
323.795	1241.06
324.024	1224.06
324.253	1197.06
324.482	1218.06
324.71	1205.06
324.939	1233.06
325.168	1228.06
325.397	1230.06
325.626	1228.06
325.855	1274.06
326.084	1264.06
326.313	1249.06
326.542	1302.06
326.77	1268.06
326.999	1275.06
327.228	1258.06
327.457	1250.06
327.686	1266.06
327.914	1281.06
328.143	1230.06
328.372	1272.06
328.6	1271.06
328.829	1278.06
329.058	1295.06
329.287	1271.06
329.515	1275.06
329.744	1275.06
329.972	1282.06
330.201	1310.06
330.43	1301.06
330.658	1314.06
330.887	1321.06
331.115	1348.06
331.344	1304.06
331.572	1349.06
331.801	1370.06
332.03	1378.06
332.258	1403.06
332.486	1432.06
332.715	1475.06
332.943	1512.06
333.172	1537.06
333.4	1602.06
333.629	1679.06
333.857	1648.06
334.085	1673.06
334.314	1636.06
334.542	1637.06
334.771	1633.06
334.999	1589.06
335.227	1644.06
335.455	1592.06
335.684	1568.06
335.912	1547.06
336.14	1520.06
336.369	1557.06
336.597	1561.06
336.825	1522.06
337.053	1499.06
337.281	1506.06
337.51	1483.06
337.738	1472.06
337.966	1462.06
338.194	1441.06
338.422	1401.06
338.65	1397.06
338.878	1403.06
339.106	1387.06
339.334	1394.06
339.562	1396.06
339.79	1385.06
340.018	1352.06
340.246	1348.06
340.474	1365.06
340.702	1338.06
340.93	1355.06
341.158	1347.06
341.386	1334.06
341.614	1377.06
341.842	1379.06
342.07	1312.06
342.298	1320.06
342.526	1342.06
342.754	1312.06
342.981	1343.06
343.209	1353.06
343.437	1434.06
343.665	1471.06
343.893	1541.06
344.12	1563.06
344.348	1579.06
344.576	1481.06
344.804	1452.06
345.031	1399.06
345.259	1378.06
345.487	1338.06
345.714	1332.06
345.942	1325.06
346.17	1338.06
346.397	1296.06
346.625	1280.06
346.853	1311.06
347.08	1291.06
347.308	1257.06
347.535	1268.06
347.763	1306.06
347.99	1298.06
348.218	1292.06
348.445	1281.06
348.673	1266.06
348.9	1277.06
349.128	1254.06
349.355	1285.06
349.583	1248.06
349.81	1272.06
350.037	1259.06
350.265	1264.06
350.492	1264.06
350.72	1248.06
350.947	1239.06
351.174	1253.06
351.402	1245.06
351.629	1242.06
351.856	1229.06
352.083	1216.06
352.311	1216.06
352.538	1244.06
352.765	1279.06
352.992	1246.06
353.22	1220.06
353.447	1221.06
353.674	1205.06
353.901	1228.06
354.128	1260.06
354.355	1240.06
354.583	1234.06
354.81	1274.06
355.037	1239.06
355.264	1235.06
355.491	1252.06
355.718	1252.06
355.945	1234.06
356.172	1240.06
356.399	1245.06
356.626	1291.06
356.853	1300.06
357.08	1276.06
357.307	1289.06
357.534	1268.06
357.761	1255.06
357.988	1278.06
358.215	1293.06
358.441	1280.06
358.668	1229.06
358.895	1227.06
359.122	1239.06
359.349	1235.06
359.576	1267.06
359.802	1258.06
360.029	1238.06
360.256	1263.06
360.483	1249.06
360.709	1262.06
360.936	1260.06
361.163	1244.06
361.39	1259.06
361.616	1243.06
361.843	1251.06
362.07	1268.06
362.296	1266.06
362.523	1256.06
362.749	1249.06
362.976	1243.06
363.203	1250.06
363.429	1270.06
363.656	1243.06
363.882	1255.06
364.109	1242.06
364.335	1255.06
364.562	1286.06
364.788	1234.06
365.015	1289.06
365.241	1256.06
365.468	1250.06
365.694	1243.06
365.92	1265.06
366.147	1255.06
366.373	1231.06
366.599	1242.06
366.826	1265.06
367.052	1230.06
367.278	1297.06
367.505	1252.06
367.731	1256.06
367.957	1240.06
368.184	1288.06
368.41	1251.06
368.636	1264.06
368.862	1309.06
369.089	1278.06
369.315	1281.06
369.541	1282.06
369.767	1304.06
369.993	1296.06
370.219	1282.06
370.445	1312.06
370.672	1323.06
370.898	1336.06
371.124	1328.06
371.35	1349.06
371.576	1368.06
371.802	1360.06
372.028	1358.06
372.254	1415.06
372.48	1404.06
372.706	1382.06
372.932	1402.06
373.158	1384.06
373.384	1394.06
373.61	1450.06
373.835	1444.06
374.061	1375.06
374.287	1385.06
374.513	1405.06
374.739	1463.06
374.965	1468.06
375.191	1514.06
375.416	1476.06
375.642	1456.06
375.868	1445.06
376.094	1420.06
376.319	1380.06
376.545	1396.06
376.771	1390.06
376.997	1346.06
377.222	1333.06
377.448	1346.06
377.674	1357.06
377.899	1362.06
378.125	1336.06
378.35	1337.06
378.576	1374.06
378.802	1318.06
379.027	1368.06
379.253	1350.06
379.478	1362.06
379.704	1350.06
379.929	1363.06
380.155	1368.06
380.38	1350.06
380.606	1338.06
380.831	1325.06
381.057	1350.06
381.282	1367.06
381.507	1362.06
381.733	1399.06
381.958	1408.06
382.184	1415.06
382.409	1435.06
382.634	1412.06
382.86	1431.06
383.085	1448.06
383.31	1446.06
383.535	1490.06
383.761	1499.06
383.986	1462.06
384.211	1485.06
384.436	1548.06
384.662	1524.06
384.887	1570.06
385.112	1576.06
385.337	1620.06
385.562	1643.06
385.787	1602.06
386.013	1661.06
386.238	1641.06
386.463	1610.06
386.688	1634.06
386.913	1610.06
387.138	1631.06
387.363	1632.06
387.588	1588.06
387.813	1618.06
388.038	1602.06
388.263	1607.06
388.488	1635.06
388.713	1626.06
388.938	1633.06
389.163	1571.06
389.387	1573.06
389.612	1596.06
389.837	1600.06
390.062	1582.06
390.287	1595.06
390.512	1591.06
390.736	1622.06
390.961	1627.06
391.186	1607.06
391.411	1674.06
391.636	1715.06
391.86	1749.06
392.085	1789.06
392.31	1767.06
392.534	1712.06
392.759	1707.06
392.984	1720.06
393.208	1772.06
393.433	1943.06
393.658	1968.06
393.882	1755.06
394.107	1706.06
394.331	1729.06
394.556	1689.06
394.78	1713.06
395.005	1744.06
395.229	1723.06
395.454	1748.06
395.678	1779.06
395.903	1753.06
396.127	1808.06
396.352	1781.06
396.576	1759.06
396.801	1784.06
397.025	1918.06
397.249	1843.06
397.474	1856.06
397.698	1791.06
397.922	1817.06
398.147	1844.06
398.371	1843.06
398.595	1931.06
398.82	1998.06
399.044	2108.06
399.268	2274.06
399.492	2499.06
399.717	2775.06
399.941	2784.06
400.165	2556.06
400.389	2385.06
400.613	2249.06
400.837	2155.06
401.062	2081.06
401.286	2055.06
401.51	2004.06
401.734	1964.06
401.958	1977.06
402.182	1991.06
402.406	2024.06
402.63	2035.06
402.854	2068.06
403.078	2069.06
403.302	2141.06
403.526	2137.06
403.75	2166.06
403.974	2171.06
404.198	2181.06
404.422	2209.06
404.645	2197.06
404.869	2156.06
405.093	2228.06
405.317	2168.06
405.541	2156.06
405.765	2142.06
405.988	2154.06
406.212	2176.06
406.436	2174.06
406.66	2240.06
406.883	2239.06
407.107	2354.06
407.331	2482.06
407.555	2500.06
407.778	2499.06
408.002	2418.06
408.226	2400.06
408.449	2372.06
408.673	2312.06
408.896	2257.06
409.12	2208.06
409.344	2209.06
409.567	2214.06
409.791	2220.06
410.014	2183.06
410.238	2163.06
410.461	2173.06
410.685	2148.06
410.908	2132.06
411.132	2117.06
411.355	2071.06
411.578	2086.06
411.802	2073.06
412.025	2063.06
412.249	2104.06
412.472	2133.06
412.695	2066.06
412.919	2024.06
413.142	2030.06
413.365	2014.06
413.589	2048.06
413.812	1988.06
414.035	1987.06
414.258	1957.06
414.482	1968.06
414.705	2052.06
414.928	2031.06
415.151	1966.06
415.374	1994.06
415.597	1979.06
415.821	1974.06
416.044	1958.06
416.267	1907.06
416.49	1923.06
416.713	1958.06
416.936	1949.06
417.159	1901.06
417.382	1856.06
417.605	1909.06
417.828	1898.06
418.051	1942.06
418.274	1956.06
418.497	1927.06
418.72	1971.06
418.943	1908.06
419.166	2053.06
419.389	2179.06
419.611	2135.06
419.834	2118.06
420.057	2055.06
420.28	1997.06
420.503	1916.06
420.726	1920.06
420.948	1901.06
421.171	1899.06
421.394	1923.06
421.617	1910.06
421.839	1950.06
422.062	1914.06
422.285	1913.06
422.507	1957.06
422.73	2008.06
422.953	1987.06
423.175	1998.06
423.398	1952.06
423.621	1974.06
423.843	2007.06
424.066	1981.06
424.288	1953.06
424.511	1934.06
424.733	1917.06
424.956	1943.06
425.178	1920.06
425.401	1935.06
425.623	1924.06
425.846	1897.06
426.068	1875.06
426.291	1877.06
426.513	1845.06
426.735	1817.06
426.958	1829.06
427.18	1776.06
427.402	1825.06
427.625	1819.06
427.847	1773.06
428.069	1774.06
428.292	1762.06
428.514	1746.06
428.736	1749.06
428.958	1812.06
429.181	1714.06
429.403	1719.06
429.625	1741.06
429.847	1693.06
430.069	1715.06
430.292	1720.06
430.514	1682.06
430.736	1758.06
430.958	1758.06
431.18	1768.06
431.402	1714.06
431.624	1731.06
431.846	1760.06
432.068	1769.06
432.29	1803.06
432.512	1747.06
432.734	1758.06
432.956	1744.06
433.178	1762.06
433.4	1757.06
433.622	1737.06
433.844	1797.06
434.066	1817.06
434.287	1850.06
434.509	1848.06
434.731	1918.06
434.953	1910.06
435.175	1955.06
435.397	1873.06
435.618	1840.06
435.84	1830.06
436.062	1761.06
436.284	1766.06
436.505	1720.06
436.727	1756.06
436.949	1754.06
437.17	1744.06
437.392	1723.06
437.614	1723.06
437.835	1688.06
438.057	1661.06
438.278	1652.06
438.5	1688.06
438.721	1692.06
438.943	1703.06
439.165	1689.06
439.386	1661.06
439.608	1722.06
439.829	1723.06
440.05	1690.06
440.272	1720.06
440.493	1730.06
440.715	1807.06
440.936	1780.06
441.158	1793.06
441.379	1836.06
441.6	1898.06
441.822	1912.06
442.043	1878.06
442.264	1878.06
442.486	1850.06
442.707	1863.06
442.928	1885.06
443.149	1866.06
443.371	1905.06
443.592	1926.06
443.813	1899.06
444.034	1911.06
444.255	1944.06
444.476	2062.06
444.698	2132.06
444.919	2187.06
445.14	2237.06
445.361	2061.06
445.582	1968.06
445.803	1885.06
446.024	1816.06
446.245	1800.06
446.466	1762.06
446.687	1754.06
446.908	1734.06
447.129	1651.06
447.35	1653.06
447.571	1664.06
447.792	1609.06
448.013	1609.06
448.234	1575.06
448.455	1594.06
448.675	1587.06
448.896	1580.06
449.117	1558.06
449.338	1575.06
449.559	1538.06
449.779	1538.06
450	1538.06
450.221	1529.06
450.442	1540.06
450.662	1525.06
450.883	1600.06
451.104	1613.06
451.324	1573.06
451.545	1540.06
451.766	1584.06
451.986	1518.06
452.207	1552.06
452.428	1522.06
452.648	1562.06
452.869	1547.06
453.089	1490.06
453.31	1510.06
453.53	1442.06
453.751	1497.06
453.971	1485.06
454.192	1469.06
454.412	1477.06
454.633	1473.06
454.853	1484.06
455.073	1477.06
455.294	1477.06
455.514	1467.06
455.734	1452.06
455.955	1451.06
456.175	1459.06
456.395	1442.06
456.616	1454.06
456.836	1466.06
457.056	1530.06
457.276	1458.06
457.497	1472.06
457.717	1482.06
457.937	1500.06
458.157	1512.06
458.377	1540.06
458.598	1575.06
458.818	1601.06
459.038	1644.06
459.258	1648.06
459.478	1731.06
459.698	1743.06
459.918	1784.06
460.138	1858.06
460.358	1944.06
460.578	1926.06
460.798	1973.06
461.018	1979.06
461.238	1941.06
461.458	1980.06
461.678	1953.06
461.898	2009.06
462.118	2005.06
462.338	2082.06
462.558	2153.06
462.777	2238.06
462.997	2412.06
463.217	2488.06
463.437	2492.06
463.657	2371.06
463.876	2297.06
464.096	2308.06
464.316	2246.06
464.536	2246.06
464.755	2177.06
464.975	2110.06
465.195	1985.06
465.414	1929.06
465.634	1806.06
465.854	1793.06
466.073	1758.06
466.293	1718.06
466.512	1687.06
466.732	1655.06
466.951	1675.06
467.171	1637.06
467.391	1682.06
467.61	1627.06
467.829	1635.06
468.049	1652.06
468.268	1592.06
468.488	1607.06
468.707	1587.06
468.927	1595.06
469.146	1606.06
469.365	1584.06
469.585	1624.06
469.804	1685.06
470.023	1632.06
470.243	1680.06
470.462	1680.06
470.681	1671.06
470.901	1668.06
471.12	1629.06
471.339	1633.06
471.558	1613.06
471.777	1628.06
471.997	1653.06
472.216	1577.06
472.435	1613.06
472.654	1556.06
472.873	1552.06
473.092	1574.06
473.311	1592.06
473.53	1565.06
473.749	1559.06
473.968	1547.06
474.187	1579.06
474.406	1565.06
474.625	1582.06
474.844	1580.06
475.063	1596.06
475.282	1580.06
475.501	1579.06
475.72	1637.06
475.939	1606.06
476.158	1630.06
476.377	1636.06
476.596	1672.06
476.814	1728.06
477.033	1699.06
477.252	1678.06
477.471	1732.06
477.69	1767.06
477.908	1812.06
478.127	1851.06
478.346	1874.06
478.564	1925.06
478.783	1907.06
479.002	1968.06
479.22	1984.06
479.439	2019.06
479.658	1966.06
479.876	1975.06
480.095	1993.06
480.313	2071.06
480.532	2104.06
480.751	2084.06
480.969	2048.06
481.188	1980.06
481.406	1962.06
481.624	1950.06
481.843	1891.06
482.061	1891.06
482.28	1869.06
482.498	1924.06
482.717	1836.06
482.935	1934.06
483.153	1853.06
483.372	1853.06
483.59	1870.06
483.808	1912.06
484.027	1912.06
484.245	1892.06
484.463	1960.06
484.681	1962.06
484.9	1972.06
485.118	1946.06
485.336	2003.06
485.554	1992.06
485.772	2056.06
485.99	2023.06
486.209	2020.06
486.427	1981.06
486.645	1970.06
486.863	2025.06
487.081	1990.06
487.299	2014.06
487.517	1992.06
487.735	1960.06
487.953	1938.06
488.171	2012.06
488.389	2005.06
488.607	1984.06
488.825	1922.06
489.043	1957.06
489.261	1970.06
489.479	1988.06
489.696	1957.06
489.914	1970.06
490.132	1973.06
490.35	1939.06
490.568	1936.06
490.786	1964.06
491.003	1926.06
491.221	1979.06
491.439	1966.06
491.657	1932.06
491.874	1932.06
492.092	1945.06
492.31	1962.06
492.527	1966.06
492.745	1947.06
492.963	1929.06
493.18	1980.06
493.398	1963.06
493.615	2007.06
493.833	1973.06
494.05	1993.06
494.268	2000.06
494.485	2006.06
494.703	1980.06
494.92	2091.06
495.138	2032.06
495.355	2024.06
495.573	2003.06
495.79	2029.06
496.008	2095.06
496.225	2111.06
496.442	2085.06
496.66	2115.06
496.877	2162.06
497.094	2178.06
497.312	2189.06
497.529	2244.06
497.746	2274.06
497.963	2363.06
498.181	2487.06
498.398	2548.06
498.615	2664.06
498.832	2836.06
499.049	3021.06
499.267	3196.06
499.484	3424.06
499.701	3752.06
499.918	4070.06
500.135	4488.06
500.352	4871.06
500.569	5080.06
500.786	5025.06
501.003	4781.06
501.22	4411.06
501.437	4001.06
501.654	3660.06
501.871	3359.06
502.088	3150.06
502.305	2951.06
502.522	2803.06
502.739	2726.06
502.956	2560.06
503.172	2530.06
503.389	2390.06
503.606	2348.06
503.823	2299.06
504.04	2261.06
504.256	2254.06
504.473	2312.06
504.69	2292.06
504.907	2211.06
505.123	2138.06
505.34	2054.06
505.557	1981.06
505.773	1952.06
505.99	1899.06
506.207	1854.06
506.423	1829.06
506.64	1810.06
506.856	1776.06
507.073	1743.06
507.289	1750.06
507.506	1725.06
507.722	1778.06
507.939	1720.06
508.155	1675.06
508.372	1714.06
508.588	1650.06
508.805	1619.06
509.021	1656.06
509.238	1624.06
509.454	1602.06
509.67	1630.06
509.887	1612.06
510.103	1632.06
510.319	1594.06
510.536	1572.06
510.752	1551.06
510.968	1605.06
511.184	1574.06
511.401	1594.06
511.617	1591.06
511.833	1584.06
512.049	1574.06
512.265	1553.06
512.481	1559.06
512.698	1577.06
512.914	1561.06
513.13	1608.06
513.346	1605.06
513.562	1572.06
513.778	1606.06
513.994	1560.06
514.21	1598.06
514.426	1576.06
514.642	1561.06
514.858	1619.06
515.074	1628.06
515.29	1604.06
515.506	1632.06
515.721	1692.06
515.937	1686.06
516.153	1716.06
516.369	1697.06
516.585	1770.06
516.801	1818.06
517.016	1880.06
517.232	1977.06
517.448	1984.06
517.664	2041.06
517.879	2066.06
518.095	2068.06
518.311	2009.06
518.527	2015.06
518.742	1918.06
518.958	1854.06
519.173	1805.06
519.389	1757.06
519.605	1693.06
519.82	1687.06
520.036	1701.06
520.251	1665.06
520.467	1616.06
520.682	1604.06
520.898	1555.06
521.113	1515.06
521.329	1537.06
521.544	1555.06
521.76	1479.06
521.975	1435.06
522.19	1457.06
522.406	1494.06
522.621	1500.06
522.836	1459.06
523.052	1459.06
523.267	1478.06
523.482	1397.06
523.698	1411.06
523.913	1451.06
524.128	1436.06
524.343	1417.06
524.559	1421.06
524.774	1387.06
524.989	1422.06
525.204	1390.06
525.419	1380.06
525.634	1374.06
525.849	1395.06
526.064	1404.06
526.28	1369.06
526.495	1426.06
526.71	1412.06
526.925	1405.06
527.14	1376.06
527.355	1392.06
527.57	1420.06
527.785	1373.06
527.999	1376.06
528.214	1383.06
528.429	1400.06
528.644	1378.06
528.859	1408.06
529.074	1410.06
529.289	1377.06
529.503	1386.06
529.718	1381.06
529.933	1382.06
530.148	1372.06
530.363	1354.06
530.577	1375.06
530.792	1336.06
531.007	1340.06
531.221	1361.06
531.436	1368.06
531.651	1377.06
531.865	1368.06
532.08	1386.06
532.295	1378.06
532.509	1358.06
532.724	1356.06
532.938	1378.06
533.153	1384.06
533.367	1347.06
533.582	1354.06
533.796	1337.06
534.011	1356.06
534.225	1365.06
534.44	1342.06
534.654	1304.06
534.868	1321.06
535.083	1320.06
535.297	1297.06
535.511	1325.06
535.726	1297.06
535.94	1290.06
536.154	1283.06
536.369	1289.06
536.583	1269.06
536.797	1264.06
537.011	1256.06
537.225	1268.06
537.44	1284.06
537.654	1260.06
537.868	1237.06
538.082	1245.06
538.296	1245.06
538.51	1225.06
538.724	1242.06
538.938	1222.06
539.153	1209.06
539.367	1254.06
539.581	1239.06
539.795	1220.06
540.009	1216.06
540.222	1189.06
540.436	1232.06
540.65	1220.06
540.864	1222.06
541.078	1233.06
541.292	1170.06
541.506	1171.06
541.72	1191.06
541.934	1229.06
542.147	1202.06
542.361	1205.06
542.575	1197.06
542.789	1182.06
543.002	1200.06
543.216	1189.06
543.43	1195.06
543.644	1192.06
543.857	1213.06
544.071	1206.06
544.285	1207.06
544.498	1191.06
544.712	1192.06
544.925	1203.06
545.139	1232.06
545.352	1220.06
545.566	1227.06
545.779	1222.06
545.993	1216.06
546.206	1243.06
546.42	1212.06
546.633	1224.06
546.847	1208.06
547.06	1236.06
547.274	1225.06
547.487	1227.06
547.7	1207.06
547.914	1234.06
548.127	1238.06
548.34	1224.06
548.554	1241.06
548.767	1272.06
548.98	1240.06
549.193	1235.06
549.407	1229.06
549.62	1245.06
549.833	1242.06
550.046	1235.06
550.259	1240.06
550.473	1253.06
550.686	1208.06
550.899	1206.06
551.112	1220.06
551.325	1209.06
551.538	1195.06
551.751	1217.06
551.964	1230.06
552.177	1243.06
552.39	1265.06
552.603	1255.06
552.816	1256.06
553.029	1275.06
553.242	1308.06
553.455	1273.06
553.667	1303.06
553.88	1294.06
554.093	1252.06
554.306	1227.06
554.519	1212.06
554.732	1201.06
554.944	1187.06
555.157	1167.06
555.37	1148.06
555.583	1158.06
555.795	1127.06
556.008	1098.06
556.221	1074.06
556.433	1073.06
556.646	1062.06
556.859	1074.06
557.071	1084.06
557.284	1061.06
557.496	1042.06
557.709	1024.06
557.921	1074.06
558.134	1035.06
558.346	1028.06
558.559	1024.06
558.771	1034.06
558.984	1016.06
559.196	1001.06
559.409	1020.06
559.621	1030.06
559.833	1002.06
560.046	977.06
560.258	1018.06
560.47	1018.06
560.683	1004.06
560.895	996.06
561.107	1010.06
561.32	980.06
561.532	1004.06
561.744	1028.06
561.956	997.06
562.168	993.06
562.381	1008.06
562.593	1034.06
562.805	1005.06
563.017	1040.06
563.229	1023.06
563.441	1016.06
563.653	1025.06
563.865	1055.06
564.077	1030.06
564.289	1068.06
564.501	1053.06
564.713	1078.06
564.925	1096.06
565.137	1114.06
565.349	1110.06
565.561	1114.06
565.773	1193.06
565.985	1251.06
566.197	1312.06
566.408	1367.06
566.62	1456.06
566.832	1530.06
567.044	1537.06
567.255	1543.06
567.467	1608.06
567.679	1655.06
567.891	1742.06
568.102	1742.06
568.314	1726.06
568.526	1549.06
568.737	1419.06
568.949	1323.06
569.161	1263.06
569.372	1197.06
569.584	1124.06
569.795	1109.06
570.007	1064.06
570.218	1009.06
570.43	1044.06
570.641	1040.06
570.853	1016.06
571.064	1033.06
571.276	1016.06
571.487	988.06
571.698	960.06
571.91	946.06
572.121	900.06
572.333	927.06
572.544	874.06
572.755	869.06
572.966	874.06
573.178	860.06
573.389	871.06
573.6	833.06
573.811	836.06
574.023	829.06
574.234	843.06
574.445	809.06
574.656	796.06
574.867	797.06
575.078	802.06
575.289	825.06
575.501	800.06
575.712	785.06
575.923	776.06
576.134	786.06
576.345	762.06
576.556	787.06
576.767	778.06
576.978	770.06
577.188	771.06
577.399	774.06
577.61	735.06
577.821	732.06
578.032	726.06
578.243	730.06
578.454	694.06
578.665	736.06
578.875	736.06
579.086	723.06
579.297	710.06
579.508	714.06
579.718	709.06
579.929	700.06
580.14	713.06
580.35	696.06
580.561	690.06
580.772	694.06
580.982	689.06
581.193	668.06
581.403	723.06
581.614	696.06
581.825	701.06
582.035	694.06
582.246	668.06
582.456	674.06
582.667	670.06
582.877	660.06
583.087	668.06
583.298	674.06
583.508	666.06
583.719	649.06
583.929	686.06
584.139	680.06
584.35	695.06
584.56	667.06
584.77	666.06
584.981	669.06
585.191	674.06
585.401	648.06
585.611	662.06
585.821	666.06
586.032	668.06
586.242	647.06
586.452	641.06
586.662	638.06
586.872	657.06
587.082	660.06
587.292	654.06
587.502	656.06
587.713	657.06
587.923	627.06
588.133	651.06
588.343	649.06
588.553	646.06
588.762	650.06
588.972	644.06
589.182	695.06
589.392	694.06
589.602	648.06
589.812	657.06
590.022	651.06
590.232	652.06
590.441	651.06
590.651	659.06
590.861	642.06
591.071	643.06
591.281	666.06
591.49	687.06
591.7	688.06
591.91	694.06
592.119	702.06
592.329	674.06
592.539	710.06
592.748	738.06
592.958	769.06
593.167	772.06
593.377	768.06
593.587	810.06
593.796	772.06
594.006	775.06
594.215	777.06
594.424	775.06
594.634	749.06
594.843	747.06
595.053	717.06
595.262	712.06
595.472	685.06
595.681	656.06
595.89	660.06
596.1	627.06
596.309	643.06
596.518	614.06
596.727	599.06
596.937	602.06
597.146	602.06
597.355	598.06
597.564	577.06
597.774	568.06
597.983	558.06
598.192	573.06
598.401	554.06
598.61	546.06
598.819	571.06
599.028	564.06
599.237	540.06
599.446	554.06
599.655	544.06
599.864	517.06
600.073	534.06
600.282	562.06
600.491	538.06
600.7	546.06
600.909	525.06
601.118	539.06
601.327	507.06
601.536	513.06
601.745	520.06
601.953	553.06
602.162	515.06
602.371	504.06
602.58	507.06
602.789	497.06
602.997	513.06
603.206	516.06
603.415	508.06
603.623	511.06
603.832	499.06
604.041	503.06
604.249	495.06
604.458	499.06
604.666	492.06
604.875	484.06
605.084	485.06
605.292	510.06
605.501	473.06
605.709	490.06
605.918	483.06
606.126	481.06
606.334	467.06
606.543	498.06
606.751	492.06
606.96	459.06
607.168	480.06
607.376	468.06
607.585	484.06
607.793	458.06
608.001	482.06
608.21	460.06
608.418	482.06
608.626	473.06
608.834	462.06
609.043	489.06
609.251	500.06
609.459	478.06
609.667	465.06
609.875	459.06
610.083	438.06
610.291	453.06
610.499	472.06
610.707	457.06
610.916	451.06
611.124	460.06
611.332	477.06
611.54	468.06
611.748	463.06
611.955	443.06
612.163	451.06
612.371	457.06
612.579	456.06
612.787	466.06
612.995	461.06
613.203	456.06
613.411	470.06
613.618	453.06
613.826	450.06
614.034	449.06
614.242	438.06
614.449	454.06
614.657	442.06
614.865	442.06
615.072	437.06
615.28	448.06
615.488	451.06
615.695	440.06
615.903	442.06
616.111	448.06
616.318	431.06
616.526	451.06
616.733	464.06
616.941	437.06
617.148	428.06
617.356	451.06
617.563	441.06
617.771	427.06
617.978	444.06
618.185	450.06
618.393	434.06
618.6	443.06
618.807	443.06
619.015	449.06
619.222	429.06
619.429	442.06
619.637	441.06
619.844	446.06
620.051	438.06
620.258	421.06
620.466	408.06
620.673	410.06
620.88	397.06
621.087	400.06
621.294	424.06
621.501	416.06
621.708	415.06
621.915	416.06
622.122	416.06
622.329	413.06
622.536	415.06
622.743	405.06
622.95	409.06
623.157	397.06
623.364	392.06
623.571	403.06
623.778	382.06
623.985	382.06
624.192	405.06
624.399	401.06
624.606	400.06
624.812	388.06
625.019	402.06
625.226	363.06
625.433	384.06
625.639	360.06
625.846	378.06
626.053	390.06
626.259	373.06
626.466	375.06
626.673	365.06
626.879	363.06
627.086	372.06
627.293	353.06
627.499	365.06
627.706	380.06
627.912	378.06
628.119	376.06
628.325	380.06
628.532	378.06
628.738	373.06
628.945	363.06
629.151	361.06
629.357	349.06
629.564	371.06
629.77	370.06
629.976	354.06
630.183	348.06
630.389	356.06
630.595	334.06
630.802	352.06
631.008	351.06
631.214	329.06
631.42	348.06
631.627	351.06
631.833	345.06
632.039	347.06
632.245	333.06
632.451	327.06
632.657	346.06
632.863	340.06
633.069	349.06
633.275	325.06
633.481	341.06
633.688	325.06
633.893	323.06
634.099	329.06
634.305	320.06
634.511	325.06
634.717	314.06
634.923	327.06
635.129	320.06
635.335	322.06
635.541	316.06
635.747	322.06
635.952	312.06
636.158	310.06
636.364	309.06
636.57	316.06
636.775	324.06
636.981	323.06
637.187	313.06
637.392	314.06
637.598	302.06
637.804	308.06
638.009	298.06
638.215	314.06
638.421	308.06
638.626	294.06
638.832	307.06
639.037	311.06
639.243	312.06
639.448	297.06
639.654	317.06
639.859	305.06
640.065	287.06
640.27	318.06
640.475	307.06
640.681	307.06
640.886	296.06
641.091	312.06
641.297	285.06
641.502	274.06
641.707	294.06
641.913	299.06
642.118	297.06
642.323	286.06
642.528	294.06
642.733	277.06
642.939	298.06
643.144	287.06
643.349	278.06
643.554	300.06
643.759	285.06
643.964	299.06
644.169	299.06
644.374	296.06
644.579	296.06
644.784	290.06
644.989	269.06
645.194	295.06
645.399	285.06
645.604	284.06
645.809	296.06
646.014	290.06
646.219	281.06
646.423	291.06
646.628	316.06
646.833	300.06
647.038	295.06
647.243	311.06
647.447	305.06
647.652	297.06
647.857	339.06
648.062	324.06
648.266	322.06
648.471	307.06
648.676	314.06
648.88	325.06
649.085	311.06
649.289	308.06
649.494	326.06
649.698	306.06
649.903	316.06
650.107	300.06
650.312	293.06
650.516	297.06
650.721	288.06
650.925	311.06
651.13	304.06
651.334	312.06
651.539	297.06
651.743	292.06
651.947	280.06
652.152	288.06
652.356	276.06
652.56	260.06
652.764	276.06
652.969	283.06
653.173	273.06
653.377	268.06
653.581	279.06
653.785	268.06
653.99	268.06
654.194	273.06
654.398	279.06
654.602	278.06
654.806	281.06
655.01	292.06
655.214	288.06
655.418	278.06
655.622	287.06
655.826	282.06
656.03	301.06
656.234	321.06
656.438	327.06
656.642	340.06
656.846	333.06
657.049	303.06
657.253	260.06
657.457	275.06
657.661	240.06
657.865	210.06
658.068	212.06
658.272	205.06
658.476	169.06
658.68	173.06
658.883	161.06
659.087	161.06
659.291	148.06
659.494	139.06
659.698	122.06
659.901	138.06
660.105	137.06
660.309	119.06
660.512	122.06
660.716	105.06
660.919	115.06
661.123	114.06
661.326	112.06
661.53	114.06
661.733	99.06
661.936	98.06
662.14	82.06
662.343	100.06
662.546	83.06
662.75	79.06
662.953	85.06
663.156	87.06
663.36	86.06
663.563	87.06
663.766	94.06
663.969	90.06
664.173	82.06
664.376	86.06
664.579	87.06
664.782	82.06
664.985	83.06
665.188	90.06
665.391	90.06
665.594	97.06
665.797	86.06
666	72.06
666.203	84.06
666.406	83.06
666.609	79.06
666.812	95.06
667.015	76.06
667.218	79.06
667.421	91.06
667.624	84.06
667.827	78.06
668.03	85.06
668.232	89.06
668.435	80.06
668.638	86.06
668.841	65.06
669.043	88.06
669.246	89.06
669.449	99.06
669.651	78.06
669.854	82.06
670.057	77.06
670.259	73.06
670.462	82.06
670.665	80.06
670.867	85.06
671.07	88.06
671.272	89.06
671.475	92.06
671.677	89.06
671.88	77.06
672.082	72.06
672.284	88.06
672.487	95.06
672.689	86.06
672.892	81.06
