Data from NiCl2@0.0625M.TitratingCurve.Agarose3%dH2O.NegLispCup.LampEnergy10.LIBS07252019_HRD10591_18-32-54-576.txt Node
Date: Thu Jul 25 18:32:54 EDT 2019
User: cochatt
Spectrometer: HR+D1059
Trigger mode: 1
Integration Time (sec): 1.000000E-1
Scans to average: 1
Electric dark correction enabled: true
Nonlinearity correction enabled: false
Boxcar width: 0
XAxis mode: Wavelengths
Number of Pixels in Spectrum: 2048
>>>>>Begin Spectral Data<<<<<
223.165	-13.62
223.4	-13.62
223.635	-13.62
223.869	-25.62
224.104	-20.62
224.338	-19.62
224.573	-11.62
224.808	-12.62
225.042	-13.62
225.277	-7.62
225.511	-1.62
225.746	3.38
225.98	2.38
226.215	13.38
226.449	7.38
226.683	30.38
226.918	37.38
227.152	32.38
227.387	33.38
227.621	36.38
227.856	29.38
228.09	33.38
228.324	57.38
228.559	56.38
228.793	78.38
229.027	155.38
229.262	156.38
229.496	146.38
229.73	168.38
229.964	176.38
230.199	194.38
230.433	197.38
230.667	187.38
230.901	190.38
231.136	184.38
231.37	208.38
231.604	207.38
231.838	199.38
232.072	200.38
232.306	211.38
232.541	207.38
232.775	227.38
233.009	236.38
233.243	211.38
233.477	223.38
233.711	211.38
233.945	206.38
234.179	212.38
234.413	226.38
234.647	233.38
234.881	238.38
235.115	222.38
235.349	216.38
235.583	223.38
235.817	223.38
236.051	213.38
236.285	233.38
236.519	235.38
236.753	260.38
236.987	249.38
237.221	241.38
237.455	238.38
237.689	259.38
237.922	246.38
238.156	263.38
238.39	265.38
238.624	242.38
238.858	279.38
239.091	267.38
239.325	260.38
239.559	259.38
239.793	283.38
240.027	298.38
240.26	290.38
240.494	287.38
240.728	296.38
240.961	294.38
241.195	287.38
241.429	312.38
241.662	292.38
241.896	323.38
242.13	298.38
242.363	302.38
242.597	306.38
242.83	332.38
243.064	319.38
243.298	311.38
243.531	322.38
243.765	316.38
243.998	352.38
244.232	349.38
244.465	347.38
244.699	340.38
244.932	343.38
245.166	357.38
245.399	352.38
245.633	354.38
245.866	353.38
246.099	350.38
246.333	361.38
246.566	368.38
246.8	374.38
247.033	380.38
247.266	368.38
247.5	382.38
247.733	378.38
247.966	387.38
248.2	414.38
248.433	422.38
248.666	399.38
248.899	405.38
249.133	414.38
249.366	400.38
249.599	420.38
249.832	423.38
250.066	403.38
250.299	418.38
250.532	434.38
250.765	444.38
250.998	454.38
251.231	442.38
251.465	436.38
251.698	452.38
251.931	449.38
252.164	446.38
252.397	460.38
252.63	461.38
252.863	487.38
253.096	434.38
253.329	492.38
253.562	464.38
253.795	490.38
254.028	500.38
254.261	494.38
254.494	487.38
254.727	462.38
254.96	486.38
255.193	483.38
255.426	478.38
255.659	478.38
255.892	494.38
256.124	506.38
256.357	509.38
256.59	527.38
256.823	515.38
257.056	514.38
257.289	481.38
257.521	534.38
257.754	519.38
257.987	536.38
258.22	540.38
258.452	532.38
258.685	533.38
258.918	539.38
259.151	538.38
259.383	541.38
259.616	539.38
259.849	555.38
260.081	561.38
260.314	556.38
260.547	558.38
260.779	536.38
261.012	568.38
261.244	568.38
261.477	561.38
261.71	592.38
261.942	567.38
262.175	559.38
262.407	593.38
262.64	595.38
262.872	588.38
263.105	590.38
263.337	601.38
263.57	582.38
263.802	595.38
264.035	594.38
264.267	591.38
264.499	619.38
264.732	600.38
264.964	610.38
265.197	610.38
265.429	624.38
265.661	630.38
265.894	634.38
266.126	628.38
266.358	633.38
266.591	636.38
266.823	658.38
267.055	648.38
267.287	639.38
267.52	643.38
267.752	632.38
267.984	658.38
268.216	645.38
268.448	671.38
268.681	663.38
268.913	651.38
269.145	646.38
269.377	670.38
269.609	689.38
269.841	679.38
270.073	682.38
270.306	666.38
270.538	651.38
270.77	671.38
271.002	699.38
271.234	664.38
271.466	695.38
271.698	694.38
271.93	687.38
272.162	709.38
272.394	712.38
272.626	708.38
272.858	726.38
273.09	721.38
273.322	735.38
273.553	735.38
273.785	739.38
274.017	722.38
274.249	744.38
274.481	728.38
274.713	730.38
274.945	752.38
275.176	734.38
275.408	763.38
275.64	769.38
275.872	785.38
276.104	746.38
276.335	747.38
276.567	784.38
276.799	790.38
277.031	814.38
277.262	767.38
277.494	785.38
277.726	803.38
277.957	802.38
278.189	789.38
278.421	752.38
278.652	798.38
278.884	798.38
279.115	814.38
279.347	806.38
279.579	832.38
279.81	819.38
280.042	817.38
280.273	828.38
280.505	820.38
280.736	835.38
280.968	799.38
281.199	838.38
281.431	836.38
281.662	854.38
281.894	850.38
282.125	809.38
282.356	858.38
282.588	842.38
282.819	862.38
283.051	848.38
283.282	849.38
283.513	857.38
283.745	913.38
283.976	879.38
284.207	884.38
284.439	868.38
284.67	910.38
284.901	886.38
285.132	891.38
285.364	888.38
285.595	876.38
285.826	865.38
286.057	895.38
286.288	917.38
286.52	892.38
286.751	920.38
286.982	892.38
287.213	901.38
287.444	918.38
287.675	916.38
287.906	920.38
288.138	953.38
288.369	951.38
288.6	956.38
288.831	951.38
289.062	949.38
289.293	904.38
289.524	954.38
289.755	978.38
289.986	950.38
290.217	951.38
290.448	947.38
290.679	949.38
290.91	971.38
291.141	974.38
291.371	978.38
291.602	958.38
291.833	973.38
292.064	962.38
292.295	953.38
292.526	978.38
292.757	945.38
292.987	945.38
293.218	937.38
293.449	983.38
293.68	967.38
293.91	978.38
294.141	972.38
294.372	966.38
294.603	967.38
294.833	960.38
295.064	959.38
295.295	980.38
295.525	970.38
295.756	982.38
295.987	966.38
296.217	988.38
296.448	990.38
296.679	978.38
296.909	1001.38
297.14	1018.38
297.37	1033.38
297.601	1031.38
297.831	1040.38
298.062	1028.38
298.292	1036.38
298.523	1039.38
298.753	1056.38
298.984	1054.38
299.214	1056.38
299.445	1062.38
299.675	1033.38
299.905	1020.38
300.136	1034.38
300.366	1003.38
300.597	1032.38
300.827	1072.38
301.057	1041.38
301.288	1052.38
301.518	1070.38
301.748	1084.38
301.979	1104.38
302.209	1113.38
302.439	1104.38
302.669	1107.38
302.9	1099.38
303.13	1083.38
303.36	1100.38
303.59	1083.38
303.82	1102.38
304.051	1084.38
304.281	1119.38
304.511	1058.38
304.741	1087.38
304.971	1108.38
305.201	1112.38
305.431	1082.38
305.661	1082.38
305.891	1054.38
306.121	1062.38
306.352	1111.38
306.582	1044.38
306.812	1076.38
307.042	1114.38
307.272	1057.38
307.502	1078.38
307.731	1073.38
307.961	1083.38
308.191	1102.38
308.421	1082.38
308.651	1085.38
308.881	1081.38
309.111	1096.38
309.341	1098.38
309.571	1104.38
309.8	1100.38
310.03	1078.38
310.26	1090.38
310.49	1114.38
310.72	1112.38
310.949	1090.38
311.179	1107.38
311.409	1115.38
311.639	1127.38
311.868	1104.38
312.098	1140.38
312.328	1126.38
312.557	1142.38
312.787	1127.38
313.017	1150.38
313.246	1162.38
313.476	1177.38
313.706	1168.38
313.935	1194.38
314.165	1153.38
314.394	1186.38
314.624	1183.38
314.853	1152.38
315.083	1167.38
315.312	1165.38
315.542	1150.38
315.771	1154.38
316.001	1184.38
316.23	1170.38
316.46	1138.38
316.689	1176.38
316.919	1170.38
317.148	1149.38
317.377	1172.38
317.607	1132.38
317.836	1164.38
318.065	1158.38
318.295	1169.38
318.524	1154.38
318.753	1148.38
318.983	1170.38
319.212	1153.38
319.441	1153.38
319.67	1185.38
319.9	1160.38
320.129	1170.38
320.358	1162.38
320.587	1178.38
320.816	1149.38
321.046	1179.38
321.275	1173.38
321.504	1177.38
321.733	1207.38
321.962	1179.38
322.191	1184.38
322.42	1206.38
322.649	1186.38
322.878	1210.38
323.108	1161.38
323.337	1198.38
323.566	1168.38
323.795	1202.38
324.024	1182.38
324.253	1210.38
324.482	1228.38
324.71	1194.38
324.939	1210.38
325.168	1228.38
325.397	1222.38
325.626	1225.38
325.855	1266.38
326.084	1266.38
326.313	1235.38
326.542	1246.38
326.77	1252.38
326.999	1240.38
327.228	1245.38
327.457	1240.38
327.686	1252.38
327.914	1242.38
328.143	1243.38
328.372	1243.38
328.6	1263.38
328.829	1262.38
329.058	1270.38
329.287	1294.38
329.515	1297.38
329.744	1281.38
329.972	1307.38
330.201	1284.38
330.43	1330.38
330.658	1283.38
330.887	1327.38
331.115	1330.38
331.344	1335.38
331.572	1328.38
331.801	1358.38
332.03	1416.38
332.258	1402.38
332.486	1406.38
332.715	1451.38
332.943	1480.38
333.172	1507.38
333.4	1593.38
333.629	1606.38
333.857	1627.38
334.085	1635.38
334.314	1650.38
334.542	1599.38
334.771	1584.38
334.999	1583.38
335.227	1586.38
335.455	1562.38
335.684	1574.38
335.912	1561.38
336.14	1585.38
336.369	1548.38
336.597	1556.38
336.825	1519.38
337.053	1477.38
337.281	1490.38
337.51	1494.38
337.738	1488.38
337.966	1442.38
338.194	1445.38
338.422	1414.38
338.65	1393.38
338.878	1394.38
339.106	1394.38
339.334	1385.38
339.562	1385.38
339.79	1360.38
340.018	1329.38
340.246	1323.38
340.474	1329.38
340.702	1312.38
340.93	1336.38
341.158	1339.38
341.386	1332.38
341.614	1333.38
341.842	1321.38
342.07	1315.38
342.298	1323.38
342.526	1337.38
342.754	1326.38
342.981	1332.38
343.209	1344.38
343.437	1423.38
343.665	1460.38
343.893	1504.38
344.12	1572.38
344.348	1531.38
344.576	1500.38
344.804	1481.38
345.031	1397.38
345.259	1383.38
345.487	1374.38
345.714	1315.38
345.942	1319.38
346.17	1318.38
346.397	1298.38
346.625	1312.38
346.853	1262.38
347.08	1283.38
347.308	1262.38
347.535	1306.38
347.763	1295.38
347.99	1307.38
348.218	1291.38
348.445	1299.38
348.673	1263.38
348.9	1293.38
349.128	1296.38
349.355	1258.38
349.583	1231.38
349.81	1259.38
350.037	1248.38
350.265	1238.38
350.492	1243.38
350.72	1239.38
350.947	1208.38
351.174	1267.38
351.402	1248.38
351.629	1246.38
351.856	1240.38
352.083	1236.38
352.311	1216.38
352.538	1234.38
352.765	1205.38
352.992	1218.38
353.22	1222.38
353.447	1212.38
353.674	1216.38
353.901	1229.38
354.128	1223.38
354.355	1216.38
354.583	1160.38
354.81	1249.38
355.037	1247.38
355.264	1223.38
355.491	1254.38
355.718	1236.38
355.945	1230.38
356.172	1237.38
356.399	1231.38
356.626	1242.38
356.853	1241.38
357.08	1262.38
357.307	1222.38
357.534	1247.38
357.761	1271.38
357.988	1247.38
358.215	1219.38
358.441	1255.38
358.668	1225.38
358.895	1233.38
359.122	1232.38
359.349	1236.38
359.576	1222.38
359.802	1222.38
360.029	1231.38
360.256	1238.38
360.483	1243.38
360.709	1248.38
360.936	1235.38
361.163	1239.38
361.39	1240.38
361.616	1227.38
361.843	1246.38
362.07	1238.38
362.296	1240.38
362.523	1232.38
362.749	1219.38
362.976	1218.38
363.203	1231.38
363.429	1246.38
363.656	1223.38
363.882	1274.38
364.109	1240.38
364.335	1243.38
364.562	1242.38
364.788	1227.38
365.015	1216.38
365.241	1234.38
365.468	1174.38
365.694	1247.38
365.92	1247.38
366.147	1248.38
366.373	1241.38
366.599	1228.38
366.826	1228.38
367.052	1196.38
367.278	1249.38
367.505	1255.38
367.731	1279.38
367.957	1276.38
368.184	1271.38
368.41	1253.38
368.636	1232.38
368.862	1270.38
369.089	1307.38
369.315	1291.38
369.541	1266.38
369.767	1264.38
369.993	1291.38
370.219	1259.38
370.445	1326.38
370.672	1319.38
370.898	1310.38
371.124	1347.38
371.35	1323.38
371.576	1375.38
371.802	1362.38
372.028	1373.38
372.254	1392.38
372.48	1350.38
372.706	1359.38
372.932	1382.38
373.158	1356.38
373.384	1381.38
373.61	1356.38
373.835	1354.38
374.061	1339.38
374.287	1369.38
374.513	1374.38
374.739	1410.38
374.965	1446.38
375.191	1457.38
375.416	1440.38
375.642	1479.38
375.868	1410.38
376.094	1404.38
376.319	1382.38
376.545	1367.38
376.771	1371.38
376.997	1330.38
377.222	1313.38
377.448	1321.38
377.674	1352.38
377.899	1308.38
378.125	1328.38
378.35	1322.38
378.576	1310.38
378.802	1334.38
379.027	1322.38
379.253	1331.38
379.478	1319.38
379.704	1324.38
379.929	1343.38
380.155	1331.38
380.38	1314.38
380.606	1322.38
380.831	1322.38
381.057	1348.38
381.282	1328.38
381.507	1337.38
381.733	1333.38
381.958	1354.38
382.184	1340.38
382.409	1389.38
382.634	1402.38
382.86	1409.38
383.085	1412.38
383.31	1434.38
383.535	1435.38
383.761	1460.38
383.986	1482.38
384.211	1543.38
384.436	1506.38
384.662	1527.38
384.887	1527.38
385.112	1577.38
385.337	1576.38
385.562	1571.38
385.787	1578.38
386.013	1595.38
386.238	1630.38
386.463	1643.38
386.688	1642.38
386.913	1599.38
387.138	1622.38
387.363	1573.38
387.588	1619.38
387.813	1594.38
388.038	1564.38
388.263	1579.38
388.488	1598.38
388.713	1594.38
388.938	1635.38
389.163	1560.38
389.387	1566.38
389.612	1578.38
389.837	1560.38
390.062	1547.38
390.287	1589.38
390.512	1576.38
390.736	1587.38
390.961	1638.38
391.186	1602.38
391.411	1701.38
391.636	1722.38
391.86	1739.38
392.085	1784.38
392.31	1751.38
392.534	1737.38
392.759	1694.38
392.984	1711.38
393.208	1733.38
393.433	1706.38
393.658	1761.38
393.882	1680.38
394.107	1686.38
394.331	1686.38
394.556	1674.38
394.78	1716.38
395.005	1714.38
395.229	1695.38
395.454	1761.38
395.678	1784.38
395.903	1816.38
396.127	1784.38
396.352	1706.38
396.576	1705.38
396.801	1714.38
397.025	1806.38
397.249	1787.38
397.474	1829.38
397.698	1804.38
397.922	1810.38
398.147	1795.38
398.371	1823.38
398.595	1903.38
398.82	1983.38
399.044	2075.38
399.268	2224.38
399.492	2460.38
399.717	2738.38
399.941	2721.38
400.165	2507.38
400.389	2420.38
400.613	2213.38
400.837	2143.38
401.062	2044.38
401.286	2022.38
401.51	1989.38
401.734	1967.38
401.958	2002.38
402.182	1979.38
402.406	2008.38
402.63	1973.38
402.854	2037.38
403.078	2057.38
403.302	2082.38
403.526	2133.38
403.75	2114.38
403.974	2194.38
404.198	2135.38
404.422	2152.38
404.645	2170.38
404.869	2148.38
405.093	2164.38
405.317	2101.38
405.541	2142.38
405.765	2161.38
405.988	2150.38
406.212	2151.38
406.436	2124.38
406.66	2212.38
406.883	2235.38
407.107	2340.38
407.331	2437.38
407.555	2436.38
407.778	2491.38
408.002	2405.38
408.226	2378.38
408.449	2303.38
408.673	2247.38
408.896	2222.38
409.12	2186.38
409.344	2225.38
409.567	2151.38
409.791	2228.38
410.014	2160.38
410.238	2163.38
410.461	2145.38
410.685	2119.38
410.908	2102.38
411.132	2107.38
411.355	2070.38
411.578	2024.38
411.802	2050.38
412.025	2088.38
412.249	2123.38
412.472	2071.38
412.695	2030.38
412.919	2023.38
413.142	2008.38
413.365	1985.38
413.589	2016.38
413.812	1976.38
414.035	1983.38
414.258	1936.38
414.482	1963.38
414.705	1974.38
414.928	1934.38
415.151	2017.38
415.374	2042.38
415.597	1951.38
415.821	1895.38
416.044	1950.38
416.267	1890.38
416.49	1916.38
416.713	1930.38
416.936	1904.38
417.159	1881.38
417.382	1862.38
417.605	1920.38
417.828	1872.38
418.051	1920.38
418.274	1913.38
418.497	1873.38
418.72	1933.38
418.943	1918.38
419.166	2088.38
419.389	2180.38
419.611	2151.38
419.834	2085.38
420.057	2013.38
420.28	1932.38
420.503	1910.38
420.726	1882.38
420.948	1932.38
421.171	1854.38
421.394	1904.38
421.617	1873.38
421.839	1926.38
422.062	1907.38
422.285	1878.38
422.507	1939.38
422.73	1928.38
422.953	1923.38
423.175	1918.38
423.398	1958.38
423.621	1933.38
423.843	1984.38
424.066	1968.38
424.288	1991.38
424.511	1953.38
424.733	1880.38
424.956	1894.38
425.178	1887.38
425.401	1883.38
425.623	1942.38
425.846	1867.38
426.068	1901.38
426.291	1852.38
426.513	1880.38
426.735	1830.38
426.958	1831.38
427.18	1808.38
427.402	1820.38
427.625	1808.38
427.847	1729.38
428.069	1739.38
428.292	1771.38
428.514	1715.38
428.736	1696.38
428.958	1753.38
429.181	1725.38
429.403	1693.38
429.625	1710.38
429.847	1707.38
430.069	1692.38
430.292	1664.38
430.514	1701.38
430.736	1690.38
430.958	1699.38
431.18	1687.38
431.402	1752.38
431.624	1753.38
431.846	1762.38
432.068	1739.38
432.29	1776.38
432.512	1738.38
432.734	1719.38
432.956	1758.38
433.178	1738.38
433.4	1720.38
433.622	1750.38
433.844	1765.38
434.066	1763.38
434.287	1826.38
434.509	1846.38
434.731	1859.38
434.953	1919.38
435.175	1959.38
435.397	1909.38
435.618	1874.38
435.84	1830.38
436.062	1767.38
436.284	1723.38
436.505	1723.38
436.727	1733.38
436.949	1708.38
437.17	1748.38
437.392	1722.38
437.614	1692.38
437.835	1678.38
438.057	1670.38
438.278	1626.38
438.5	1622.38
438.721	1609.38
438.943	1669.38
439.165	1627.38
439.386	1664.38
439.608	1659.38
439.829	1688.38
440.05	1687.38
440.272	1695.38
440.493	1745.38
440.715	1739.38
440.936	1724.38
441.158	1764.38
441.379	1818.38
441.6	1889.38
441.822	1899.38
442.043	1906.38
442.264	1866.38
442.486	1824.38
442.707	1862.38
442.928	1853.38
443.149	1849.38
443.371	1826.38
443.592	1877.38
443.813	1854.38
444.034	1893.38
444.255	1954.38
444.476	1984.38
444.698	2068.38
444.919	2115.38
445.14	2220.38
445.361	2034.38
445.582	1918.38
445.803	1871.38
446.024	1823.38
446.245	1820.38
446.466	1781.38
446.687	1720.38
446.908	1717.38
447.129	1662.38
447.35	1661.38
447.571	1661.38
447.792	1594.38
448.013	1620.38
448.234	1603.38
448.455	1568.38
448.675	1587.38
448.896	1575.38
449.117	1538.38
449.338	1522.38
449.559	1549.38
449.779	1509.38
450	1518.38
450.221	1524.38
450.442	1546.38
450.662	1548.38
450.883	1560.38
451.104	1560.38
451.324	1554.38
451.545	1558.38
451.766	1533.38
451.986	1544.38
452.207	1553.38
452.428	1556.38
452.648	1512.38
452.869	1505.38
453.089	1482.38
453.31	1496.38
453.53	1493.38
453.751	1495.38
453.971	1477.38
454.192	1472.38
454.412	1466.38
454.633	1471.38
454.853	1461.38
455.073	1457.38
455.294	1445.38
455.514	1451.38
455.734	1465.38
455.955	1429.38
456.175	1461.38
456.395	1444.38
456.616	1418.38
456.836	1424.38
457.056	1451.38
457.276	1401.38
457.497	1464.38
457.717	1422.38
457.937	1458.38
458.157	1508.38
458.377	1523.38
458.598	1524.38
458.818	1571.38
459.038	1630.38
459.258	1674.38
459.478	1697.38
459.698	1737.38
459.918	1763.38
460.138	1825.38
460.358	1890.38
460.578	1899.38
460.798	1955.38
461.018	1975.38
461.238	1938.38
461.458	1921.38
461.678	1964.38
461.898	1970.38
462.118	2019.38
462.338	2055.38
462.558	2118.38
462.777	2135.38
462.997	2344.38
463.217	2472.38
463.437	2484.38
463.657	2306.38
463.876	2273.38
464.096	2246.38
464.316	2190.38
464.536	2204.38
464.755	2194.38
464.975	2120.38
465.195	2023.38
465.414	1940.38
465.634	1830.38
465.854	1781.38
466.073	1761.38
466.293	1672.38
466.512	1680.38
466.732	1661.38
466.951	1654.38
467.171	1619.38
467.391	1686.38
467.61	1612.38
467.829	1585.38
468.049	1593.38
468.268	1568.38
468.488	1596.38
468.707	1554.38
468.927	1549.38
469.146	1562.38
469.365	1612.38
469.585	1585.38
469.804	1622.38
470.023	1642.38
470.243	1659.38
470.462	1656.38
470.681	1624.38
470.901	1698.38
471.12	1641.38
471.339	1637.38
471.558	1625.38
471.777	1612.38
471.997	1592.38
472.216	1581.38
472.435	1562.38
472.654	1551.38
472.873	1554.38
473.092	1555.38
473.311	1574.38
473.53	1570.38
473.749	1560.38
473.968	1578.38
474.187	1576.38
474.406	1576.38
474.625	1566.38
474.844	1528.38
475.063	1557.38
475.282	1585.38
475.501	1579.38
475.72	1588.38
475.939	1624.38
476.158	1643.38
476.377	1638.38
476.596	1608.38
476.814	1684.38
477.033	1659.38
477.252	1712.38
477.471	1743.38
477.69	1765.38
477.908	1785.38
478.127	1842.38
478.346	1815.38
478.564	1887.38
478.783	1882.38
479.002	1966.38
479.22	1973.38
479.439	2003.38
479.658	1919.38
479.876	1978.38
480.095	2000.38
480.313	2043.38
480.532	2027.38
480.751	2084.38
480.969	2019.38
481.188	1998.38
481.406	1947.38
481.624	1882.38
481.843	1923.38
482.061	1891.38
482.28	1869.38
482.498	1892.38
482.717	1874.38
482.935	1856.38
483.153	1877.38
483.372	1875.38
483.59	1915.38
483.808	1881.38
484.027	1879.38
484.245	1930.38
484.463	1947.38
484.681	2006.38
484.9	1994.38
485.118	2021.38
485.336	2021.38
485.554	2004.38
485.772	2008.38
485.99	2042.38
486.209	2018.38
486.427	2032.38
486.645	2028.38
486.863	1999.38
487.081	1993.38
487.299	1991.38
487.517	1983.38
487.735	2014.38
487.953	1999.38
488.171	1973.38
488.389	1986.38
488.607	2004.38
488.825	1994.38
489.043	1986.38
489.261	1908.38
489.479	1977.38
489.696	1948.38
489.914	1960.38
490.132	1975.38
490.35	1967.38
490.568	1990.38
490.786	1959.38
491.003	1938.38
491.221	1959.38
491.439	1945.38
491.657	1927.38
491.874	1972.38
492.092	1929.38
492.31	1962.38
492.527	2003.38
492.745	1942.38
492.963	1922.38
493.18	1994.38
493.398	1979.38
493.615	1966.38
493.833	1958.38
494.05	1988.38
494.268	2000.38
494.485	2024.38
494.703	1968.38
494.92	2057.38
495.138	2014.38
495.355	2038.38
495.573	2030.38
495.79	2035.38
496.008	2072.38
496.225	2055.38
496.442	2051.38
496.66	2124.38
496.877	2114.38
497.094	2149.38
497.312	2214.38
497.529	2212.38
497.746	2259.38
497.963	2309.38
498.181	2441.38
498.398	2503.38
498.615	2642.38
498.832	2795.38
499.049	2947.38
499.267	3132.38
499.484	3385.38
499.701	3682.38
499.918	3992.38
500.135	4451.38
500.352	4812.38
500.569	4968.38
500.786	4963.38
501.003	4659.38
501.22	4306.38
501.437	3956.38
501.654	3612.38
501.871	3323.38
502.088	3084.38
502.305	2936.38
502.522	2801.38
502.739	2679.38
502.956	2520.38
503.172	2451.38
503.389	2354.38
503.606	2280.38
503.823	2250.38
504.04	2243.38
504.256	2258.38
504.473	2257.38
504.69	2287.38
504.907	2226.38
505.123	2125.38
505.34	2006.38
505.557	1931.38
505.773	1904.38
505.99	1881.38
506.207	1832.38
506.423	1836.38
506.64	1799.38
506.856	1774.38
507.073	1756.38
507.289	1781.38
507.506	1746.38
507.722	1691.38
507.939	1666.38
508.155	1643.38
508.372	1644.38
508.588	1658.38
508.805	1639.38
509.021	1649.38
509.238	1638.38
509.454	1616.38
509.67	1587.38
509.887	1546.38
510.103	1564.38
510.319	1586.38
510.536	1592.38
510.752	1552.38
510.968	1575.38
511.184	1604.38
511.401	1537.38
511.617	1564.38
511.833	1548.38
512.049	1536.38
512.265	1559.38
512.481	1570.38
512.698	1552.38
512.914	1537.38
513.13	1543.38
513.346	1523.38
513.562	1564.38
513.778	1544.38
513.994	1578.38
514.21	1516.38
514.426	1566.38
514.642	1569.38
514.858	1598.38
515.074	1625.38
515.29	1600.38
515.506	1627.38
515.721	1649.38
515.937	1678.38
516.153	1721.38
516.369	1721.38
516.585	1748.38
516.801	1786.38
517.016	1872.38
517.232	1895.38
517.448	1975.38
517.664	2071.38
517.879	2028.38
518.095	2046.38
518.311	1964.38
518.527	1944.38
518.742	1909.38
518.958	1824.38
519.173	1757.38
519.389	1719.38
519.605	1680.38
519.82	1667.38
520.036	1608.38
520.251	1574.38
520.467	1615.38
520.682	1562.38
520.898	1577.38
521.113	1495.38
521.329	1520.38
521.544	1495.38
521.76	1498.38
521.975	1478.38
522.19	1480.38
522.406	1488.38
522.621	1488.38
522.836	1447.38
523.052	1452.38
523.267	1452.38
523.482	1405.38
523.698	1429.38
523.913	1439.38
524.128	1409.38
524.343	1429.38
524.559	1435.38
524.774	1395.38
524.989	1421.38
525.204	1403.38
525.419	1394.38
525.634	1394.38
525.849	1415.38
526.064	1406.38
526.28	1383.38
526.495	1366.38
526.71	1338.38
526.925	1361.38
527.14	1370.38
527.355	1356.38
527.57	1376.38
527.785	1359.38
527.999	1348.38
528.214	1373.38
528.429	1351.38
528.644	1348.38
528.859	1412.38
529.074	1390.38
529.289	1350.38
529.503	1383.38
529.718	1366.38
529.933	1362.38
530.148	1347.38
530.363	1315.38
530.577	1318.38
530.792	1349.38
531.007	1378.38
531.221	1336.38
531.436	1349.38
531.651	1353.38
531.865	1361.38
532.08	1358.38
532.295	1359.38
532.509	1337.38
532.724	1340.38
532.938	1316.38
533.153	1354.38
533.367	1364.38
533.582	1358.38
533.796	1337.38
534.011	1318.38
534.225	1310.38
534.44	1332.38
534.654	1330.38
534.868	1316.38
535.083	1316.38
535.297	1321.38
535.511	1324.38
535.726	1305.38
535.94	1353.38
536.154	1288.38
536.369	1262.38
536.583	1255.38
536.797	1241.38
537.011	1242.38
537.225	1278.38
537.44	1288.38
537.654	1264.38
537.868	1255.38
538.082	1235.38
538.296	1226.38
538.51	1252.38
538.724	1217.38
538.938	1219.38
539.153	1217.38
539.367	1211.38
539.581	1247.38
539.795	1228.38
540.009	1210.38
540.222	1209.38
540.436	1231.38
540.65	1189.38
540.864	1195.38
541.078	1210.38
541.292	1196.38
541.506	1210.38
541.72	1220.38
541.934	1191.38
542.147	1212.38
542.361	1192.38
542.575	1172.38
542.789	1154.38
543.002	1134.38
543.216	1178.38
543.43	1164.38
543.644	1162.38
543.857	1189.38
544.071	1182.38
544.285	1183.38
544.498	1193.38
544.712	1165.38
544.925	1193.38
545.139	1205.38
545.352	1194.38
545.566	1210.38
545.779	1211.38
545.993	1180.38
546.206	1208.38
546.42	1182.38
546.633	1222.38
546.847	1224.38
547.06	1209.38
547.274	1201.38
547.487	1215.38
547.7	1190.38
547.914	1184.38
548.127	1211.38
548.34	1233.38
548.554	1213.38
548.767	1219.38
548.98	1216.38
549.193	1246.38
549.407	1223.38
549.62	1212.38
549.833	1263.38
550.046	1234.38
550.259	1172.38
550.473	1180.38
550.686	1223.38
550.899	1218.38
551.112	1166.38
551.325	1176.38
551.538	1211.38
551.751	1178.38
551.964	1193.38
552.177	1222.38
552.39	1262.38
552.603	1243.38
552.816	1273.38
553.029	1300.38
553.242	1302.38
553.455	1278.38
553.667	1322.38
553.88	1263.38
554.093	1247.38
554.306	1224.38
554.519	1194.38
554.732	1201.38
554.944	1170.38
555.157	1165.38
555.37	1134.38
555.583	1119.38
555.795	1087.38
556.008	1110.38
556.221	1078.38
556.433	1094.38
556.646	1090.38
556.859	1057.38
557.071	1064.38
557.284	1071.38
557.496	1035.38
557.709	1040.38
557.921	991.38
558.134	1037.38
558.346	1012.38
558.559	1042.38
558.771	1010.38
558.984	998.38
559.196	982.38
559.409	995.38
559.621	1006.38
559.833	1007.38
560.046	991.38
560.258	996.38
560.47	986.38
560.683	972.38
560.895	955.38
561.107	966.38
561.32	987.38
561.532	966.38
561.744	1007.38
561.956	969.38
562.168	992.38
562.381	990.38
562.593	1011.38
562.805	1002.38
563.017	1006.38
563.229	989.38
563.441	1020.38
563.653	1058.38
563.865	1035.38
564.077	1026.38
564.289	1051.38
564.501	1061.38
564.713	1084.38
564.925	1117.38
565.137	1087.38
565.349	1114.38
565.561	1172.38
565.773	1175.38
565.985	1233.38
566.197	1280.38
566.408	1364.38
566.62	1449.38
566.832	1502.38
567.044	1501.38
567.255	1552.38
567.467	1617.38
567.679	1653.38
567.891	1710.38
568.102	1721.38
568.314	1668.38
568.526	1500.38
568.737	1429.38
568.949	1332.38
569.161	1240.38
569.372	1172.38
569.584	1116.38
569.795	1104.38
570.007	1069.38
570.218	1025.38
570.43	1033.38
570.641	1001.38
570.853	1024.38
571.064	1014.38
571.276	1003.38
571.487	991.38
571.698	954.38
571.91	918.38
572.121	900.38
572.333	891.38
572.544	870.38
572.755	866.38
572.966	851.38
573.178	854.38
573.389	823.38
573.6	839.38
573.811	825.38
574.023	826.38
574.234	819.38
574.445	801.38
574.656	798.38
574.867	832.38
575.078	824.38
575.289	792.38
575.501	777.38
575.712	792.38
575.923	761.38
576.134	786.38
576.345	797.38
576.556	728.38
576.767	764.38
576.978	766.38
577.188	750.38
577.399	743.38
577.61	732.38
577.821	721.38
578.032	721.38
578.243	731.38
578.454	727.38
578.665	717.38
578.875	739.38
579.086	694.38
579.297	706.38
579.508	728.38
579.718	715.38
579.929	726.38
580.14	716.38
580.35	697.38
580.561	688.38
580.772	686.38
580.982	704.38
581.193	684.38
581.403	702.38
581.614	659.38
581.825	668.38
582.035	671.38
582.246	657.38
582.456	690.38
582.667	701.38
582.877	672.38
583.087	660.38
583.298	660.38
583.508	692.38
583.719	675.38
583.929	668.38
584.139	654.38
584.35	650.38
584.56	668.38
584.77	671.38
584.981	651.38
585.191	663.38
585.401	651.38
585.611	658.38
585.821	650.38
586.032	644.38
586.242	653.38
586.452	658.38
586.662	643.38
586.872	635.38
587.082	659.38
587.292	643.38
587.502	652.38
587.713	632.38
587.923	633.38
588.133	636.38
588.343	647.38
588.553	646.38
588.762	626.38
588.972	641.38
589.182	680.38
589.392	649.38
589.602	634.38
589.812	648.38
590.022	636.38
590.232	640.38
590.441	641.38
590.651	671.38
590.861	661.38
591.071	663.38
591.281	664.38
591.49	672.38
591.7	708.38
591.91	684.38
592.119	694.38
592.329	704.38
592.539	717.38
592.748	733.38
592.958	758.38
593.167	756.38
593.377	728.38
593.587	769.38
593.796	766.38
594.006	784.38
594.215	757.38
594.424	791.38
594.634	766.38
594.843	756.38
595.053	721.38
595.262	712.38
595.472	691.38
595.681	670.38
595.89	662.38
596.1	660.38
596.309	607.38
596.518	610.38
596.727	632.38
596.937	604.38
597.146	597.38
597.355	585.38
597.564	570.38
597.774	579.38
597.983	572.38
598.192	562.38
598.401	541.38
598.61	557.38
598.819	537.38
599.028	538.38
599.237	549.38
599.446	562.38
599.655	560.38
599.864	507.38
600.073	551.38
600.282	541.38
600.491	525.38
600.7	542.38
600.909	526.38
601.118	517.38
601.327	550.38
601.536	504.38
601.745	524.38
601.953	519.38
602.162	506.38
602.371	512.38
602.58	489.38
602.789	510.38
602.997	504.38
603.206	519.38
603.415	500.38
603.623	498.38
603.832	500.38
604.041	491.38
604.249	480.38
604.458	496.38
604.666	477.38
604.875	471.38
605.084	469.38
605.292	488.38
605.501	511.38
605.709	478.38
605.918	474.38
606.126	474.38
606.334	490.38
606.543	481.38
606.751	487.38
606.96	466.38
607.168	478.38
607.376	474.38
607.585	486.38
607.793	475.38
608.001	456.38
608.21	470.38
608.418	463.38
608.626	470.38
608.834	460.38
609.043	471.38
609.251	467.38
609.459	478.38
609.667	467.38
609.875	463.38
610.083	446.38
610.291	440.38
610.499	462.38
610.707	459.38
610.916	474.38
611.124	492.38
611.332	447.38
611.54	429.38
611.748	459.38
611.955	451.38
612.163	452.38
612.371	457.38
612.579	427.38
612.787	460.38
612.995	447.38
613.203	467.38
613.411	457.38
613.618	442.38
613.826	441.38
614.034	448.38
614.242	437.38
614.449	428.38
614.657	438.38
614.865	432.38
615.072	447.38
615.28	411.38
615.488	430.38
615.695	441.38
615.903	441.38
616.111	435.38
616.318	479.38
616.526	455.38
616.733	447.38
616.941	427.38
617.148	436.38
617.356	443.38
617.563	439.38
617.771	448.38
617.978	438.38
618.185	442.38
618.393	430.38
618.6	469.38
618.807	442.38
619.015	426.38
619.222	441.38
619.429	418.38
619.637	430.38
619.844	437.38
620.051	416.38
620.258	448.38
620.466	412.38
620.673	418.38
620.88	396.38
621.087	408.38
621.294	411.38
621.501	403.38
621.708	410.38
621.915	395.38
622.122	414.38
622.329	410.38
622.536	418.38
622.743	418.38
622.95	392.38
623.157	400.38
623.364	404.38
623.571	396.38
623.778	392.38
623.985	387.38
624.192	397.38
624.399	385.38
624.606	371.38
624.812	383.38
625.019	368.38
625.226	397.38
625.433	386.38
625.639	375.38
625.846	371.38
626.053	381.38
626.259	376.38
626.466	373.38
626.673	366.38
626.879	387.38
627.086	380.38
627.293	376.38
627.499	362.38
627.706	374.38
627.912	372.38
628.119	381.38
628.325	366.38
628.532	349.38
628.738	371.38
628.945	353.38
629.151	369.38
629.357	340.38
629.564	359.38
629.77	360.38
629.976	361.38
630.183	348.38
630.389	348.38
630.595	336.38
630.802	346.38
631.008	332.38
631.214	342.38
631.42	342.38
631.627	346.38
631.833	330.38
632.039	336.38
632.245	325.38
632.451	332.38
632.657	352.38
632.863	323.38
633.069	326.38
633.275	324.38
633.481	314.38
633.688	325.38
633.893	328.38
634.099	326.38
634.305	343.38
634.511	342.38
634.717	319.38
634.923	307.38
635.129	340.38
635.335	319.38
635.541	313.38
635.747	319.38
635.952	306.38
636.158	312.38
636.364	323.38
636.57	320.38
636.775	310.38
636.981	304.38
637.187	308.38
637.392	310.38
637.598	314.38
637.804	305.38
638.009	309.38
638.215	309.38
638.421	313.38
638.626	308.38
638.832	313.38
639.037	290.38
639.243	289.38
639.448	307.38
639.654	305.38
639.859	315.38
640.065	299.38
640.27	300.38
640.475	297.38
640.681	294.38
640.886	296.38
641.091	284.38
641.297	307.38
641.502	302.38
641.707	311.38
641.913	300.38
642.118	278.38
642.323	282.38
642.528	314.38
642.733	283.38
642.939	284.38
643.144	302.38
643.349	287.38
643.554	295.38
643.759	295.38
643.964	291.38
644.169	297.38
644.374	300.38
644.579	316.38
644.784	282.38
644.989	306.38
645.194	272.38
645.399	293.38
645.604	290.38
645.809	287.38
646.014	298.38
646.219	292.38
646.423	287.38
646.628	304.38
646.833	315.38
647.038	295.38
647.243	313.38
647.447	318.38
647.652	315.38
647.857	326.38
648.062	328.38
648.266	325.38
648.471	326.38
648.676	311.38
648.88	320.38
649.085	303.38
649.289	306.38
649.494	319.38
649.698	318.38
649.903	312.38
650.107	310.38
650.312	315.38
650.516	297.38
650.721	288.38
650.925	281.38
651.13	305.38
651.334	276.38
651.539	308.38
651.743	304.38
651.947	266.38
652.152	282.38
652.356	283.38
652.56	294.38
652.764	294.38
652.969	280.38
653.173	282.38
653.377	268.38
653.581	304.38
653.785	277.38
653.99	298.38
654.194	302.38
654.398	288.38
654.602	292.38
654.806	298.38
655.01	314.38
655.214	298.38
655.418	297.38
655.622	308.38
655.826	328.38
656.03	331.38
656.234	354.38
656.438	362.38
656.642	364.38
656.846	339.38
657.049	323.38
657.253	281.38
657.457	274.38
657.661	238.38
657.865	233.38
658.068	227.38
658.272	204.38
658.476	188.38
658.68	176.38
658.883	182.38
659.087	159.38
659.291	140.38
659.494	144.38
659.698	132.38
659.901	134.38
660.105	136.38
660.309	135.38
660.512	123.38
660.716	114.38
660.919	112.38
661.123	114.38
661.326	104.38
661.53	116.38
661.733	92.38
661.936	113.38
662.14	113.38
662.343	90.38
662.546	87.38
662.75	93.38
662.953	88.38
663.156	88.38
663.36	76.38
663.563	102.38
663.766	90.38
663.969	84.38
664.173	74.38
664.376	74.38
664.579	82.38
664.782	59.38
664.985	88.38
665.188	79.38
665.391	87.38
665.594	84.38
665.797	82.38
666	87.38
666.203	84.38
666.406	75.38
666.609	77.38
666.812	86.38
667.015	74.38
667.218	89.38
667.421	85.38
667.624	82.38
667.827	83.38
668.03	80.38
668.232	86.38
668.435	84.38
668.638	72.38
668.841	90.38
669.043	87.38
669.246	89.38
669.449	92.38
669.651	88.38
669.854	82.38
670.057	91.38
670.259	80.38
670.462	78.38
670.665	73.38
670.867	81.38
671.07	83.38
671.272	92.38
671.475	89.38
671.677	84.38
671.88	83.38
672.082	73.38
672.284	83.38
672.487	87.38
672.689	84.38
672.892	94.38
