Data from NiCl2@0.25M.TitratingCurve.Agarose3%dH2O.NegLispCup.LampEnergy10.LIBS07252019_HRD10591_18-24-35-573.txt Node
Date: Thu Jul 25 18:24:35 EDT 2019
User: cochatt
Spectrometer: HR+D1059
Trigger mode: 1
Integration Time (sec): 1.000000E-1
Scans to average: 1
Electric dark correction enabled: true
Nonlinearity correction enabled: false
Boxcar width: 0
XAxis mode: Wavelengths
Number of Pixels in Spectrum: 2048
>>>>>Begin Spectral Data<<<<<
223.165	-19.31
223.4	-19.31
223.635	-19.31
223.869	-21.31
224.104	-26.31
224.338	-23.31
224.573	-13.31
224.808	-21.31
225.042	-11.31
225.277	-12.31
225.511	9.69
225.746	23.69
225.98	9.69
226.215	12.69
226.449	20.69
226.683	23.69
226.918	15.69
227.152	32.69
227.387	29.69
227.621	47.69
227.856	38.69
228.09	54.69
228.324	57.69
228.559	69.69
228.793	60.69
229.027	107.69
229.262	128.69
229.496	130.69
229.73	133.69
229.964	133.69
230.199	141.69
230.433	137.69
230.667	144.69
230.901	143.69
231.136	144.69
231.37	158.69
231.604	161.69
231.838	165.69
232.072	157.69
232.306	159.69
232.541	162.69
232.775	154.69
233.009	161.69
233.243	148.69
233.477	152.69
233.711	156.69
233.945	162.69
234.179	156.69
234.413	165.69
234.647	160.69
234.881	164.69
235.115	156.69
235.349	139.69
235.583	177.69
235.817	166.69
236.051	150.69
236.285	174.69
236.519	171.69
236.753	169.69
236.987	177.69
237.221	164.69
237.455	193.69
237.689	178.69
237.922	183.69
238.156	170.69
238.39	181.69
238.624	196.69
238.858	190.69
239.091	188.69
239.325	177.69
239.559	186.69
239.793	197.69
240.027	180.69
240.26	195.69
240.494	210.69
240.728	196.69
240.961	189.69
241.195	202.69
241.429	197.69
241.662	201.69
241.896	215.69
242.13	218.69
242.363	212.69
242.597	218.69
242.83	210.69
243.064	201.69
243.298	228.69
243.531	221.69
243.765	233.69
243.998	217.69
244.232	222.69
244.465	236.69
244.699	248.69
244.932	233.69
245.166	233.69
245.399	245.69
245.633	246.69
245.866	266.69
246.099	244.69
246.333	240.69
246.566	247.69
246.8	258.69
247.033	248.69
247.266	255.69
247.5	246.69
247.733	264.69
247.966	246.69
248.2	259.69
248.433	269.69
248.666	259.69
248.899	265.69
249.133	264.69
249.366	269.69
249.599	285.69
249.832	273.69
250.066	274.69
250.299	284.69
250.532	298.69
250.765	280.69
250.998	279.69
251.231	306.69
251.465	297.69
251.698	290.69
251.931	297.69
252.164	299.69
252.397	291.69
252.63	287.69
252.863	316.69
253.096	282.69
253.329	301.69
253.562	315.69
253.795	298.69
254.028	317.69
254.261	313.69
254.494	301.69
254.727	316.69
254.96	309.69
255.193	334.69
255.426	320.69
255.659	298.69
255.892	310.69
256.124	329.69
256.357	330.69
256.59	328.69
256.823	321.69
257.056	350.69
257.289	333.69
257.521	324.69
257.754	334.69
257.987	339.69
258.22	334.69
258.452	346.69
258.685	350.69
258.918	348.69
259.151	331.69
259.383	345.69
259.616	362.69
259.849	345.69
260.081	359.69
260.314	348.69
260.547	344.69
260.779	349.69
261.012	365.69
261.244	359.69
261.477	366.69
261.71	365.69
261.942	344.69
262.175	369.69
262.407	378.69
262.64	357.69
262.872	368.69
263.105	380.69
263.337	347.69
263.57	376.69
263.802	382.69
264.035	380.69
264.267	372.69
264.499	381.69
264.732	376.69
264.964	389.69
265.197	386.69
265.429	413.69
265.661	407.69
265.894	397.69
266.126	395.69
266.358	413.69
266.591	403.69
266.823	413.69
267.055	400.69
267.287	415.69
267.52	411.69
267.752	421.69
267.984	413.69
268.216	392.69
268.448	432.69
268.681	426.69
268.913	426.69
269.145	424.69
269.377	428.69
269.609	432.69
269.841	433.69
270.073	423.69
270.306	426.69
270.538	422.69
270.77	394.69
271.002	425.69
271.234	430.69
271.466	459.69
271.698	407.69
271.93	427.69
272.162	425.69
272.394	435.69
272.626	437.69
272.858	438.69
273.09	438.69
273.322	436.69
273.553	462.69
273.785	452.69
274.017	449.69
274.249	441.69
274.481	451.69
274.713	450.69
274.945	466.69
275.176	465.69
275.408	457.69
275.64	469.69
275.872	479.69
276.104	493.69
276.335	473.69
276.567	478.69
276.799	474.69
277.031	483.69
277.262	496.69
277.494	485.69
277.726	492.69
277.957	491.69
278.189	490.69
278.421	482.69
278.652	483.69
278.884	477.69
279.115	492.69
279.347	496.69
279.579	507.69
279.81	493.69
280.042	514.69
280.273	487.69
280.505	496.69
280.736	498.69
280.968	513.69
281.199	545.69
281.431	523.69
281.662	499.69
281.894	502.69
282.125	528.69
282.356	518.69
282.588	549.69
282.819	554.69
283.051	556.69
283.282	548.69
283.513	539.69
283.745	540.69
283.976	546.69
284.207	542.69
284.439	541.69
284.67	560.69
284.901	553.69
285.132	551.69
285.364	555.69
285.595	564.69
285.826	566.69
286.057	537.69
286.288	545.69
286.52	563.69
286.751	571.69
286.982	586.69
287.213	566.69
287.444	580.69
287.675	569.69
287.906	562.69
288.138	592.69
288.369	564.69
288.6	599.69
288.831	593.69
289.062	594.69
289.293	596.69
289.524	600.69
289.755	587.69
289.986	571.69
290.217	600.69
290.448	606.69
290.679	611.69
290.91	593.69
291.141	600.69
291.371	615.69
291.602	605.69
291.833	612.69
292.064	627.69
292.295	590.69
292.526	614.69
292.757	629.69
292.987	588.69
293.218	586.69
293.449	618.69
293.68	601.69
293.91	619.69
294.141	608.69
294.372	597.69
294.603	602.69
294.833	614.69
295.064	621.69
295.295	641.69
295.525	605.69
295.756	598.69
295.987	595.69
296.217	647.69
296.448	614.69
296.679	636.69
296.909	636.69
297.14	628.69
297.37	647.69
297.601	633.69
297.831	625.69
298.062	672.69
298.292	663.69
298.523	662.69
298.753	668.69
298.984	669.69
299.214	634.69
299.445	652.69
299.675	639.69
299.905	673.69
300.136	662.69
300.366	676.69
300.597	662.69
300.827	664.69
301.057	673.69
301.288	708.69
301.518	694.69
301.748	673.69
301.979	683.69
302.209	674.69
302.439	715.69
302.669	697.69
302.9	670.69
303.13	652.69
303.36	685.69
303.59	669.69
303.82	671.69
304.051	705.69
304.281	692.69
304.511	673.69
304.741	676.69
304.971	686.69
305.201	670.69
305.431	669.69
305.661	689.69
305.891	671.69
306.121	673.69
306.352	662.69
306.582	695.69
306.812	656.69
307.042	668.69
307.272	665.69
307.502	674.69
307.731	677.69
307.961	672.69
308.191	641.69
308.421	655.69
308.651	641.69
308.881	658.69
309.111	688.69
309.341	670.69
309.571	668.69
309.8	672.69
310.03	693.69
310.26	672.69
310.49	683.69
310.72	678.69
310.949	665.69
311.179	674.69
311.409	676.69
311.639	682.69
311.868	684.69
312.098	685.69
312.328	716.69
312.557	706.69
312.787	700.69
313.017	688.69
313.246	683.69
313.476	718.69
313.706	724.69
313.935	719.69
314.165	725.69
314.394	731.69
314.624	707.69
314.853	713.69
315.083	699.69
315.312	718.69
315.542	727.69
315.771	706.69
316.001	698.69
316.23	717.69
316.46	717.69
316.689	724.69
316.919	694.69
317.148	704.69
317.377	691.69
317.607	693.69
317.836	677.69
318.065	710.69
318.295	709.69
318.524	726.69
318.753	725.69
318.983	699.69
319.212	710.69
319.441	696.69
319.67	698.69
319.9	722.69
320.129	709.69
320.358	735.69
320.587	686.69
320.816	699.69
321.046	698.69
321.275	701.69
321.504	711.69
321.733	700.69
321.962	733.69
322.191	716.69
322.42	698.69
322.649	737.69
322.878	691.69
323.108	723.69
323.337	727.69
323.566	736.69
323.795	703.69
324.024	715.69
324.253	717.69
324.482	717.69
324.71	729.69
324.939	732.69
325.168	720.69
325.397	723.69
325.626	758.69
325.855	740.69
326.084	776.69
326.313	782.69
326.542	775.69
326.77	778.69
326.999	748.69
327.228	749.69
327.457	750.69
327.686	747.69
327.914	757.69
328.143	794.69
328.372	767.69
328.6	775.69
328.829	782.69
329.058	775.69
329.287	749.69
329.515	776.69
329.744	772.69
329.972	775.69
330.201	796.69
330.43	797.69
330.658	785.69
330.887	808.69
331.115	808.69
331.344	803.69
331.572	838.69
331.801	833.69
332.03	884.69
332.258	882.69
332.486	877.69
332.715	933.69
332.943	974.69
333.172	992.69
333.4	1022.69
333.629	1060.69
333.857	1041.69
334.085	1035.69
334.314	1034.69
334.542	1012.69
334.771	1042.69
334.999	979.69
335.227	939.69
335.455	983.69
335.684	998.69
335.912	956.69
336.14	951.69
336.369	921.69
336.597	952.69
336.825	939.69
337.053	930.69
337.281	928.69
337.51	912.69
337.738	894.69
337.966	869.69
338.194	840.69
338.422	850.69
338.65	847.69
338.878	844.69
339.106	835.69
339.334	849.69
339.562	825.69
339.79	811.69
340.018	784.69
340.246	783.69
340.474	817.69
340.702	801.69
340.93	816.69
341.158	790.69
341.386	809.69
341.614	793.69
341.842	833.69
342.07	809.69
342.298	789.69
342.526	831.69
342.754	840.69
342.981	820.69
343.209	848.69
343.437	856.69
343.665	910.69
343.893	970.69
344.12	1009.69
344.348	973.69
344.576	902.69
344.804	873.69
345.031	862.69
345.259	845.69
345.487	818.69
345.714	809.69
345.942	794.69
346.17	810.69
346.397	788.69
346.625	782.69
346.853	777.69
347.08	765.69
347.308	758.69
347.535	772.69
347.763	762.69
347.99	765.69
348.218	744.69
348.445	775.69
348.673	768.69
348.9	769.69
349.128	774.69
349.355	801.69
349.583	769.69
349.81	762.69
350.037	743.69
350.265	786.69
350.492	762.69
350.72	739.69
350.947	744.69
351.174	740.69
351.402	739.69
351.629	771.69
351.856	747.69
352.083	758.69
352.311	739.69
352.538	752.69
352.765	747.69
352.992	719.69
353.22	712.69
353.447	739.69
353.674	718.69
353.901	730.69
354.128	750.69
354.355	728.69
354.583	714.69
354.81	744.69
355.037	738.69
355.264	739.69
355.491	752.69
355.718	760.69
355.945	741.69
356.172	762.69
356.399	756.69
356.626	731.69
356.853	764.69
357.08	756.69
357.307	739.69
357.534	733.69
357.761	757.69
357.988	768.69
358.215	768.69
358.441	742.69
358.668	772.69
358.895	749.69
359.122	755.69
359.349	738.69
359.576	750.69
359.802	738.69
360.029	736.69
360.256	752.69
360.483	788.69
360.709	770.69
360.936	754.69
361.163	753.69
361.39	731.69
361.616	757.69
361.843	774.69
362.07	749.69
362.296	755.69
362.523	753.69
362.749	753.69
362.976	748.69
363.203	742.69
363.429	725.69
363.656	756.69
363.882	739.69
364.109	755.69
364.335	724.69
364.562	750.69
364.788	737.69
365.015	751.69
365.241	758.69
365.468	723.69
365.694	741.69
365.92	740.69
366.147	738.69
366.373	754.69
366.599	746.69
366.826	754.69
367.052	749.69
367.278	738.69
367.505	742.69
367.731	785.69
367.957	739.69
368.184	734.69
368.41	746.69
368.636	768.69
368.862	774.69
369.089	769.69
369.315	778.69
369.541	780.69
369.767	773.69
369.993	771.69
370.219	774.69
370.445	776.69
370.672	803.69
370.898	807.69
371.124	819.69
371.35	805.69
371.576	816.69
371.802	800.69
372.028	811.69
372.254	813.69
372.48	806.69
372.706	836.69
372.932	839.69
373.158	835.69
373.384	842.69
373.61	824.69
373.835	813.69
374.061	803.69
374.287	818.69
374.513	847.69
374.739	877.69
374.965	880.69
375.191	903.69
375.416	877.69
375.642	893.69
375.868	870.69
376.094	844.69
376.319	825.69
376.545	844.69
376.771	838.69
376.997	829.69
377.222	812.69
377.448	820.69
377.674	831.69
377.899	807.69
378.125	806.69
378.35	808.69
378.576	787.69
378.802	821.69
379.027	811.69
379.253	811.69
379.478	828.69
379.704	818.69
379.929	799.69
380.155	805.69
380.38	794.69
380.606	810.69
380.831	806.69
381.057	810.69
381.282	795.69
381.507	788.69
381.733	835.69
381.958	858.69
382.184	841.69
382.409	834.69
382.634	855.69
382.86	854.69
383.085	854.69
383.31	860.69
383.535	875.69
383.761	890.69
383.986	899.69
384.211	928.69
384.436	916.69
384.662	951.69
384.887	974.69
385.112	1002.69
385.337	959.69
385.562	989.69
385.787	1012.69
386.013	1009.69
386.238	1017.69
386.463	1024.69
386.688	986.69
386.913	984.69
387.138	988.69
387.363	1005.69
387.588	981.69
387.813	986.69
388.038	993.69
388.263	978.69
388.488	989.69
388.713	977.69
388.938	976.69
389.163	946.69
389.387	964.69
389.612	944.69
389.837	978.69
390.062	954.69
390.287	954.69
390.512	962.69
390.736	987.69
390.961	1020.69
391.186	988.69
391.411	1056.69
391.636	1074.69
391.86	1108.69
392.085	1121.69
392.31	1138.69
392.534	1123.69
392.759	1080.69
392.984	1043.69
393.208	1069.69
393.433	1064.69
393.658	1058.69
393.882	1059.69
394.107	1062.69
394.331	1046.69
394.556	1064.69
394.78	1105.69
395.005	1082.69
395.229	1078.69
395.454	1081.69
395.678	1126.69
395.903	1098.69
396.127	1127.69
396.352	1089.69
396.576	1058.69
396.801	1066.69
397.025	1070.69
397.249	1098.69
397.474	1104.69
397.698	1099.69
397.922	1128.69
398.147	1145.69
398.371	1147.69
398.595	1208.69
398.82	1290.69
399.044	1343.69
399.268	1454.69
399.492	1680.69
399.717	1878.69
399.941	1940.69
400.165	1740.69
400.389	1568.69
400.613	1442.69
400.837	1340.69
401.062	1297.69
401.286	1303.69
401.51	1264.69
401.734	1267.69
401.958	1294.69
402.182	1285.69
402.406	1278.69
402.63	1303.69
402.854	1329.69
403.078	1336.69
403.302	1401.69
403.526	1404.69
403.75	1423.69
403.974	1467.69
404.198	1443.69
404.422	1441.69
404.645	1438.69
404.869	1438.69
405.093	1435.69
405.317	1375.69
405.541	1365.69
405.765	1393.69
405.988	1401.69
406.212	1405.69
406.436	1379.69
406.66	1406.69
406.883	1444.69
407.107	1536.69
407.331	1622.69
407.555	1652.69
407.778	1632.69
408.002	1592.69
408.226	1550.69
408.449	1530.69
408.673	1460.69
408.896	1428.69
409.12	1404.69
409.344	1451.69
409.567	1419.69
409.791	1428.69
410.014	1378.69
410.238	1396.69
410.461	1384.69
410.685	1346.69
410.908	1356.69
411.132	1321.69
411.355	1303.69
411.578	1328.69
411.802	1313.69
412.025	1306.69
412.249	1323.69
412.472	1303.69
412.695	1307.69
412.919	1252.69
413.142	1246.69
413.365	1280.69
413.589	1268.69
413.812	1261.69
414.035	1220.69
414.258	1240.69
414.482	1256.69
414.705	1257.69
414.928	1245.69
415.151	1287.69
415.374	1244.69
415.597	1258.69
415.821	1186.69
416.044	1224.69
416.267	1213.69
416.49	1222.69
416.713	1195.69
416.936	1232.69
417.159	1213.69
417.382	1209.69
417.605	1209.69
417.828	1205.69
418.051	1238.69
418.274	1238.69
418.497	1252.69
418.72	1277.69
418.943	1286.69
419.166	1314.69
419.389	1462.69
419.611	1404.69
419.834	1350.69
420.057	1311.69
420.28	1253.69
420.503	1221.69
420.726	1247.69
420.948	1196.69
421.171	1231.69
421.394	1232.69
421.617	1208.69
421.839	1216.69
422.062	1251.69
422.285	1223.69
422.507	1257.69
422.73	1256.69
422.953	1278.69
423.175	1294.69
423.398	1300.69
423.621	1277.69
423.843	1324.69
424.066	1296.69
424.288	1289.69
424.511	1292.69
424.733	1304.69
424.956	1297.69
425.178	1256.69
425.401	1269.69
425.623	1268.69
425.846	1194.69
426.068	1199.69
426.291	1186.69
426.513	1180.69
426.735	1165.69
426.958	1189.69
427.18	1129.69
427.402	1152.69
427.625	1154.69
427.847	1119.69
428.069	1132.69
428.292	1126.69
428.514	1107.69
428.736	1094.69
428.958	1111.69
429.181	1079.69
429.403	1058.69
429.625	1091.69
429.847	1065.69
430.069	1067.69
430.292	1076.69
430.514	1062.69
430.736	1074.69
430.958	1060.69
431.18	1089.69
431.402	1053.69
431.624	1067.69
431.846	1100.69
432.068	1122.69
432.29	1139.69
432.512	1080.69
432.734	1104.69
432.956	1086.69
433.178	1075.69
433.4	1101.69
433.622	1108.69
433.844	1122.69
434.066	1109.69
434.287	1115.69
434.509	1150.69
434.731	1192.69
434.953	1198.69
435.175	1259.69
435.397	1236.69
435.618	1176.69
435.84	1106.69
436.062	1090.69
436.284	1080.69
436.505	1070.69
436.727	1090.69
436.949	1099.69
437.17	1091.69
437.392	1096.69
437.614	1073.69
437.835	1048.69
438.057	1060.69
438.278	1008.69
438.5	1021.69
438.721	1008.69
438.943	1039.69
439.165	1065.69
439.386	1050.69
439.608	1063.69
439.829	1084.69
440.05	1097.69
440.272	1078.69
440.493	1100.69
440.715	1128.69
440.936	1099.69
441.158	1161.69
441.379	1154.69
441.6	1220.69
441.822	1250.69
442.043	1239.69
442.264	1212.69
442.486	1208.69
442.707	1212.69
442.928	1180.69
443.149	1200.69
443.371	1187.69
443.592	1199.69
443.813	1218.69
444.034	1212.69
444.255	1286.69
444.476	1316.69
444.698	1404.69
444.919	1458.69
445.14	1561.69
445.361	1382.69
445.582	1280.69
445.803	1209.69
446.024	1183.69
446.245	1138.69
446.466	1156.69
446.687	1101.69
446.908	1113.69
447.129	1097.69
447.35	1058.69
447.571	1054.69
447.792	1046.69
448.013	1017.69
448.234	1012.69
448.455	1010.69
448.675	1017.69
448.896	999.69
449.117	987.69
449.338	991.69
449.559	964.69
449.779	994.69
450	996.69
450.221	988.69
450.442	988.69
450.662	989.69
450.883	973.69
451.104	1019.69
451.324	1020.69
451.545	1000.69
451.766	1032.69
451.986	975.69
452.207	986.69
452.428	978.69
452.648	990.69
452.869	956.69
453.089	959.69
453.31	934.69
453.53	941.69
453.751	967.69
453.971	984.69
454.192	954.69
454.412	939.69
454.633	944.69
454.853	948.69
455.073	923.69
455.294	944.69
455.514	909.69
455.734	927.69
455.955	941.69
456.175	925.69
456.395	918.69
456.616	946.69
456.836	917.69
457.056	914.69
457.276	926.69
457.497	948.69
457.717	918.69
457.937	964.69
458.157	971.69
458.377	967.69
458.598	983.69
458.818	997.69
459.038	1053.69
459.258	1080.69
459.478	1124.69
459.698	1136.69
459.918	1175.69
460.138	1205.69
460.358	1284.69
460.578	1291.69
460.798	1285.69
461.018	1305.69
461.238	1276.69
461.458	1288.69
461.678	1258.69
461.898	1306.69
462.118	1320.69
462.338	1386.69
462.558	1461.69
462.777	1529.69
462.997	1608.69
463.217	1684.69
463.437	1702.69
463.657	1645.69
463.876	1584.69
464.096	1544.69
464.316	1534.69
464.536	1515.69
464.755	1484.69
464.975	1418.69
465.195	1330.69
465.414	1280.69
465.634	1196.69
465.854	1153.69
466.073	1129.69
466.293	1117.69
466.512	1088.69
466.732	1038.69
466.951	1058.69
467.171	1033.69
467.391	1036.69
467.61	1036.69
467.829	1033.69
468.049	1049.69
468.268	1008.69
468.488	992.69
468.707	997.69
468.927	1041.69
469.146	1004.69
469.365	1007.69
469.585	1014.69
469.804	1048.69
470.023	1083.69
470.243	1065.69
470.462	1078.69
470.681	1121.69
470.901	1096.69
471.12	1086.69
471.339	1048.69
471.558	1012.69
471.777	1026.69
471.997	1017.69
472.216	1013.69
472.435	1016.69
472.654	966.69
472.873	981.69
473.092	962.69
473.311	976.69
473.53	966.69
473.749	953.69
473.968	972.69
474.187	962.69
474.406	981.69
474.625	969.69
474.844	956.69
475.063	967.69
475.282	977.69
475.501	992.69
475.72	984.69
475.939	958.69
476.158	1004.69
476.377	1008.69
476.596	1035.69
476.814	1026.69
477.033	1036.69
477.252	1056.69
477.471	1077.69
477.69	1100.69
477.908	1108.69
478.127	1159.69
478.346	1151.69
478.564	1191.69
478.783	1205.69
479.002	1254.69
479.22	1220.69
479.439	1218.69
479.658	1220.69
479.876	1244.69
480.095	1233.69
480.313	1286.69
480.532	1317.69
480.751	1306.69
480.969	1253.69
481.188	1206.69
481.406	1179.69
481.624	1152.69
481.843	1113.69
482.061	1117.69
482.28	1140.69
482.498	1098.69
482.717	1102.69
482.935	1114.69
483.153	1118.69
483.372	1114.69
483.59	1107.69
483.808	1104.69
484.027	1125.69
484.245	1121.69
484.463	1128.69
484.681	1136.69
484.9	1152.69
485.118	1143.69
485.336	1160.69
485.554	1168.69
485.772	1132.69
485.99	1164.69
486.209	1161.69
486.427	1181.69
486.645	1192.69
486.863	1163.69
487.081	1172.69
487.299	1173.69
487.517	1156.69
487.735	1132.69
487.953	1170.69
488.171	1162.69
488.389	1180.69
488.607	1102.69
488.825	1112.69
489.043	1141.69
489.261	1142.69
489.479	1150.69
489.696	1162.69
489.914	1193.69
490.132	1150.69
490.35	1188.69
490.568	1163.69
490.786	1164.69
491.003	1205.69
491.221	1188.69
491.439	1195.69
491.657	1149.69
491.874	1221.69
492.092	1202.69
492.31	1201.69
492.527	1200.69
492.745	1178.69
492.963	1207.69
493.18	1205.69
493.398	1227.69
493.615	1207.69
493.833	1243.69
494.05	1255.69
494.268	1238.69
494.485	1240.69
494.703	1256.69
494.92	1246.69
495.138	1237.69
495.355	1251.69
495.573	1248.69
495.79	1231.69
496.008	1247.69
496.225	1260.69
496.442	1308.69
496.66	1292.69
496.877	1345.69
497.094	1376.69
497.312	1387.69
497.529	1421.69
497.746	1440.69
497.963	1516.69
498.181	1583.69
498.398	1630.69
498.615	1741.69
498.832	1852.69
499.049	2009.69
499.267	2234.69
499.484	2414.69
499.701	2649.69
499.918	2955.69
500.135	3355.69
500.352	3638.69
500.569	3798.69
500.786	3829.69
501.003	3601.69
501.22	3340.69
501.437	2918.69
501.654	2597.69
501.871	2362.69
502.088	2123.69
502.305	1991.69
502.522	1893.69
502.739	1824.69
502.956	1708.69
503.172	1619.69
503.389	1597.69
503.606	1520.69
503.823	1508.69
504.04	1461.69
504.256	1491.69
504.473	1505.69
504.69	1536.69
504.907	1488.69
505.123	1400.69
505.34	1326.69
505.557	1291.69
505.773	1280.69
505.99	1183.69
506.207	1192.69
506.423	1150.69
506.64	1133.69
506.856	1112.69
507.073	1115.69
507.289	1115.69
507.506	1100.69
507.722	1120.69
507.939	1077.69
508.155	1076.69
508.372	1057.69
508.588	1047.69
508.805	1038.69
509.021	1053.69
509.238	1056.69
509.454	1050.69
509.67	1017.69
509.887	1009.69
510.103	1030.69
510.319	996.69
510.536	1014.69
510.752	1007.69
510.968	985.69
511.184	1000.69
511.401	995.69
511.617	986.69
511.833	1003.69
512.049	993.69
512.265	999.69
512.481	985.69
512.698	983.69
512.914	1011.69
513.13	1011.69
513.346	1029.69
513.562	995.69
513.778	1005.69
513.994	1039.69
514.21	1014.69
514.426	1033.69
514.642	991.69
514.858	1001.69
515.074	1038.69
515.29	1049.69
515.506	1056.69
515.721	1068.69
515.937	1068.69
516.153	1082.69
516.369	1106.69
516.585	1180.69
516.801	1189.69
517.016	1248.69
517.232	1340.69
517.448	1368.69
517.664	1435.69
517.879	1439.69
518.095	1430.69
518.311	1427.69
518.527	1366.69
518.742	1279.69
518.958	1232.69
519.173	1180.69
519.389	1176.69
519.605	1139.69
519.82	1092.69
520.036	1076.69
520.251	1046.69
520.467	1038.69
520.682	1014.69
520.898	1020.69
521.113	1002.69
521.329	1013.69
521.544	969.69
521.76	939.69
521.975	942.69
522.19	990.69
522.406	926.69
522.621	964.69
522.836	949.69
523.052	919.69
523.267	918.69
523.482	907.69
523.698	906.69
523.913	902.69
524.128	905.69
524.343	911.69
524.559	905.69
524.774	899.69
524.989	924.69
525.204	897.69
525.419	892.69
525.634	900.69
525.849	889.69
526.064	900.69
526.28	933.69
526.495	908.69
526.71	906.69
526.925	888.69
527.14	894.69
527.355	901.69
527.57	897.69
527.785	884.69
527.999	868.69
528.214	907.69
528.429	909.69
528.644	891.69
528.859	893.69
529.074	871.69
529.289	876.69
529.503	881.69
529.718	865.69
529.933	911.69
530.148	904.69
530.363	874.69
530.577	896.69
530.792	904.69
531.007	880.69
531.221	901.69
531.436	897.69
531.651	900.69
531.865	860.69
532.08	920.69
532.295	909.69
532.509	872.69
532.724	883.69
532.938	887.69
533.153	900.69
533.367	885.69
533.582	914.69
533.796	900.69
534.011	906.69
534.225	896.69
534.44	867.69
534.654	858.69
534.868	877.69
535.083	867.69
535.297	889.69
535.511	870.69
535.726	876.69
535.94	848.69
536.154	852.69
536.369	844.69
536.583	837.69
536.797	828.69
537.011	811.69
537.225	840.69
537.44	816.69
537.654	805.69
537.868	836.69
538.082	820.69
538.296	791.69
538.51	812.69
538.724	822.69
538.938	823.69
539.153	809.69
539.367	814.69
539.581	791.69
539.795	800.69
540.009	809.69
540.222	828.69
540.436	788.69
540.65	781.69
540.864	786.69
541.078	788.69
541.292	820.69
541.506	800.69
541.72	821.69
541.934	809.69
542.147	826.69
542.361	810.69
542.575	804.69
542.789	807.69
543.002	790.69
543.216	807.69
543.43	786.69
543.644	792.69
543.857	781.69
544.071	788.69
544.285	797.69
544.498	812.69
544.712	788.69
544.925	809.69
545.139	808.69
545.352	831.69
545.566	854.69
545.779	855.69
545.993	836.69
546.206	818.69
546.42	809.69
546.633	845.69
546.847	812.69
547.06	818.69
547.274	809.69
547.487	826.69
547.7	823.69
547.914	811.69
548.127	841.69
548.34	857.69
548.554	808.69
548.767	845.69
548.98	851.69
549.193	828.69
549.407	837.69
549.62	861.69
549.833	888.69
550.046	849.69
550.259	834.69
550.473	824.69
550.686	805.69
550.899	796.69
551.112	804.69
551.325	802.69
551.538	805.69
551.751	805.69
551.964	801.69
552.177	819.69
552.39	834.69
552.603	862.69
552.816	850.69
553.029	904.69
553.242	896.69
553.455	917.69
553.667	908.69
553.88	885.69
554.093	857.69
554.306	872.69
554.519	840.69
554.732	816.69
554.944	813.69
555.157	749.69
555.37	765.69
555.583	787.69
555.795	755.69
556.008	724.69
556.221	715.69
556.433	727.69
556.646	713.69
556.859	717.69
557.071	695.69
557.284	716.69
557.496	686.69
557.709	701.69
557.921	700.69
558.134	682.69
558.346	677.69
558.559	705.69
558.771	718.69
558.984	682.69
559.196	661.69
559.409	698.69
559.621	655.69
559.833	650.69
560.046	681.69
560.258	682.69
560.47	655.69
560.683	666.69
560.895	651.69
561.107	662.69
561.32	669.69
561.532	660.69
561.744	685.69
561.956	681.69
562.168	663.69
562.381	686.69
562.593	695.69
562.805	676.69
563.017	684.69
563.229	677.69
563.441	662.69
563.653	670.69
563.865	676.69
564.077	710.69
564.289	712.69
564.501	725.69
564.713	754.69
564.925	735.69
565.137	746.69
565.349	766.69
565.561	791.69
565.773	802.69
565.985	852.69
566.197	893.69
566.408	962.69
566.62	1031.69
566.832	1102.69
567.044	1172.69
567.255	1134.69
567.467	1202.69
567.679	1239.69
567.891	1307.69
568.102	1313.69
568.314	1266.69
568.526	1159.69
568.737	1062.69
568.949	980.69
569.161	904.69
569.372	821.69
569.584	791.69
569.795	768.69
570.007	736.69
570.218	718.69
570.43	711.69
570.641	711.69
570.853	708.69
571.064	741.69
571.276	709.69
571.487	688.69
571.698	664.69
571.91	637.69
572.121	632.69
572.333	606.69
572.544	618.69
572.755	609.69
572.966	591.69
573.178	588.69
573.389	594.69
573.6	565.69
573.811	555.69
574.023	548.69
574.234	561.69
574.445	547.69
574.656	560.69
574.867	529.69
575.078	563.69
575.289	526.69
575.501	550.69
575.712	532.69
575.923	545.69
576.134	533.69
576.345	537.69
576.556	505.69
576.767	507.69
576.978	523.69
577.188	510.69
577.399	500.69
577.61	508.69
577.821	506.69
578.032	503.69
578.243	491.69
578.454	484.69
578.665	482.69
578.875	509.69
579.086	496.69
579.297	507.69
579.508	475.69
579.718	467.69
579.929	481.69
580.14	477.69
580.35	481.69
580.561	499.69
580.772	464.69
580.982	481.69
581.193	463.69
581.403	468.69
581.614	470.69
581.825	458.69
582.035	466.69
582.246	455.69
582.456	455.69
582.667	453.69
582.877	469.69
583.087	473.69
583.298	468.69
583.508	474.69
583.719	458.69
583.929	437.69
584.139	470.69
584.35	476.69
584.56	450.69
584.77	438.69
584.981	454.69
585.191	456.69
585.401	452.69
585.611	455.69
585.821	430.69
586.032	443.69
586.242	437.69
586.452	438.69
586.662	457.69
586.872	458.69
587.082	467.69
587.292	443.69
587.502	436.69
587.713	444.69
587.923	445.69
588.133	451.69
588.343	435.69
588.553	454.69
588.762	461.69
588.972	433.69
589.182	442.69
589.392	451.69
589.602	461.69
589.812	476.69
590.022	460.69
590.232	448.69
590.441	457.69
590.651	456.69
590.861	459.69
591.071	479.69
591.281	493.69
591.49	461.69
591.7	469.69
591.91	485.69
592.119	478.69
592.329	492.69
592.539	515.69
592.748	540.69
592.958	543.69
593.167	569.69
593.377	590.69
593.587	572.69
593.796	578.69
594.006	585.69
594.215	557.69
594.424	558.69
594.634	553.69
594.843	557.69
595.053	517.69
595.262	524.69
595.472	485.69
595.681	478.69
595.89	478.69
596.1	473.69
596.309	471.69
596.518	447.69
596.727	417.69
596.937	423.69
597.146	417.69
597.355	442.69
597.564	389.69
597.774	412.69
597.983	398.69
598.192	394.69
598.401	401.69
598.61	388.69
598.819	381.69
599.028	375.69
599.237	366.69
599.446	395.69
599.655	378.69
599.864	369.69
600.073	391.69
600.282	370.69
600.491	372.69
600.7	380.69
600.909	369.69
601.118	355.69
601.327	384.69
601.536	350.69
601.745	362.69
601.953	356.69
602.162	366.69
602.371	355.69
602.58	354.69
602.789	355.69
602.997	354.69
603.206	374.69
603.415	367.69
603.623	341.69
603.832	344.69
604.041	347.69
604.249	340.69
604.458	365.69
604.666	345.69
604.875	360.69
605.084	338.69
605.292	348.69
605.501	353.69
605.709	339.69
605.918	354.69
606.126	348.69
606.334	337.69
606.543	342.69
606.751	328.69
606.96	332.69
607.168	332.69
607.376	357.69
607.585	330.69
607.793	337.69
608.001	321.69
608.21	339.69
608.418	321.69
608.626	342.69
608.834	358.69
609.043	343.69
609.251	331.69
609.459	321.69
609.667	327.69
609.875	324.69
610.083	338.69
610.291	326.69
610.499	325.69
610.707	334.69
610.916	301.69
611.124	326.69
611.332	310.69
611.54	304.69
611.748	316.69
611.955	330.69
612.163	306.69
612.371	309.69
612.579	305.69
612.787	308.69
612.995	334.69
613.203	315.69
613.411	314.69
613.618	321.69
613.826	324.69
614.034	338.69
614.242	332.69
614.449	318.69
614.657	306.69
614.865	313.69
615.072	323.69
615.28	324.69
615.488	311.69
615.695	297.69
615.903	314.69
616.111	319.69
616.318	314.69
616.526	313.69
616.733	300.69
616.941	290.69
617.148	297.69
617.356	328.69
617.563	286.69
617.771	317.69
617.978	312.69
618.185	323.69
618.393	301.69
618.6	336.69
618.807	290.69
619.015	297.69
619.222	294.69
619.429	324.69
619.637	312.69
619.844	305.69
620.051	309.69
620.258	277.69
620.466	272.69
620.673	287.69
620.88	279.69
621.087	295.69
621.294	277.69
621.501	285.69
621.708	294.69
621.915	289.69
622.122	297.69
622.329	291.69
622.536	292.69
622.743	290.69
622.95	280.69
623.157	276.69
623.364	284.69
623.571	289.69
623.778	287.69
623.985	282.69
624.192	267.69
624.399	281.69
624.606	267.69
624.812	278.69
625.019	280.69
625.226	259.69
625.433	256.69
625.639	270.69
625.846	258.69
626.053	253.69
626.259	269.69
626.466	281.69
626.673	267.69
626.879	256.69
627.086	264.69
627.293	282.69
627.499	272.69
627.706	276.69
627.912	246.69
628.119	241.69
628.325	254.69
628.532	254.69
628.738	254.69
628.945	258.69
629.151	256.69
629.357	253.69
629.564	266.69
629.77	249.69
629.976	258.69
630.183	256.69
630.389	268.69
630.595	246.69
630.802	244.69
631.008	264.69
631.214	252.69
631.42	237.69
631.627	233.69
631.833	257.69
632.039	262.69
632.245	233.69
632.451	250.69
632.657	248.69
632.863	253.69
633.069	238.69
633.275	251.69
633.481	224.69
633.688	233.69
633.893	234.69
634.099	235.69
634.305	243.69
634.511	234.69
634.717	228.69
634.923	237.69
635.129	244.69
635.335	232.69
635.541	218.69
635.747	225.69
635.952	205.69
636.158	230.69
636.364	220.69
636.57	226.69
636.775	231.69
636.981	226.69
637.187	226.69
637.392	216.69
637.598	228.69
637.804	237.69
638.009	231.69
638.215	226.69
638.421	212.69
638.626	226.69
638.832	216.69
639.037	211.69
639.243	223.69
639.448	214.69
639.654	215.69
639.859	221.69
640.065	231.69
640.27	220.69
640.475	204.69
640.681	214.69
640.886	207.69
641.091	204.69
641.297	217.69
641.502	200.69
641.707	216.69
641.913	207.69
642.118	217.69
642.323	202.69
642.528	204.69
642.733	201.69
642.939	217.69
643.144	212.69
643.349	196.69
643.554	206.69
643.759	209.69
643.964	196.69
644.169	190.69
644.374	213.69
644.579	197.69
644.784	198.69
644.989	204.69
645.194	198.69
645.399	205.69
645.604	200.69
645.809	195.69
646.014	201.69
646.219	206.69
646.423	200.69
646.628	196.69
646.833	193.69
647.038	198.69
647.243	197.69
647.447	206.69
647.652	198.69
647.857	200.69
648.062	210.69
648.266	220.69
648.471	218.69
648.676	205.69
648.88	213.69
649.085	205.69
649.289	210.69
649.494	193.69
649.698	198.69
649.903	192.69
650.107	186.69
650.312	187.69
650.516	195.69
650.721	186.69
650.925	195.69
651.13	195.69
651.334	177.69
651.539	196.69
651.743	183.69
651.947	177.69
652.152	180.69
652.356	179.69
652.56	165.69
652.764	172.69
652.969	166.69
653.173	177.69
653.377	160.69
653.581	141.69
653.785	154.69
653.99	158.69
654.194	147.69
654.398	169.69
654.602	157.69
654.806	147.69
655.01	160.69
655.214	158.69
655.418	141.69
655.622	143.69
655.826	154.69
656.03	128.69
656.234	141.69
656.438	148.69
656.642	144.69
656.846	131.69
657.049	129.69
657.253	136.69
657.457	128.69
657.661	112.69
657.865	125.69
658.068	122.69
658.272	114.69
658.476	115.69
658.68	120.69
658.883	107.69
659.087	107.69
659.291	119.69
659.494	130.69
659.698	116.69
659.901	109.69
660.105	102.69
660.309	95.69
660.512	97.69
660.716	98.69
660.919	91.69
661.123	96.69
661.326	113.69
661.53	88.69
661.733	86.69
661.936	86.69
662.14	76.69
662.343	84.69
662.546	86.69
662.75	87.69
662.953	81.69
663.156	80.69
663.36	100.69
663.563	72.69
663.766	89.69
663.969	92.69
664.173	81.69
664.376	86.69
664.579	85.69
664.782	81.69
664.985	83.69
665.188	80.69
665.391	92.69
665.594	78.69
665.797	78.69
666	72.69
666.203	81.69
666.406	81.69
666.609	85.69
666.812	72.69
667.015	86.69
667.218	87.69
667.421	92.69
667.624	83.69
667.827	77.69
668.03	77.69
668.232	76.69
668.435	77.69
668.638	94.69
668.841	83.69
669.043	79.69
669.246	76.69
669.449	87.69
669.651	75.69
669.854	68.69
670.057	85.69
670.259	83.69
670.462	91.69
670.665	76.69
670.867	80.69
671.07	72.69
671.272	82.69
671.475	83.69
671.677	88.69
671.88	79.69
672.082	73.69
672.284	88.69
672.487	95.69
672.689	90.69
672.892	77.69
