Data from NiCl2@0.5M.TitratingCurve.Agarose3%dH2O.NegLispCup.LampEnergy10.LIBS07252019_HRD10591_18-18-36-571.txt Node
Date: Thu Jul 25 18:18:36 EDT 2019
User: cochatt
Spectrometer: HR+D1059
Trigger mode: 1
Integration Time (sec): 1.000000E-1
Scans to average: 1
Electric dark correction enabled: true
Nonlinearity correction enabled: false
Boxcar width: 0
XAxis mode: Wavelengths
Number of Pixels in Spectrum: 2048
>>>>>Begin Spectral Data<<<<<
223.165	-15.94
223.4	-15.94
223.635	-15.94
223.869	-17.94
224.104	-21.94
224.338	-13.94
224.573	-22.94
224.808	-20.94
225.042	-15.94
225.277	-16.94
225.511	3.06
225.746	8.06
225.98	17.06
226.215	22.06
226.449	18.06
226.683	20.06
226.918	20.06
227.152	38.06
227.387	33.06
227.621	36.06
227.856	43.06
228.09	34.06
228.324	36.06
228.559	43.06
228.793	81.06
229.027	154.06
229.262	177.06
229.496	176.06
229.73	185.06
229.964	191.06
230.199	246.06
230.433	232.06
230.667	225.06
230.901	217.06
231.136	199.06
231.37	201.06
231.604	224.06
231.838	241.06
232.072	235.06
232.306	238.06
232.541	209.06
232.775	214.06
233.009	227.06
233.243	231.06
233.477	227.06
233.711	204.06
233.945	211.06
234.179	216.06
234.413	221.06
234.647	233.06
234.881	230.06
235.115	233.06
235.349	227.06
235.583	229.06
235.817	220.06
236.051	223.06
236.285	233.06
236.519	228.06
236.753	220.06
236.987	220.06
237.221	234.06
237.455	241.06
237.689	242.06
237.922	249.06
238.156	260.06
238.39	243.06
238.624	259.06
238.858	269.06
239.091	259.06
239.325	278.06
239.559	284.06
239.793	299.06
240.027	299.06
240.26	280.06
240.494	281.06
240.728	283.06
240.961	281.06
241.195	295.06
241.429	275.06
241.662	306.06
241.896	331.06
242.13	336.06
242.363	307.06
242.597	305.06
242.83	311.06
243.064	308.06
243.298	316.06
243.531	297.06
243.765	322.06
243.998	335.06
244.232	356.06
244.465	333.06
244.699	332.06
244.932	336.06
245.166	351.06
245.399	327.06
245.633	344.06
245.866	357.06
246.099	332.06
246.333	337.06
246.566	348.06
246.8	338.06
247.033	371.06
247.266	350.06
247.5	361.06
247.733	354.06
247.966	375.06
248.2	382.06
248.433	381.06
248.666	366.06
248.899	387.06
249.133	400.06
249.366	386.06
249.599	390.06
249.832	410.06
250.066	418.06
250.299	422.06
250.532	411.06
250.765	419.06
250.998	432.06
251.231	439.06
251.465	454.06
251.698	451.06
251.931	441.06
252.164	441.06
252.397	428.06
252.63	441.06
252.863	432.06
253.096	439.06
253.329	452.06
253.562	448.06
253.795	450.06
254.028	439.06
254.261	460.06
254.494	432.06
254.727	471.06
254.96	477.06
255.193	484.06
255.426	468.06
255.659	468.06
255.892	475.06
256.124	508.06
256.357	488.06
256.59	479.06
256.823	477.06
257.056	498.06
257.289	494.06
257.521	499.06
257.754	514.06
257.987	479.06
258.22	489.06
258.452	505.06
258.685	510.06
258.918	528.06
259.151	506.06
259.383	520.06
259.616	534.06
259.849	523.06
260.081	523.06
260.314	529.06
260.547	542.06
260.779	571.06
261.012	517.06
261.244	533.06
261.477	568.06
261.71	577.06
261.942	556.06
262.175	553.06
262.407	534.06
262.64	567.06
262.872	557.06
263.105	562.06
263.337	571.06
263.57	570.06
263.802	582.06
264.035	586.06
264.267	584.06
264.499	599.06
264.732	572.06
264.964	595.06
265.197	586.06
265.429	601.06
265.661	593.06
265.894	598.06
266.126	614.06
266.358	605.06
266.591	596.06
266.823	613.06
267.055	615.06
267.287	631.06
267.52	630.06
267.752	609.06
267.984	614.06
268.216	619.06
268.448	607.06
268.681	637.06
268.913	654.06
269.145	631.06
269.377	652.06
269.609	664.06
269.841	643.06
270.073	640.06
270.306	650.06
270.538	676.06
270.77	660.06
271.002	671.06
271.234	659.06
271.466	645.06
271.698	679.06
271.93	682.06
272.162	694.06
272.394	683.06
272.626	702.06
272.858	670.06
273.09	689.06
273.322	674.06
273.553	729.06
273.785	714.06
274.017	693.06
274.249	716.06
274.481	713.06
274.713	715.06
274.945	727.06
275.176	733.06
275.408	723.06
275.64	734.06
275.872	733.06
276.104	731.06
276.335	733.06
276.567	752.06
276.799	748.06
277.031	742.06
277.262	759.06
277.494	756.06
277.726	721.06
277.957	748.06
278.189	745.06
278.421	758.06
278.652	754.06
278.884	783.06
279.115	788.06
279.347	798.06
279.579	791.06
279.81	790.06
280.042	786.06
280.273	838.06
280.505	784.06
280.736	798.06
280.968	780.06
281.199	815.06
281.431	809.06
281.662	824.06
281.894	829.06
282.125	830.06
282.356	801.06
282.588	810.06
282.819	844.06
283.051	821.06
283.282	818.06
283.513	831.06
283.745	856.06
283.976	837.06
284.207	837.06
284.439	843.06
284.67	849.06
284.901	835.06
285.132	855.06
285.364	863.06
285.595	847.06
285.826	843.06
286.057	880.06
286.288	892.06
286.52	896.06
286.751	877.06
286.982	885.06
287.213	878.06
287.444	840.06
287.675	872.06
287.906	895.06
288.138	885.06
288.369	894.06
288.6	906.06
288.831	893.06
289.062	911.06
289.293	894.06
289.524	900.06
289.755	912.06
289.986	922.06
290.217	921.06
290.448	926.06
290.679	948.06
290.91	925.06
291.141	898.06
291.371	929.06
291.602	927.06
291.833	912.06
292.064	918.06
292.295	926.06
292.526	932.06
292.757	931.06
292.987	912.06
293.218	906.06
293.449	923.06
293.68	956.06
293.91	937.06
294.141	908.06
294.372	902.06
294.603	936.06
294.833	948.06
295.064	946.06
295.295	945.06
295.525	930.06
295.756	938.06
295.987	958.06
296.217	975.06
296.448	950.06
296.679	949.06
296.909	934.06
297.14	980.06
297.37	995.06
297.601	987.06
297.831	952.06
298.062	975.06
298.292	988.06
298.523	1001.06
298.753	1016.06
298.984	982.06
299.214	1002.06
299.445	995.06
299.675	1014.06
299.905	1024.06
300.136	1004.06
300.366	1034.06
300.597	1033.06
300.827	1039.06
301.057	1034.06
301.288	1035.06
301.518	1044.06
301.748	1074.06
301.979	1044.06
302.209	1044.06
302.439	1055.06
302.669	1049.06
302.9	1027.06
303.13	1032.06
303.36	1075.06
303.59	1059.06
303.82	1090.06
304.051	1075.06
304.281	1075.06
304.511	1087.06
304.741	1072.06
304.971	1101.06
305.201	1066.06
305.431	1091.06
305.661	1112.06
305.891	1110.06
306.121	1077.06
306.352	1077.06
306.582	1062.06
306.812	1042.06
307.042	1027.06
307.272	1063.06
307.502	1059.06
307.731	1080.06
307.961	1055.06
308.191	1070.06
308.421	1042.06
308.651	1082.06
308.881	1073.06
309.111	1052.06
309.341	1039.06
309.571	1078.06
309.8	1067.06
310.03	1093.06
310.26	1158.06
310.49	1121.06
310.72	1096.06
310.949	1082.06
311.179	1103.06
311.409	1106.06
311.639	1120.06
311.868	1100.06
312.098	1097.06
312.328	1127.06
312.557	1122.06
312.787	1106.06
313.017	1108.06
313.246	1139.06
313.476	1136.06
313.706	1160.06
313.935	1157.06
314.165	1154.06
314.394	1124.06
314.624	1168.06
314.853	1108.06
315.083	1164.06
315.312	1178.06
315.542	1162.06
315.771	1139.06
316.001	1139.06
316.23	1155.06
316.46	1129.06
316.689	1174.06
316.919	1147.06
317.148	1123.06
317.377	1154.06
317.607	1147.06
317.836	1142.06
318.065	1126.06
318.295	1154.06
318.524	1150.06
318.753	1163.06
318.983	1166.06
319.212	1136.06
319.441	1176.06
319.67	1175.06
319.9	1139.06
320.129	1148.06
320.358	1187.06
320.587	1164.06
320.816	1169.06
321.046	1170.06
321.275	1188.06
321.504	1177.06
321.733	1180.06
321.962	1176.06
322.191	1189.06
322.42	1206.06
322.649	1163.06
322.878	1183.06
323.108	1168.06
323.337	1209.06
323.566	1186.06
323.795	1233.06
324.024	1234.06
324.253	1211.06
324.482	1227.06
324.71	1234.06
324.939	1200.06
325.168	1228.06
325.397	1214.06
325.626	1221.06
325.855	1246.06
326.084	1256.06
326.313	1254.06
326.542	1241.06
326.77	1287.06
326.999	1266.06
327.228	1272.06
327.457	1243.06
327.686	1233.06
327.914	1273.06
328.143	1274.06
328.372	1248.06
328.6	1251.06
328.829	1243.06
329.058	1256.06
329.287	1258.06
329.515	1251.06
329.744	1278.06
329.972	1262.06
330.201	1263.06
330.43	1291.06
330.658	1263.06
330.887	1311.06
331.115	1296.06
331.344	1300.06
331.572	1291.06
331.801	1350.06
332.03	1332.06
332.258	1322.06
332.486	1361.06
332.715	1378.06
332.943	1377.06
333.172	1415.06
333.4	1444.06
333.629	1450.06
333.857	1443.06
334.085	1497.06
334.314	1489.06
334.542	1464.06
334.771	1504.06
334.999	1462.06
335.227	1465.06
335.455	1495.06
335.684	1496.06
335.912	1483.06
336.14	1474.06
336.369	1480.06
336.597	1495.06
336.825	1485.06
337.053	1468.06
337.281	1492.06
337.51	1440.06
337.738	1443.06
337.966	1435.06
338.194	1459.06
338.422	1423.06
338.65	1360.06
338.878	1351.06
339.106	1385.06
339.334	1411.06
339.562	1384.06
339.79	1381.06
340.018	1316.06
340.246	1340.06
340.474	1319.06
340.702	1336.06
340.93	1334.06
341.158	1359.06
341.386	1352.06
341.614	1395.06
341.842	1350.06
342.07	1330.06
342.298	1323.06
342.526	1360.06
342.754	1345.06
342.981	1320.06
343.209	1337.06
343.437	1387.06
343.665	1418.06
343.893	1425.06
344.12	1438.06
344.348	1404.06
344.576	1399.06
344.804	1432.06
345.031	1370.06
345.259	1390.06
345.487	1356.06
345.714	1369.06
345.942	1354.06
346.17	1370.06
346.397	1361.06
346.625	1322.06
346.853	1315.06
347.08	1247.06
347.308	1311.06
347.535	1282.06
347.763	1298.06
347.99	1290.06
348.218	1278.06
348.445	1244.06
348.673	1266.06
348.9	1235.06
349.128	1283.06
349.355	1295.06
349.583	1305.06
349.81	1273.06
350.037	1202.06
350.265	1255.06
350.492	1243.06
350.72	1232.06
350.947	1239.06
351.174	1271.06
351.402	1318.06
351.629	1296.06
351.856	1284.06
352.083	1247.06
352.311	1251.06
352.538	1282.06
352.765	1318.06
352.992	1232.06
353.22	1168.06
353.447	1219.06
353.674	1216.06
353.901	1187.06
354.128	1198.06
354.355	1216.06
354.583	1172.06
354.81	1207.06
355.037	1208.06
355.264	1206.06
355.491	1217.06
355.718	1200.06
355.945	1214.06
356.172	1243.06
356.399	1204.06
356.626	1245.06
356.853	1285.06
357.08	1239.06
357.307	1268.06
357.534	1242.06
357.761	1224.06
357.988	1226.06
358.215	1209.06
358.441	1214.06
358.668	1164.06
358.895	1177.06
359.122	1217.06
359.349	1216.06
359.576	1186.06
359.802	1232.06
360.029	1204.06
360.256	1232.06
360.483	1202.06
360.709	1235.06
360.936	1187.06
361.163	1231.06
361.39	1225.06
361.616	1210.06
361.843	1291.06
362.07	1285.06
362.296	1271.06
362.523	1230.06
362.749	1206.06
362.976	1211.06
363.203	1204.06
363.429	1201.06
363.656	1227.06
363.882	1176.06
364.109	1221.06
364.335	1214.06
364.562	1259.06
364.788	1227.06
365.015	1210.06
365.241	1196.06
365.468	1193.06
365.694	1235.06
365.92	1192.06
366.147	1190.06
366.373	1227.06
366.599	1206.06
366.826	1199.06
367.052	1203.06
367.278	1224.06
367.505	1235.06
367.731	1241.06
367.957	1217.06
368.184	1210.06
368.41	1225.06
368.636	1195.06
368.862	1214.06
369.089	1245.06
369.315	1232.06
369.541	1246.06
369.767	1230.06
369.993	1222.06
370.219	1228.06
370.445	1268.06
370.672	1251.06
370.898	1243.06
371.124	1248.06
371.35	1256.06
371.576	1293.06
371.802	1305.06
372.028	1269.06
372.254	1271.06
372.48	1297.06
372.706	1281.06
372.932	1315.06
373.158	1281.06
373.384	1272.06
373.61	1281.06
373.835	1291.06
374.061	1257.06
374.287	1267.06
374.513	1298.06
374.739	1271.06
374.965	1323.06
375.191	1341.06
375.416	1363.06
375.642	1288.06
375.868	1306.06
376.094	1272.06
376.319	1290.06
376.545	1298.06
376.771	1286.06
376.997	1237.06
377.222	1249.06
377.448	1243.06
377.674	1271.06
377.899	1238.06
378.125	1255.06
378.35	1284.06
378.576	1266.06
378.802	1234.06
379.027	1233.06
379.253	1212.06
379.478	1217.06
379.704	1258.06
379.929	1226.06
380.155	1205.06
380.38	1258.06
380.606	1253.06
380.831	1258.06
381.057	1265.06
381.282	1243.06
381.507	1255.06
381.733	1262.06
381.958	1263.06
382.184	1275.06
382.409	1292.06
382.634	1296.06
382.86	1268.06
383.085	1277.06
383.31	1314.06
383.535	1343.06
383.761	1327.06
383.986	1332.06
384.211	1354.06
384.436	1368.06
384.662	1349.06
384.887	1369.06
385.112	1344.06
385.337	1365.06
385.562	1418.06
385.787	1405.06
386.013	1427.06
386.238	1419.06
386.463	1420.06
386.688	1463.06
386.913	1412.06
387.138	1449.06
387.363	1398.06
387.588	1414.06
387.813	1436.06
388.038	1443.06
388.263	1428.06
388.488	1447.06
388.713	1430.06
388.938	1400.06
389.163	1439.06
389.387	1445.06
389.612	1428.06
389.837	1422.06
390.062	1449.06
390.287	1460.06
390.512	1449.06
390.736	1455.06
390.961	1458.06
391.186	1463.06
391.411	1469.06
391.636	1501.06
391.86	1530.06
392.085	1523.06
392.31	1556.06
392.534	1500.06
392.759	1561.06
392.984	1511.06
393.208	1490.06
393.433	1512.06
393.658	1514.06
393.882	1505.06
394.107	1452.06
394.331	1467.06
394.556	1484.06
394.78	1493.06
395.005	1544.06
395.229	1503.06
395.454	1497.06
395.678	1527.06
395.903	1527.06
396.127	1563.06
396.352	1522.06
396.576	1531.06
396.801	1542.06
397.025	1548.06
397.249	1569.06
397.474	1607.06
397.698	1589.06
397.922	1624.06
398.147	1631.06
398.371	1651.06
398.595	1666.06
398.82	1707.06
399.044	1777.06
399.268	1868.06
399.492	1939.06
399.717	2021.06
399.941	2054.06
400.165	2031.06
400.389	1939.06
400.613	1881.06
400.837	1843.06
401.062	1775.06
401.286	1747.06
401.51	1744.06
401.734	1718.06
401.958	1750.06
402.182	1675.06
402.406	1728.06
402.63	1729.06
402.854	1752.06
403.078	1722.06
403.302	1754.06
403.526	1765.06
403.75	1754.06
403.974	1784.06
404.198	1754.06
404.422	1793.06
404.645	1759.06
404.869	1776.06
405.093	1815.06
405.317	1802.06
405.541	1819.06
405.765	1818.06
405.988	1780.06
406.212	1874.06
406.436	1852.06
406.66	1892.06
406.883	1884.06
407.107	1928.06
407.331	1904.06
407.555	1962.06
407.778	2059.06
408.002	1995.06
408.226	1975.06
408.449	1973.06
408.673	1921.06
408.896	1898.06
409.12	1904.06
409.344	1891.06
409.567	1829.06
409.791	1862.06
410.014	1854.06
410.238	1810.06
410.461	1834.06
410.685	1809.06
410.908	1845.06
411.132	1808.06
411.355	1765.06
411.578	1763.06
411.802	1778.06
412.025	1835.06
412.249	1768.06
412.472	1794.06
412.695	1751.06
412.919	1743.06
413.142	1752.06
413.365	1779.06
413.589	1796.06
413.812	1731.06
414.035	1767.06
414.258	1723.06
414.482	1708.06
414.705	1735.06
414.928	1728.06
415.151	1698.06
415.374	1722.06
415.597	1698.06
415.821	1719.06
416.044	1676.06
416.267	1670.06
416.49	1688.06
416.713	1653.06
416.936	1686.06
417.159	1666.06
417.382	1656.06
417.605	1659.06
417.828	1606.06
418.051	1685.06
418.274	1648.06
418.497	1644.06
418.72	1657.06
418.943	1652.06
419.166	1774.06
419.389	1882.06
419.611	1884.06
419.834	1786.06
420.057	1759.06
420.28	1706.06
420.503	1636.06
420.726	1657.06
420.948	1632.06
421.171	1660.06
421.394	1663.06
421.617	1662.06
421.839	1680.06
422.062	1667.06
422.285	1632.06
422.507	1674.06
422.73	1700.06
422.953	1686.06
423.175	1684.06
423.398	1679.06
423.621	1652.06
423.843	1697.06
424.066	1687.06
424.288	1653.06
424.511	1663.06
424.733	1635.06
424.956	1667.06
425.178	1649.06
425.401	1659.06
425.623	1689.06
425.846	1630.06
426.068	1663.06
426.291	1643.06
426.513	1653.06
426.735	1652.06
426.958	1644.06
427.18	1572.06
427.402	1630.06
427.625	1638.06
427.847	1577.06
428.069	1606.06
428.292	1616.06
428.514	1596.06
428.736	1598.06
428.958	1579.06
429.181	1545.06
429.403	1584.06
429.625	1579.06
429.847	1572.06
430.069	1558.06
430.292	1599.06
430.514	1578.06
430.736	1570.06
430.958	1577.06
431.18	1610.06
431.402	1621.06
431.624	1608.06
431.846	1597.06
432.068	1575.06
432.29	1589.06
432.512	1627.06
432.734	1626.06
432.956	1627.06
433.178	1640.06
433.4	1660.06
433.622	1635.06
433.844	1691.06
434.066	1644.06
434.287	1652.06
434.509	1657.06
434.731	1666.06
434.953	1697.06
435.175	1740.06
435.397	1767.06
435.618	1695.06
435.84	1635.06
436.062	1619.06
436.284	1662.06
436.505	1602.06
436.727	1577.06
436.949	1627.06
437.17	1646.06
437.392	1582.06
437.614	1573.06
437.835	1538.06
438.057	1565.06
438.278	1506.06
438.5	1564.06
438.721	1541.06
438.943	1596.06
439.165	1562.06
439.386	1550.06
439.608	1547.06
439.829	1590.06
440.05	1575.06
440.272	1587.06
440.493	1641.06
440.715	1632.06
440.936	1644.06
441.158	1645.06
441.379	1682.06
441.6	1732.06
441.822	1730.06
442.043	1677.06
442.264	1654.06
442.486	1690.06
442.707	1663.06
442.928	1684.06
443.149	1693.06
443.371	1724.06
443.592	1792.06
443.813	1756.06
444.034	1724.06
444.255	1729.06
444.476	1775.06
444.698	1825.06
444.919	1844.06
445.14	1941.06
445.361	1800.06
445.582	1808.06
445.803	1736.06
446.024	1699.06
446.245	1693.06
446.466	1619.06
446.687	1642.06
446.908	1618.06
447.129	1570.06
447.35	1566.06
447.571	1548.06
447.792	1536.06
448.013	1556.06
448.234	1520.06
448.455	1508.06
448.675	1500.06
448.896	1514.06
449.117	1466.06
449.338	1507.06
449.559	1482.06
449.779	1443.06
450	1458.06
450.221	1484.06
450.442	1442.06
450.662	1464.06
450.883	1500.06
451.104	1497.06
451.324	1496.06
451.545	1471.06
451.766	1469.06
451.986	1468.06
452.207	1484.06
452.428	1459.06
452.648	1442.06
452.869	1429.06
453.089	1485.06
453.31	1471.06
453.53	1463.06
453.751	1432.06
453.971	1421.06
454.192	1450.06
454.412	1454.06
454.633	1450.06
454.853	1442.06
455.073	1397.06
455.294	1450.06
455.514	1419.06
455.734	1456.06
455.955	1464.06
456.175	1456.06
456.395	1446.06
456.616	1387.06
456.836	1409.06
457.056	1429.06
457.276	1415.06
457.497	1446.06
457.717	1491.06
457.937	1443.06
458.157	1452.06
458.377	1467.06
458.598	1504.06
458.818	1530.06
459.038	1534.06
459.258	1587.06
459.478	1687.06
459.698	1739.06
459.918	1767.06
460.138	1742.06
460.358	1767.06
460.578	1773.06
460.798	1808.06
461.018	1889.06
461.238	1822.06
461.458	1777.06
461.678	1740.06
461.898	1800.06
462.118	1803.06
462.338	1814.06
462.558	1912.06
462.777	1986.06
462.997	2005.06
463.217	2106.06
463.437	2161.06
463.657	2088.06
463.876	2015.06
464.096	2023.06
464.316	1992.06
464.536	1959.06
464.755	1907.06
464.975	1854.06
465.195	1846.06
465.414	1794.06
465.634	1720.06
465.854	1710.06
466.073	1648.06
466.293	1662.06
466.512	1591.06
466.732	1577.06
466.951	1607.06
467.171	1599.06
467.391	1587.06
467.61	1582.06
467.829	1582.06
468.049	1575.06
468.268	1564.06
468.488	1512.06
468.707	1516.06
468.927	1584.06
469.146	1576.06
469.365	1598.06
469.585	1554.06
469.804	1594.06
470.023	1592.06
470.243	1608.06
470.462	1576.06
470.681	1607.06
470.901	1601.06
471.12	1577.06
471.339	1568.06
471.558	1556.06
471.777	1603.06
471.997	1569.06
472.216	1565.06
472.435	1562.06
472.654	1532.06
472.873	1524.06
473.092	1562.06
473.311	1553.06
473.53	1548.06
473.749	1578.06
473.968	1540.06
474.187	1540.06
474.406	1552.06
474.625	1542.06
474.844	1534.06
475.063	1559.06
475.282	1570.06
475.501	1603.06
475.72	1604.06
475.939	1603.06
476.158	1598.06
476.377	1672.06
476.596	1649.06
476.814	1660.06
477.033	1637.06
477.252	1675.06
477.471	1746.06
477.69	1723.06
477.908	1751.06
478.127	1792.06
478.346	1796.06
478.564	1873.06
478.783	1803.06
479.002	1900.06
479.22	1938.06
479.439	1902.06
479.658	1876.06
479.876	1916.06
480.095	1878.06
480.313	1974.06
480.532	1955.06
480.751	1928.06
480.969	1922.06
481.188	1912.06
481.406	1872.06
481.624	1892.06
481.843	1893.06
482.061	1902.06
482.28	1903.06
482.498	1856.06
482.717	1841.06
482.935	1864.06
483.153	1892.06
483.372	1940.06
483.59	1913.06
483.808	1896.06
484.027	1840.06
484.245	1908.06
484.463	1872.06
484.681	1934.06
484.9	1879.06
485.118	1908.06
485.336	1873.06
485.554	1907.06
485.772	1938.06
485.99	1881.06
486.209	1932.06
486.427	1908.06
486.645	1929.06
486.863	1921.06
487.081	1962.06
487.299	1928.06
487.517	1952.06
487.735	1974.06
487.953	1984.06
488.171	1933.06
488.389	1947.06
488.607	1950.06
488.825	1884.06
489.043	1887.06
489.261	1888.06
489.479	1926.06
489.696	1964.06
489.914	1920.06
490.132	1934.06
490.35	1920.06
490.568	1966.06
490.786	1953.06
491.003	1949.06
491.221	1990.06
491.439	1953.06
491.657	1963.06
491.874	1962.06
492.092	1960.06
492.31	1991.06
492.527	2007.06
492.745	1975.06
492.963	1994.06
493.18	2008.06
493.398	1992.06
493.615	2036.06
493.833	2001.06
494.05	2004.06
494.268	2022.06
494.485	2038.06
494.703	2037.06
494.92	2044.06
495.138	2016.06
495.355	2055.06
495.573	2041.06
495.79	2059.06
496.008	2109.06
496.225	2073.06
496.442	2132.06
496.66	2116.06
496.877	2124.06
497.094	2155.06
497.312	2202.06
497.529	2264.06
497.746	2250.06
497.963	2324.06
498.181	2386.06
498.398	2455.06
498.615	2529.06
498.832	2671.06
499.049	2744.06
499.267	2915.06
499.484	3044.06
499.701	3144.06
499.918	3346.06
500.135	3515.06
500.352	3664.06
500.569	3691.06
500.786	3718.06
501.003	3666.06
501.22	3458.06
501.437	3405.06
501.654	3134.06
501.871	2983.06
502.088	2864.06
502.305	2773.06
502.522	2697.06
502.739	2572.06
502.956	2484.06
503.172	2403.06
503.389	2362.06
503.606	2273.06
503.823	2278.06
504.04	2250.06
504.256	2192.06
504.473	2217.06
504.69	2156.06
504.907	2119.06
505.123	2119.06
505.34	2054.06
505.557	1977.06
505.773	1951.06
505.99	1962.06
506.207	1875.06
506.423	1877.06
506.64	1844.06
506.856	1796.06
507.073	1850.06
507.289	1801.06
507.506	1802.06
507.722	1740.06
507.939	1737.06
508.155	1747.06
508.372	1740.06
508.588	1696.06
508.805	1696.06
509.021	1699.06
509.238	1684.06
509.454	1643.06
509.67	1659.06
509.887	1645.06
510.103	1674.06
510.319	1620.06
510.536	1659.06
510.752	1640.06
510.968	1596.06
511.184	1539.06
511.401	1586.06
511.617	1609.06
511.833	1597.06
512.049	1628.06
512.265	1600.06
512.481	1550.06
512.698	1587.06
512.914	1571.06
513.13	1601.06
513.346	1608.06
513.562	1611.06
513.778	1586.06
513.994	1611.06
514.21	1614.06
514.426	1634.06
514.642	1635.06
514.858	1602.06
515.074	1632.06
515.29	1626.06
515.506	1670.06
515.721	1671.06
515.937	1684.06
516.153	1678.06
516.369	1726.06
516.585	1726.06
516.801	1796.06
517.016	1761.06
517.232	1840.06
517.448	1855.06
517.664	1842.06
517.879	1854.06
518.095	1868.06
518.311	1841.06
518.527	1788.06
518.742	1813.06
518.958	1770.06
519.173	1705.06
519.389	1705.06
519.605	1647.06
519.82	1620.06
520.036	1670.06
520.251	1624.06
520.467	1592.06
520.682	1602.06
520.898	1586.06
521.113	1559.06
521.329	1527.06
521.544	1517.06
521.76	1509.06
521.975	1523.06
522.19	1526.06
522.406	1520.06
522.621	1489.06
522.836	1503.06
523.052	1466.06
523.267	1485.06
523.482	1486.06
523.698	1477.06
523.913	1424.06
524.128	1489.06
524.343	1465.06
524.559	1439.06
524.774	1465.06
524.989	1426.06
525.204	1444.06
525.419	1477.06
525.634	1426.06
525.849	1417.06
526.064	1395.06
526.28	1441.06
526.495	1419.06
526.71	1414.06
526.925	1442.06
527.14	1379.06
527.355	1392.06
527.57	1400.06
527.785	1406.06
527.999	1393.06
528.214	1387.06
528.429	1396.06
528.644	1382.06
528.859	1406.06
529.074	1435.06
529.289	1416.06
529.503	1399.06
529.718	1377.06
529.933	1355.06
530.148	1394.06
530.363	1392.06
530.577	1397.06
530.792	1350.06
531.007	1378.06
531.221	1355.06
531.436	1353.06
531.651	1387.06
531.865	1377.06
532.08	1352.06
532.295	1339.06
532.509	1367.06
532.724	1356.06
532.938	1334.06
533.153	1369.06
533.367	1321.06
533.582	1353.06
533.796	1382.06
534.011	1362.06
534.225	1316.06
534.44	1322.06
534.654	1303.06
534.868	1301.06
535.083	1311.06
535.297	1300.06
535.511	1340.06
535.726	1302.06
535.94	1304.06
536.154	1299.06
536.369	1278.06
536.583	1305.06
536.797	1282.06
537.011	1276.06
537.225	1264.06
537.44	1310.06
537.654	1267.06
537.868	1243.06
538.082	1262.06
538.296	1274.06
538.51	1228.06
538.724	1258.06
538.938	1254.06
539.153	1247.06
539.367	1248.06
539.581	1236.06
539.795	1239.06
540.009	1259.06
540.222	1232.06
540.436	1217.06
540.65	1216.06
540.864	1219.06
541.078	1230.06
541.292	1219.06
541.506	1254.06
541.72	1213.06
541.934	1264.06
542.147	1263.06
542.361	1212.06
542.575	1202.06
542.789	1203.06
543.002	1232.06
543.216	1205.06
543.43	1235.06
543.644	1228.06
543.857	1219.06
544.071	1234.06
544.285	1228.06
544.498	1192.06
544.712	1231.06
544.925	1240.06
545.139	1232.06
545.352	1257.06
545.566	1224.06
545.779	1204.06
545.993	1223.06
546.206	1217.06
546.42	1235.06
546.633	1219.06
546.847	1200.06
547.06	1228.06
547.274	1250.06
547.487	1234.06
547.7	1203.06
547.914	1268.06
548.127	1281.06
548.34	1207.06
548.554	1204.06
548.767	1198.06
548.98	1218.06
549.193	1205.06
549.407	1200.06
549.62	1236.06
549.833	1194.06
550.046	1194.06
550.259	1201.06
550.473	1208.06
550.686	1236.06
550.899	1210.06
551.112	1231.06
551.325	1189.06
551.538	1184.06
551.751	1222.06
551.964	1185.06
552.177	1195.06
552.39	1210.06
552.603	1233.06
552.816	1221.06
553.029	1259.06
553.242	1247.06
553.455	1254.06
553.667	1277.06
553.88	1196.06
554.093	1232.06
554.306	1213.06
554.519	1170.06
554.732	1193.06
554.944	1168.06
555.157	1099.06
555.37	1128.06
555.583	1152.06
555.795	1121.06
556.008	1099.06
556.221	1113.06
556.433	1090.06
556.646	1080.06
556.859	1066.06
557.071	1076.06
557.284	1070.06
557.496	1036.06
557.709	1076.06
557.921	1031.06
558.134	1033.06
558.346	1004.06
558.559	1026.06
558.771	1040.06
558.984	1068.06
559.196	1026.06
559.409	1020.06
559.621	1025.06
559.833	1008.06
560.046	1030.06
560.258	995.06
560.47	975.06
560.683	986.06
560.895	1020.06
561.107	1001.06
561.32	1036.06
561.532	1032.06
561.744	1002.06
561.956	1014.06
562.168	996.06
562.381	1012.06
562.593	1008.06
562.805	1007.06
563.017	1020.06
563.229	1009.06
563.441	1000.06
563.653	1000.06
563.865	1027.06
564.077	1035.06
564.289	1044.06
564.501	1092.06
564.713	1078.06
564.925	1097.06
565.137	1108.06
565.349	1084.06
565.561	1132.06
565.773	1143.06
565.985	1166.06
566.197	1211.06
566.408	1232.06
566.62	1248.06
566.832	1287.06
567.044	1314.06
567.255	1323.06
567.467	1301.06
567.679	1354.06
567.891	1369.06
568.102	1338.06
568.314	1314.06
568.526	1244.06
568.737	1217.06
568.949	1170.06
569.161	1130.06
569.372	1151.06
569.584	1085.06
569.795	1064.06
570.007	1046.06
570.218	1017.06
570.43	981.06
570.641	976.06
570.853	948.06
571.064	962.06
571.276	966.06
571.487	922.06
571.698	960.06
571.91	934.06
572.121	904.06
572.333	882.06
572.544	857.06
572.755	871.06
572.966	863.06
573.178	824.06
573.389	857.06
573.6	822.06
573.811	831.06
574.023	820.06
574.234	825.06
574.445	815.06
574.656	818.06
574.867	824.06
575.078	794.06
575.289	786.06
575.501	787.06
575.712	771.06
575.923	777.06
576.134	777.06
576.345	783.06
576.556	758.06
576.767	771.06
576.978	784.06
577.188	746.06
577.399	753.06
577.61	753.06
577.821	742.06
578.032	732.06
578.243	720.06
578.454	696.06
578.665	726.06
578.875	702.06
579.086	737.06
579.297	711.06
579.508	708.06
579.718	717.06
579.929	694.06
580.14	698.06
580.35	723.06
580.561	700.06
580.772	696.06
580.982	682.06
581.193	673.06
581.403	694.06
581.614	696.06
581.825	684.06
582.035	692.06
582.246	710.06
582.456	666.06
582.667	665.06
582.877	692.06
583.087	668.06
583.298	676.06
583.508	662.06
583.719	688.06
583.929	674.06
584.139	674.06
584.35	663.06
584.56	658.06
584.77	656.06
584.981	644.06
585.191	654.06
585.401	648.06
585.611	645.06
585.821	644.06
586.032	657.06
586.242	659.06
586.452	661.06
586.662	642.06
586.872	649.06
587.082	653.06
587.292	643.06
587.502	650.06
587.713	630.06
587.923	638.06
588.133	634.06
588.343	630.06
588.553	626.06
588.762	634.06
588.972	651.06
589.182	751.06
589.392	722.06
589.602	670.06
589.812	690.06
590.022	685.06
590.232	635.06
590.441	631.06
590.651	656.06
590.861	639.06
591.071	640.06
591.281	642.06
591.49	657.06
591.7	658.06
591.91	637.06
592.119	640.06
592.329	636.06
592.539	677.06
592.748	677.06
592.958	682.06
593.167	681.06
593.377	680.06
593.587	674.06
593.796	672.06
594.006	695.06
594.215	692.06
594.424	699.06
594.634	691.06
594.843	651.06
595.053	673.06
595.262	631.06
595.472	617.06
595.681	615.06
595.89	628.06
596.1	599.06
596.309	577.06
596.518	610.06
596.727	607.06
596.937	589.06
597.146	572.06
597.355	574.06
597.564	582.06
597.774	564.06
597.983	543.06
598.192	546.06
598.401	558.06
598.61	530.06
598.819	555.06
599.028	535.06
599.237	554.06
599.446	518.06
599.655	544.06
599.864	546.06
600.073	533.06
600.282	538.06
600.491	525.06
600.7	531.06
600.909	503.06
601.118	530.06
601.327	513.06
601.536	515.06
601.745	531.06
601.953	514.06
602.162	491.06
602.371	488.06
602.58	481.06
602.789	494.06
602.997	487.06
603.206	494.06
603.415	485.06
603.623	480.06
603.832	482.06
604.041	488.06
604.249	483.06
604.458	500.06
604.666	484.06
604.875	479.06
605.084	496.06
605.292	491.06
605.501	466.06
605.709	470.06
605.918	463.06
606.126	481.06
606.334	466.06
606.543	476.06
606.751	473.06
606.96	455.06
607.168	455.06
607.376	466.06
607.585	475.06
607.793	455.06
608.001	466.06
608.21	457.06
608.418	458.06
608.626	452.06
608.834	464.06
609.043	441.06
609.251	472.06
609.459	459.06
609.667	463.06
609.875	458.06
610.083	449.06
610.291	454.06
610.499	458.06
610.707	441.06
610.916	446.06
611.124	451.06
611.332	447.06
611.54	431.06
611.748	436.06
611.955	443.06
612.163	434.06
612.371	442.06
612.579	435.06
612.787	453.06
612.995	440.06
613.203	448.06
613.411	433.06
613.618	432.06
613.826	434.06
614.034	417.06
614.242	420.06
614.449	419.06
614.657	414.06
614.865	444.06
615.072	420.06
615.28	431.06
615.488	430.06
615.695	412.06
615.903	422.06
616.111	428.06
616.318	421.06
616.526	456.06
616.733	426.06
616.941	428.06
617.148	414.06
617.356	442.06
617.563	422.06
617.771	411.06
617.978	405.06
618.185	396.06
618.393	428.06
618.6	414.06
618.807	422.06
619.015	407.06
619.222	417.06
619.429	410.06
619.637	424.06
619.844	425.06
620.051	418.06
620.258	398.06
620.466	392.06
620.673	410.06
620.88	381.06
621.087	404.06
621.294	386.06
621.501	388.06
621.708	390.06
621.915	392.06
622.122	369.06
622.329	384.06
622.536	404.06
622.743	384.06
622.95	386.06
623.157	383.06
623.364	372.06
623.571	390.06
623.778	353.06
623.985	374.06
624.192	393.06
624.399	369.06
624.606	360.06
624.812	372.06
625.019	367.06
625.226	361.06
625.433	382.06
625.639	350.06
625.846	373.06
626.053	363.06
626.259	342.06
626.466	358.06
626.673	363.06
626.879	372.06
627.086	358.06
627.293	353.06
627.499	346.06
627.706	350.06
627.912	346.06
628.119	321.06
628.325	329.06
628.532	345.06
628.738	341.06
628.945	350.06
629.151	346.06
629.357	334.06
629.564	343.06
629.77	337.06
629.976	321.06
630.183	334.06
630.389	326.06
630.595	326.06
630.802	332.06
631.008	329.06
631.214	328.06
631.42	321.06
631.627	324.06
631.833	327.06
632.039	318.06
632.245	319.06
632.451	342.06
632.657	315.06
632.863	317.06
633.069	325.06
633.275	325.06
633.481	304.06
633.688	299.06
633.893	306.06
634.099	318.06
634.305	314.06
634.511	323.06
634.717	311.06
634.923	308.06
635.129	306.06
635.335	310.06
635.541	302.06
635.747	317.06
635.952	284.06
636.158	314.06
636.364	303.06
636.57	298.06
636.775	320.06
636.981	303.06
637.187	298.06
637.392	290.06
637.598	297.06
637.804	294.06
638.009	292.06
638.215	281.06
638.421	313.06
638.626	293.06
638.832	291.06
639.037	280.06
639.243	307.06
639.448	298.06
639.654	288.06
639.859	297.06
640.065	292.06
640.27	286.06
640.475	277.06
640.681	286.06
640.886	302.06
641.091	276.06
641.297	271.06
641.502	288.06
641.707	294.06
641.913	293.06
642.118	299.06
642.323	275.06
642.528	283.06
642.733	272.06
642.939	282.06
643.144	263.06
643.349	286.06
643.554	284.06
643.759	287.06
643.964	274.06
644.169	283.06
644.374	256.06
644.579	277.06
644.784	262.06
644.989	267.06
645.194	273.06
645.399	283.06
645.604	264.06
645.809	267.06
646.014	283.06
646.219	286.06
646.423	262.06
646.628	282.06
646.833	259.06
647.038	266.06
647.243	286.06
647.447	290.06
647.652	283.06
647.857	288.06
648.062	271.06
648.266	266.06
648.471	278.06
648.676	289.06
648.88	289.06
649.085	277.06
649.289	287.06
649.494	273.06
649.698	268.06
649.903	277.06
650.107	264.06
650.312	279.06
650.516	260.06
650.721	278.06
650.925	266.06
651.13	274.06
651.334	268.06
651.539	243.06
651.743	265.06
651.947	237.06
652.152	271.06
652.356	222.06
652.56	250.06
652.764	241.06
652.969	244.06
653.173	240.06
653.377	243.06
653.581	246.06
653.785	242.06
653.99	234.06
654.194	217.06
654.398	231.06
654.602	227.06
654.806	257.06
655.01	237.06
655.214	227.06
655.418	227.06
655.622	239.06
655.826	239.06
656.03	238.06
656.234	254.06
656.438	238.06
656.642	235.06
656.846	231.06
657.049	241.06
657.253	215.06
657.457	200.06
657.661	192.06
657.865	183.06
658.068	168.06
658.272	180.06
658.476	168.06
658.68	165.06
658.883	130.06
659.087	146.06
659.291	139.06
659.494	133.06
659.698	114.06
659.901	126.06
660.105	118.06
660.309	121.06
660.512	106.06
660.716	115.06
660.919	110.06
661.123	116.06
661.326	104.06
661.53	93.06
661.733	98.06
661.936	101.06
662.14	110.06
662.343	94.06
662.546	80.06
662.75	107.06
662.953	73.06
663.156	77.06
663.36	70.06
663.563	95.06
663.766	85.06
663.969	88.06
664.173	80.06
664.376	77.06
664.579	84.06
664.782	69.06
664.985	76.06
665.188	83.06
665.391	99.06
665.594	88.06
665.797	69.06
666	81.06
666.203	82.06
666.406	76.06
666.609	80.06
666.812	88.06
667.015	79.06
667.218	77.06
667.421	83.06
667.624	80.06
667.827	79.06
668.03	94.06
668.232	83.06
668.435	74.06
668.638	81.06
668.841	88.06
669.043	83.06
669.246	62.06
669.449	90.06
669.651	93.06
669.854	75.06
670.057	71.06
670.259	70.06
670.462	81.06
670.665	86.06
670.867	84.06
671.07	90.06
671.272	79.06
671.475	80.06
671.677	84.06
671.88	75.06
672.082	83.06
672.284	84.06
672.487	67.06
672.689	92.06
672.892	94.06
