Data from NiCl2@0.0625M.TitratingCurve.Agarose3%dH2O.NegLispCup.LampEnergy10.LIBS07252019_HRD10591_18-33-52-577.txt Node
Date: Thu Jul 25 18:33:52 EDT 2019
User: cochatt
Spectrometer: HR+D1059
Trigger mode: 1
Integration Time (sec): 1.000000E-1
Scans to average: 1
Electric dark correction enabled: true
Nonlinearity correction enabled: false
Boxcar width: 0
XAxis mode: Wavelengths
Number of Pixels in Spectrum: 2048
>>>>>Begin Spectral Data<<<<<
223.165	-22.5
223.4	-22.5
223.635	-22.5
223.869	-21.5
224.104	-22.5
224.338	-13.5
224.573	-26.5
224.808	-14.5
225.042	-1.5
225.277	-4.5
225.511	2.5
225.746	6.5
225.98	2.5
226.215	18.5
226.449	8.5
226.683	24.5
226.918	24.5
227.152	39.5
227.387	24.5
227.621	44.5
227.856	36.5
228.09	44.5
228.324	62.5
228.559	54.5
228.793	80.5
229.027	157.5
229.262	161.5
229.496	159.5
229.73	168.5
229.964	176.5
230.199	177.5
230.433	194.5
230.667	185.5
230.901	192.5
231.136	184.5
231.37	169.5
231.604	185.5
231.838	173.5
232.072	202.5
232.306	205.5
232.541	217.5
232.775	201.5
233.009	209.5
233.243	227.5
233.477	204.5
233.711	211.5
233.945	213.5
234.179	228.5
234.413	223.5
234.647	212.5
234.881	218.5
235.115	198.5
235.349	233.5
235.583	236.5
235.817	224.5
236.051	217.5
236.285	231.5
236.519	232.5
236.753	243.5
236.987	244.5
237.221	250.5
237.455	242.5
237.689	226.5
237.922	250.5
238.156	236.5
238.39	248.5
238.624	247.5
238.858	250.5
239.091	271.5
239.325	243.5
239.559	262.5
239.793	284.5
240.027	277.5
240.26	271.5
240.494	279.5
240.728	279.5
240.961	287.5
241.195	286.5
241.429	283.5
241.662	311.5
241.896	322.5
242.13	318.5
242.363	304.5
242.597	318.5
242.83	314.5
243.064	308.5
243.298	332.5
243.531	324.5
243.765	317.5
243.998	323.5
244.232	323.5
244.465	327.5
244.699	335.5
244.932	353.5
245.166	369.5
245.399	350.5
245.633	344.5
245.866	341.5
246.099	357.5
246.333	372.5
246.566	356.5
246.8	366.5
247.033	367.5
247.266	370.5
247.5	363.5
247.733	391.5
247.966	390.5
248.2	382.5
248.433	393.5
248.666	376.5
248.899	404.5
249.133	410.5
249.366	388.5
249.599	404.5
249.832	407.5
250.066	422.5
250.299	432.5
250.532	440.5
250.765	436.5
250.998	433.5
251.231	429.5
251.465	422.5
251.698	453.5
251.931	439.5
252.164	441.5
252.397	445.5
252.63	473.5
252.863	441.5
253.096	462.5
253.329	436.5
253.562	485.5
253.795	467.5
254.028	470.5
254.261	482.5
254.494	473.5
254.727	485.5
254.96	467.5
255.193	484.5
255.426	487.5
255.659	470.5
255.892	509.5
256.124	489.5
256.357	512.5
256.59	505.5
256.823	479.5
257.056	488.5
257.289	512.5
257.521	489.5
257.754	492.5
257.987	526.5
258.22	512.5
258.452	508.5
258.685	518.5
258.918	501.5
259.151	527.5
259.383	522.5
259.616	519.5
259.849	540.5
260.081	551.5
260.314	548.5
260.547	547.5
260.779	539.5
261.012	562.5
261.244	560.5
261.477	579.5
261.71	558.5
261.942	552.5
262.175	582.5
262.407	557.5
262.64	548.5
262.872	570.5
263.105	583.5
263.337	581.5
263.57	567.5
263.802	584.5
264.035	592.5
264.267	601.5
264.499	599.5
264.732	587.5
264.964	604.5
265.197	585.5
265.429	604.5
265.661	595.5
265.894	612.5
266.126	601.5
266.358	595.5
266.591	620.5
266.823	638.5
267.055	617.5
267.287	624.5
267.52	622.5
267.752	641.5
267.984	632.5
268.216	665.5
268.448	633.5
268.681	636.5
268.913	646.5
269.145	607.5
269.377	660.5
269.609	630.5
269.841	679.5
270.073	652.5
270.306	678.5
270.538	650.5
270.77	662.5
271.002	686.5
271.234	669.5
271.466	661.5
271.698	688.5
271.93	692.5
272.162	678.5
272.394	682.5
272.626	684.5
272.858	703.5
273.09	696.5
273.322	725.5
273.553	703.5
273.785	722.5
274.017	709.5
274.249	732.5
274.481	720.5
274.713	725.5
274.945	758.5
275.176	716.5
275.408	723.5
275.64	750.5
275.872	727.5
276.104	758.5
276.335	754.5
276.567	742.5
276.799	749.5
277.031	754.5
277.262	753.5
277.494	773.5
277.726	741.5
277.957	789.5
278.189	781.5
278.421	800.5
278.652	778.5
278.884	803.5
279.115	789.5
279.347	803.5
279.579	802.5
279.81	803.5
280.042	812.5
280.273	811.5
280.505	826.5
280.736	810.5
280.968	828.5
281.199	824.5
281.431	823.5
281.662	840.5
281.894	846.5
282.125	843.5
282.356	823.5
282.588	837.5
282.819	847.5
283.051	820.5
283.282	838.5
283.513	841.5
283.745	855.5
283.976	854.5
284.207	872.5
284.439	873.5
284.67	854.5
284.901	885.5
285.132	885.5
285.364	866.5
285.595	876.5
285.826	880.5
286.057	897.5
286.288	894.5
286.52	891.5
286.751	878.5
286.982	897.5
287.213	909.5
287.444	912.5
287.675	914.5
287.906	922.5
288.138	922.5
288.369	898.5
288.6	912.5
288.831	896.5
289.062	922.5
289.293	936.5
289.524	940.5
289.755	910.5
289.986	921.5
290.217	916.5
290.448	905.5
290.679	944.5
290.91	928.5
291.141	956.5
291.371	956.5
291.602	949.5
291.833	937.5
292.064	923.5
292.295	943.5
292.526	929.5
292.757	914.5
292.987	964.5
293.218	912.5
293.449	958.5
293.68	955.5
293.91	936.5
294.141	958.5
294.372	961.5
294.603	947.5
294.833	957.5
295.064	981.5
295.295	932.5
295.525	952.5
295.756	965.5
295.987	962.5
296.217	973.5
296.448	994.5
296.679	980.5
296.909	941.5
297.14	1008.5
297.37	983.5
297.601	1008.5
297.831	999.5
298.062	984.5
298.292	1026.5
298.523	1044.5
298.753	1043.5
298.984	1018.5
299.214	1001.5
299.445	1006.5
299.675	998.5
299.905	1060.5
300.136	1041.5
300.366	1032.5
300.597	1054.5
300.827	1055.5
301.057	1053.5
301.288	1053.5
301.518	1048.5
301.748	1068.5
301.979	1076.5
302.209	1054.5
302.439	1082.5
302.669	1090.5
302.9	1054.5
303.13	1064.5
303.36	1073.5
303.59	1061.5
303.82	1079.5
304.051	1070.5
304.281	1106.5
304.511	1086.5
304.741	1079.5
304.971	1096.5
305.201	1086.5
305.431	1062.5
305.661	1070.5
305.891	1036.5
306.121	1065.5
306.352	1080.5
306.582	1056.5
306.812	1068.5
307.042	1082.5
307.272	1048.5
307.502	1042.5
307.731	1071.5
307.961	1060.5
308.191	1048.5
308.421	1049.5
308.651	1070.5
308.881	1050.5
309.111	1072.5
309.341	1055.5
309.571	1063.5
309.8	1074.5
310.03	1086.5
310.26	1056.5
310.49	1051.5
310.72	1066.5
310.949	1040.5
311.179	1062.5
311.409	1070.5
311.639	1087.5
311.868	1121.5
312.098	1066.5
312.328	1133.5
312.557	1144.5
312.787	1084.5
313.017	1109.5
313.246	1115.5
313.476	1139.5
313.706	1140.5
313.935	1160.5
314.165	1168.5
314.394	1159.5
314.624	1155.5
314.853	1132.5
315.083	1152.5
315.312	1155.5
315.542	1164.5
315.771	1140.5
316.001	1107.5
316.23	1137.5
316.46	1152.5
316.689	1143.5
316.919	1123.5
317.148	1153.5
317.377	1152.5
317.607	1114.5
317.836	1132.5
318.065	1109.5
318.295	1145.5
318.524	1101.5
318.753	1150.5
318.983	1088.5
319.212	1133.5
319.441	1134.5
319.67	1118.5
319.9	1141.5
320.129	1152.5
320.358	1127.5
320.587	1117.5
320.816	1120.5
321.046	1115.5
321.275	1143.5
321.504	1135.5
321.733	1173.5
321.962	1142.5
322.191	1161.5
322.42	1159.5
322.649	1163.5
322.878	1141.5
323.108	1126.5
323.337	1176.5
323.566	1163.5
323.795	1190.5
324.024	1191.5
324.253	1174.5
324.482	1166.5
324.71	1174.5
324.939	1161.5
325.168	1171.5
325.397	1205.5
325.626	1204.5
325.855	1216.5
326.084	1244.5
326.313	1230.5
326.542	1246.5
326.77	1255.5
326.999	1241.5
327.228	1217.5
327.457	1222.5
327.686	1222.5
327.914	1242.5
328.143	1245.5
328.372	1242.5
328.6	1215.5
328.829	1208.5
329.058	1263.5
329.287	1255.5
329.515	1267.5
329.744	1266.5
329.972	1252.5
330.201	1262.5
330.43	1314.5
330.658	1284.5
330.887	1312.5
331.115	1332.5
331.344	1337.5
331.572	1312.5
331.801	1330.5
332.03	1328.5
332.258	1366.5
332.486	1397.5
332.715	1422.5
332.943	1441.5
333.172	1510.5
333.4	1570.5
333.629	1580.5
333.857	1600.5
334.085	1587.5
334.314	1610.5
334.542	1603.5
334.771	1584.5
334.999	1528.5
335.227	1554.5
335.455	1525.5
335.684	1517.5
335.912	1552.5
336.14	1538.5
336.369	1501.5
336.597	1526.5
336.825	1464.5
337.053	1470.5
337.281	1482.5
337.51	1449.5
337.738	1404.5
337.966	1401.5
338.194	1386.5
338.422	1406.5
338.65	1392.5
338.878	1375.5
339.106	1367.5
339.334	1385.5
339.562	1372.5
339.79	1314.5
340.018	1320.5
340.246	1352.5
340.474	1308.5
340.702	1304.5
340.93	1330.5
341.158	1302.5
341.386	1320.5
341.614	1356.5
341.842	1327.5
342.07	1306.5
342.298	1262.5
342.526	1297.5
342.754	1314.5
342.981	1322.5
343.209	1354.5
343.437	1385.5
343.665	1447.5
343.893	1536.5
344.12	1580.5
344.348	1528.5
344.576	1494.5
344.804	1406.5
345.031	1362.5
345.259	1334.5
345.487	1319.5
345.714	1326.5
345.942	1306.5
346.17	1301.5
346.397	1290.5
346.625	1262.5
346.853	1260.5
347.08	1262.5
347.308	1256.5
347.535	1265.5
347.763	1242.5
347.99	1221.5
348.218	1262.5
348.445	1261.5
348.673	1250.5
348.9	1251.5
349.128	1254.5
349.355	1217.5
349.583	1241.5
349.81	1228.5
350.037	1203.5
350.265	1209.5
350.492	1210.5
350.72	1249.5
350.947	1200.5
351.174	1190.5
351.402	1230.5
351.629	1196.5
351.856	1235.5
352.083	1215.5
352.311	1212.5
352.538	1175.5
352.765	1202.5
352.992	1210.5
353.22	1198.5
353.447	1205.5
353.674	1159.5
353.901	1183.5
354.128	1204.5
354.355	1184.5
354.583	1193.5
354.81	1180.5
355.037	1176.5
355.264	1194.5
355.491	1177.5
355.718	1229.5
355.945	1210.5
356.172	1224.5
356.399	1179.5
356.626	1200.5
356.853	1236.5
357.08	1218.5
357.307	1197.5
357.534	1206.5
357.761	1224.5
357.988	1235.5
358.215	1204.5
358.441	1194.5
358.668	1217.5
358.895	1198.5
359.122	1206.5
359.349	1201.5
359.576	1213.5
359.802	1218.5
360.029	1207.5
360.256	1197.5
360.483	1212.5
360.709	1191.5
360.936	1202.5
361.163	1231.5
361.39	1206.5
361.616	1205.5
361.843	1186.5
362.07	1226.5
362.296	1248.5
362.523	1212.5
362.749	1232.5
362.976	1231.5
363.203	1192.5
363.429	1196.5
363.656	1204.5
363.882	1211.5
364.109	1214.5
364.335	1216.5
364.562	1204.5
364.788	1189.5
365.015	1182.5
365.241	1201.5
365.468	1232.5
365.694	1194.5
365.92	1220.5
366.147	1217.5
366.373	1233.5
366.599	1226.5
366.826	1198.5
367.052	1189.5
367.278	1217.5
367.505	1244.5
367.731	1238.5
367.957	1224.5
368.184	1264.5
368.41	1252.5
368.636	1254.5
368.862	1241.5
369.089	1241.5
369.315	1246.5
369.541	1249.5
369.767	1265.5
369.993	1266.5
370.219	1284.5
370.445	1278.5
370.672	1281.5
370.898	1300.5
371.124	1322.5
371.35	1337.5
371.576	1310.5
371.802	1282.5
372.028	1304.5
372.254	1312.5
372.48	1345.5
372.706	1379.5
372.932	1355.5
373.158	1346.5
373.384	1340.5
373.61	1335.5
373.835	1299.5
374.061	1324.5
374.287	1350.5
374.513	1352.5
374.739	1377.5
374.965	1452.5
375.191	1452.5
375.416	1410.5
375.642	1410.5
375.868	1397.5
376.094	1346.5
376.319	1356.5
376.545	1372.5
376.771	1354.5
376.997	1344.5
377.222	1328.5
377.448	1305.5
377.674	1332.5
377.899	1288.5
378.125	1298.5
378.35	1348.5
378.576	1302.5
378.802	1295.5
379.027	1280.5
379.253	1321.5
379.478	1305.5
379.704	1336.5
379.929	1314.5
380.155	1318.5
380.38	1282.5
380.606	1328.5
380.831	1315.5
381.057	1320.5
381.282	1320.5
381.507	1301.5
381.733	1306.5
381.958	1329.5
382.184	1355.5
382.409	1384.5
382.634	1410.5
382.86	1361.5
383.085	1379.5
383.31	1408.5
383.535	1396.5
383.761	1481.5
383.986	1433.5
384.211	1449.5
384.436	1476.5
384.662	1487.5
384.887	1527.5
385.112	1512.5
385.337	1548.5
385.562	1565.5
385.787	1540.5
386.013	1581.5
386.238	1588.5
386.463	1619.5
386.688	1597.5
386.913	1558.5
387.138	1563.5
387.363	1544.5
387.588	1541.5
387.813	1567.5
388.038	1544.5
388.263	1591.5
388.488	1558.5
388.713	1566.5
388.938	1542.5
389.163	1581.5
389.387	1573.5
389.612	1520.5
389.837	1542.5
390.062	1555.5
390.287	1560.5
390.512	1569.5
390.736	1584.5
390.961	1586.5
391.186	1580.5
391.411	1672.5
391.636	1649.5
391.86	1692.5
392.085	1726.5
392.31	1721.5
392.534	1686.5
392.759	1655.5
392.984	1676.5
393.208	1672.5
393.433	1676.5
393.658	1688.5
393.882	1637.5
394.107	1639.5
394.331	1661.5
394.556	1672.5
394.78	1666.5
395.005	1679.5
395.229	1687.5
395.454	1744.5
395.678	1748.5
395.903	1726.5
396.127	1711.5
396.352	1712.5
396.576	1706.5
396.801	1692.5
397.025	1719.5
397.249	1736.5
397.474	1752.5
397.698	1734.5
397.922	1822.5
398.147	1781.5
398.371	1797.5
398.595	1824.5
398.82	1936.5
399.044	2072.5
399.268	2175.5
399.492	2494.5
399.717	2663.5
399.941	2714.5
400.165	2563.5
400.389	2338.5
400.613	2205.5
400.837	2052.5
401.062	2033.5
401.286	1976.5
401.51	1935.5
401.734	1971.5
401.958	1959.5
402.182	1933.5
402.406	2030.5
402.63	1991.5
402.854	2028.5
403.078	2044.5
403.302	2090.5
403.526	2088.5
403.75	2120.5
403.974	2145.5
404.198	2133.5
404.422	2150.5
404.645	2151.5
404.869	2114.5
405.093	2156.5
405.317	2112.5
405.541	2132.5
405.765	2120.5
405.988	2093.5
406.212	2154.5
406.436	2116.5
406.66	2179.5
406.883	2199.5
407.107	2366.5
407.331	2343.5
407.555	2465.5
407.778	2480.5
408.002	2407.5
408.226	2385.5
408.449	2318.5
408.673	2224.5
408.896	2196.5
409.12	2212.5
409.344	2196.5
409.567	2153.5
409.791	2124.5
410.014	2157.5
410.238	2120.5
410.461	2131.5
410.685	2145.5
410.908	2122.5
411.132	2057.5
411.355	1984.5
411.578	2035.5
411.802	2019.5
412.025	2055.5
412.249	2052.5
412.472	2053.5
412.695	1994.5
412.919	1936.5
413.142	1934.5
413.365	1927.5
413.589	1989.5
413.812	1973.5
414.035	1925.5
414.258	1952.5
414.482	1946.5
414.705	1964.5
414.928	1941.5
415.151	1970.5
415.374	1948.5
415.597	1968.5
415.821	1902.5
416.044	1887.5
416.267	1867.5
416.49	1858.5
416.713	1893.5
416.936	1876.5
417.159	1832.5
417.382	1825.5
417.605	1853.5
417.828	1886.5
418.051	1884.5
418.274	1897.5
418.497	1842.5
418.72	1920.5
418.943	1909.5
419.166	2016.5
419.389	2151.5
419.611	2135.5
419.834	1990.5
420.057	1962.5
420.28	1937.5
420.503	1879.5
420.726	1854.5
420.948	1828.5
421.171	1888.5
421.394	1897.5
421.617	1864.5
421.839	1890.5
422.062	1906.5
422.285	1842.5
422.507	1938.5
422.73	1900.5
422.953	1898.5
423.175	1950.5
423.398	1942.5
423.621	1890.5
423.843	1944.5
424.066	1938.5
424.288	1941.5
424.511	1919.5
424.733	1919.5
424.956	1872.5
425.178	1870.5
425.401	1911.5
425.623	1874.5
425.846	1823.5
426.068	1840.5
426.291	1798.5
426.513	1790.5
426.735	1791.5
426.958	1782.5
427.18	1763.5
427.402	1749.5
427.625	1734.5
427.847	1668.5
428.069	1688.5
428.292	1743.5
428.514	1704.5
428.736	1702.5
428.958	1710.5
429.181	1655.5
429.403	1650.5
429.625	1664.5
429.847	1662.5
430.069	1646.5
430.292	1650.5
430.514	1669.5
430.736	1702.5
430.958	1688.5
431.18	1674.5
431.402	1682.5
431.624	1724.5
431.846	1728.5
432.068	1730.5
432.29	1748.5
432.512	1740.5
432.734	1748.5
432.956	1703.5
433.178	1749.5
433.4	1736.5
433.622	1713.5
433.844	1785.5
434.066	1767.5
434.287	1754.5
434.509	1821.5
434.731	1906.5
434.953	1887.5
435.175	1911.5
435.397	1920.5
435.618	1800.5
435.84	1800.5
436.062	1750.5
436.284	1729.5
436.505	1722.5
436.727	1710.5
436.949	1710.5
437.17	1703.5
437.392	1677.5
437.614	1680.5
437.835	1646.5
438.057	1619.5
438.278	1600.5
438.5	1657.5
438.721	1633.5
438.943	1630.5
439.165	1611.5
439.386	1623.5
439.608	1613.5
439.829	1680.5
440.05	1655.5
440.272	1693.5
440.493	1692.5
440.715	1699.5
440.936	1720.5
441.158	1750.5
441.379	1769.5
441.6	1845.5
441.822	1863.5
442.043	1831.5
442.264	1822.5
442.486	1800.5
442.707	1783.5
442.928	1840.5
443.149	1847.5
443.371	1792.5
443.592	1849.5
443.813	1798.5
444.034	1861.5
444.255	1908.5
444.476	1962.5
444.698	2070.5
444.919	2099.5
445.14	2213.5
445.361	2040.5
445.582	1928.5
445.803	1810.5
446.024	1766.5
446.245	1773.5
446.466	1743.5
446.687	1673.5
446.908	1694.5
447.129	1641.5
447.35	1626.5
447.571	1621.5
447.792	1591.5
448.013	1614.5
448.234	1576.5
448.455	1526.5
448.675	1552.5
448.896	1513.5
449.117	1483.5
449.338	1560.5
449.559	1480.5
449.779	1497.5
450	1478.5
450.221	1504.5
450.442	1501.5
450.662	1469.5
450.883	1559.5
451.104	1542.5
451.324	1548.5
451.545	1517.5
451.766	1497.5
451.986	1513.5
452.207	1519.5
452.428	1505.5
452.648	1493.5
452.869	1476.5
453.089	1458.5
453.31	1484.5
453.53	1472.5
453.751	1453.5
453.971	1424.5
454.192	1429.5
454.412	1446.5
454.633	1416.5
454.853	1432.5
455.073	1397.5
455.294	1453.5
455.514	1401.5
455.734	1412.5
455.955	1406.5
456.175	1393.5
456.395	1410.5
456.616	1410.5
456.836	1437.5
457.056	1440.5
457.276	1410.5
457.497	1433.5
457.717	1440.5
457.937	1457.5
458.157	1463.5
458.377	1499.5
458.598	1519.5
458.818	1556.5
459.038	1590.5
459.258	1603.5
459.478	1696.5
459.698	1722.5
459.918	1754.5
460.138	1795.5
460.358	1912.5
460.578	1914.5
460.798	1923.5
461.018	1948.5
461.238	1934.5
461.458	1879.5
461.678	1898.5
461.898	1954.5
462.118	1993.5
462.338	2028.5
462.558	2080.5
462.777	2156.5
462.997	2351.5
463.217	2426.5
463.437	2492.5
463.657	2279.5
463.876	2233.5
464.096	2234.5
464.316	2198.5
464.536	2187.5
464.755	2119.5
464.975	2032.5
465.195	2008.5
465.414	1906.5
465.634	1756.5
465.854	1751.5
466.073	1702.5
466.293	1642.5
466.512	1640.5
466.732	1634.5
466.951	1622.5
467.171	1606.5
467.391	1593.5
467.61	1555.5
467.829	1575.5
468.049	1587.5
468.268	1538.5
468.488	1556.5
468.707	1490.5
468.927	1564.5
469.146	1559.5
469.365	1533.5
469.585	1540.5
469.804	1614.5
470.023	1624.5
470.243	1580.5
470.462	1622.5
470.681	1667.5
470.901	1674.5
471.12	1621.5
471.339	1618.5
471.558	1603.5
471.777	1549.5
471.997	1578.5
472.216	1550.5
472.435	1572.5
472.654	1540.5
472.873	1535.5
473.092	1532.5
473.311	1534.5
473.53	1526.5
473.749	1518.5
473.968	1520.5
474.187	1501.5
474.406	1526.5
474.625	1523.5
474.844	1545.5
475.063	1546.5
475.282	1526.5
475.501	1560.5
475.72	1520.5
475.939	1565.5
476.158	1601.5
476.377	1624.5
476.596	1613.5
476.814	1604.5
477.033	1623.5
477.252	1639.5
477.471	1696.5
477.69	1707.5
477.908	1776.5
478.127	1795.5
478.346	1794.5
478.564	1806.5
478.783	1875.5
479.002	1933.5
479.22	1904.5
479.439	1900.5
479.658	1938.5
479.876	1968.5
480.095	1946.5
480.313	1972.5
480.532	2056.5
480.751	2061.5
480.969	1994.5
481.188	1920.5
481.406	1938.5
481.624	1861.5
481.843	1846.5
482.061	1908.5
482.28	1907.5
482.498	1848.5
482.717	1873.5
482.935	1879.5
483.153	1905.5
483.372	1901.5
483.59	1895.5
483.808	1893.5
484.027	1922.5
484.245	1959.5
484.463	1925.5
484.681	2010.5
484.9	2021.5
485.118	2029.5
485.336	2024.5
485.554	2068.5
485.772	2066.5
485.99	2004.5
486.209	2027.5
486.427	2071.5
486.645	2040.5
486.863	2037.5
487.081	2019.5
487.299	2044.5
487.517	1996.5
487.735	1994.5
487.953	2007.5
488.171	1993.5
488.389	1982.5
488.607	1949.5
488.825	1927.5
489.043	1938.5
489.261	1924.5
489.479	1943.5
489.696	1936.5
489.914	1936.5
490.132	1964.5
490.35	1962.5
490.568	1882.5
490.786	1918.5
491.003	1952.5
491.221	1933.5
491.439	1950.5
491.657	1924.5
491.874	1918.5
492.092	1906.5
492.31	1914.5
492.527	1913.5
492.745	1878.5
492.963	1897.5
493.18	1923.5
493.398	1930.5
493.615	1960.5
493.833	1978.5
494.05	1936.5
494.268	1944.5
494.485	1950.5
494.703	1980.5
494.92	1975.5
495.138	1946.5
495.355	1959.5
495.573	1982.5
495.79	1976.5
496.008	1992.5
496.225	2021.5
496.442	2002.5
496.66	2063.5
496.877	2046.5
497.094	2110.5
497.312	2118.5
497.529	2151.5
497.746	2226.5
497.963	2248.5
498.181	2377.5
498.398	2428.5
498.615	2557.5
498.832	2746.5
499.049	2929.5
499.267	3134.5
499.484	3366.5
499.701	3660.5
499.918	4000.5
500.135	4409.5
500.352	4766.5
500.569	4988.5
500.786	4941.5
501.003	4677.5
501.22	4352.5
501.437	3928.5
501.654	3554.5
501.871	3252.5
502.088	3052.5
502.305	2851.5
502.522	2695.5
502.739	2658.5
502.956	2523.5
503.172	2428.5
503.389	2326.5
503.606	2285.5
503.823	2204.5
504.04	2266.5
504.256	2191.5
504.473	2228.5
504.69	2209.5
504.907	2162.5
505.123	2095.5
505.34	1936.5
505.557	1896.5
505.773	1916.5
505.99	1852.5
506.207	1826.5
506.423	1770.5
506.64	1742.5
506.856	1702.5
507.073	1725.5
507.289	1687.5
507.506	1672.5
507.722	1663.5
507.939	1710.5
508.155	1657.5
508.372	1666.5
508.588	1614.5
508.805	1633.5
509.021	1609.5
509.238	1613.5
509.454	1566.5
509.67	1567.5
509.887	1580.5
510.103	1516.5
510.319	1563.5
510.536	1513.5
510.752	1488.5
510.968	1496.5
511.184	1521.5
511.401	1519.5
511.617	1541.5
511.833	1527.5
512.049	1557.5
512.265	1518.5
512.481	1536.5
512.698	1516.5
512.914	1521.5
513.13	1521.5
513.346	1525.5
513.562	1513.5
513.778	1521.5
513.994	1542.5
514.21	1549.5
514.426	1556.5
514.642	1573.5
514.858	1544.5
515.074	1588.5
515.29	1562.5
515.506	1602.5
515.721	1609.5
515.937	1637.5
516.153	1651.5
516.369	1670.5
516.585	1746.5
516.801	1794.5
517.016	1824.5
517.232	1909.5
517.448	1956.5
517.664	1964.5
517.879	2014.5
518.095	2011.5
518.311	1951.5
518.527	1912.5
518.742	1824.5
518.958	1764.5
519.173	1753.5
519.389	1704.5
519.605	1654.5
519.82	1606.5
520.036	1608.5
520.251	1533.5
520.467	1568.5
520.682	1525.5
520.898	1509.5
521.113	1502.5
521.329	1482.5
521.544	1442.5
521.76	1458.5
521.975	1480.5
522.19	1474.5
522.406	1449.5
522.621	1417.5
522.836	1423.5
523.052	1423.5
523.267	1401.5
523.482	1409.5
523.698	1400.5
523.913	1364.5
524.128	1372.5
524.343	1367.5
524.559	1385.5
524.774	1393.5
524.989	1368.5
525.204	1381.5
525.419	1398.5
525.634	1350.5
525.849	1359.5
526.064	1338.5
526.28	1340.5
526.495	1349.5
526.71	1351.5
526.925	1349.5
527.14	1343.5
527.355	1336.5
527.57	1332.5
527.785	1358.5
527.999	1321.5
528.214	1352.5
528.429	1336.5
528.644	1350.5
528.859	1354.5
529.074	1343.5
529.289	1332.5
529.503	1332.5
529.718	1346.5
529.933	1308.5
530.148	1312.5
530.363	1313.5
530.577	1321.5
530.792	1331.5
531.007	1316.5
531.221	1336.5
531.436	1325.5
531.651	1334.5
531.865	1332.5
532.08	1348.5
532.295	1342.5
532.509	1323.5
532.724	1321.5
532.938	1328.5
533.153	1341.5
533.367	1340.5
533.582	1345.5
533.796	1301.5
534.011	1368.5
534.225	1300.5
534.44	1301.5
534.654	1290.5
534.868	1300.5
535.083	1297.5
535.297	1296.5
535.511	1302.5
535.726	1262.5
535.94	1265.5
536.154	1248.5
536.369	1260.5
536.583	1233.5
536.797	1205.5
537.011	1209.5
537.225	1202.5
537.44	1236.5
537.654	1221.5
537.868	1255.5
538.082	1237.5
538.296	1226.5
538.51	1187.5
538.724	1214.5
538.938	1205.5
539.153	1205.5
539.367	1201.5
539.581	1194.5
539.795	1200.5
540.009	1189.5
540.222	1190.5
540.436	1200.5
540.65	1191.5
540.864	1180.5
541.078	1187.5
541.292	1188.5
541.506	1183.5
541.72	1161.5
541.934	1191.5
542.147	1176.5
542.361	1183.5
542.575	1150.5
542.789	1150.5
543.002	1179.5
543.216	1152.5
543.43	1147.5
543.644	1136.5
543.857	1150.5
544.071	1149.5
544.285	1171.5
544.498	1145.5
544.712	1145.5
544.925	1168.5
545.139	1192.5
545.352	1171.5
545.566	1148.5
545.779	1200.5
545.993	1223.5
546.206	1201.5
546.42	1166.5
546.633	1186.5
546.847	1169.5
547.06	1215.5
547.274	1186.5
547.487	1193.5
547.7	1184.5
547.914	1174.5
548.127	1191.5
548.34	1196.5
548.554	1178.5
548.767	1180.5
548.98	1191.5
549.193	1179.5
549.407	1215.5
549.62	1181.5
549.833	1255.5
550.046	1223.5
550.259	1229.5
550.473	1196.5
550.686	1188.5
550.899	1174.5
551.112	1172.5
551.325	1159.5
551.538	1195.5
551.751	1155.5
551.964	1166.5
552.177	1185.5
552.39	1181.5
552.603	1248.5
552.816	1236.5
553.029	1255.5
553.242	1266.5
553.455	1319.5
553.667	1276.5
553.88	1288.5
554.093	1214.5
554.306	1210.5
554.519	1161.5
554.732	1196.5
554.944	1138.5
555.157	1131.5
555.37	1118.5
555.583	1114.5
555.795	1104.5
556.008	1086.5
556.221	1070.5
556.433	1041.5
556.646	1049.5
556.859	1056.5
557.071	1025.5
557.284	1020.5
557.496	1026.5
557.709	1030.5
557.921	1013.5
558.134	1007.5
558.346	1014.5
558.559	1018.5
558.771	1006.5
558.984	982.5
559.196	975.5
559.409	981.5
559.621	963.5
559.833	995.5
560.046	965.5
560.258	981.5
560.47	998.5
560.683	971.5
560.895	975.5
561.107	966.5
561.32	964.5
561.532	986.5
561.744	968.5
561.956	987.5
562.168	976.5
562.381	989.5
562.593	1005.5
562.805	982.5
563.017	1014.5
563.229	1019.5
563.441	993.5
563.653	1008.5
563.865	993.5
564.077	1000.5
564.289	1010.5
564.501	1020.5
564.713	1057.5
564.925	1059.5
565.137	1057.5
565.349	1133.5
565.561	1149.5
565.773	1211.5
565.985	1200.5
566.197	1243.5
566.408	1321.5
566.62	1432.5
566.832	1493.5
567.044	1532.5
567.255	1503.5
567.467	1598.5
567.679	1654.5
567.891	1696.5
568.102	1738.5
568.314	1644.5
568.526	1545.5
568.737	1440.5
568.949	1329.5
569.161	1210.5
569.372	1166.5
569.584	1094.5
569.795	1088.5
570.007	1046.5
570.218	1025.5
570.43	1022.5
570.641	982.5
570.853	1024.5
571.064	1033.5
571.276	998.5
571.487	970.5
571.698	941.5
571.91	914.5
572.121	881.5
572.333	865.5
572.544	879.5
572.755	854.5
572.966	841.5
573.178	852.5
573.389	813.5
573.6	830.5
573.811	821.5
574.023	803.5
574.234	786.5
574.445	818.5
574.656	782.5
574.867	790.5
575.078	777.5
575.289	787.5
575.501	791.5
575.712	783.5
575.923	775.5
576.134	760.5
576.345	747.5
576.556	746.5
576.767	722.5
576.978	770.5
577.188	736.5
577.399	738.5
577.61	719.5
577.821	731.5
578.032	741.5
578.243	736.5
578.454	718.5
578.665	701.5
578.875	691.5
579.086	708.5
579.297	714.5
579.508	698.5
579.718	713.5
579.929	694.5
580.14	708.5
580.35	679.5
580.561	689.5
580.772	694.5
580.982	646.5
581.193	666.5
581.403	688.5
581.614	700.5
581.825	674.5
582.035	670.5
582.246	649.5
582.456	636.5
582.667	679.5
582.877	665.5
583.087	677.5
583.298	655.5
583.508	656.5
583.719	665.5
583.929	657.5
584.139	664.5
584.35	651.5
584.56	627.5
584.77	661.5
584.981	642.5
585.191	668.5
585.401	648.5
585.611	637.5
585.821	632.5
586.032	627.5
586.242	629.5
586.452	655.5
586.662	640.5
586.872	623.5
587.082	614.5
587.292	632.5
587.502	630.5
587.713	635.5
587.923	603.5
588.133	625.5
588.343	605.5
588.553	658.5
588.762	652.5
588.972	665.5
589.182	654.5
589.392	646.5
589.602	635.5
589.812	642.5
590.022	641.5
590.232	625.5
590.441	636.5
590.651	627.5
590.861	651.5
591.071	644.5
591.281	650.5
591.49	661.5
591.7	653.5
591.91	689.5
592.119	676.5
592.329	662.5
592.539	686.5
592.748	728.5
592.958	727.5
593.167	749.5
593.377	739.5
593.587	776.5
593.796	781.5
594.006	777.5
594.215	792.5
594.424	759.5
594.634	741.5
594.843	727.5
595.053	704.5
595.262	680.5
595.472	653.5
595.681	660.5
595.89	661.5
596.1	609.5
596.309	622.5
596.518	596.5
596.727	623.5
596.937	594.5
597.146	583.5
597.355	585.5
597.564	572.5
597.774	562.5
597.983	582.5
598.192	546.5
598.401	552.5
598.61	513.5
598.819	553.5
599.028	521.5
599.237	540.5
599.446	539.5
599.655	516.5
599.864	518.5
600.073	523.5
600.282	534.5
600.491	511.5
600.7	530.5
600.909	522.5
601.118	519.5
601.327	513.5
601.536	518.5
601.745	512.5
601.953	508.5
602.162	518.5
602.371	498.5
602.58	501.5
602.789	500.5
602.997	498.5
603.206	489.5
603.415	502.5
603.623	498.5
603.832	468.5
604.041	476.5
604.249	487.5
604.458	469.5
604.666	469.5
604.875	485.5
605.084	465.5
605.292	484.5
605.501	466.5
605.709	470.5
605.918	456.5
606.126	491.5
606.334	476.5
606.543	480.5
606.751	469.5
606.96	474.5
607.168	448.5
607.376	457.5
607.585	479.5
607.793	439.5
608.001	473.5
608.21	461.5
608.418	436.5
608.626	450.5
608.834	470.5
609.043	468.5
609.251	448.5
609.459	464.5
609.667	456.5
609.875	455.5
610.083	458.5
610.291	454.5
610.499	433.5
610.707	450.5
610.916	428.5
611.124	447.5
611.332	428.5
611.54	444.5
611.748	440.5
611.955	448.5
612.163	441.5
612.371	439.5
612.579	431.5
612.787	454.5
612.995	422.5
613.203	445.5
613.411	432.5
613.618	450.5
613.826	423.5
614.034	424.5
614.242	449.5
614.449	411.5
614.657	423.5
614.865	442.5
615.072	407.5
615.28	449.5
615.488	443.5
615.695	424.5
615.903	434.5
616.111	444.5
616.318	457.5
616.526	438.5
616.733	441.5
616.941	432.5
617.148	437.5
617.356	428.5
617.563	421.5
617.771	420.5
617.978	430.5
618.185	429.5
618.393	438.5
618.6	450.5
618.807	432.5
619.015	415.5
619.222	430.5
619.429	424.5
619.637	430.5
619.844	413.5
620.051	422.5
620.258	402.5
620.466	416.5
620.673	377.5
620.88	407.5
621.087	401.5
621.294	402.5
621.501	385.5
621.708	402.5
621.915	410.5
622.122	405.5
622.329	393.5
622.536	404.5
622.743	396.5
622.95	413.5
623.157	385.5
623.364	407.5
623.571	377.5
623.778	392.5
623.985	392.5
624.192	380.5
624.399	359.5
624.606	366.5
624.812	377.5
625.019	387.5
625.226	386.5
625.433	390.5
625.639	367.5
625.846	369.5
626.053	373.5
626.259	365.5
626.466	361.5
626.673	382.5
626.879	372.5
627.086	360.5
627.293	335.5
627.499	342.5
627.706	364.5
627.912	346.5
628.119	368.5
628.325	349.5
628.532	352.5
628.738	358.5
628.945	358.5
629.151	344.5
629.357	347.5
629.564	342.5
629.77	342.5
629.976	359.5
630.183	357.5
630.389	345.5
630.595	336.5
630.802	333.5
631.008	335.5
631.214	323.5
631.42	335.5
631.627	337.5
631.833	319.5
632.039	344.5
632.245	312.5
632.451	318.5
632.657	323.5
632.863	316.5
633.069	334.5
633.275	339.5
633.481	321.5
633.688	308.5
633.893	308.5
634.099	317.5
634.305	323.5
634.511	323.5
634.717	316.5
634.923	309.5
635.129	292.5
635.335	332.5
635.541	307.5
635.747	311.5
635.952	305.5
636.158	293.5
636.364	288.5
636.57	298.5
636.775	312.5
636.981	312.5
637.187	319.5
637.392	298.5
637.598	314.5
637.804	313.5
638.009	309.5
638.215	330.5
638.421	290.5
638.626	304.5
638.832	289.5
639.037	293.5
639.243	300.5
639.448	307.5
639.654	292.5
639.859	294.5
640.065	289.5
640.27	285.5
640.475	292.5
640.681	304.5
640.886	284.5
641.091	283.5
641.297	305.5
641.502	295.5
641.707	295.5
641.913	278.5
642.118	286.5
642.323	289.5
642.528	287.5
642.733	291.5
642.939	284.5
643.144	274.5
643.349	297.5
643.554	290.5
643.759	278.5
643.964	264.5
644.169	276.5
644.374	282.5
644.579	279.5
644.784	276.5
644.989	301.5
645.194	306.5
645.399	288.5
645.604	281.5
645.809	284.5
646.014	286.5
646.219	284.5
646.423	291.5
646.628	284.5
646.833	298.5
647.038	302.5
647.243	311.5
647.447	308.5
647.652	300.5
647.857	289.5
648.062	313.5
648.266	312.5
648.471	326.5
648.676	327.5
648.88	300.5
649.085	313.5
649.289	318.5
649.494	302.5
649.698	308.5
649.903	274.5
650.107	290.5
650.312	301.5
650.516	302.5
650.721	292.5
650.925	297.5
651.13	290.5
651.334	272.5
651.539	289.5
651.743	291.5
651.947	288.5
652.152	264.5
652.356	282.5
652.56	266.5
652.764	278.5
652.969	273.5
653.173	294.5
653.377	279.5
653.581	274.5
653.785	279.5
653.99	277.5
654.194	291.5
654.398	269.5
654.602	272.5
654.806	297.5
655.01	301.5
655.214	308.5
655.418	317.5
655.622	332.5
655.826	329.5
656.03	361.5
656.234	396.5
656.438	404.5
656.642	417.5
656.846	396.5
657.049	339.5
657.253	336.5
657.457	278.5
657.661	258.5
657.865	236.5
658.068	198.5
658.272	207.5
658.476	192.5
658.68	174.5
658.883	164.5
659.087	143.5
659.291	141.5
659.494	157.5
659.698	132.5
659.901	124.5
660.105	123.5
660.309	123.5
660.512	113.5
660.716	100.5
660.919	120.5
661.123	93.5
661.326	95.5
661.53	97.5
661.733	110.5
661.936	108.5
662.14	93.5
662.343	82.5
662.546	83.5
662.75	85.5
662.953	91.5
663.156	89.5
663.36	85.5
663.563	73.5
663.766	91.5
663.969	89.5
664.173	74.5
664.376	78.5
664.579	84.5
664.782	87.5
664.985	82.5
665.188	81.5
665.391	85.5
665.594	81.5
665.797	73.5
666	64.5
666.203	66.5
666.406	79.5
666.609	92.5
666.812	83.5
667.015	73.5
667.218	92.5
667.421	84.5
667.624	78.5
667.827	72.5
668.03	85.5
668.232	82.5
668.435	89.5
668.638	76.5
668.841	96.5
669.043	88.5
669.246	82.5
669.449	78.5
669.651	67.5
669.854	86.5
670.057	79.5
670.259	89.5
670.462	62.5
670.665	88.5
670.867	76.5
671.07	93.5
671.272	82.5
671.475	83.5
671.677	82.5
671.88	98.5
672.082	76.5
672.284	82.5
672.487	75.5
672.689	74.5
672.892	62.5
