Data from NiCl2@0.5M.TitratingCurve.Agarose3%dH2O.NegLispCup.LampEnergy10.LIBS07252019_HRD10591_18-18-38-571.txt Node
Date: Thu Jul 25 18:18:38 EDT 2019
User: cochatt
Spectrometer: HR+D1059
Trigger mode: 1
Integration Time (sec): 1.000000E-1
Scans to average: 1
Electric dark correction enabled: true
Nonlinearity correction enabled: false
Boxcar width: 0
XAxis mode: Wavelengths
Number of Pixels in Spectrum: 2048
>>>>>Begin Spectral Data<<<<<
223.165	1.56
223.4	1.56
223.635	1.56
223.869	-14.44
224.104	-11.44
224.338	-17.44
224.573	-8.44
224.808	-24.44
225.042	-12.44
225.277	9.56
225.511	-13.44
225.746	3.56
225.98	-7.44
226.215	14.56
226.449	22.56
226.683	16.56
226.918	7.56
227.152	33.56
227.387	34.56
227.621	39.56
227.856	47.56
228.09	61.56
228.324	43.56
228.559	43.56
228.793	85.56
229.027	130.56
229.262	145.56
229.496	159.56
229.73	168.56
229.964	179.56
230.199	195.56
230.433	201.56
230.667	193.56
230.901	192.56
231.136	190.56
231.37	192.56
231.604	198.56
231.838	193.56
232.072	220.56
232.306	198.56
232.541	196.56
232.775	201.56
233.009	171.56
233.243	205.56
233.477	201.56
233.711	202.56
233.945	194.56
234.179	207.56
234.413	204.56
234.647	202.56
234.881	196.56
235.115	208.56
235.349	208.56
235.583	212.56
235.817	221.56
236.051	213.56
236.285	198.56
236.519	211.56
236.753	224.56
236.987	214.56
237.221	212.56
237.455	227.56
237.689	209.56
237.922	220.56
238.156	231.56
238.39	234.56
238.624	221.56
238.858	229.56
239.091	249.56
239.325	235.56
239.559	256.56
239.793	275.56
240.027	246.56
240.26	260.56
240.494	269.56
240.728	269.56
240.961	268.56
241.195	259.56
241.429	265.56
241.662	253.56
241.896	288.56
242.13	309.56
242.363	279.56
242.597	299.56
242.83	278.56
243.064	284.56
243.298	278.56
243.531	295.56
243.765	308.56
243.998	317.56
244.232	307.56
244.465	304.56
244.699	320.56
244.932	314.56
245.166	301.56
245.399	291.56
245.633	305.56
245.866	333.56
246.099	341.56
246.333	321.56
246.566	323.56
246.8	321.56
247.033	324.56
247.266	330.56
247.5	333.56
247.733	335.56
247.966	335.56
248.2	341.56
248.433	333.56
248.666	353.56
248.899	348.56
249.133	364.56
249.366	366.56
249.599	344.56
249.832	363.56
250.066	371.56
250.299	354.56
250.532	373.56
250.765	367.56
250.998	386.56
251.231	384.56
251.465	400.56
251.698	389.56
251.931	415.56
252.164	389.56
252.397	387.56
252.63	395.56
252.863	412.56
253.096	415.56
253.329	412.56
253.562	422.56
253.795	398.56
254.028	408.56
254.261	407.56
254.494	420.56
254.727	433.56
254.96	437.56
255.193	423.56
255.426	424.56
255.659	433.56
255.892	443.56
256.124	432.56
256.357	442.56
256.59	448.56
256.823	444.56
257.056	423.56
257.289	470.56
257.521	453.56
257.754	480.56
257.987	469.56
258.22	456.56
258.452	468.56
258.685	463.56
258.918	465.56
259.151	471.56
259.383	464.56
259.616	462.56
259.849	481.56
260.081	482.56
260.314	461.56
260.547	483.56
260.779	495.56
261.012	504.56
261.244	499.56
261.477	501.56
261.71	483.56
261.942	495.56
262.175	511.56
262.407	507.56
262.64	491.56
262.872	540.56
263.105	522.56
263.337	527.56
263.57	521.56
263.802	529.56
264.035	525.56
264.267	539.56
264.499	526.56
264.732	528.56
264.964	537.56
265.197	539.56
265.429	543.56
265.661	559.56
265.894	548.56
266.126	542.56
266.358	555.56
266.591	575.56
266.823	583.56
267.055	572.56
267.287	556.56
267.52	559.56
267.752	566.56
267.984	576.56
268.216	560.56
268.448	590.56
268.681	597.56
268.913	605.56
269.145	595.56
269.377	584.56
269.609	600.56
269.841	576.56
270.073	600.56
270.306	587.56
270.538	615.56
270.77	581.56
271.002	624.56
271.234	615.56
271.466	610.56
271.698	575.56
271.93	611.56
272.162	608.56
272.394	635.56
272.626	647.56
272.858	617.56
273.09	657.56
273.322	657.56
273.553	620.56
273.785	669.56
274.017	659.56
274.249	651.56
274.481	653.56
274.713	640.56
274.945	643.56
275.176	680.56
275.408	661.56
275.64	661.56
275.872	650.56
276.104	668.56
276.335	667.56
276.567	691.56
276.799	683.56
277.031	680.56
277.262	679.56
277.494	700.56
277.726	673.56
277.957	683.56
278.189	709.56
278.421	687.56
278.652	716.56
278.884	701.56
279.115	697.56
279.347	723.56
279.579	700.56
279.81	709.56
280.042	709.56
280.273	743.56
280.505	725.56
280.736	743.56
280.968	744.56
281.199	724.56
281.431	709.56
281.662	727.56
281.894	732.56
282.125	715.56
282.356	751.56
282.588	746.56
282.819	771.56
283.051	773.56
283.282	723.56
283.513	784.56
283.745	761.56
283.976	774.56
284.207	785.56
284.439	771.56
284.67	778.56
284.901	794.56
285.132	799.56
285.364	784.56
285.595	779.56
285.826	793.56
286.057	789.56
286.288	799.56
286.52	807.56
286.751	789.56
286.982	819.56
287.213	827.56
287.444	807.56
287.675	795.56
287.906	810.56
288.138	837.56
288.369	809.56
288.6	806.56
288.831	807.56
289.062	848.56
289.293	844.56
289.524	843.56
289.755	816.56
289.986	839.56
290.217	819.56
290.448	848.56
290.679	837.56
290.91	829.56
291.141	837.56
291.371	805.56
291.602	831.56
291.833	857.56
292.064	834.56
292.295	832.56
292.526	856.56
292.757	880.56
292.987	851.56
293.218	849.56
293.449	845.56
293.68	848.56
293.91	831.56
294.141	863.56
294.372	849.56
294.603	866.56
294.833	881.56
295.064	847.56
295.295	861.56
295.525	841.56
295.756	848.56
295.987	877.56
296.217	875.56
296.448	926.56
296.679	868.56
296.909	891.56
297.14	903.56
297.37	909.56
297.601	920.56
297.831	893.56
298.062	909.56
298.292	910.56
298.523	939.56
298.753	944.56
298.984	937.56
299.214	926.56
299.445	944.56
299.675	919.56
299.905	913.56
300.136	919.56
300.366	945.56
300.597	974.56
300.827	978.56
301.057	962.56
301.288	974.56
301.518	997.56
301.748	978.56
301.979	961.56
302.209	962.56
302.439	997.56
302.669	961.56
302.9	965.56
303.13	995.56
303.36	976.56
303.59	963.56
303.82	981.56
304.051	1001.56
304.281	996.56
304.511	980.56
304.741	972.56
304.971	979.56
305.201	1001.56
305.431	1003.56
305.661	1008.56
305.891	978.56
306.121	1003.56
306.352	958.56
306.582	975.56
306.812	947.56
307.042	967.56
307.272	967.56
307.502	946.56
307.731	972.56
307.961	956.56
308.191	980.56
308.421	959.56
308.651	970.56
308.881	931.56
309.111	965.56
309.341	949.56
309.571	961.56
309.8	981.56
310.03	1008.56
310.26	995.56
310.49	1016.56
310.72	999.56
310.949	1022.56
311.179	978.56
311.409	988.56
311.639	988.56
311.868	997.56
312.098	1018.56
312.328	1015.56
312.557	1001.56
312.787	1029.56
313.017	1008.56
313.246	1041.56
313.476	1042.56
313.706	1056.56
313.935	1039.56
314.165	1047.56
314.394	1026.56
314.624	1085.56
314.853	1019.56
315.083	1066.56
315.312	1083.56
315.542	1088.56
315.771	1041.56
316.001	1050.56
316.23	1041.56
316.46	1042.56
316.689	1063.56
316.919	1048.56
317.148	1068.56
317.377	1055.56
317.607	1035.56
317.836	1056.56
318.065	1074.56
318.295	1056.56
318.524	1079.56
318.753	1071.56
318.983	1083.56
319.212	1080.56
319.441	1045.56
319.67	1053.56
319.9	1044.56
320.129	1081.56
320.358	1058.56
320.587	1051.56
320.816	1047.56
321.046	1059.56
321.275	1065.56
321.504	1051.56
321.733	1094.56
321.962	1100.56
322.191	1076.56
322.42	1101.56
322.649	1079.56
322.878	1096.56
323.108	1088.56
323.337	1109.56
323.566	1115.56
323.795	1093.56
324.024	1110.56
324.253	1096.56
324.482	1116.56
324.71	1100.56
324.939	1114.56
325.168	1129.56
325.397	1123.56
325.626	1139.56
325.855	1124.56
326.084	1139.56
326.313	1131.56
326.542	1140.56
326.77	1163.56
326.999	1139.56
327.228	1151.56
327.457	1137.56
327.686	1107.56
327.914	1158.56
328.143	1147.56
328.372	1142.56
328.6	1177.56
328.829	1167.56
329.058	1127.56
329.287	1201.56
329.515	1141.56
329.744	1169.56
329.972	1185.56
330.201	1143.56
330.43	1130.56
330.658	1177.56
330.887	1193.56
331.115	1162.56
331.344	1171.56
331.572	1236.56
331.801	1259.56
332.03	1258.56
332.258	1271.56
332.486	1268.56
332.715	1295.56
332.943	1321.56
333.172	1320.56
333.4	1363.56
333.629	1371.56
333.857	1426.56
334.085	1417.56
334.314	1397.56
334.542	1415.56
334.771	1431.56
334.999	1421.56
335.227	1401.56
335.455	1400.56
335.684	1413.56
335.912	1391.56
336.14	1397.56
336.369	1404.56
336.597	1420.56
336.825	1394.56
337.053	1403.56
337.281	1369.56
337.51	1350.56
337.738	1348.56
337.966	1313.56
338.194	1356.56
338.422	1257.56
338.65	1259.56
338.878	1270.56
339.106	1267.56
339.334	1306.56
339.562	1289.56
339.79	1263.56
340.018	1252.56
340.246	1194.56
340.474	1249.56
340.702	1215.56
340.93	1206.56
341.158	1219.56
341.386	1287.56
341.614	1259.56
341.842	1265.56
342.07	1239.56
342.298	1225.56
342.526	1250.56
342.754	1228.56
342.981	1224.56
343.209	1237.56
343.437	1263.56
343.665	1339.56
343.893	1349.56
344.12	1388.56
344.348	1389.56
344.576	1306.56
344.804	1372.56
345.031	1251.56
345.259	1282.56
345.487	1239.56
345.714	1247.56
345.942	1253.56
346.17	1269.56
346.397	1237.56
346.625	1192.56
346.853	1185.56
347.08	1162.56
347.308	1170.56
347.535	1159.56
347.763	1196.56
347.99	1143.56
348.218	1155.56
348.445	1146.56
348.673	1157.56
348.9	1166.56
349.128	1162.56
349.355	1170.56
349.583	1183.56
349.81	1125.56
350.037	1142.56
350.265	1123.56
350.492	1127.56
350.72	1157.56
350.947	1148.56
351.174	1173.56
351.402	1176.56
351.629	1163.56
351.856	1166.56
352.083	1147.56
352.311	1131.56
352.538	1151.56
352.765	1172.56
352.992	1104.56
353.22	1096.56
353.447	1093.56
353.674	1093.56
353.901	1089.56
354.128	1071.56
354.355	1111.56
354.583	1069.56
354.81	1083.56
355.037	1104.56
355.264	1097.56
355.491	1082.56
355.718	1087.56
355.945	1121.56
356.172	1115.56
356.399	1108.56
356.626	1151.56
356.853	1170.56
357.08	1155.56
357.307	1102.56
357.534	1111.56
357.761	1096.56
357.988	1116.56
358.215	1073.56
358.441	1069.56
358.668	1088.56
358.895	1090.56
359.122	1098.56
359.349	1099.56
359.576	1098.56
359.802	1118.56
360.029	1113.56
360.256	1103.56
360.483	1122.56
360.709	1103.56
360.936	1093.56
361.163	1108.56
361.39	1148.56
361.616	1128.56
361.843	1153.56
362.07	1183.56
362.296	1158.56
362.523	1099.56
362.749	1084.56
362.976	1105.56
363.203	1104.56
363.429	1086.56
363.656	1097.56
363.882	1076.56
364.109	1108.56
364.335	1098.56
364.562	1091.56
364.788	1068.56
365.015	1079.56
365.241	1074.56
365.468	1104.56
365.694	1093.56
365.92	1116.56
366.147	1064.56
366.373	1094.56
366.599	1128.56
366.826	1091.56
367.052	1101.56
367.278	1081.56
367.505	1095.56
367.731	1092.56
367.957	1096.56
368.184	1093.56
368.41	1109.56
368.636	1114.56
368.862	1100.56
369.089	1102.56
369.315	1121.56
369.541	1105.56
369.767	1128.56
369.993	1160.56
370.219	1134.56
370.445	1144.56
370.672	1144.56
370.898	1128.56
371.124	1123.56
371.35	1162.56
371.576	1177.56
371.802	1151.56
372.028	1128.56
372.254	1154.56
372.48	1152.56
372.706	1187.56
372.932	1159.56
373.158	1164.56
373.384	1196.56
373.61	1199.56
373.835	1186.56
374.061	1177.56
374.287	1175.56
374.513	1171.56
374.739	1183.56
374.965	1229.56
375.191	1275.56
375.416	1234.56
375.642	1196.56
375.868	1213.56
376.094	1165.56
376.319	1191.56
376.545	1181.56
376.771	1152.56
376.997	1154.56
377.222	1160.56
377.448	1147.56
377.674	1146.56
377.899	1174.56
378.125	1139.56
378.35	1138.56
378.576	1167.56
378.802	1138.56
379.027	1117.56
379.253	1140.56
379.478	1141.56
379.704	1079.56
379.929	1132.56
380.155	1133.56
380.38	1135.56
380.606	1144.56
380.831	1147.56
381.057	1145.56
381.282	1150.56
381.507	1113.56
381.733	1156.56
381.958	1127.56
382.184	1160.56
382.409	1157.56
382.634	1177.56
382.86	1163.56
383.085	1171.56
383.31	1202.56
383.535	1223.56
383.761	1211.56
383.986	1224.56
384.211	1238.56
384.436	1252.56
384.662	1249.56
384.887	1283.56
385.112	1256.56
385.337	1311.56
385.562	1315.56
385.787	1326.56
386.013	1341.56
386.238	1336.56
386.463	1324.56
386.688	1349.56
386.913	1322.56
387.138	1315.56
387.363	1299.56
387.588	1279.56
387.813	1327.56
388.038	1320.56
388.263	1308.56
388.488	1336.56
388.713	1349.56
388.938	1325.56
389.163	1306.56
389.387	1321.56
389.612	1345.56
389.837	1310.56
390.062	1311.56
390.287	1329.56
390.512	1313.56
390.736	1321.56
390.961	1366.56
391.186	1338.56
391.411	1406.56
391.636	1402.56
391.86	1441.56
392.085	1434.56
392.31	1449.56
392.534	1426.56
392.759	1431.56
392.984	1393.56
393.208	1431.56
393.433	1422.56
393.658	1392.56
393.882	1414.56
394.107	1417.56
394.331	1426.56
394.556	1377.56
394.78	1404.56
395.005	1417.56
395.229	1403.56
395.454	1455.56
395.678	1468.56
395.903	1477.56
396.127	1452.56
396.352	1427.56
396.576	1451.56
396.801	1455.56
397.025	1456.56
397.249	1479.56
397.474	1513.56
397.698	1508.56
397.922	1546.56
398.147	1524.56
398.371	1581.56
398.595	1611.56
398.82	1600.56
399.044	1702.56
399.268	1815.56
399.492	1990.56
399.717	2056.56
399.941	2107.56
400.165	2047.56
400.389	1940.56
400.613	1825.56
400.837	1763.56
401.062	1730.56
401.286	1656.56
401.51	1665.56
401.734	1651.56
401.958	1658.56
402.182	1674.56
402.406	1633.56
402.63	1667.56
402.854	1684.56
403.078	1699.56
403.302	1710.56
403.526	1693.56
403.75	1756.56
403.974	1739.56
404.198	1733.56
404.422	1732.56
404.645	1747.56
404.869	1707.56
405.093	1732.56
405.317	1720.56
405.541	1750.56
405.765	1757.56
405.988	1744.56
406.212	1794.56
406.436	1771.56
406.66	1773.56
406.883	1826.56
407.107	1894.56
407.331	1957.56
407.555	1954.56
407.778	1970.56
408.002	1958.56
408.226	1947.56
408.449	1994.56
408.673	1869.56
408.896	1826.56
409.12	1785.56
409.344	1837.56
409.567	1804.56
409.791	1825.56
410.014	1776.56
410.238	1761.56
410.461	1778.56
410.685	1753.56
410.908	1701.56
411.132	1728.56
411.355	1738.56
411.578	1739.56
411.802	1700.56
412.025	1732.56
412.249	1705.56
412.472	1708.56
412.695	1696.56
412.919	1669.56
413.142	1645.56
413.365	1660.56
413.589	1675.56
413.812	1664.56
414.035	1623.56
414.258	1676.56
414.482	1691.56
414.705	1675.56
414.928	1670.56
415.151	1686.56
415.374	1672.56
415.597	1656.56
415.821	1612.56
416.044	1628.56
416.267	1623.56
416.49	1660.56
416.713	1609.56
416.936	1603.56
417.159	1597.56
417.382	1589.56
417.605	1593.56
417.828	1592.56
418.051	1612.56
418.274	1648.56
418.497	1604.56
418.72	1656.56
418.943	1617.56
419.166	1737.56
419.389	1836.56
419.611	1817.56
419.834	1721.56
420.057	1691.56
420.28	1664.56
420.503	1613.56
420.726	1584.56
420.948	1581.56
421.171	1629.56
421.394	1595.56
421.617	1587.56
421.839	1608.56
422.062	1644.56
422.285	1616.56
422.507	1640.56
422.73	1657.56
422.953	1628.56
423.175	1671.56
423.398	1653.56
423.621	1631.56
423.843	1671.56
424.066	1638.56
424.288	1641.56
424.511	1592.56
424.733	1637.56
424.956	1612.56
425.178	1623.56
425.401	1627.56
425.623	1613.56
425.846	1604.56
426.068	1628.56
426.291	1585.56
426.513	1549.56
426.735	1566.56
426.958	1575.56
427.18	1520.56
427.402	1572.56
427.625	1545.56
427.847	1558.56
428.069	1526.56
428.292	1565.56
428.514	1548.56
428.736	1499.56
428.958	1561.56
429.181	1493.56
429.403	1472.56
429.625	1469.56
429.847	1482.56
430.069	1478.56
430.292	1516.56
430.514	1515.56
430.736	1528.56
430.958	1515.56
431.18	1507.56
431.402	1545.56
431.624	1552.56
431.846	1548.56
432.068	1544.56
432.29	1548.56
432.512	1553.56
432.734	1564.56
432.956	1525.56
433.178	1563.56
433.4	1522.56
433.622	1564.56
433.844	1564.56
434.066	1596.56
434.287	1615.56
434.509	1622.56
434.731	1611.56
434.953	1659.56
435.175	1661.56
435.397	1656.56
435.618	1631.56
435.84	1562.56
436.062	1577.56
436.284	1580.56
436.505	1544.56
436.727	1559.56
436.949	1503.56
437.17	1552.56
437.392	1513.56
437.614	1541.56
437.835	1455.56
438.057	1487.56
438.278	1454.56
438.5	1500.56
438.721	1483.56
438.943	1490.56
439.165	1481.56
439.386	1516.56
439.608	1549.56
439.829	1541.56
440.05	1542.56
440.272	1548.56
440.493	1540.56
440.715	1568.56
440.936	1585.56
441.158	1581.56
441.379	1591.56
441.6	1674.56
441.822	1625.56
442.043	1660.56
442.264	1640.56
442.486	1619.56
442.707	1654.56
442.928	1615.56
443.149	1677.56
443.371	1646.56
443.592	1711.56
443.813	1681.56
444.034	1688.56
444.255	1705.56
444.476	1743.56
444.698	1815.56
444.919	1852.56
445.14	1887.56
445.361	1827.56
445.582	1765.56
445.803	1679.56
446.024	1630.56
446.245	1602.56
446.466	1603.56
446.687	1592.56
446.908	1553.56
447.129	1503.56
447.35	1504.56
447.571	1487.56
447.792	1495.56
448.013	1473.56
448.234	1457.56
448.455	1444.56
448.675	1418.56
448.896	1401.56
449.117	1413.56
449.338	1438.56
449.559	1433.56
449.779	1424.56
450	1403.56
450.221	1427.56
450.442	1364.56
450.662	1399.56
450.883	1401.56
451.104	1460.56
451.324	1444.56
451.545	1404.56
451.766	1428.56
451.986	1400.56
452.207	1375.56
452.428	1417.56
452.648	1430.56
452.869	1365.56
453.089	1395.56
453.31	1419.56
453.53	1350.56
453.751	1326.56
453.971	1366.56
454.192	1360.56
454.412	1362.56
454.633	1358.56
454.853	1402.56
455.073	1343.56
455.294	1384.56
455.514	1327.56
455.734	1359.56
455.955	1349.56
456.175	1351.56
456.395	1348.56
456.616	1340.56
456.836	1378.56
457.056	1332.56
457.276	1337.56
457.497	1349.56
457.717	1364.56
457.937	1384.56
458.157	1358.56
458.377	1372.56
458.598	1429.56
458.818	1445.56
459.038	1440.56
459.258	1488.56
459.478	1560.56
459.698	1687.56
459.918	1672.56
460.138	1688.56
460.358	1713.56
460.578	1705.56
460.798	1769.56
461.018	1789.56
461.238	1754.56
461.458	1767.56
461.678	1755.56
461.898	1812.56
462.118	1791.56
462.338	1852.56
462.558	1882.56
462.777	1951.56
462.997	2013.56
463.217	2079.56
463.437	2146.56
463.657	2055.56
463.876	2039.56
464.096	1984.56
464.316	1937.56
464.536	1928.56
464.755	1934.56
464.975	1852.56
465.195	1784.56
465.414	1733.56
465.634	1615.56
465.854	1665.56
466.073	1602.56
466.293	1568.56
466.512	1556.56
466.732	1501.56
466.951	1524.56
467.171	1529.56
467.391	1522.56
467.61	1506.56
467.829	1462.56
468.049	1481.56
468.268	1462.56
468.488	1459.56
468.707	1460.56
468.927	1476.56
469.146	1456.56
469.365	1494.56
469.585	1446.56
469.804	1496.56
470.023	1508.56
470.243	1491.56
470.462	1539.56
470.681	1557.56
470.901	1547.56
471.12	1510.56
471.339	1542.56
471.558	1499.56
471.777	1518.56
471.997	1506.56
472.216	1498.56
472.435	1442.56
472.654	1478.56
472.873	1463.56
473.092	1463.56
473.311	1454.56
473.53	1467.56
473.749	1476.56
473.968	1451.56
474.187	1457.56
474.406	1447.56
474.625	1428.56
474.844	1436.56
475.063	1449.56
475.282	1460.56
475.501	1448.56
475.72	1476.56
475.939	1486.56
476.158	1512.56
476.377	1544.56
476.596	1569.56
476.814	1548.56
477.033	1536.56
477.252	1593.56
477.471	1605.56
477.69	1650.56
477.908	1649.56
478.127	1671.56
478.346	1724.56
478.564	1745.56
478.783	1746.56
479.002	1760.56
479.22	1792.56
479.439	1813.56
479.658	1786.56
479.876	1805.56
480.095	1803.56
480.313	1845.56
480.532	1843.56
480.751	1849.56
480.969	1836.56
481.188	1770.56
481.406	1719.56
481.624	1770.56
481.843	1739.56
482.061	1711.56
482.28	1727.56
482.498	1745.56
482.717	1721.56
482.935	1730.56
483.153	1695.56
483.372	1736.56
483.59	1762.56
483.808	1770.56
484.027	1729.56
484.245	1768.56
484.463	1780.56
484.681	1762.56
484.9	1775.56
485.118	1804.56
485.336	1808.56
485.554	1794.56
485.772	1821.56
485.99	1787.56
486.209	1803.56
486.427	1818.56
486.645	1789.56
486.863	1817.56
487.081	1828.56
487.299	1817.56
487.517	1825.56
487.735	1823.56
487.953	1839.56
488.171	1858.56
488.389	1778.56
488.607	1813.56
488.825	1783.56
489.043	1773.56
489.261	1746.56
489.479	1805.56
489.696	1727.56
489.914	1775.56
490.132	1782.56
490.35	1830.56
490.568	1833.56
490.786	1826.56
491.003	1816.56
491.221	1835.56
491.439	1847.56
491.657	1811.56
491.874	1842.56
492.092	1887.56
492.31	1846.56
492.527	1851.56
492.745	1889.56
492.963	1899.56
493.18	1876.56
493.398	1860.56
493.615	1843.56
493.833	1860.56
494.05	1898.56
494.268	1911.56
494.485	1916.56
494.703	1861.56
494.92	1895.56
495.138	1883.56
495.355	1909.56
495.573	1911.56
495.79	1998.56
496.008	1971.56
496.225	1939.56
496.442	1997.56
496.66	2000.56
496.877	2051.56
497.094	2057.56
497.312	2097.56
497.529	2105.56
497.746	2199.56
497.963	2270.56
498.181	2330.56
498.398	2437.56
498.615	2511.56
498.832	2596.56
499.049	2784.56
499.267	2940.56
499.484	3058.56
499.701	3385.56
499.918	3503.56
500.135	3763.56
500.352	3963.56
500.569	4090.56
500.786	4071.56
501.003	3877.56
501.22	3741.56
501.437	3511.56
501.654	3235.56
501.871	3040.56
502.088	2865.56
502.305	2762.56
502.522	2651.56
502.739	2513.56
502.956	2380.56
503.172	2361.56
503.389	2285.56
503.606	2209.56
503.823	2129.56
504.04	2123.56
504.256	2127.56
504.473	2107.56
504.69	2099.56
504.907	2118.56
505.123	2003.56
505.34	1941.56
505.557	1909.56
505.773	1842.56
505.99	1843.56
506.207	1809.56
506.423	1768.56
506.64	1743.56
506.856	1703.56
507.073	1709.56
507.289	1683.56
507.506	1680.56
507.722	1664.56
507.939	1683.56
508.155	1673.56
508.372	1678.56
508.588	1649.56
508.805	1607.56
509.021	1588.56
509.238	1588.56
509.454	1582.56
509.67	1568.56
509.887	1555.56
510.103	1542.56
510.319	1511.56
510.536	1519.56
510.752	1520.56
510.968	1507.56
511.184	1511.56
511.401	1497.56
511.617	1513.56
511.833	1511.56
512.049	1489.56
512.265	1475.56
512.481	1494.56
512.698	1491.56
512.914	1505.56
513.13	1480.56
513.346	1490.56
513.562	1500.56
513.778	1503.56
513.994	1540.56
514.21	1521.56
514.426	1491.56
514.642	1531.56
514.858	1535.56
515.074	1575.56
515.29	1581.56
515.506	1587.56
515.721	1605.56
515.937	1568.56
516.153	1624.56
516.369	1617.56
516.585	1705.56
516.801	1706.56
517.016	1742.56
517.232	1817.56
517.448	1834.56
517.664	1827.56
517.879	1878.56
518.095	1839.56
518.311	1827.56
518.527	1781.56
518.742	1749.56
518.958	1683.56
519.173	1660.56
519.389	1645.56
519.605	1623.56
519.82	1571.56
520.036	1589.56
520.251	1504.56
520.467	1515.56
520.682	1512.56
520.898	1457.56
521.113	1489.56
521.329	1465.56
521.544	1466.56
521.76	1452.56
521.975	1415.56
522.19	1383.56
522.406	1398.56
522.621	1421.56
522.836	1414.56
523.052	1407.56
523.267	1416.56
523.482	1396.56
523.698	1360.56
523.913	1359.56
524.128	1369.56
524.343	1366.56
524.559	1372.56
524.774	1328.56
524.989	1373.56
525.204	1343.56
525.419	1352.56
525.634	1363.56
525.849	1314.56
526.064	1325.56
526.28	1328.56
526.495	1330.56
526.71	1317.56
526.925	1303.56
527.14	1299.56
527.355	1303.56
527.57	1338.56
527.785	1344.56
527.999	1320.56
528.214	1317.56
528.429	1314.56
528.644	1319.56
528.859	1359.56
529.074	1304.56
529.289	1334.56
529.503	1297.56
529.718	1325.56
529.933	1293.56
530.148	1299.56
530.363	1309.56
530.577	1322.56
530.792	1309.56
531.007	1286.56
531.221	1295.56
531.436	1285.56
531.651	1289.56
531.865	1314.56
532.08	1253.56
532.295	1293.56
532.509	1314.56
532.724	1294.56
532.938	1321.56
533.153	1297.56
533.367	1274.56
533.582	1275.56
533.796	1267.56
534.011	1283.56
534.225	1283.56
534.44	1256.56
534.654	1224.56
534.868	1250.56
535.083	1250.56
535.297	1248.56
535.511	1221.56
535.726	1263.56
535.94	1240.56
536.154	1260.56
536.369	1228.56
536.583	1221.56
536.797	1235.56
537.011	1239.56
537.225	1197.56
537.44	1189.56
537.654	1204.56
537.868	1185.56
538.082	1185.56
538.296	1188.56
538.51	1216.56
538.724	1172.56
538.938	1207.56
539.153	1209.56
539.367	1207.56
539.581	1180.56
539.795	1187.56
540.009	1163.56
540.222	1153.56
540.436	1165.56
540.65	1161.56
540.864	1162.56
541.078	1177.56
541.292	1185.56
541.506	1162.56
541.72	1159.56
541.934	1162.56
542.147	1176.56
542.361	1178.56
542.575	1169.56
542.789	1160.56
543.002	1172.56
543.216	1144.56
543.43	1150.56
543.644	1130.56
543.857	1147.56
544.071	1191.56
544.285	1164.56
544.498	1174.56
544.712	1164.56
544.925	1186.56
545.139	1203.56
545.352	1167.56
545.566	1185.56
545.779	1194.56
545.993	1182.56
546.206	1187.56
546.42	1172.56
546.633	1179.56
546.847	1183.56
547.06	1168.56
547.274	1185.56
547.487	1202.56
547.7	1205.56
547.914	1199.56
548.127	1169.56
548.34	1165.56
548.554	1185.56
548.767	1184.56
548.98	1164.56
549.193	1162.56
549.407	1168.56
549.62	1178.56
549.833	1201.56
550.046	1196.56
550.259	1182.56
550.473	1160.56
550.686	1184.56
550.899	1155.56
551.112	1153.56
551.325	1171.56
551.538	1172.56
551.751	1150.56
551.964	1175.56
552.177	1175.56
552.39	1164.56
552.603	1195.56
552.816	1211.56
553.029	1225.56
553.242	1222.56
553.455	1220.56
553.667	1201.56
553.88	1223.56
554.093	1183.56
554.306	1202.56
554.519	1165.56
554.732	1148.56
554.944	1144.56
555.157	1102.56
555.37	1111.56
555.583	1114.56
555.795	1049.56
556.008	1040.56
556.221	1036.56
556.433	1055.56
556.646	1073.56
556.859	1064.56
557.071	1023.56
557.284	1027.56
557.496	1035.56
557.709	1013.56
557.921	1011.56
558.134	974.56
558.346	1007.56
558.559	979.56
558.771	981.56
558.984	974.56
559.196	952.56
559.409	990.56
559.621	987.56
559.833	976.56
560.046	957.56
560.258	973.56
560.47	938.56
560.683	968.56
560.895	978.56
561.107	952.56
561.32	974.56
561.532	961.56
561.744	964.56
561.956	960.56
562.168	968.56
562.381	985.56
562.593	987.56
562.805	957.56
563.017	975.56
563.229	972.56
563.441	1001.56
563.653	1008.56
563.865	1003.56
564.077	1023.56
564.289	965.56
564.501	1031.56
564.713	1042.56
564.925	1059.56
565.137	1062.56
565.349	1072.56
565.561	1113.56
565.773	1130.56
565.985	1153.56
566.197	1189.56
566.408	1267.56
566.62	1305.56
566.832	1333.56
567.044	1373.56
567.255	1384.56
567.467	1380.56
567.679	1431.56
567.891	1471.56
568.102	1463.56
568.314	1410.56
568.526	1363.56
568.737	1279.56
568.949	1200.56
569.161	1138.56
569.372	1085.56
569.584	1048.56
569.795	1047.56
570.007	995.56
570.218	976.56
570.43	980.56
570.641	967.56
570.853	932.56
571.064	938.56
571.276	944.56
571.487	908.56
571.698	890.56
571.91	877.56
572.121	877.56
572.333	843.56
572.544	842.56
572.755	840.56
572.966	803.56
573.178	816.56
573.389	819.56
573.6	785.56
573.811	781.56
574.023	779.56
574.234	778.56
574.445	793.56
574.656	763.56
574.867	759.56
575.078	739.56
575.289	758.56
575.501	757.56
575.712	762.56
575.923	733.56
576.134	767.56
576.345	704.56
576.556	726.56
576.767	723.56
576.978	698.56
577.188	719.56
577.399	741.56
577.61	743.56
577.821	711.56
578.032	689.56
578.243	690.56
578.454	693.56
578.665	707.56
578.875	675.56
579.086	688.56
579.297	687.56
579.508	673.56
579.718	693.56
579.929	673.56
580.14	681.56
580.35	658.56
580.561	674.56
580.772	679.56
580.982	665.56
581.193	641.56
581.403	643.56
581.614	636.56
581.825	637.56
582.035	653.56
582.246	617.56
582.456	648.56
582.667	648.56
582.877	640.56
583.087	633.56
583.298	635.56
583.508	636.56
583.719	642.56
583.929	647.56
584.139	653.56
584.35	629.56
584.56	614.56
584.77	640.56
584.981	630.56
585.191	606.56
585.401	625.56
585.611	606.56
585.821	627.56
586.032	595.56
586.242	601.56
586.452	597.56
586.662	633.56
586.872	610.56
587.082	619.56
587.292	604.56
587.502	627.56
587.713	597.56
587.923	629.56
588.133	607.56
588.343	616.56
588.553	600.56
588.762	611.56
588.972	603.56
589.182	673.56
589.392	666.56
589.602	635.56
589.812	666.56
590.022	643.56
590.232	638.56
590.441	627.56
590.651	637.56
590.861	627.56
591.071	605.56
591.281	627.56
591.49	643.56
591.7	627.56
591.91	616.56
592.119	620.56
592.329	615.56
592.539	651.56
592.748	643.56
592.958	690.56
593.167	692.56
593.377	673.56
593.587	701.56
593.796	691.56
594.006	674.56
594.215	683.56
594.424	703.56
594.634	672.56
594.843	687.56
595.053	651.56
595.262	622.56
595.472	624.56
595.681	623.56
595.89	625.56
596.1	592.56
596.309	582.56
596.518	577.56
596.727	553.56
596.937	554.56
597.146	550.56
597.355	571.56
597.564	540.56
597.774	561.56
597.983	545.56
598.192	533.56
598.401	532.56
598.61	501.56
598.819	519.56
599.028	508.56
599.237	516.56
599.446	523.56
599.655	507.56
599.864	518.56
600.073	519.56
600.282	503.56
600.491	490.56
600.7	489.56
600.909	498.56
601.118	489.56
601.327	493.56
601.536	480.56
601.745	491.56
601.953	495.56
602.162	461.56
602.371	470.56
602.58	482.56
602.789	459.56
602.997	455.56
603.206	473.56
603.415	451.56
603.623	481.56
603.832	467.56
604.041	465.56
604.249	458.56
604.458	465.56
604.666	459.56
604.875	457.56
605.084	483.56
605.292	451.56
605.501	472.56
605.709	457.56
605.918	458.56
606.126	455.56
606.334	460.56
606.543	457.56
606.751	441.56
606.96	448.56
607.168	451.56
607.376	428.56
607.585	450.56
607.793	446.56
608.001	438.56
608.21	446.56
608.418	443.56
608.626	437.56
608.834	431.56
609.043	435.56
609.251	428.56
609.459	445.56
609.667	414.56
609.875	433.56
610.083	448.56
610.291	436.56
610.499	406.56
610.707	422.56
610.916	417.56
611.124	432.56
611.332	419.56
611.54	426.56
611.748	425.56
611.955	411.56
612.163	423.56
612.371	401.56
612.579	415.56
612.787	423.56
612.995	427.56
613.203	404.56
613.411	417.56
613.618	433.56
613.826	402.56
614.034	411.56
614.242	413.56
614.449	407.56
614.657	386.56
614.865	408.56
615.072	420.56
615.28	417.56
615.488	410.56
615.695	404.56
615.903	395.56
616.111	391.56
616.318	402.56
616.526	409.56
616.733	413.56
616.941	411.56
617.148	401.56
617.356	405.56
617.563	395.56
617.771	409.56
617.978	414.56
618.185	386.56
618.393	389.56
618.6	395.56
618.807	422.56
619.015	405.56
619.222	404.56
619.429	383.56
619.637	387.56
619.844	394.56
620.051	380.56
620.258	377.56
620.466	372.56
620.673	367.56
620.88	374.56
621.087	365.56
621.294	379.56
621.501	396.56
621.708	373.56
621.915	362.56
622.122	405.56
622.329	383.56
622.536	376.56
622.743	377.56
622.95	356.56
623.157	371.56
623.364	369.56
623.571	368.56
623.778	365.56
623.985	367.56
624.192	359.56
624.399	355.56
624.606	354.56
624.812	354.56
625.019	338.56
625.226	357.56
625.433	321.56
625.639	352.56
625.846	340.56
626.053	342.56
626.259	344.56
626.466	364.56
626.673	333.56
626.879	339.56
627.086	360.56
627.293	328.56
627.499	339.56
627.706	337.56
627.912	353.56
628.119	329.56
628.325	336.56
628.532	339.56
628.738	322.56
628.945	331.56
629.151	321.56
629.357	306.56
629.564	327.56
629.77	337.56
629.976	315.56
630.183	331.56
630.389	323.56
630.595	327.56
630.802	304.56
631.008	310.56
631.214	327.56
631.42	307.56
631.627	331.56
631.833	299.56
632.039	303.56
632.245	307.56
632.451	314.56
632.657	284.56
632.863	290.56
633.069	290.56
633.275	305.56
633.481	291.56
633.688	320.56
633.893	301.56
634.099	279.56
634.305	293.56
634.511	286.56
634.717	306.56
634.923	285.56
635.129	291.56
635.335	289.56
635.541	297.56
635.747	304.56
635.952	280.56
636.158	276.56
636.364	279.56
636.57	274.56
636.775	287.56
636.981	303.56
637.187	290.56
637.392	263.56
637.598	295.56
637.804	285.56
638.009	277.56
638.215	265.56
638.421	271.56
638.626	261.56
638.832	285.56
639.037	270.56
639.243	282.56
639.448	269.56
639.654	281.56
639.859	261.56
640.065	260.56
640.27	279.56
640.475	268.56
640.681	275.56
640.886	266.56
641.091	266.56
641.297	273.56
641.502	270.56
641.707	276.56
641.913	274.56
642.118	266.56
642.323	279.56
642.528	273.56
642.733	268.56
642.939	265.56
643.144	266.56
643.349	245.56
643.554	260.56
643.759	268.56
643.964	258.56
644.169	273.56
644.374	263.56
644.579	247.56
644.784	245.56
644.989	244.56
645.194	265.56
645.399	267.56
645.604	263.56
645.809	261.56
646.014	260.56
646.219	277.56
646.423	259.56
646.628	250.56
646.833	276.56
647.038	262.56
647.243	264.56
647.447	250.56
647.652	264.56
647.857	271.56
648.062	264.56
648.266	282.56
648.471	264.56
648.676	248.56
648.88	287.56
649.085	263.56
649.289	268.56
649.494	247.56
649.698	261.56
649.903	244.56
650.107	262.56
650.312	249.56
650.516	238.56
650.721	236.56
650.925	243.56
651.13	247.56
651.334	228.56
651.539	239.56
651.743	231.56
651.947	253.56
652.152	234.56
652.356	216.56
652.56	231.56
652.764	214.56
652.969	223.56
653.173	227.56
653.377	211.56
653.581	196.56
653.785	204.56
653.99	206.56
654.194	207.56
654.398	226.56
654.602	219.56
654.806	213.56
655.01	204.56
655.214	207.56
655.418	209.56
655.622	201.56
655.826	218.56
656.03	218.56
656.234	209.56
656.438	204.56
656.642	216.56
656.846	217.56
657.049	196.56
657.253	191.56
657.457	185.56
657.661	164.56
657.865	156.56
658.068	167.56
658.272	148.56
658.476	141.56
658.68	139.56
658.883	141.56
659.087	145.56
659.291	130.56
659.494	132.56
659.698	117.56
659.901	116.56
660.105	101.56
660.309	109.56
660.512	114.56
660.716	106.56
660.919	104.56
661.123	118.56
661.326	100.56
661.53	87.56
661.733	88.56
661.936	100.56
662.14	81.56
662.343	81.56
662.546	90.56
662.75	86.56
662.953	89.56
663.156	85.56
663.36	87.56
663.563	107.56
663.766	65.56
663.969	84.56
664.173	91.56
664.376	85.56
664.579	88.56
664.782	79.56
664.985	77.56
665.188	72.56
665.391	97.56
665.594	80.56
665.797	81.56
666	88.56
666.203	69.56
666.406	76.56
666.609	65.56
666.812	94.56
667.015	86.56
667.218	82.56
667.421	101.56
667.624	80.56
667.827	95.56
668.03	73.56
668.232	89.56
668.435	90.56
668.638	88.56
668.841	70.56
669.043	79.56
669.246	68.56
669.449	65.56
669.651	82.56
669.854	78.56
670.057	85.56
670.259	83.56
670.462	65.56
670.665	73.56
670.867	87.56
671.07	89.56
671.272	90.56
671.475	70.56
671.677	84.56
671.88	104.56
672.082	87.56
672.284	81.56
672.487	80.56
672.689	86.56
672.892	80.56
