Data from NiCl2@0.25M.TitratingCurve.Agarose3%dH2O.NegLispCup.LampEnergy10.LIBS07252019_HRD10591_18-24-02-573.txt Node
Date: Thu Jul 25 18:24:02 EDT 2019
User: cochatt
Spectrometer: HR+D1059
Trigger mode: 1
Integration Time (sec): 1.000000E-1
Scans to average: 1
Electric dark correction enabled: true
Nonlinearity correction enabled: false
Boxcar width: 0
XAxis mode: Wavelengths
Number of Pixels in Spectrum: 2048
>>>>>Begin Spectral Data<<<<<
223.165	-21.81
223.4	-21.81
223.635	-21.81
223.869	-28.81
224.104	-14.81
224.338	-7.81
224.573	-26.81
224.808	-11.81
225.042	-8.81
225.277	1.19
225.511	0.19
225.746	9.19
225.98	14.19
226.215	3.19
226.449	25.19
226.683	9.19
226.918	29.19
227.152	29.19
227.387	55.19
227.621	37.19
227.856	56.19
228.09	46.19
228.324	51.19
228.559	62.19
228.793	73.19
229.027	125.19
229.262	141.19
229.496	128.19
229.73	140.19
229.964	168.19
230.199	154.19
230.433	153.19
230.667	143.19
230.901	151.19
231.136	157.19
231.37	173.19
231.604	168.19
231.838	164.19
232.072	160.19
232.306	173.19
232.541	173.19
232.775	179.19
233.009	168.19
233.243	184.19
233.477	188.19
233.711	165.19
233.945	176.19
234.179	174.19
234.413	176.19
234.647	191.19
234.881	190.19
235.115	190.19
235.349	163.19
235.583	175.19
235.817	184.19
236.051	176.19
236.285	183.19
236.519	192.19
236.753	188.19
236.987	180.19
237.221	200.19
237.455	204.19
237.689	203.19
237.922	204.19
238.156	205.19
238.39	213.19
238.624	201.19
238.858	216.19
239.091	206.19
239.325	183.19
239.559	220.19
239.793	220.19
240.027	199.19
240.26	220.19
240.494	229.19
240.728	207.19
240.961	202.19
241.195	223.19
241.429	249.19
241.662	229.19
241.896	237.19
242.13	236.19
242.363	237.19
242.597	244.19
242.83	252.19
243.064	270.19
243.298	246.19
243.531	237.19
243.765	272.19
243.998	277.19
244.232	263.19
244.465	255.19
244.699	277.19
244.932	267.19
245.166	266.19
245.399	276.19
245.633	251.19
245.866	284.19
246.099	282.19
246.333	274.19
246.566	255.19
246.8	269.19
247.033	277.19
247.266	288.19
247.5	284.19
247.733	279.19
247.966	295.19
248.2	292.19
248.433	295.19
248.666	307.19
248.899	298.19
249.133	307.19
249.366	293.19
249.599	307.19
249.832	294.19
250.066	303.19
250.299	310.19
250.532	315.19
250.765	339.19
250.998	318.19
251.231	316.19
251.465	342.19
251.698	318.19
251.931	323.19
252.164	328.19
252.397	336.19
252.63	352.19
252.863	337.19
253.096	344.19
253.329	349.19
253.562	346.19
253.795	335.19
254.028	335.19
254.261	372.19
254.494	359.19
254.727	365.19
254.96	327.19
255.193	352.19
255.426	356.19
255.659	384.19
255.892	383.19
256.124	355.19
256.357	351.19
256.59	360.19
256.823	369.19
257.056	382.19
257.289	385.19
257.521	377.19
257.754	390.19
257.987	388.19
258.22	382.19
258.452	385.19
258.685	399.19
258.918	394.19
259.151	383.19
259.383	388.19
259.616	376.19
259.849	384.19
260.081	407.19
260.314	404.19
260.547	401.19
260.779	411.19
261.012	377.19
261.244	409.19
261.477	422.19
261.71	417.19
261.942	413.19
262.175	422.19
262.407	425.19
262.64	422.19
262.872	413.19
263.105	427.19
263.337	439.19
263.57	427.19
263.802	433.19
264.035	436.19
264.267	451.19
264.499	454.19
264.732	423.19
264.964	421.19
265.197	428.19
265.429	453.19
265.661	440.19
265.894	450.19
266.126	457.19
266.358	454.19
266.591	459.19
266.823	455.19
267.055	449.19
267.287	457.19
267.52	440.19
267.752	468.19
267.984	477.19
268.216	444.19
268.448	457.19
268.681	490.19
268.913	478.19
269.145	480.19
269.377	471.19
269.609	488.19
269.841	473.19
270.073	500.19
270.306	483.19
270.538	483.19
270.77	497.19
271.002	492.19
271.234	485.19
271.466	482.19
271.698	492.19
271.93	506.19
272.162	515.19
272.394	520.19
272.626	488.19
272.858	509.19
273.09	526.19
273.322	503.19
273.553	527.19
273.785	515.19
274.017	523.19
274.249	526.19
274.481	515.19
274.713	504.19
274.945	525.19
275.176	521.19
275.408	534.19
275.64	544.19
275.872	532.19
276.104	548.19
276.335	552.19
276.567	555.19
276.799	536.19
277.031	552.19
277.262	529.19
277.494	535.19
277.726	546.19
277.957	543.19
278.189	558.19
278.421	548.19
278.652	561.19
278.884	551.19
279.115	561.19
279.347	564.19
279.579	581.19
279.81	578.19
280.042	580.19
280.273	580.19
280.505	601.19
280.736	580.19
280.968	612.19
281.199	590.19
281.431	606.19
281.662	584.19
281.894	597.19
282.125	611.19
282.356	625.19
282.588	584.19
282.819	627.19
283.051	633.19
283.282	628.19
283.513	606.19
283.745	632.19
283.976	603.19
284.207	631.19
284.439	616.19
284.67	636.19
284.901	619.19
285.132	639.19
285.364	624.19
285.595	622.19
285.826	637.19
286.057	653.19
286.288	669.19
286.52	651.19
286.751	643.19
286.982	644.19
287.213	648.19
287.444	661.19
287.675	656.19
287.906	681.19
288.138	656.19
288.369	656.19
288.6	655.19
288.831	671.19
289.062	680.19
289.293	648.19
289.524	660.19
289.755	649.19
289.986	652.19
290.217	675.19
290.448	698.19
290.679	669.19
290.91	675.19
291.141	689.19
291.371	683.19
291.602	681.19
291.833	677.19
292.064	673.19
292.295	679.19
292.526	678.19
292.757	690.19
292.987	686.19
293.218	693.19
293.449	688.19
293.68	677.19
293.91	681.19
294.141	685.19
294.372	684.19
294.603	705.19
294.833	700.19
295.064	694.19
295.295	697.19
295.525	704.19
295.756	722.19
295.987	697.19
296.217	698.19
296.448	724.19
296.679	699.19
296.909	719.19
297.14	711.19
297.37	721.19
297.601	727.19
297.831	725.19
298.062	745.19
298.292	745.19
298.523	741.19
298.753	776.19
298.984	764.19
299.214	729.19
299.445	749.19
299.675	737.19
299.905	777.19
300.136	729.19
300.366	769.19
300.597	763.19
300.827	804.19
301.057	785.19
301.288	795.19
301.518	791.19
301.748	786.19
301.979	830.19
302.209	781.19
302.439	792.19
302.669	774.19
302.9	771.19
303.13	768.19
303.36	809.19
303.59	775.19
303.82	783.19
304.051	789.19
304.281	792.19
304.511	761.19
304.741	771.19
304.971	792.19
305.201	771.19
305.431	798.19
305.661	798.19
305.891	783.19
306.121	773.19
306.352	772.19
306.582	769.19
306.812	756.19
307.042	773.19
307.272	760.19
307.502	755.19
307.731	769.19
307.961	755.19
308.191	759.19
308.421	776.19
308.651	760.19
308.881	767.19
309.111	758.19
309.341	777.19
309.571	785.19
309.8	776.19
310.03	794.19
310.26	771.19
310.49	760.19
310.72	766.19
310.949	762.19
311.179	771.19
311.409	786.19
311.639	783.19
311.868	802.19
312.098	787.19
312.328	796.19
312.557	800.19
312.787	791.19
313.017	801.19
313.246	848.19
313.476	823.19
313.706	824.19
313.935	845.19
314.165	831.19
314.394	833.19
314.624	843.19
314.853	828.19
315.083	816.19
315.312	813.19
315.542	828.19
315.771	818.19
316.001	828.19
316.23	824.19
316.46	784.19
316.689	812.19
316.919	799.19
317.148	829.19
317.377	808.19
317.607	799.19
317.836	827.19
318.065	806.19
318.295	813.19
318.524	833.19
318.753	807.19
318.983	794.19
319.212	790.19
319.441	813.19
319.67	799.19
319.9	829.19
320.129	794.19
320.358	801.19
320.587	788.19
320.816	797.19
321.046	808.19
321.275	807.19
321.504	821.19
321.733	807.19
321.962	816.19
322.191	823.19
322.42	831.19
322.649	839.19
322.878	859.19
323.108	812.19
323.337	810.19
323.566	870.19
323.795	834.19
324.024	823.19
324.253	847.19
324.482	840.19
324.71	840.19
324.939	845.19
325.168	869.19
325.397	847.19
325.626	866.19
325.855	858.19
326.084	878.19
326.313	876.19
326.542	879.19
326.77	891.19
326.999	883.19
327.228	900.19
327.457	881.19
327.686	895.19
327.914	883.19
328.143	879.19
328.372	893.19
328.6	877.19
328.829	896.19
329.058	917.19
329.287	884.19
329.515	896.19
329.744	906.19
329.972	914.19
330.201	935.19
330.43	900.19
330.658	902.19
330.887	907.19
331.115	927.19
331.344	943.19
331.572	972.19
331.801	957.19
332.03	985.19
332.258	1031.19
332.486	1011.19
332.715	1050.19
332.943	1131.19
333.172	1142.19
333.4	1183.19
333.629	1224.19
333.857	1270.19
334.085	1239.19
334.314	1232.19
334.542	1203.19
334.771	1170.19
334.999	1136.19
335.227	1187.19
335.455	1165.19
335.684	1153.19
335.912	1100.19
336.14	1092.19
336.369	1047.19
336.597	1094.19
336.825	1107.19
337.053	1072.19
337.281	1055.19
337.51	1069.19
337.738	1051.19
337.966	1027.19
338.194	993.19
338.422	952.19
338.65	971.19
338.878	995.19
339.106	972.19
339.334	983.19
339.562	957.19
339.79	948.19
340.018	927.19
340.246	934.19
340.474	936.19
340.702	926.19
340.93	940.19
341.158	952.19
341.386	953.19
341.614	954.19
341.842	917.19
342.07	913.19
342.298	936.19
342.526	909.19
342.754	938.19
342.981	935.19
343.209	928.19
343.437	1018.19
343.665	1079.19
343.893	1126.19
344.12	1170.19
344.348	1127.19
344.576	1061.19
344.804	1034.19
345.031	1000.19
345.259	1004.19
345.487	937.19
345.714	919.19
345.942	913.19
346.17	966.19
346.397	942.19
346.625	924.19
346.853	874.19
347.08	897.19
347.308	925.19
347.535	904.19
347.763	900.19
347.99	880.19
348.218	924.19
348.445	899.19
348.673	869.19
348.9	911.19
349.128	877.19
349.355	886.19
349.583	866.19
349.81	859.19
350.037	877.19
350.265	869.19
350.492	867.19
350.72	879.19
350.947	863.19
351.174	885.19
351.402	892.19
351.629	880.19
351.856	839.19
352.083	866.19
352.311	875.19
352.538	909.19
352.765	880.19
352.992	869.19
353.22	831.19
353.447	854.19
353.674	842.19
353.901	851.19
354.128	853.19
354.355	857.19
354.583	861.19
354.81	869.19
355.037	870.19
355.264	872.19
355.491	857.19
355.718	854.19
355.945	864.19
356.172	850.19
356.399	883.19
356.626	859.19
356.853	891.19
357.08	876.19
357.307	869.19
357.534	864.19
357.761	845.19
357.988	903.19
358.215	855.19
358.441	864.19
358.668	893.19
358.895	903.19
359.122	875.19
359.349	867.19
359.576	868.19
359.802	891.19
360.029	882.19
360.256	876.19
360.483	839.19
360.709	871.19
360.936	891.19
361.163	851.19
361.39	838.19
361.616	868.19
361.843	853.19
362.07	882.19
362.296	893.19
362.523	870.19
362.749	887.19
362.976	861.19
363.203	860.19
363.429	829.19
363.656	879.19
363.882	887.19
364.109	872.19
364.335	875.19
364.562	850.19
364.788	855.19
365.015	839.19
365.241	844.19
365.468	873.19
365.694	857.19
365.92	867.19
366.147	884.19
366.373	873.19
366.599	882.19
366.826	851.19
367.052	861.19
367.278	852.19
367.505	892.19
367.731	899.19
367.957	884.19
368.184	856.19
368.41	870.19
368.636	872.19
368.862	878.19
369.089	900.19
369.315	899.19
369.541	890.19
369.767	923.19
369.993	903.19
370.219	905.19
370.445	908.19
370.672	934.19
370.898	913.19
371.124	931.19
371.35	945.19
371.576	928.19
371.802	935.19
372.028	943.19
372.254	985.19
372.48	970.19
372.706	964.19
372.932	968.19
373.158	980.19
373.384	980.19
373.61	949.19
373.835	966.19
374.061	950.19
374.287	972.19
374.513	988.19
374.739	1003.19
374.965	1020.19
375.191	1042.19
375.416	1023.19
375.642	1012.19
375.868	1000.19
376.094	971.19
376.319	951.19
376.545	994.19
376.771	981.19
376.997	950.19
377.222	967.19
377.448	943.19
377.674	957.19
377.899	933.19
378.125	939.19
378.35	948.19
378.576	953.19
378.802	936.19
379.027	930.19
379.253	940.19
379.478	938.19
379.704	947.19
379.929	955.19
380.155	948.19
380.38	944.19
380.606	964.19
380.831	928.19
381.057	961.19
381.282	918.19
381.507	928.19
381.733	944.19
381.958	975.19
382.184	942.19
382.409	986.19
382.634	971.19
382.86	988.19
383.085	1000.19
383.31	1034.19
383.535	1027.19
383.761	1052.19
383.986	1087.19
384.211	1084.19
384.436	1119.19
384.662	1133.19
384.887	1139.19
385.112	1145.19
385.337	1159.19
385.562	1179.19
385.787	1151.19
386.013	1168.19
386.238	1149.19
386.463	1150.19
386.688	1152.19
386.913	1114.19
387.138	1155.19
387.363	1159.19
387.588	1141.19
387.813	1142.19
388.038	1136.19
388.263	1139.19
388.488	1155.19
388.713	1160.19
388.938	1141.19
389.163	1145.19
389.387	1135.19
389.612	1110.19
389.837	1114.19
390.062	1128.19
390.287	1132.19
390.512	1140.19
390.736	1152.19
390.961	1188.19
391.186	1210.19
391.411	1213.19
391.636	1244.19
391.86	1261.19
392.085	1344.19
392.31	1320.19
392.534	1274.19
392.759	1269.19
392.984	1236.19
393.208	1216.19
393.433	1227.19
393.658	1249.19
393.882	1216.19
394.107	1219.19
394.331	1233.19
394.556	1228.19
394.78	1225.19
395.005	1246.19
395.229	1235.19
395.454	1278.19
395.678	1302.19
395.903	1339.19
396.127	1303.19
396.352	1258.19
396.576	1229.19
396.801	1225.19
397.025	1281.19
397.249	1252.19
397.474	1303.19
397.698	1322.19
397.922	1336.19
398.147	1327.19
398.371	1352.19
398.595	1371.19
398.82	1489.19
399.044	1573.19
399.268	1703.19
399.492	1992.19
399.717	2202.19
399.941	2254.19
400.165	2006.19
400.389	1863.19
400.613	1689.19
400.837	1581.19
401.062	1518.19
401.286	1528.19
401.51	1510.19
401.734	1480.19
401.958	1491.19
402.182	1506.19
402.406	1516.19
402.63	1566.19
402.854	1571.19
403.078	1597.19
403.302	1605.19
403.526	1653.19
403.75	1655.19
403.974	1675.19
404.198	1692.19
404.422	1715.19
404.645	1692.19
404.869	1681.19
405.093	1627.19
405.317	1626.19
405.541	1648.19
405.765	1603.19
405.988	1653.19
406.212	1624.19
406.436	1601.19
406.66	1659.19
406.883	1654.19
407.107	1744.19
407.331	1868.19
407.555	1962.19
407.778	1909.19
408.002	1836.19
408.226	1832.19
408.449	1740.19
408.673	1721.19
408.896	1670.19
409.12	1655.19
409.344	1626.19
409.567	1660.19
409.791	1638.19
410.014	1637.19
410.238	1608.19
410.461	1607.19
410.685	1604.19
410.908	1571.19
411.132	1576.19
411.355	1505.19
411.578	1534.19
411.802	1504.19
412.025	1544.19
412.249	1551.19
412.472	1546.19
412.695	1546.19
412.919	1446.19
413.142	1457.19
413.365	1483.19
413.589	1487.19
413.812	1419.19
414.035	1425.19
414.258	1472.19
414.482	1464.19
414.705	1472.19
414.928	1509.19
415.151	1492.19
415.374	1452.19
415.597	1438.19
415.821	1455.19
416.044	1416.19
416.267	1411.19
416.49	1427.19
416.713	1421.19
416.936	1457.19
417.159	1420.19
417.382	1387.19
417.605	1424.19
417.828	1419.19
418.051	1459.19
418.274	1463.19
418.497	1459.19
418.72	1451.19
418.943	1453.19
419.166	1567.19
419.389	1651.19
419.611	1634.19
419.834	1566.19
420.057	1531.19
420.28	1472.19
420.503	1411.19
420.726	1402.19
420.948	1423.19
421.171	1435.19
421.394	1424.19
421.617	1430.19
421.839	1420.19
422.062	1442.19
422.285	1425.19
422.507	1465.19
422.73	1469.19
422.953	1450.19
423.175	1519.19
423.398	1523.19
423.621	1539.19
423.843	1540.19
424.066	1528.19
424.288	1533.19
424.511	1469.19
424.733	1480.19
424.956	1450.19
425.178	1431.19
425.401	1419.19
425.623	1484.19
425.846	1397.19
426.068	1401.19
426.291	1377.19
426.513	1380.19
426.735	1372.19
426.958	1366.19
427.18	1316.19
427.402	1316.19
427.625	1312.19
427.847	1307.19
428.069	1284.19
428.292	1305.19
428.514	1246.19
428.736	1240.19
428.958	1293.19
429.181	1251.19
429.403	1265.19
429.625	1256.19
429.847	1249.19
430.069	1235.19
430.292	1264.19
430.514	1231.19
430.736	1250.19
430.958	1256.19
431.18	1249.19
431.402	1289.19
431.624	1230.19
431.846	1289.19
432.068	1253.19
432.29	1294.19
432.512	1262.19
432.734	1300.19
432.956	1231.19
433.178	1270.19
433.4	1284.19
433.622	1316.19
433.844	1305.19
434.066	1289.19
434.287	1277.19
434.509	1347.19
434.731	1405.19
434.953	1407.19
435.175	1453.19
435.397	1413.19
435.618	1354.19
435.84	1305.19
436.062	1293.19
436.284	1291.19
436.505	1249.19
436.727	1261.19
436.949	1275.19
437.17	1239.19
437.392	1231.19
437.614	1237.19
437.835	1207.19
438.057	1198.19
438.278	1184.19
438.5	1215.19
438.721	1204.19
438.943	1223.19
439.165	1221.19
439.386	1225.19
439.608	1241.19
439.829	1244.19
440.05	1245.19
440.272	1256.19
440.493	1239.19
440.715	1285.19
440.936	1315.19
441.158	1324.19
441.379	1392.19
441.6	1464.19
441.822	1431.19
442.043	1462.19
442.264	1442.19
442.486	1384.19
442.707	1373.19
442.928	1396.19
443.149	1392.19
443.371	1383.19
443.592	1365.19
443.813	1434.19
444.034	1461.19
444.255	1473.19
444.476	1568.19
444.698	1636.19
444.919	1700.19
445.14	1770.19
445.361	1622.19
445.582	1527.19
445.803	1388.19
446.024	1349.19
446.245	1335.19
446.466	1289.19
446.687	1273.19
446.908	1240.19
447.129	1260.19
447.35	1201.19
447.571	1205.19
447.792	1169.19
448.013	1191.19
448.234	1133.19
448.455	1192.19
448.675	1151.19
448.896	1155.19
449.117	1129.19
449.338	1133.19
449.559	1116.19
449.779	1120.19
450	1102.19
450.221	1132.19
450.442	1113.19
450.662	1130.19
450.883	1151.19
451.104	1132.19
451.324	1146.19
451.545	1173.19
451.766	1163.19
451.986	1167.19
452.207	1134.19
452.428	1123.19
452.648	1143.19
452.869	1128.19
453.089	1105.19
453.31	1159.19
453.53	1121.19
453.751	1071.19
453.971	1097.19
454.192	1103.19
454.412	1089.19
454.633	1072.19
454.853	1094.19
455.073	1083.19
455.294	1119.19
455.514	1038.19
455.734	1086.19
455.955	1060.19
456.175	1059.19
456.395	1053.19
456.616	1064.19
456.836	1062.19
457.056	1102.19
457.276	1059.19
457.497	1061.19
457.717	1053.19
457.937	1105.19
458.157	1123.19
458.377	1071.19
458.598	1149.19
458.818	1195.19
459.038	1216.19
459.258	1229.19
459.478	1278.19
459.698	1309.19
459.918	1386.19
460.138	1407.19
460.358	1480.19
460.578	1473.19
460.798	1543.19
461.018	1543.19
461.238	1526.19
461.458	1503.19
461.678	1503.19
461.898	1556.19
462.118	1527.19
462.338	1609.19
462.558	1670.19
462.777	1721.19
462.997	1835.19
463.217	2040.19
463.437	2055.19
463.657	1872.19
463.876	1799.19
464.096	1818.19
464.316	1734.19
464.536	1755.19
464.755	1719.19
464.975	1644.19
465.195	1570.19
465.414	1488.19
465.634	1373.19
465.854	1353.19
466.073	1270.19
466.293	1264.19
466.512	1275.19
466.732	1231.19
466.951	1228.19
467.171	1226.19
467.391	1232.19
467.61	1214.19
467.829	1184.19
468.049	1169.19
468.268	1175.19
468.488	1156.19
468.707	1155.19
468.927	1173.19
469.146	1165.19
469.365	1176.19
469.585	1169.19
469.804	1214.19
470.023	1225.19
470.243	1234.19
470.462	1243.19
470.681	1275.19
470.901	1262.19
471.12	1233.19
471.339	1216.19
471.558	1203.19
471.777	1168.19
471.997	1156.19
472.216	1161.19
472.435	1150.19
472.654	1155.19
472.873	1111.19
473.092	1124.19
473.311	1113.19
473.53	1126.19
473.749	1116.19
473.968	1122.19
474.187	1128.19
474.406	1090.19
474.625	1113.19
474.844	1096.19
475.063	1111.19
475.282	1128.19
475.501	1131.19
475.72	1142.19
475.939	1137.19
476.158	1177.19
476.377	1191.19
476.596	1180.19
476.814	1207.19
477.033	1184.19
477.252	1224.19
477.471	1264.19
477.69	1275.19
477.908	1295.19
478.127	1349.19
478.346	1363.19
478.564	1349.19
478.783	1416.19
479.002	1432.19
479.22	1412.19
479.439	1420.19
479.658	1441.19
479.876	1428.19
480.095	1467.19
480.313	1544.19
480.532	1561.19
480.751	1556.19
480.969	1467.19
481.188	1437.19
481.406	1373.19
481.624	1376.19
481.843	1303.19
482.061	1340.19
482.28	1295.19
482.498	1281.19
482.717	1285.19
482.935	1243.19
483.153	1276.19
483.372	1268.19
483.59	1298.19
483.808	1306.19
484.027	1262.19
484.245	1306.19
484.463	1313.19
484.681	1352.19
484.9	1352.19
485.118	1369.19
485.336	1292.19
485.554	1342.19
485.772	1337.19
485.99	1347.19
486.209	1357.19
486.427	1367.19
486.645	1376.19
486.863	1365.19
487.081	1347.19
487.299	1342.19
487.517	1351.19
487.735	1350.19
487.953	1324.19
488.171	1374.19
488.389	1356.19
488.607	1318.19
488.825	1301.19
489.043	1322.19
489.261	1337.19
489.479	1312.19
489.696	1359.19
489.914	1345.19
490.132	1336.19
490.35	1318.19
490.568	1361.19
490.786	1361.19
491.003	1335.19
491.221	1413.19
491.439	1392.19
491.657	1337.19
491.874	1364.19
492.092	1359.19
492.31	1371.19
492.527	1409.19
492.745	1415.19
492.963	1422.19
493.18	1409.19
493.398	1398.19
493.615	1443.19
493.833	1423.19
494.05	1464.19
494.268	1448.19
494.485	1423.19
494.703	1449.19
494.92	1478.19
495.138	1447.19
495.355	1488.19
495.573	1468.19
495.79	1482.19
496.008	1484.19
496.225	1496.19
496.442	1485.19
496.66	1508.19
496.877	1544.19
497.094	1599.19
497.312	1662.19
497.529	1617.19
497.746	1702.19
497.963	1763.19
498.181	1831.19
498.398	1918.19
498.615	2039.19
498.832	2126.19
499.049	2378.19
499.267	2556.19
499.484	2729.19
499.701	3125.19
499.918	3417.19
500.135	3901.19
500.352	4368.19
500.569	4556.19
500.786	4489.19
501.003	4209.19
501.22	3835.19
501.437	3425.19
501.654	2984.19
501.871	2757.19
502.088	2505.19
502.305	2307.19
502.522	2201.19
502.739	2093.19
502.956	2005.19
503.172	1908.19
503.389	1819.19
503.606	1762.19
503.823	1739.19
504.04	1712.19
504.256	1741.19
504.473	1782.19
504.69	1797.19
504.907	1730.19
505.123	1652.19
505.34	1523.19
505.557	1499.19
505.773	1455.19
505.99	1440.19
506.207	1397.19
506.423	1367.19
506.64	1352.19
506.856	1318.19
507.073	1309.19
507.289	1297.19
507.506	1273.19
507.722	1284.19
507.939	1277.19
508.155	1257.19
508.372	1288.19
508.588	1229.19
508.805	1215.19
509.021	1205.19
509.238	1233.19
509.454	1201.19
509.67	1169.19
509.887	1192.19
510.103	1180.19
510.319	1165.19
510.536	1201.19
510.752	1190.19
510.968	1176.19
511.184	1149.19
511.401	1194.19
511.617	1179.19
511.833	1144.19
512.049	1194.19
512.265	1160.19
512.481	1152.19
512.698	1180.19
512.914	1177.19
513.13	1173.19
513.346	1183.19
513.562	1197.19
513.778	1149.19
513.994	1183.19
514.21	1183.19
514.426	1157.19
514.642	1183.19
514.858	1193.19
515.074	1201.19
515.29	1207.19
515.506	1240.19
515.721	1247.19
515.937	1281.19
516.153	1268.19
516.369	1312.19
516.585	1364.19
516.801	1436.19
517.016	1466.19
517.232	1539.19
517.448	1569.19
517.664	1639.19
517.879	1675.19
518.095	1663.19
518.311	1620.19
518.527	1532.19
518.742	1508.19
518.958	1448.19
519.173	1363.19
519.389	1355.19
519.605	1279.19
519.82	1279.19
520.036	1257.19
520.251	1207.19
520.467	1221.19
520.682	1196.19
520.898	1149.19
521.113	1164.19
521.329	1167.19
521.544	1157.19
521.76	1164.19
521.975	1089.19
522.19	1104.19
522.406	1119.19
522.621	1120.19
522.836	1111.19
523.052	1074.19
523.267	1099.19
523.482	1073.19
523.698	1072.19
523.913	1049.19
524.128	1088.19
524.343	1092.19
524.559	1082.19
524.774	1073.19
524.989	1054.19
525.204	1036.19
525.419	1081.19
525.634	1077.19
525.849	1028.19
526.064	1041.19
526.28	1064.19
526.495	1035.19
526.71	1068.19
526.925	1017.19
527.14	1033.19
527.355	1015.19
527.57	1039.19
527.785	1024.19
527.999	1040.19
528.214	1028.19
528.429	1025.19
528.644	1036.19
528.859	1015.19
529.074	1065.19
529.289	1048.19
529.503	1065.19
529.718	1040.19
529.933	1000.19
530.148	1019.19
530.363	1045.19
530.577	1012.19
530.792	1025.19
531.007	1015.19
531.221	1022.19
531.436	1049.19
531.651	1025.19
531.865	1059.19
532.08	1063.19
532.295	1048.19
532.509	1036.19
532.724	1047.19
532.938	1034.19
533.153	1032.19
533.367	1022.19
533.582	1022.19
533.796	1046.19
534.011	1017.19
534.225	1023.19
534.44	1034.19
534.654	1037.19
534.868	1007.19
535.083	1022.19
535.297	998.19
535.511	1008.19
535.726	983.19
535.94	995.19
536.154	999.19
536.369	985.19
536.583	934.19
536.797	955.19
537.011	993.19
537.225	950.19
537.44	967.19
537.654	947.19
537.868	943.19
538.082	912.19
538.296	928.19
538.51	977.19
538.724	928.19
538.938	948.19
539.153	939.19
539.367	931.19
539.581	949.19
539.795	912.19
540.009	914.19
540.222	929.19
540.436	936.19
540.65	935.19
540.864	935.19
541.078	903.19
541.292	943.19
541.506	939.19
541.72	925.19
541.934	956.19
542.147	931.19
542.361	941.19
542.575	900.19
542.789	917.19
543.002	927.19
543.216	910.19
543.43	899.19
543.644	884.19
543.857	917.19
544.071	914.19
544.285	928.19
544.498	928.19
544.712	911.19
544.925	939.19
545.139	955.19
545.352	934.19
545.566	959.19
545.779	947.19
545.993	954.19
546.206	966.19
546.42	967.19
546.633	938.19
546.847	947.19
547.06	933.19
547.274	966.19
547.487	979.19
547.7	926.19
547.914	974.19
548.127	952.19
548.34	963.19
548.554	947.19
548.767	953.19
548.98	987.19
549.193	995.19
549.407	982.19
549.62	997.19
549.833	1000.19
550.046	976.19
550.259	976.19
550.473	978.19
550.686	947.19
550.899	975.19
551.112	925.19
551.325	932.19
551.538	927.19
551.751	919.19
551.964	957.19
552.177	986.19
552.39	968.19
552.603	992.19
552.816	1019.19
553.029	1030.19
553.242	1073.19
553.455	1061.19
553.667	1045.19
553.88	1033.19
554.093	1029.19
554.306	992.19
554.519	949.19
554.732	953.19
554.944	924.19
555.157	909.19
555.37	920.19
555.583	885.19
555.795	864.19
556.008	867.19
556.221	851.19
556.433	813.19
556.646	825.19
556.859	844.19
557.071	826.19
557.284	800.19
557.496	808.19
557.709	810.19
557.921	814.19
558.134	816.19
558.346	817.19
558.559	789.19
558.771	784.19
558.984	783.19
559.196	801.19
559.409	769.19
559.621	766.19
559.833	795.19
560.046	777.19
560.258	786.19
560.47	781.19
560.683	788.19
560.895	777.19
561.107	781.19
561.32	759.19
561.532	782.19
561.744	787.19
561.956	761.19
562.168	747.19
562.381	775.19
562.593	751.19
562.805	784.19
563.017	783.19
563.229	771.19
563.441	774.19
563.653	789.19
563.865	798.19
564.077	803.19
564.289	825.19
564.501	827.19
564.713	848.19
564.925	856.19
565.137	891.19
565.349	889.19
565.561	931.19
565.773	961.19
565.985	984.19
566.197	1063.19
566.408	1125.19
566.62	1225.19
566.832	1290.19
567.044	1333.19
567.255	1319.19
567.467	1353.19
567.679	1429.19
567.891	1525.19
568.102	1585.19
568.314	1444.19
568.526	1323.19
568.737	1227.19
568.949	1132.19
569.161	1032.19
569.372	954.19
569.584	916.19
569.795	866.19
570.007	846.19
570.218	859.19
570.43	829.19
570.641	821.19
570.853	830.19
571.064	840.19
571.276	831.19
571.487	789.19
571.698	771.19
571.91	760.19
572.121	716.19
572.333	722.19
572.544	701.19
572.755	656.19
572.966	681.19
573.178	662.19
573.389	648.19
573.6	646.19
573.811	664.19
574.023	639.19
574.234	644.19
574.445	669.19
574.656	629.19
574.867	654.19
575.078	628.19
575.289	645.19
575.501	605.19
575.712	612.19
575.923	621.19
576.134	628.19
576.345	633.19
576.556	611.19
576.767	586.19
576.978	601.19
577.188	611.19
577.399	581.19
577.61	590.19
577.821	585.19
578.032	573.19
578.243	577.19
578.454	586.19
578.665	575.19
578.875	555.19
579.086	538.19
579.297	566.19
579.508	589.19
579.718	550.19
579.929	545.19
580.14	560.19
580.35	554.19
580.561	570.19
580.772	543.19
580.982	537.19
581.193	547.19
581.403	558.19
581.614	522.19
581.825	511.19
582.035	547.19
582.246	521.19
582.456	551.19
582.667	552.19
582.877	543.19
583.087	544.19
583.298	537.19
583.508	520.19
583.719	524.19
583.929	538.19
584.139	525.19
584.35	505.19
584.56	527.19
584.77	541.19
584.981	506.19
585.191	508.19
585.401	512.19
585.611	496.19
585.821	521.19
586.032	508.19
586.242	513.19
586.452	517.19
586.662	493.19
586.872	494.19
587.082	515.19
587.292	493.19
587.502	496.19
587.713	517.19
587.923	504.19
588.133	519.19
588.343	500.19
588.553	527.19
588.762	497.19
588.972	502.19
589.182	551.19
589.392	560.19
589.602	501.19
589.812	523.19
590.022	528.19
590.232	491.19
590.441	523.19
590.651	530.19
590.861	528.19
591.071	518.19
591.281	525.19
591.49	545.19
591.7	543.19
591.91	560.19
592.119	579.19
592.329	600.19
592.539	601.19
592.748	616.19
592.958	618.19
593.167	637.19
593.377	649.19
593.587	669.19
593.796	669.19
594.006	648.19
594.215	657.19
594.424	664.19
594.634	634.19
594.843	631.19
595.053	588.19
595.262	590.19
595.472	573.19
595.681	563.19
595.89	525.19
596.1	503.19
596.309	521.19
596.518	485.19
596.727	503.19
596.937	480.19
597.146	464.19
597.355	472.19
597.564	475.19
597.774	442.19
597.983	466.19
598.192	432.19
598.401	431.19
598.61	437.19
598.819	436.19
599.028	431.19
599.237	443.19
599.446	432.19
599.655	439.19
599.864	433.19
600.073	425.19
600.282	414.19
600.491	408.19
600.7	439.19
600.909	416.19
601.118	405.19
601.327	411.19
601.536	414.19
601.745	401.19
601.953	420.19
602.162	429.19
602.371	420.19
602.58	427.19
602.789	416.19
602.997	407.19
603.206	413.19
603.415	397.19
603.623	390.19
603.832	394.19
604.041	405.19
604.249	393.19
604.458	393.19
604.666	407.19
604.875	393.19
605.084	411.19
605.292	397.19
605.501	388.19
605.709	381.19
605.918	389.19
606.126	389.19
606.334	398.19
606.543	378.19
606.751	375.19
606.96	378.19
607.168	377.19
607.376	377.19
607.585	394.19
607.793	392.19
608.001	391.19
608.21	366.19
608.418	373.19
608.626	383.19
608.834	368.19
609.043	377.19
609.251	379.19
609.459	376.19
609.667	388.19
609.875	355.19
610.083	361.19
610.291	360.19
610.499	375.19
610.707	365.19
610.916	371.19
611.124	377.19
611.332	359.19
611.54	383.19
611.748	358.19
611.955	360.19
612.163	347.19
612.371	363.19
612.579	345.19
612.787	376.19
612.995	357.19
613.203	352.19
613.411	358.19
613.618	374.19
613.826	374.19
614.034	351.19
614.242	335.19
614.449	355.19
614.657	353.19
614.865	355.19
615.072	347.19
615.28	357.19
615.488	354.19
615.695	332.19
615.903	374.19
616.111	355.19
616.318	377.19
616.526	375.19
616.733	362.19
616.941	371.19
617.148	361.19
617.356	368.19
617.563	359.19
617.771	347.19
617.978	349.19
618.185	358.19
618.393	362.19
618.6	357.19
618.807	353.19
619.015	350.19
619.222	332.19
619.429	344.19
619.637	344.19
619.844	342.19
620.051	340.19
620.258	349.19
620.466	335.19
620.673	341.19
620.88	330.19
621.087	332.19
621.294	330.19
621.501	337.19
621.708	322.19
621.915	336.19
622.122	327.19
622.329	330.19
622.536	337.19
622.743	309.19
622.95	329.19
623.157	319.19
623.364	332.19
623.571	333.19
623.778	314.19
623.985	316.19
624.192	345.19
624.399	291.19
624.606	307.19
624.812	324.19
625.019	320.19
625.226	320.19
625.433	313.19
625.639	292.19
625.846	298.19
626.053	312.19
626.259	320.19
626.466	295.19
626.673	297.19
626.879	308.19
627.086	312.19
627.293	284.19
627.499	294.19
627.706	293.19
627.912	288.19
628.119	301.19
628.325	302.19
628.532	302.19
628.738	292.19
628.945	280.19
629.151	284.19
629.357	293.19
629.564	281.19
629.77	275.19
629.976	289.19
630.183	271.19
630.389	277.19
630.595	275.19
630.802	284.19
631.008	285.19
631.214	287.19
631.42	263.19
631.627	260.19
631.833	268.19
632.039	279.19
632.245	263.19
632.451	266.19
632.657	277.19
632.863	274.19
633.069	267.19
633.275	264.19
633.481	275.19
633.688	277.19
633.893	278.19
634.099	247.19
634.305	278.19
634.511	259.19
634.717	259.19
634.923	274.19
635.129	245.19
635.335	272.19
635.541	256.19
635.747	268.19
635.952	260.19
636.158	261.19
636.364	259.19
636.57	258.19
636.775	265.19
636.981	235.19
637.187	249.19
637.392	246.19
637.598	260.19
637.804	234.19
638.009	268.19
638.215	267.19
638.421	234.19
638.626	247.19
638.832	240.19
639.037	248.19
639.243	229.19
639.448	256.19
639.654	248.19
639.859	243.19
640.065	234.19
640.27	238.19
640.475	246.19
640.681	250.19
640.886	234.19
641.091	230.19
641.297	251.19
641.502	243.19
641.707	247.19
641.913	238.19
642.118	211.19
642.323	230.19
642.528	219.19
642.733	224.19
642.939	229.19
643.144	204.19
643.349	213.19
643.554	220.19
643.759	217.19
643.964	217.19
644.169	205.19
644.374	219.19
644.579	216.19
644.784	227.19
644.989	227.19
645.194	217.19
645.399	216.19
645.604	217.19
645.809	238.19
646.014	209.19
646.219	204.19
646.423	195.19
646.628	227.19
646.833	229.19
647.038	238.19
647.243	222.19
647.447	221.19
647.652	240.19
647.857	230.19
648.062	244.19
648.266	225.19
648.471	236.19
648.676	230.19
648.88	247.19
649.085	246.19
649.289	236.19
649.494	225.19
649.698	195.19
649.903	230.19
650.107	200.19
650.312	216.19
650.516	209.19
650.721	208.19
650.925	201.19
651.13	199.19
651.334	204.19
651.539	204.19
651.743	212.19
651.947	203.19
652.152	200.19
652.356	206.19
652.56	187.19
652.764	181.19
652.969	201.19
653.173	173.19
653.377	172.19
653.581	173.19
653.785	164.19
653.99	174.19
654.194	179.19
654.398	164.19
654.602	160.19
654.806	160.19
655.01	172.19
655.214	161.19
655.418	166.19
655.622	168.19
655.826	163.19
656.03	167.19
656.234	151.19
656.438	157.19
656.642	153.19
656.846	143.19
657.049	149.19
657.253	133.19
657.457	132.19
657.661	154.19
657.865	137.19
658.068	125.19
658.272	119.19
658.476	110.19
658.68	127.19
658.883	121.19
659.087	103.19
659.291	131.19
659.494	119.19
659.698	117.19
659.901	108.19
660.105	101.19
660.309	103.19
660.512	117.19
660.716	110.19
660.919	105.19
661.123	108.19
661.326	93.19
661.53	99.19
661.733	94.19
661.936	80.19
662.14	97.19
662.343	108.19
662.546	80.19
662.75	99.19
662.953	71.19
663.156	92.19
663.36	89.19
663.563	100.19
663.766	93.19
663.969	86.19
664.173	88.19
664.376	80.19
664.579	82.19
664.782	97.19
664.985	82.19
665.188	77.19
665.391	88.19
665.594	84.19
665.797	97.19
666	104.19
666.203	73.19
666.406	79.19
666.609	96.19
666.812	73.19
667.015	80.19
667.218	95.19
667.421	81.19
667.624	83.19
667.827	91.19
668.03	80.19
668.232	79.19
668.435	90.19
668.638	82.19
668.841	88.19
669.043	80.19
669.246	81.19
669.449	79.19
669.651	80.19
669.854	76.19
670.057	88.19
670.259	82.19
670.462	84.19
670.665	79.19
670.867	96.19
671.07	91.19
671.272	80.19
671.475	94.19
671.677	84.19
671.88	100.19
672.082	75.19
672.284	84.19
672.487	84.19
672.689	78.19
672.892	75.19
