Data from NiCl2@0.25M.TitratingCurve.Agarose3%dH2O.NegLispCup.LampEnergy10.LIBS07252019_HRD10591_18-23-19-573.txt Node
Date: Thu Jul 25 18:23:19 EDT 2019
User: cochatt
Spectrometer: HR+D1059
Trigger mode: 1
Integration Time (sec): 1.000000E-1
Scans to average: 1
Electric dark correction enabled: true
Nonlinearity correction enabled: false
Boxcar width: 0
XAxis mode: Wavelengths
Number of Pixels in Spectrum: 2048
>>>>>Begin Spectral Data<<<<<
223.165	-17.19
223.4	-17.19
223.635	-17.19
223.869	-21.19
224.104	-6.19
224.338	-19.19
224.573	-9.19
224.808	-24.19
225.042	6.81
225.277	-10.19
225.511	8.81
225.746	-18.19
225.98	5.81
226.215	12.81
226.449	21.81
226.683	12.81
226.918	22.81
227.152	33.81
227.387	35.81
227.621	30.81
227.856	38.81
228.09	47.81
228.324	43.81
228.559	50.81
228.793	68.81
229.027	96.81
229.262	119.81
229.496	115.81
229.73	136.81
229.964	129.81
230.199	115.81
230.433	122.81
230.667	141.81
230.901	125.81
231.136	121.81
231.37	130.81
231.604	138.81
231.838	142.81
232.072	126.81
232.306	139.81
232.541	122.81
232.775	119.81
233.009	125.81
233.243	127.81
233.477	133.81
233.711	136.81
233.945	132.81
234.179	146.81
234.413	160.81
234.647	142.81
234.881	145.81
235.115	135.81
235.349	157.81
235.583	148.81
235.817	159.81
236.051	139.81
236.285	158.81
236.519	164.81
236.753	159.81
236.987	154.81
237.221	140.81
237.455	137.81
237.689	149.81
237.922	141.81
238.156	140.81
238.39	157.81
238.624	145.81
238.858	161.81
239.091	174.81
239.325	159.81
239.559	170.81
239.793	173.81
240.027	164.81
240.26	176.81
240.494	163.81
240.728	177.81
240.961	144.81
241.195	173.81
241.429	188.81
241.662	185.81
241.896	179.81
242.13	168.81
242.363	169.81
242.597	178.81
242.83	187.81
243.064	178.81
243.298	181.81
243.531	161.81
243.765	184.81
243.998	180.81
244.232	191.81
244.465	202.81
244.699	193.81
244.932	199.81
245.166	195.81
245.399	200.81
245.633	195.81
245.866	206.81
246.099	197.81
246.333	193.81
246.566	214.81
246.8	217.81
247.033	199.81
247.266	197.81
247.5	197.81
247.733	200.81
247.966	215.81
248.2	209.81
248.433	233.81
248.666	211.81
248.899	216.81
249.133	237.81
249.366	224.81
249.599	234.81
249.832	218.81
250.066	220.81
250.299	235.81
250.532	223.81
250.765	222.81
250.998	242.81
251.231	237.81
251.465	243.81
251.698	239.81
251.931	214.81
252.164	222.81
252.397	248.81
252.63	257.81
252.863	245.81
253.096	249.81
253.329	242.81
253.562	231.81
253.795	240.81
254.028	242.81
254.261	254.81
254.494	261.81
254.727	257.81
254.96	245.81
255.193	253.81
255.426	253.81
255.659	262.81
255.892	254.81
256.124	262.81
256.357	260.81
256.59	280.81
256.823	272.81
257.056	257.81
257.289	267.81
257.521	285.81
257.754	267.81
257.987	282.81
258.22	259.81
258.452	276.81
258.685	281.81
258.918	277.81
259.151	276.81
259.383	256.81
259.616	255.81
259.849	280.81
260.081	283.81
260.314	296.81
260.547	305.81
260.779	287.81
261.012	302.81
261.244	277.81
261.477	301.81
261.71	296.81
261.942	289.81
262.175	296.81
262.407	313.81
262.64	308.81
262.872	286.81
263.105	319.81
263.337	311.81
263.57	297.81
263.802	316.81
264.035	298.81
264.267	339.81
264.499	304.81
264.732	305.81
264.964	307.81
265.197	315.81
265.429	326.81
265.661	303.81
265.894	304.81
266.126	320.81
266.358	297.81
266.591	311.81
266.823	318.81
267.055	308.81
267.287	333.81
267.52	334.81
267.752	328.81
267.984	341.81
268.216	332.81
268.448	351.81
268.681	350.81
268.913	347.81
269.145	355.81
269.377	355.81
269.609	360.81
269.841	347.81
270.073	344.81
270.306	352.81
270.538	342.81
270.77	336.81
271.002	351.81
271.234	362.81
271.466	363.81
271.698	363.81
271.93	361.81
272.162	355.81
272.394	359.81
272.626	361.81
272.858	359.81
273.09	365.81
273.322	365.81
273.553	349.81
273.785	372.81
274.017	340.81
274.249	372.81
274.481	367.81
274.713	370.81
274.945	389.81
275.176	385.81
275.408	373.81
275.64	401.81
275.872	381.81
276.104	384.81
276.335	387.81
276.567	385.81
276.799	378.81
277.031	393.81
277.262	381.81
277.494	381.81
277.726	404.81
277.957	384.81
278.189	403.81
278.421	390.81
278.652	410.81
278.884	397.81
279.115	380.81
279.347	396.81
279.579	406.81
279.81	413.81
280.042	421.81
280.273	399.81
280.505	406.81
280.736	422.81
280.968	437.81
281.199	415.81
281.431	417.81
281.662	434.81
281.894	409.81
282.125	407.81
282.356	421.81
282.588	434.81
282.819	441.81
283.051	426.81
283.282	435.81
283.513	437.81
283.745	424.81
283.976	437.81
284.207	441.81
284.439	439.81
284.67	431.81
284.901	429.81
285.132	449.81
285.364	441.81
285.595	463.81
285.826	453.81
286.057	465.81
286.288	471.81
286.52	457.81
286.751	463.81
286.982	471.81
287.213	442.81
287.444	450.81
287.675	469.81
287.906	461.81
288.138	473.81
288.369	468.81
288.6	464.81
288.831	469.81
289.062	493.81
289.293	475.81
289.524	471.81
289.755	465.81
289.986	477.81
290.217	471.81
290.448	462.81
290.679	483.81
290.91	479.81
291.141	461.81
291.371	489.81
291.602	469.81
291.833	486.81
292.064	477.81
292.295	478.81
292.526	473.81
292.757	469.81
292.987	469.81
293.218	471.81
293.449	503.81
293.68	500.81
293.91	496.81
294.141	503.81
294.372	497.81
294.603	475.81
294.833	492.81
295.064	499.81
295.295	493.81
295.525	488.81
295.756	524.81
295.987	483.81
296.217	513.81
296.448	505.81
296.679	520.81
296.909	507.81
297.14	519.81
297.37	520.81
297.601	550.81
297.831	527.81
298.062	523.81
298.292	529.81
298.523	516.81
298.753	537.81
298.984	511.81
299.214	527.81
299.445	514.81
299.675	521.81
299.905	526.81
300.136	535.81
300.366	519.81
300.597	556.81
300.827	536.81
301.057	539.81
301.288	552.81
301.518	544.81
301.748	552.81
301.979	562.81
302.209	573.81
302.439	557.81
302.669	549.81
302.9	563.81
303.13	537.81
303.36	564.81
303.59	569.81
303.82	557.81
304.051	550.81
304.281	558.81
304.511	556.81
304.741	549.81
304.971	546.81
305.201	553.81
305.431	545.81
305.661	553.81
305.891	540.81
306.121	544.81
306.352	554.81
306.582	531.81
306.812	546.81
307.042	557.81
307.272	549.81
307.502	537.81
307.731	549.81
307.961	551.81
308.191	557.81
308.421	541.81
308.651	546.81
308.881	558.81
309.111	537.81
309.341	544.81
309.571	537.81
309.8	544.81
310.03	546.81
310.26	551.81
310.49	559.81
310.72	547.81
310.949	553.81
311.179	558.81
311.409	573.81
311.639	567.81
311.868	544.81
312.098	574.81
312.328	574.81
312.557	563.81
312.787	580.81
313.017	559.81
313.246	584.81
313.476	597.81
313.706	597.81
313.935	608.81
314.165	594.81
314.394	595.81
314.624	591.81
314.853	610.81
315.083	582.81
315.312	572.81
315.542	605.81
315.771	577.81
316.001	585.81
316.23	596.81
316.46	575.81
316.689	579.81
316.919	567.81
317.148	595.81
317.377	574.81
317.607	576.81
317.836	568.81
318.065	571.81
318.295	581.81
318.524	606.81
318.753	590.81
318.983	584.81
319.212	567.81
319.441	584.81
319.67	571.81
319.9	584.81
320.129	601.81
320.358	577.81
320.587	565.81
320.816	593.81
321.046	576.81
321.275	584.81
321.504	585.81
321.733	591.81
321.962	599.81
322.191	575.81
322.42	607.81
322.649	599.81
322.878	595.81
323.108	606.81
323.337	618.81
323.566	619.81
323.795	609.81
324.024	618.81
324.253	595.81
324.482	597.81
324.71	612.81
324.939	594.81
325.168	613.81
325.397	606.81
325.626	623.81
325.855	615.81
326.084	645.81
326.313	623.81
326.542	646.81
326.77	631.81
326.999	626.81
327.228	624.81
327.457	641.81
327.686	627.81
327.914	687.81
328.143	649.81
328.372	648.81
328.6	661.81
328.829	653.81
329.058	635.81
329.287	648.81
329.515	653.81
329.744	661.81
329.972	636.81
330.201	651.81
330.43	661.81
330.658	643.81
330.887	657.81
331.115	690.81
331.344	686.81
331.572	683.81
331.801	706.81
332.03	723.81
332.258	726.81
332.486	758.81
332.715	764.81
332.943	797.81
333.172	816.81
333.4	837.81
333.629	887.81
333.857	882.81
334.085	861.81
334.314	857.81
334.542	823.81
334.771	799.81
334.999	810.81
335.227	804.81
335.455	803.81
335.684	795.81
335.912	794.81
336.14	788.81
336.369	736.81
336.597	797.81
336.825	788.81
337.053	791.81
337.281	747.81
337.51	733.81
337.738	722.81
337.966	741.81
338.194	721.81
338.422	714.81
338.65	715.81
338.878	692.81
339.106	704.81
339.334	701.81
339.562	701.81
339.79	699.81
340.018	682.81
340.246	661.81
340.474	657.81
340.702	665.81
340.93	685.81
341.158	708.81
341.386	696.81
341.614	677.81
341.842	680.81
342.07	669.81
342.298	663.81
342.526	678.81
342.754	645.81
342.981	685.81
343.209	696.81
343.437	704.81
343.665	779.81
343.893	854.81
344.12	828.81
344.348	820.81
344.576	768.81
344.804	735.81
345.031	702.81
345.259	685.81
345.487	672.81
345.714	673.81
345.942	655.81
346.17	673.81
346.397	651.81
346.625	663.81
346.853	659.81
347.08	621.81
347.308	614.81
347.535	653.81
347.763	663.81
347.99	659.81
348.218	651.81
348.445	643.81
348.673	667.81
348.9	632.81
349.128	659.81
349.355	641.81
349.583	634.81
349.81	653.81
350.037	628.81
350.265	603.81
350.492	633.81
350.72	643.81
350.947	629.81
351.174	632.81
351.402	632.81
351.629	638.81
351.856	633.81
352.083	613.81
352.311	633.81
352.538	637.81
352.765	636.81
352.992	636.81
353.22	641.81
353.447	653.81
353.674	614.81
353.901	629.81
354.128	601.81
354.355	623.81
354.583	627.81
354.81	640.81
355.037	634.81
355.264	630.81
355.491	631.81
355.718	637.81
355.945	654.81
356.172	647.81
356.399	649.81
356.626	644.81
356.853	643.81
357.08	618.81
357.307	630.81
357.534	640.81
357.761	652.81
357.988	637.81
358.215	659.81
358.441	646.81
358.668	631.81
358.895	643.81
359.122	622.81
359.349	640.81
359.576	637.81
359.802	618.81
360.029	650.81
360.256	623.81
360.483	650.81
360.709	613.81
360.936	653.81
361.163	629.81
361.39	660.81
361.616	642.81
361.843	645.81
362.07	617.81
362.296	637.81
362.523	646.81
362.749	654.81
362.976	625.81
363.203	623.81
363.429	631.81
363.656	646.81
363.882	627.81
364.109	634.81
364.335	644.81
364.562	633.81
364.788	628.81
365.015	647.81
365.241	649.81
365.468	629.81
365.694	613.81
365.92	639.81
366.147	637.81
366.373	621.81
366.599	633.81
366.826	626.81
367.052	643.81
367.278	610.81
367.505	629.81
367.731	639.81
367.957	639.81
368.184	669.81
368.41	647.81
368.636	643.81
368.862	652.81
369.089	647.81
369.315	645.81
369.541	656.81
369.767	677.81
369.993	666.81
370.219	647.81
370.445	671.81
370.672	641.81
370.898	675.81
371.124	697.81
371.35	687.81
371.576	677.81
371.802	687.81
372.028	685.81
372.254	666.81
372.48	687.81
372.706	698.81
372.932	718.81
373.158	717.81
373.384	683.81
373.61	700.81
373.835	691.81
374.061	691.81
374.287	709.81
374.513	736.81
374.739	717.81
374.965	759.81
375.191	749.81
375.416	734.81
375.642	735.81
375.868	728.81
376.094	711.81
376.319	706.81
376.545	701.81
376.771	689.81
376.997	671.81
377.222	674.81
377.448	678.81
377.674	674.81
377.899	690.81
378.125	683.81
378.35	679.81
378.576	690.81
378.802	679.81
379.027	674.81
379.253	696.81
379.478	689.81
379.704	670.81
379.929	693.81
380.155	688.81
380.38	671.81
380.606	702.81
380.831	696.81
381.057	701.81
381.282	669.81
381.507	664.81
381.733	686.81
381.958	695.81
382.184	736.81
382.409	741.81
382.634	725.81
382.86	708.81
383.085	723.81
383.31	760.81
383.535	764.81
383.761	754.81
383.986	767.81
384.211	806.81
384.436	799.81
384.662	814.81
384.887	816.81
385.112	810.81
385.337	807.81
385.562	836.81
385.787	845.81
386.013	819.81
386.238	816.81
386.463	830.81
386.688	821.81
386.913	832.81
387.138	813.81
387.363	801.81
387.588	809.81
387.813	813.81
388.038	783.81
388.263	836.81
388.488	850.81
388.713	840.81
388.938	813.81
389.163	819.81
389.387	786.81
389.612	824.81
389.837	830.81
390.062	810.81
390.287	805.81
390.512	803.81
390.736	827.81
390.961	831.81
391.186	858.81
391.411	867.81
391.636	885.81
391.86	933.81
392.085	918.81
392.31	939.81
392.534	889.81
392.759	891.81
392.984	864.81
393.208	855.81
393.433	869.81
393.658	861.81
393.882	874.81
394.107	870.81
394.331	888.81
394.556	895.81
394.78	905.81
395.005	906.81
395.229	887.81
395.454	928.81
395.678	955.81
395.903	915.81
396.127	929.81
396.352	886.81
396.576	896.81
396.801	885.81
397.025	909.81
397.249	901.81
397.474	941.81
397.698	934.81
397.922	927.81
398.147	908.81
398.371	969.81
398.595	965.81
398.82	1013.81
399.044	1072.81
399.268	1220.81
399.492	1399.81
399.717	1583.81
399.941	1550.81
400.165	1377.81
400.389	1235.81
400.613	1147.81
400.837	1105.81
401.062	1089.81
401.286	1041.81
401.51	1051.81
401.734	1026.81
401.958	1077.81
402.182	1075.81
402.406	1056.81
402.63	1081.81
402.854	1120.81
403.078	1139.81
403.302	1150.81
403.526	1180.81
403.75	1183.81
403.974	1211.81
404.198	1199.81
404.422	1186.81
404.645	1218.81
404.869	1169.81
405.093	1163.81
405.317	1134.81
405.541	1122.81
405.765	1124.81
405.988	1104.81
406.212	1155.81
406.436	1153.81
406.66	1163.81
406.883	1171.81
407.107	1250.81
407.331	1285.81
407.555	1309.81
407.778	1344.81
408.002	1290.81
408.226	1249.81
408.449	1240.81
408.673	1207.81
408.896	1143.81
409.12	1143.81
409.344	1172.81
409.567	1166.81
409.791	1153.81
410.014	1166.81
410.238	1117.81
410.461	1116.81
410.685	1130.81
410.908	1089.81
411.132	1087.81
411.355	1081.81
411.578	1074.81
411.802	1073.81
412.025	1067.81
412.249	1107.81
412.472	1063.81
412.695	1041.81
412.919	1029.81
413.142	1018.81
413.365	1025.81
413.589	1033.81
413.812	1051.81
414.035	1025.81
414.258	1034.81
414.482	1019.81
414.705	1034.81
414.928	1026.81
415.151	1048.81
415.374	1027.81
415.597	1014.81
415.821	1039.81
416.044	997.81
416.267	1014.81
416.49	1021.81
416.713	990.81
416.936	1027.81
417.159	1003.81
417.382	1034.81
417.605	1003.81
417.828	1043.81
418.051	1027.81
418.274	1041.81
418.497	1022.81
418.72	1020.81
418.943	1049.81
419.166	1109.81
419.389	1179.81
419.611	1153.81
419.834	1086.81
420.057	1083.81
420.28	1025.81
420.503	1014.81
420.726	990.81
420.948	1021.81
421.171	1033.81
421.394	1012.81
421.617	1027.81
421.839	1028.81
422.062	1006.81
422.285	1032.81
422.507	1033.81
422.73	1013.81
422.953	1035.81
423.175	1047.81
423.398	1085.81
423.621	1069.81
423.843	1084.81
424.066	1092.81
424.288	1084.81
424.511	1047.81
424.733	1037.81
424.956	1039.81
425.178	1010.81
425.401	1031.81
425.623	1016.81
425.846	960.81
426.068	957.81
426.291	976.81
426.513	941.81
426.735	958.81
426.958	937.81
427.18	919.81
427.402	911.81
427.625	913.81
427.847	921.81
428.069	910.81
428.292	919.81
428.514	907.81
428.736	895.81
428.958	916.81
429.181	897.81
429.403	855.81
429.625	882.81
429.847	884.81
430.069	882.81
430.292	872.81
430.514	873.81
430.736	858.81
430.958	881.81
431.18	874.81
431.402	893.81
431.624	870.81
431.846	906.81
432.068	898.81
432.29	912.81
432.512	890.81
432.734	907.81
432.956	897.81
433.178	917.81
433.4	895.81
433.622	919.81
433.844	930.81
434.066	902.81
434.287	905.81
434.509	942.81
434.731	1007.81
434.953	1029.81
435.175	1000.81
435.397	959.81
435.618	966.81
435.84	944.81
436.062	889.81
436.284	899.81
436.505	884.81
436.727	899.81
436.949	926.81
437.17	898.81
437.392	890.81
437.614	893.81
437.835	829.81
438.057	864.81
438.278	864.81
438.5	893.81
438.721	867.81
438.943	861.81
439.165	857.81
439.386	842.81
439.608	905.81
439.829	901.81
440.05	908.81
440.272	917.81
440.493	944.81
440.715	905.81
440.936	911.81
441.158	950.81
441.379	964.81
441.6	1002.81
441.822	1012.81
442.043	1011.81
442.264	974.81
442.486	993.81
442.707	986.81
442.928	973.81
443.149	997.81
443.371	994.81
443.592	975.81
443.813	1028.81
444.034	1023.81
444.255	1048.81
444.476	1114.81
444.698	1145.81
444.919	1209.81
445.14	1258.81
445.361	1144.81
445.582	1051.81
445.803	968.81
446.024	959.81
446.245	953.81
446.466	936.81
446.687	887.81
446.908	921.81
447.129	889.81
447.35	882.81
447.571	851.81
447.792	822.81
448.013	827.81
448.234	840.81
448.455	821.81
448.675	834.81
448.896	829.81
449.117	809.81
449.338	781.81
449.559	792.81
449.779	798.81
450	800.81
450.221	838.81
450.442	804.81
450.662	819.81
450.883	829.81
451.104	847.81
451.324	843.81
451.545	833.81
451.766	818.81
451.986	827.81
452.207	808.81
452.428	781.81
452.648	807.81
452.869	817.81
453.089	785.81
453.31	807.81
453.53	794.81
453.751	789.81
453.971	803.81
454.192	760.81
454.412	744.81
454.633	769.81
454.853	746.81
455.073	761.81
455.294	775.81
455.514	736.81
455.734	751.81
455.955	745.81
456.175	749.81
456.395	754.81
456.616	778.81
456.836	765.81
457.056	776.81
457.276	778.81
457.497	782.81
457.717	783.81
457.937	802.81
458.157	791.81
458.377	789.81
458.598	817.81
458.818	823.81
459.038	859.81
459.258	872.81
459.478	895.81
459.698	911.81
459.918	936.81
460.138	996.81
460.358	1060.81
460.578	1053.81
460.798	1077.81
461.018	1062.81
461.238	1073.81
461.458	1042.81
461.678	1034.81
461.898	1062.81
462.118	1080.81
462.338	1122.81
462.558	1130.81
462.777	1204.81
462.997	1309.81
463.217	1429.81
463.437	1451.81
463.657	1305.81
463.876	1239.81
464.096	1228.81
464.316	1220.81
464.536	1223.81
464.755	1189.81
464.975	1145.81
465.195	1089.81
465.414	1041.81
465.634	970.81
465.854	955.81
466.073	912.81
466.293	922.81
466.512	910.81
466.732	875.81
466.951	901.81
467.171	870.81
467.391	851.81
467.61	854.81
467.829	866.81
468.049	879.81
468.268	839.81
468.488	819.81
468.707	809.81
468.927	837.81
469.146	843.81
469.365	871.81
469.585	825.81
469.804	877.81
470.023	883.81
470.243	860.81
470.462	878.81
470.681	903.81
470.901	903.81
471.12	867.81
471.339	877.81
471.558	850.81
471.777	849.81
471.997	838.81
472.216	836.81
472.435	838.81
472.654	817.81
472.873	806.81
473.092	817.81
473.311	837.81
473.53	799.81
473.749	817.81
473.968	789.81
474.187	807.81
474.406	806.81
474.625	817.81
474.844	799.81
475.063	823.81
475.282	831.81
475.501	840.81
475.72	829.81
475.939	822.81
476.158	835.81
476.377	830.81
476.596	843.81
476.814	874.81
477.033	873.81
477.252	898.81
477.471	878.81
477.69	920.81
477.908	956.81
478.127	963.81
478.346	970.81
478.564	986.81
478.783	1008.81
479.002	1053.81
479.22	1017.81
479.439	1046.81
479.658	999.81
479.876	1025.81
480.095	1055.81
480.313	1093.81
480.532	1106.81
480.751	1097.81
480.969	1073.81
481.188	1026.81
481.406	971.81
481.624	956.81
481.843	941.81
482.061	946.81
482.28	940.81
482.498	933.81
482.717	955.81
482.935	950.81
483.153	963.81
483.372	947.81
483.59	952.81
483.808	962.81
484.027	947.81
484.245	942.81
484.463	933.81
484.681	971.81
484.9	948.81
485.118	983.81
485.336	965.81
485.554	986.81
485.772	972.81
485.99	993.81
486.209	978.81
486.427	990.81
486.645	979.81
486.863	991.81
487.081	984.81
487.299	971.81
487.517	991.81
487.735	988.81
487.953	989.81
488.171	990.81
488.389	965.81
488.607	966.81
488.825	999.81
489.043	976.81
489.261	981.81
489.479	973.81
489.696	1000.81
489.914	946.81
490.132	974.81
490.35	1015.81
490.568	979.81
490.786	994.81
491.003	1001.81
491.221	982.81
491.439	989.81
491.657	990.81
491.874	1006.81
492.092	1003.81
492.31	1041.81
492.527	1041.81
492.745	1030.81
492.963	1016.81
493.18	994.81
493.398	1048.81
493.615	1032.81
493.833	1038.81
494.05	1010.81
494.268	1070.81
494.485	1056.81
494.703	1035.81
494.92	1079.81
495.138	1055.81
495.355	1033.81
495.573	1059.81
495.79	1059.81
496.008	1115.81
496.225	1079.81
496.442	1069.81
496.66	1122.81
496.877	1103.81
497.094	1102.81
497.312	1155.81
497.529	1177.81
497.746	1177.81
497.963	1199.81
498.181	1287.81
498.398	1314.81
498.615	1391.81
498.832	1507.81
499.049	1605.81
499.267	1722.81
499.484	1937.81
499.701	2103.81
499.918	2325.81
500.135	2669.81
500.352	3035.81
500.569	3128.81
500.786	3092.81
501.003	2824.81
501.22	2525.81
501.437	2301.81
501.654	1998.81
501.871	1807.81
502.088	1703.81
502.305	1548.81
502.522	1483.81
502.739	1408.81
502.956	1360.81
503.172	1327.81
503.389	1289.81
503.606	1205.81
503.823	1229.81
504.04	1213.81
504.256	1185.81
504.473	1226.81
504.69	1250.81
504.907	1208.81
505.123	1159.81
505.34	1081.81
505.557	1021.81
505.773	1013.81
505.99	991.81
506.207	983.81
506.423	971.81
506.64	956.81
506.856	920.81
507.073	925.81
507.289	922.81
507.506	930.81
507.722	905.81
507.939	893.81
508.155	892.81
508.372	887.81
508.588	873.81
508.805	874.81
509.021	908.81
509.238	876.81
509.454	831.81
509.67	865.81
509.887	871.81
510.103	857.81
510.319	834.81
510.536	830.81
510.752	863.81
510.968	851.81
511.184	832.81
511.401	850.81
511.617	853.81
511.833	836.81
512.049	846.81
512.265	843.81
512.481	844.81
512.698	825.81
512.914	822.81
513.13	829.81
513.346	836.81
513.562	847.81
513.778	857.81
513.994	831.81
514.21	851.81
514.426	878.81
514.642	861.81
514.858	868.81
515.074	872.81
515.29	890.81
515.506	873.81
515.721	895.81
515.937	907.81
516.153	906.81
516.369	947.81
516.585	985.81
516.801	980.81
517.016	1037.81
517.232	1071.81
517.448	1128.81
517.664	1167.81
517.879	1197.81
518.095	1176.81
518.311	1144.81
518.527	1118.81
518.742	1050.81
518.958	1003.81
519.173	984.81
519.389	959.81
519.605	914.81
519.82	888.81
520.036	913.81
520.251	886.81
520.467	864.81
520.682	836.81
520.898	846.81
521.113	832.81
521.329	816.81
521.544	804.81
521.76	813.81
521.975	809.81
522.19	806.81
522.406	813.81
522.621	799.81
522.836	810.81
523.052	803.81
523.267	785.81
523.482	775.81
523.698	775.81
523.913	753.81
524.128	788.81
524.343	775.81
524.559	797.81
524.774	774.81
524.989	784.81
525.204	807.81
525.419	783.81
525.634	744.81
525.849	779.81
526.064	775.81
526.28	738.81
526.495	755.81
526.71	746.81
526.925	734.81
527.14	765.81
527.355	778.81
527.57	729.81
527.785	758.81
527.999	761.81
528.214	742.81
528.429	754.81
528.644	771.81
528.859	765.81
529.074	747.81
529.289	751.81
529.503	771.81
529.718	734.81
529.933	743.81
530.148	775.81
530.363	746.81
530.577	750.81
530.792	747.81
531.007	758.81
531.221	739.81
531.436	739.81
531.651	770.81
531.865	735.81
532.08	727.81
532.295	749.81
532.509	733.81
532.724	745.81
532.938	747.81
533.153	753.81
533.367	742.81
533.582	761.81
533.796	767.81
534.011	755.81
534.225	773.81
534.44	739.81
534.654	736.81
534.868	725.81
535.083	739.81
535.297	738.81
535.511	742.81
535.726	710.81
535.94	724.81
536.154	715.81
536.369	711.81
536.583	698.81
536.797	711.81
537.011	687.81
537.225	706.81
537.44	682.81
537.654	696.81
537.868	710.81
538.082	695.81
538.296	703.81
538.51	712.81
538.724	700.81
538.938	689.81
539.153	685.81
539.367	677.81
539.581	680.81
539.795	685.81
540.009	677.81
540.222	674.81
540.436	695.81
540.65	680.81
540.864	683.81
541.078	675.81
541.292	657.81
541.506	693.81
541.72	696.81
541.934	669.81
542.147	693.81
542.361	683.81
542.575	683.81
542.789	669.81
543.002	669.81
543.216	673.81
543.43	675.81
543.644	666.81
543.857	649.81
544.071	681.81
544.285	694.81
544.498	651.81
544.712	673.81
544.925	690.81
545.139	688.81
545.352	734.81
545.566	695.81
545.779	707.81
545.993	695.81
546.206	691.81
546.42	699.81
546.633	695.81
546.847	703.81
547.06	712.81
547.274	707.81
547.487	669.81
547.7	697.81
547.914	710.81
548.127	710.81
548.34	694.81
548.554	702.81
548.767	701.81
548.98	715.81
549.193	699.81
549.407	690.81
549.62	702.81
549.833	726.81
550.046	696.81
550.259	721.81
550.473	681.81
550.686	707.81
550.899	698.81
551.112	689.81
551.325	679.81
551.538	667.81
551.751	685.81
551.964	711.81
552.177	704.81
552.39	698.81
552.603	731.81
552.816	730.81
553.029	749.81
553.242	774.81
553.455	759.81
553.667	793.81
553.88	738.81
554.093	711.81
554.306	718.81
554.519	692.81
554.732	679.81
554.944	665.81
555.157	658.81
555.37	655.81
555.583	645.81
555.795	625.81
556.008	614.81
556.221	618.81
556.433	602.81
556.646	607.81
556.859	596.81
557.071	607.81
557.284	617.81
557.496	634.81
557.709	578.81
557.921	606.81
558.134	586.81
558.346	571.81
558.559	577.81
558.771	603.81
558.984	579.81
559.196	577.81
559.409	601.81
559.621	577.81
559.833	579.81
560.046	584.81
560.258	559.81
560.47	551.81
560.683	579.81
560.895	573.81
561.107	582.81
561.32	585.81
561.532	562.81
561.744	544.81
561.956	559.81
562.168	569.81
562.381	565.81
562.593	574.81
562.805	544.81
563.017	554.81
563.229	569.81
563.441	584.81
563.653	590.81
563.865	585.81
564.077	590.81
564.289	571.81
564.501	608.81
564.713	627.81
564.925	628.81
565.137	636.81
565.349	629.81
565.561	649.81
565.773	697.81
565.985	723.81
566.197	751.81
566.408	807.81
566.62	864.81
566.832	927.81
567.044	957.81
567.255	930.81
567.467	941.81
567.679	1022.81
567.891	1103.81
568.102	1108.81
568.314	1050.81
568.526	929.81
568.737	839.81
568.949	777.81
569.161	696.81
569.372	663.81
569.584	644.81
569.795	630.81
570.007	596.81
570.218	594.81
570.43	585.81
570.641	579.81
570.853	584.81
571.064	587.81
571.276	576.81
571.487	595.81
571.698	561.81
571.91	528.81
572.121	525.81
572.333	512.81
572.544	540.81
572.755	488.81
572.966	496.81
573.178	497.81
573.389	488.81
573.6	467.81
573.811	491.81
574.023	486.81
574.234	483.81
574.445	468.81
574.656	486.81
574.867	465.81
575.078	509.81
575.289	481.81
575.501	463.81
575.712	445.81
575.923	453.81
576.134	431.81
576.345	423.81
576.556	447.81
576.767	455.81
576.978	438.81
577.188	443.81
577.399	452.81
577.61	445.81
577.821	420.81
578.032	413.81
578.243	419.81
578.454	426.81
578.665	404.81
578.875	423.81
579.086	422.81
579.297	429.81
579.508	413.81
579.718	440.81
579.929	416.81
580.14	419.81
580.35	395.81
580.561	388.81
580.772	381.81
580.982	417.81
581.193	409.81
581.403	407.81
581.614	406.81
581.825	403.81
582.035	390.81
582.246	385.81
582.456	408.81
582.667	401.81
582.877	392.81
583.087	367.81
583.298	397.81
583.508	385.81
583.719	391.81
583.929	389.81
584.139	387.81
584.35	385.81
584.56	374.81
584.77	387.81
584.981	390.81
585.191	377.81
585.401	370.81
585.611	379.81
585.821	381.81
586.032	372.81
586.242	357.81
586.452	383.81
586.662	394.81
586.872	371.81
587.082	390.81
587.292	372.81
587.502	348.81
587.713	371.81
587.923	375.81
588.133	361.81
588.343	363.81
588.553	380.81
588.762	357.81
588.972	373.81
589.182	402.81
589.392	389.81
589.602	374.81
589.812	374.81
590.022	402.81
590.232	385.81
590.441	366.81
590.651	391.81
590.861	378.81
591.071	375.81
591.281	391.81
591.49	399.81
591.7	410.81
591.91	399.81
592.119	394.81
592.329	416.81
592.539	415.81
592.748	455.81
592.958	462.81
593.167	457.81
593.377	475.81
593.587	503.81
593.796	487.81
594.006	463.81
594.215	485.81
594.424	489.81
594.634	449.81
594.843	454.81
595.053	436.81
595.262	418.81
595.472	411.81
595.681	395.81
595.89	396.81
596.1	367.81
596.309	381.81
596.518	370.81
596.727	354.81
596.937	357.81
597.146	335.81
597.355	346.81
597.564	329.81
597.774	337.81
597.983	353.81
598.192	328.81
598.401	337.81
598.61	327.81
598.819	321.81
599.028	336.81
599.237	323.81
599.446	320.81
599.655	321.81
599.864	316.81
600.073	301.81
600.282	317.81
600.491	309.81
600.7	327.81
600.909	303.81
601.118	310.81
601.327	294.81
601.536	322.81
601.745	332.81
601.953	303.81
602.162	316.81
602.371	319.81
602.58	303.81
602.789	308.81
602.997	289.81
603.206	298.81
603.415	306.81
603.623	321.81
603.832	287.81
604.041	301.81
604.249	321.81
604.458	291.81
604.666	299.81
604.875	284.81
605.084	295.81
605.292	302.81
605.501	287.81
605.709	294.81
605.918	293.81
606.126	289.81
606.334	313.81
606.543	296.81
606.751	295.81
606.96	293.81
607.168	306.81
607.376	282.81
607.585	296.81
607.793	286.81
608.001	282.81
608.21	288.81
608.418	273.81
608.626	286.81
608.834	295.81
609.043	272.81
609.251	283.81
609.459	285.81
609.667	277.81
609.875	274.81
610.083	281.81
610.291	290.81
610.499	272.81
610.707	281.81
610.916	261.81
611.124	271.81
611.332	277.81
611.54	275.81
611.748	285.81
611.955	290.81
612.163	279.81
612.371	278.81
612.579	266.81
612.787	277.81
612.995	286.81
613.203	280.81
613.411	265.81
613.618	268.81
613.826	277.81
614.034	272.81
614.242	275.81
614.449	276.81
614.657	280.81
614.865	266.81
615.072	283.81
615.28	274.81
615.488	279.81
615.695	288.81
615.903	272.81
616.111	268.81
616.318	261.81
616.526	273.81
616.733	270.81
616.941	266.81
617.148	255.81
617.356	277.81
617.563	264.81
617.771	284.81
617.978	289.81
618.185	262.81
618.393	283.81
618.6	268.81
618.807	251.81
619.015	279.81
619.222	273.81
619.429	274.81
619.637	265.81
619.844	273.81
620.051	267.81
620.258	262.81
620.466	255.81
620.673	254.81
620.88	249.81
621.087	260.81
621.294	262.81
621.501	255.81
621.708	253.81
621.915	239.81
622.122	241.81
622.329	257.81
622.536	273.81
622.743	251.81
622.95	233.81
623.157	240.81
623.364	248.81
623.571	259.81
623.778	232.81
623.985	227.81
624.192	224.81
624.399	241.81
624.606	249.81
624.812	246.81
625.019	256.81
625.226	233.81
625.433	230.81
625.639	242.81
625.846	212.81
626.053	233.81
626.259	217.81
626.466	225.81
626.673	241.81
626.879	222.81
627.086	241.81
627.293	232.81
627.499	238.81
627.706	227.81
627.912	231.81
628.119	223.81
628.325	218.81
628.532	225.81
628.738	228.81
628.945	229.81
629.151	208.81
629.357	241.81
629.564	224.81
629.77	229.81
629.976	211.81
630.183	218.81
630.389	226.81
630.595	215.81
630.802	221.81
631.008	219.81
631.214	205.81
631.42	207.81
631.627	212.81
631.833	213.81
632.039	223.81
632.245	215.81
632.451	212.81
632.657	216.81
632.863	223.81
633.069	216.81
633.275	217.81
633.481	199.81
633.688	198.81
633.893	196.81
634.099	210.81
634.305	206.81
634.511	213.81
634.717	225.81
634.923	191.81
635.129	194.81
635.335	201.81
635.541	193.81
635.747	210.81
635.952	204.81
636.158	200.81
636.364	199.81
636.57	230.81
636.775	209.81
636.981	197.81
637.187	199.81
637.392	205.81
637.598	191.81
637.804	211.81
638.009	194.81
638.215	187.81
638.421	193.81
638.626	186.81
638.832	190.81
639.037	199.81
639.243	188.81
639.448	188.81
639.654	201.81
639.859	203.81
640.065	194.81
640.27	199.81
640.475	191.81
640.681	179.81
640.886	195.81
641.091	202.81
641.297	181.81
641.502	193.81
641.707	191.81
641.913	175.81
642.118	173.81
642.323	179.81
642.528	169.81
642.733	181.81
642.939	179.81
643.144	176.81
643.349	190.81
643.554	170.81
643.759	163.81
643.964	189.81
644.169	193.81
644.374	186.81
644.579	179.81
644.784	193.81
644.989	174.81
645.194	191.81
645.399	193.81
645.604	176.81
645.809	187.81
646.014	196.81
646.219	176.81
646.423	177.81
646.628	180.81
646.833	176.81
647.038	205.81
647.243	195.81
647.447	187.81
647.652	182.81
647.857	180.81
648.062	191.81
648.266	202.81
648.471	197.81
648.676	226.81
648.88	191.81
649.085	191.81
649.289	176.81
649.494	169.81
649.698	192.81
649.903	189.81
650.107	199.81
650.312	199.81
650.516	176.81
650.721	188.81
650.925	171.81
651.13	176.81
651.334	169.81
651.539	162.81
651.743	165.81
651.947	156.81
652.152	154.81
652.356	152.81
652.56	150.81
652.764	160.81
652.969	159.81
653.173	154.81
653.377	150.81
653.581	143.81
653.785	156.81
653.99	157.81
654.194	161.81
654.398	149.81
654.602	156.81
654.806	154.81
655.01	153.81
655.214	150.81
655.418	148.81
655.622	145.81
655.826	153.81
656.03	165.81
656.234	154.81
656.438	157.81
656.642	168.81
656.846	149.81
657.049	159.81
657.253	125.81
657.457	137.81
657.661	122.81
657.865	129.81
658.068	115.81
658.272	112.81
658.476	139.81
658.68	106.81
658.883	102.81
659.087	109.81
659.291	103.81
659.494	108.81
659.698	101.81
659.901	97.81
660.105	91.81
660.309	117.81
660.512	95.81
660.716	99.81
660.919	86.81
661.123	96.81
661.326	94.81
661.53	90.81
661.733	93.81
661.936	92.81
662.14	89.81
662.343	99.81
662.546	91.81
662.75	73.81
662.953	82.81
663.156	90.81
663.36	102.81
663.563	73.81
663.766	75.81
663.969	99.81
664.173	87.81
664.376	78.81
664.579	79.81
664.782	80.81
664.985	83.81
665.188	85.81
665.391	94.81
665.594	76.81
665.797	89.81
666	69.81
666.203	80.81
666.406	82.81
666.609	81.81
666.812	81.81
667.015	87.81
667.218	89.81
667.421	71.81
667.624	70.81
667.827	69.81
668.03	85.81
668.232	75.81
668.435	85.81
668.638	80.81
668.841	93.81
669.043	86.81
669.246	76.81
669.449	78.81
669.651	82.81
669.854	77.81
670.057	78.81
670.259	61.81
670.462	63.81
670.665	82.81
670.867	76.81
671.07	78.81
671.272	96.81
671.475	85.81
671.677	71.81
671.88	87.81
672.082	89.81
672.284	77.81
672.487	81.81
672.689	69.81
672.892	76.81
