Data from NiCl2@0.125M.TitratingCurve.Agarose3%dH2O.NegLispCup.LampEnergy10.LIBS07252019_HRD10591_18-27-15-574.txt Node
Date: Thu Jul 25 18:27:15 EDT 2019
User: cochatt
Spectrometer: HR+D1059
Trigger mode: 1
Integration Time (sec): 1.000000E-1
Scans to average: 1
Electric dark correction enabled: true
Nonlinearity correction enabled: false
Boxcar width: 0
XAxis mode: Wavelengths
Number of Pixels in Spectrum: 2048
>>>>>Begin Spectral Data<<<<<
223.165	-13.62
223.4	-13.62
223.635	-13.62
223.869	-20.62
224.104	-10.62
224.338	-15.62
224.573	-22.62
224.808	-18.62
225.042	13.38
225.277	-3.62
225.511	-4.62
225.746	8.38
225.98	13.38
226.215	3.38
226.449	14.38
226.683	14.38
226.918	12.38
227.152	30.38
227.387	27.38
227.621	29.38
227.856	55.38
228.09	41.38
228.324	48.38
228.559	56.38
228.793	72.38
229.027	116.38
229.262	112.38
229.496	123.38
229.73	141.38
229.964	124.38
230.199	144.38
230.433	155.38
230.667	141.38
230.901	146.38
231.136	148.38
231.37	161.38
231.604	165.38
231.838	166.38
232.072	171.38
232.306	170.38
232.541	160.38
232.775	163.38
233.009	169.38
233.243	177.38
233.477	170.38
233.711	164.38
233.945	162.38
234.179	162.38
234.413	176.38
234.647	162.38
234.881	181.38
235.115	176.38
235.349	182.38
235.583	171.38
235.817	181.38
236.051	182.38
236.285	164.38
236.519	155.38
236.753	169.38
236.987	169.38
237.221	179.38
237.455	158.38
237.689	181.38
237.922	186.38
238.156	201.38
238.39	198.38
238.624	205.38
238.858	191.38
239.091	187.38
239.325	196.38
239.559	186.38
239.793	209.38
240.027	213.38
240.26	196.38
240.494	206.38
240.728	209.38
240.961	209.38
241.195	212.38
241.429	218.38
241.662	223.38
241.896	220.38
242.13	231.38
242.363	209.38
242.597	201.38
242.83	228.38
243.064	233.38
243.298	237.38
243.531	227.38
243.765	249.38
243.998	236.38
244.232	252.38
244.465	242.38
244.699	226.38
244.932	247.38
245.166	240.38
245.399	274.38
245.633	268.38
245.866	252.38
246.099	249.38
246.333	259.38
246.566	257.38
246.8	265.38
247.033	240.38
247.266	264.38
247.5	256.38
247.733	268.38
247.966	282.38
248.2	291.38
248.433	274.38
248.666	275.38
248.899	277.38
249.133	267.38
249.366	296.38
249.599	275.38
249.832	281.38
250.066	302.38
250.299	279.38
250.532	296.38
250.765	294.38
250.998	300.38
251.231	305.38
251.465	296.38
251.698	316.38
251.931	320.38
252.164	304.38
252.397	327.38
252.63	317.38
252.863	326.38
253.096	317.38
253.329	314.38
253.562	322.38
253.795	324.38
254.028	320.38
254.261	326.38
254.494	327.38
254.727	334.38
254.96	318.38
255.193	310.38
255.426	337.38
255.659	321.38
255.892	331.38
256.124	322.38
256.357	341.38
256.59	310.38
256.823	352.38
257.056	348.38
257.289	356.38
257.521	344.38
257.754	359.38
257.987	339.38
258.22	353.38
258.452	367.38
258.685	377.38
258.918	362.38
259.151	371.38
259.383	354.38
259.616	357.38
259.849	365.38
260.081	376.38
260.314	368.38
260.547	364.38
260.779	402.38
261.012	365.38
261.244	384.38
261.477	400.38
261.71	378.38
261.942	392.38
262.175	397.38
262.407	398.38
262.64	396.38
262.872	399.38
263.105	402.38
263.337	377.38
263.57	397.38
263.802	402.38
264.035	382.38
264.267	407.38
264.499	397.38
264.732	398.38
264.964	396.38
265.197	405.38
265.429	409.38
265.661	396.38
265.894	411.38
266.126	413.38
266.358	403.38
266.591	425.38
266.823	412.38
267.055	428.38
267.287	442.38
267.52	434.38
267.752	413.38
267.984	434.38
268.216	445.38
268.448	426.38
268.681	434.38
268.913	441.38
269.145	425.38
269.377	441.38
269.609	437.38
269.841	445.38
270.073	423.38
270.306	437.38
270.538	463.38
270.77	445.38
271.002	444.38
271.234	449.38
271.466	448.38
271.698	468.38
271.93	458.38
272.162	460.38
272.394	445.38
272.626	467.38
272.858	472.38
273.09	486.38
273.322	464.38
273.553	481.38
273.785	500.38
274.017	461.38
274.249	484.38
274.481	475.38
274.713	485.38
274.945	482.38
275.176	487.38
275.408	504.38
275.64	493.38
275.872	470.38
276.104	488.38
276.335	500.38
276.567	500.38
276.799	508.38
277.031	516.38
277.262	507.38
277.494	501.38
277.726	494.38
277.957	503.38
278.189	518.38
278.421	508.38
278.652	512.38
278.884	522.38
279.115	523.38
279.347	502.38
279.579	517.38
279.81	553.38
280.042	522.38
280.273	543.38
280.505	540.38
280.736	534.38
280.968	561.38
281.199	540.38
281.431	538.38
281.662	531.38
281.894	570.38
282.125	554.38
282.356	557.38
282.588	543.38
282.819	556.38
283.051	573.38
283.282	568.38
283.513	544.38
283.745	573.38
283.976	569.38
284.207	561.38
284.439	571.38
284.67	560.38
284.901	591.38
285.132	602.38
285.364	577.38
285.595	582.38
285.826	571.38
286.057	592.38
286.288	588.38
286.52	600.38
286.751	601.38
286.982	585.38
287.213	615.38
287.444	610.38
287.675	600.38
287.906	607.38
288.138	603.38
288.369	601.38
288.6	646.38
288.831	628.38
289.062	621.38
289.293	607.38
289.524	606.38
289.755	631.38
289.986	636.38
290.217	625.38
290.448	602.38
290.679	620.38
290.91	643.38
291.141	642.38
291.371	620.38
291.602	632.38
291.833	624.38
292.064	632.38
292.295	623.38
292.526	632.38
292.757	629.38
292.987	618.38
293.218	642.38
293.449	652.38
293.68	629.38
293.91	614.38
294.141	611.38
294.372	622.38
294.603	619.38
294.833	643.38
295.064	634.38
295.295	635.38
295.525	640.38
295.756	634.38
295.987	636.38
296.217	651.38
296.448	657.38
296.679	660.38
296.909	642.38
297.14	649.38
297.37	684.38
297.601	658.38
297.831	654.38
298.062	685.38
298.292	677.38
298.523	678.38
298.753	704.38
298.984	683.38
299.214	677.38
299.445	673.38
299.675	676.38
299.905	689.38
300.136	688.38
300.366	690.38
300.597	701.38
300.827	691.38
301.057	703.38
301.288	714.38
301.518	717.38
301.748	725.38
301.979	738.38
302.209	702.38
302.439	698.38
302.669	696.38
302.9	692.38
303.13	710.38
303.36	729.38
303.59	714.38
303.82	731.38
304.051	698.38
304.281	731.38
304.511	717.38
304.741	705.38
304.971	723.38
305.201	730.38
305.431	723.38
305.661	689.38
305.891	701.38
306.121	704.38
306.352	720.38
306.582	707.38
306.812	693.38
307.042	697.38
307.272	684.38
307.502	695.38
307.731	691.38
307.961	712.38
308.191	698.38
308.421	677.38
308.651	718.38
308.881	677.38
309.111	702.38
309.341	676.38
309.571	708.38
309.8	709.38
310.03	703.38
310.26	702.38
310.49	713.38
310.72	697.38
310.949	702.38
311.179	732.38
311.409	709.38
311.639	736.38
311.868	718.38
312.098	756.38
312.328	714.38
312.557	744.38
312.787	727.38
313.017	746.38
313.246	737.38
313.476	777.38
313.706	766.38
313.935	754.38
314.165	764.38
314.394	747.38
314.624	744.38
314.853	756.38
315.083	733.38
315.312	758.38
315.542	740.38
315.771	744.38
316.001	752.38
316.23	768.38
316.46	747.38
316.689	714.38
316.919	781.38
317.148	770.38
317.377	787.38
317.607	744.38
317.836	768.38
318.065	748.38
318.295	737.38
318.524	764.38
318.753	732.38
318.983	769.38
319.212	736.38
319.441	746.38
319.67	749.38
319.9	776.38
320.129	759.38
320.358	759.38
320.587	736.38
320.816	754.38
321.046	768.38
321.275	746.38
321.504	768.38
321.733	767.38
321.962	777.38
322.191	773.38
322.42	763.38
322.649	745.38
322.878	758.38
323.108	778.38
323.337	792.38
323.566	756.38
323.795	772.38
324.024	774.38
324.253	777.38
324.482	797.38
324.71	790.38
324.939	811.38
325.168	803.38
325.397	809.38
325.626	791.38
325.855	802.38
326.084	828.38
326.313	831.38
326.542	798.38
326.77	857.38
326.999	809.38
327.228	807.38
327.457	837.38
327.686	806.38
327.914	828.38
328.143	812.38
328.372	851.38
328.6	845.38
328.829	844.38
329.058	796.38
329.287	846.38
329.515	831.38
329.744	841.38
329.972	829.38
330.201	835.38
330.43	845.38
330.658	860.38
330.887	852.38
331.115	860.38
331.344	860.38
331.572	900.38
331.801	912.38
332.03	911.38
332.258	933.38
332.486	941.38
332.715	986.38
332.943	981.38
333.172	1040.38
333.4	1041.38
333.629	1061.38
333.857	1092.38
334.085	1076.38
334.314	1098.38
334.542	1068.38
334.771	1021.38
334.999	1027.38
335.227	1028.38
335.455	1029.38
335.684	1031.38
335.912	1000.38
336.14	980.38
336.369	1008.38
336.597	997.38
336.825	1033.38
337.053	996.38
337.281	966.38
337.51	967.38
337.738	973.38
337.966	955.38
338.194	909.38
338.422	918.38
338.65	910.38
338.878	952.38
339.106	904.38
339.334	910.38
339.562	893.38
339.79	906.38
340.018	884.38
340.246	884.38
340.474	893.38
340.702	888.38
340.93	877.38
341.158	910.38
341.386	902.38
341.614	892.38
341.842	908.38
342.07	882.38
342.298	869.38
342.526	862.38
342.754	890.38
342.981	906.38
343.209	884.38
343.437	907.38
343.665	980.38
343.893	1020.38
344.12	1076.38
344.348	1005.38
344.576	976.38
344.804	950.38
345.031	909.38
345.259	917.38
345.487	915.38
345.714	870.38
345.942	860.38
346.17	877.38
346.397	875.38
346.625	868.38
346.853	829.38
347.08	849.38
347.308	857.38
347.535	816.38
347.763	835.38
347.99	817.38
348.218	830.38
348.445	813.38
348.673	831.38
348.9	840.38
349.128	828.38
349.355	846.38
349.583	839.38
349.81	837.38
350.037	852.38
350.265	828.38
350.492	837.38
350.72	825.38
350.947	797.38
351.174	786.38
351.402	830.38
351.629	824.38
351.856	809.38
352.083	822.38
352.311	817.38
352.538	841.38
352.765	818.38
352.992	808.38
353.22	809.38
353.447	797.38
353.674	814.38
353.901	791.38
354.128	784.38
354.355	793.38
354.583	807.38
354.81	791.38
355.037	803.38
355.264	818.38
355.491	828.38
355.718	800.38
355.945	801.38
356.172	809.38
356.399	833.38
356.626	826.38
356.853	825.38
357.08	802.38
357.307	789.38
357.534	807.38
357.761	822.38
357.988	820.38
358.215	828.38
358.441	825.38
358.668	831.38
358.895	843.38
359.122	820.38
359.349	788.38
359.576	792.38
359.802	806.38
360.029	821.38
360.256	832.38
360.483	830.38
360.709	833.38
360.936	822.38
361.163	798.38
361.39	800.38
361.616	806.38
361.843	822.38
362.07	802.38
362.296	852.38
362.523	812.38
362.749	855.38
362.976	816.38
363.203	815.38
363.429	816.38
363.656	828.38
363.882	831.38
364.109	816.38
364.335	845.38
364.562	797.38
364.788	811.38
365.015	789.38
365.241	820.38
365.468	824.38
365.694	822.38
365.92	834.38
366.147	807.38
366.373	807.38
366.599	825.38
366.826	825.38
367.052	809.38
367.278	814.38
367.505	819.38
367.731	813.38
367.957	801.38
368.184	845.38
368.41	838.38
368.636	835.38
368.862	860.38
369.089	853.38
369.315	850.38
369.541	822.38
369.767	861.38
369.993	849.38
370.219	855.38
370.445	851.38
370.672	871.38
370.898	866.38
371.124	862.38
371.35	883.38
371.576	896.38
371.802	893.38
372.028	894.38
372.254	903.38
372.48	877.38
372.706	914.38
372.932	892.38
373.158	896.38
373.384	902.38
373.61	892.38
373.835	869.38
374.061	879.38
374.287	892.38
374.513	905.38
374.739	938.38
374.965	941.38
375.191	982.38
375.416	976.38
375.642	952.38
375.868	911.38
376.094	902.38
376.319	907.38
376.545	900.38
376.771	917.38
376.997	893.38
377.222	882.38
377.448	874.38
377.674	880.38
377.899	863.38
378.125	901.38
378.35	878.38
378.576	883.38
378.802	866.38
379.027	870.38
379.253	873.38
379.478	875.38
379.704	882.38
379.929	880.38
380.155	891.38
380.38	896.38
380.606	932.38
380.831	900.38
381.057	858.38
381.282	901.38
381.507	900.38
381.733	894.38
381.958	888.38
382.184	906.38
382.409	901.38
382.634	898.38
382.86	932.38
383.085	942.38
383.31	938.38
383.535	973.38
383.761	990.38
383.986	991.38
384.211	995.38
384.436	995.38
384.662	990.38
384.887	1032.38
385.112	1046.38
385.337	1068.38
385.562	1049.38
385.787	1060.38
386.013	1073.38
386.238	1118.38
386.463	1084.38
386.688	1077.38
386.913	1077.38
387.138	1074.38
387.363	1083.38
387.588	1051.38
387.813	1068.38
388.038	1078.38
388.263	1067.38
388.488	1082.38
388.713	1066.38
388.938	1057.38
389.163	1055.38
389.387	1045.38
389.612	1033.38
389.837	1044.38
390.062	1061.38
390.287	1074.38
390.512	1046.38
390.736	1105.38
390.961	1110.38
391.186	1101.38
391.411	1127.38
391.636	1149.38
391.86	1191.38
392.085	1218.38
392.31	1216.38
392.534	1225.38
392.759	1162.38
392.984	1124.38
393.208	1147.38
393.433	1164.38
393.658	1154.38
393.882	1110.38
394.107	1163.38
394.331	1136.38
394.556	1150.38
394.78	1193.38
395.005	1152.38
395.229	1171.38
395.454	1157.38
395.678	1215.38
395.903	1208.38
396.127	1233.38
396.352	1176.38
396.576	1181.38
396.801	1153.38
397.025	1194.38
397.249	1212.38
397.474	1213.38
397.698	1230.38
397.922	1248.38
398.147	1200.38
398.371	1242.38
398.595	1276.38
398.82	1360.38
399.044	1419.38
399.268	1546.38
399.492	1734.38
399.717	1871.38
399.941	1895.38
400.165	1798.38
400.389	1624.38
400.613	1536.38
400.837	1469.38
401.062	1401.38
401.286	1414.38
401.51	1396.38
401.734	1367.38
401.958	1388.38
402.182	1387.38
402.406	1381.38
402.63	1398.38
402.854	1400.38
403.078	1427.38
403.302	1444.38
403.526	1447.38
403.75	1484.38
403.974	1512.38
404.198	1501.38
404.422	1479.38
404.645	1489.38
404.869	1484.38
405.093	1487.38
405.317	1464.38
405.541	1454.38
405.765	1484.38
405.988	1433.38
406.212	1456.38
406.436	1490.38
406.66	1505.38
406.883	1541.38
407.107	1579.38
407.331	1629.38
407.555	1678.38
407.778	1673.38
408.002	1637.38
408.226	1617.38
408.449	1601.38
408.673	1563.38
408.896	1531.38
409.12	1504.38
409.344	1527.38
409.567	1500.38
409.791	1488.38
410.014	1472.38
410.238	1433.38
410.461	1479.38
410.685	1492.38
410.908	1432.38
411.132	1425.38
411.355	1382.38
411.578	1402.38
411.802	1414.38
412.025	1373.38
412.249	1466.38
412.472	1411.38
412.695	1390.38
412.919	1362.38
413.142	1362.38
413.365	1357.38
413.589	1359.38
413.812	1366.38
414.035	1334.38
414.258	1340.38
414.482	1388.38
414.705	1376.38
414.928	1368.38
415.151	1357.38
415.374	1354.38
415.597	1356.38
415.821	1334.38
416.044	1323.38
416.267	1312.38
416.49	1322.38
416.713	1292.38
416.936	1316.38
417.159	1291.38
417.382	1304.38
417.605	1307.38
417.828	1341.38
418.051	1315.38
418.274	1319.38
418.497	1319.38
418.72	1344.38
418.943	1300.38
419.166	1404.38
419.389	1517.38
419.611	1454.38
419.834	1420.38
420.057	1404.38
420.28	1330.38
420.503	1296.38
420.726	1306.38
420.948	1285.38
421.171	1300.38
421.394	1294.38
421.617	1342.38
421.839	1298.38
422.062	1333.38
422.285	1311.38
422.507	1349.38
422.73	1341.38
422.953	1325.38
423.175	1333.38
423.398	1352.38
423.621	1353.38
423.843	1368.38
424.066	1333.38
424.288	1393.38
424.511	1339.38
424.733	1354.38
424.956	1334.38
425.178	1292.38
425.401	1316.38
425.623	1315.38
425.846	1320.38
426.068	1320.38
426.291	1284.38
426.513	1259.38
426.735	1250.38
426.958	1273.38
427.18	1242.38
427.402	1234.38
427.625	1238.38
427.847	1217.38
428.069	1212.38
428.292	1216.38
428.514	1192.38
428.736	1205.38
428.958	1204.38
429.181	1175.38
429.403	1164.38
429.625	1144.38
429.847	1169.38
430.069	1153.38
430.292	1157.38
430.514	1169.38
430.736	1153.38
430.958	1178.38
431.18	1165.38
431.402	1184.38
431.624	1158.38
431.846	1184.38
432.068	1165.38
432.29	1206.38
432.512	1206.38
432.734	1219.38
432.956	1174.38
433.178	1196.38
433.4	1213.38
433.622	1223.38
433.844	1245.38
434.066	1252.38
434.287	1224.38
434.509	1262.38
434.731	1283.38
434.953	1321.38
435.175	1323.38
435.397	1291.38
435.618	1297.38
435.84	1257.38
436.062	1194.38
436.284	1203.38
436.505	1151.38
436.727	1229.38
436.949	1195.38
437.17	1174.38
437.392	1178.38
437.614	1171.38
437.835	1133.38
438.057	1152.38
438.278	1137.38
438.5	1148.38
438.721	1148.38
438.943	1171.38
439.165	1134.38
439.386	1166.38
439.608	1162.38
439.829	1164.38
440.05	1189.38
440.272	1188.38
440.493	1207.38
440.715	1193.38
440.936	1204.38
441.158	1220.38
441.379	1257.38
441.6	1312.38
441.822	1331.38
442.043	1329.38
442.264	1297.38
442.486	1279.38
442.707	1292.38
442.928	1264.38
443.149	1309.38
443.371	1297.38
443.592	1282.38
443.813	1325.38
444.034	1333.38
444.255	1394.38
444.476	1424.38
444.698	1450.38
444.919	1501.38
445.14	1589.38
445.361	1437.38
445.582	1363.38
445.803	1328.38
446.024	1253.38
446.245	1245.38
446.466	1256.38
446.687	1220.38
446.908	1212.38
447.129	1179.38
447.35	1167.38
447.571	1152.38
447.792	1132.38
448.013	1093.38
448.234	1150.38
448.455	1104.38
448.675	1095.38
448.896	1094.38
449.117	1064.38
449.338	1072.38
449.559	1078.38
449.779	1079.38
450	1092.38
450.221	1064.38
450.442	1094.38
450.662	1062.38
450.883	1073.38
451.104	1113.38
451.324	1113.38
451.545	1097.38
451.766	1084.38
451.986	1069.38
452.207	1067.38
452.428	1079.38
452.648	1062.38
452.869	1037.38
453.089	1003.38
453.31	1045.38
453.53	1031.38
453.751	1029.38
453.971	1039.38
454.192	1040.38
454.412	1020.38
454.633	1026.38
454.853	1030.38
455.073	1024.38
455.294	1037.38
455.514	1031.38
455.734	1017.38
455.955	1014.38
456.175	1019.38
456.395	1002.38
456.616	1003.38
456.836	998.38
457.056	1030.38
457.276	996.38
457.497	999.38
457.717	1038.38
457.937	1022.38
458.157	1023.38
458.377	1027.38
458.598	1093.38
458.818	1108.38
459.038	1120.38
459.258	1163.38
459.478	1189.38
459.698	1220.38
459.918	1216.38
460.138	1298.38
460.358	1326.38
460.578	1379.38
460.798	1392.38
461.018	1398.38
461.238	1355.38
461.458	1367.38
461.678	1378.38
461.898	1403.38
462.118	1384.38
462.338	1470.38
462.558	1490.38
462.777	1524.38
462.997	1639.38
463.217	1732.38
463.437	1756.38
463.657	1628.38
463.876	1591.38
464.096	1572.38
464.316	1571.38
464.536	1561.38
464.755	1515.38
464.975	1465.38
465.195	1433.38
465.414	1366.38
465.634	1264.38
465.854	1242.38
466.073	1188.38
466.293	1182.38
466.512	1167.38
466.732	1146.38
466.951	1174.38
467.171	1140.38
467.391	1125.38
467.61	1130.38
467.829	1151.38
468.049	1147.38
468.268	1086.38
468.488	1069.38
468.707	1098.38
468.927	1114.38
469.146	1112.38
469.365	1106.38
469.585	1124.38
469.804	1150.38
470.023	1162.38
470.243	1152.38
470.462	1142.38
470.681	1184.38
470.901	1196.38
471.12	1142.38
471.339	1128.38
471.558	1126.38
471.777	1117.38
471.997	1124.38
472.216	1136.38
472.435	1123.38
472.654	1093.38
472.873	1055.38
473.092	1088.38
473.311	1109.38
473.53	1115.38
473.749	1113.38
473.968	1083.38
474.187	1093.38
474.406	1098.38
474.625	1049.38
474.844	1074.38
475.063	1089.38
475.282	1070.38
475.501	1093.38
475.72	1087.38
475.939	1091.38
476.158	1134.38
476.377	1130.38
476.596	1108.38
476.814	1164.38
477.033	1113.38
477.252	1154.38
477.471	1160.38
477.69	1214.38
477.908	1252.38
478.127	1290.38
478.346	1297.38
478.564	1322.38
478.783	1314.38
479.002	1338.38
479.22	1334.38
479.439	1377.38
479.658	1338.38
479.876	1380.38
480.095	1389.38
480.313	1406.38
480.532	1380.38
480.751	1410.38
480.969	1391.38
481.188	1339.38
481.406	1323.38
481.624	1304.38
481.843	1277.38
482.061	1263.38
482.28	1223.38
482.498	1264.38
482.717	1245.38
482.935	1255.38
483.153	1280.38
483.372	1256.38
483.59	1300.38
483.808	1272.38
484.027	1247.38
484.245	1286.38
484.463	1308.38
484.681	1303.38
484.9	1305.38
485.118	1309.38
485.336	1306.38
485.554	1357.38
485.772	1332.38
485.99	1303.38
486.209	1304.38
486.427	1349.38
486.645	1326.38
486.863	1300.38
487.081	1304.38
487.299	1338.38
487.517	1332.38
487.735	1332.38
487.953	1303.38
488.171	1351.38
488.389	1308.38
488.607	1321.38
488.825	1257.38
489.043	1298.38
489.261	1306.38
489.479	1309.38
489.696	1349.38
489.914	1302.38
490.132	1306.38
490.35	1334.38
490.568	1354.38
490.786	1324.38
491.003	1335.38
491.221	1325.38
491.439	1312.38
491.657	1340.38
491.874	1398.38
492.092	1345.38
492.31	1352.38
492.527	1355.38
492.745	1369.38
492.963	1357.38
493.18	1365.38
493.398	1366.38
493.615	1349.38
493.833	1366.38
494.05	1376.38
494.268	1343.38
494.485	1407.38
494.703	1374.38
494.92	1403.38
495.138	1352.38
495.355	1400.38
495.573	1419.38
495.79	1435.38
496.008	1466.38
496.225	1441.38
496.442	1464.38
496.66	1448.38
496.877	1494.38
497.094	1498.38
497.312	1500.38
497.529	1572.38
497.746	1606.38
497.963	1618.38
498.181	1712.38
498.398	1761.38
498.615	1882.38
498.832	1928.38
499.049	2070.38
499.267	2169.38
499.484	2397.38
499.701	2577.38
499.918	2808.38
500.135	3035.38
500.352	3349.38
500.569	3419.38
500.786	3421.38
501.003	3256.38
501.22	3073.38
501.437	2784.38
501.654	2546.38
501.871	2342.38
502.088	2204.38
502.305	2040.38
502.522	1937.38
502.739	1891.38
502.956	1828.38
503.172	1724.38
503.389	1632.38
503.606	1622.38
503.823	1604.38
504.04	1559.38
504.256	1608.38
504.473	1594.38
504.69	1568.38
504.907	1545.38
505.123	1497.38
505.34	1419.38
505.557	1369.38
505.773	1320.38
505.99	1321.38
506.207	1306.38
506.423	1272.38
506.64	1290.38
506.856	1216.38
507.073	1228.38
507.289	1214.38
507.506	1203.38
507.722	1219.38
507.939	1171.38
508.155	1173.38
508.372	1166.38
508.588	1172.38
508.805	1172.38
509.021	1133.38
509.238	1160.38
509.454	1113.38
509.67	1094.38
509.887	1112.38
510.103	1097.38
510.319	1114.38
510.536	1111.38
510.752	1102.38
510.968	1101.38
511.184	1096.38
511.401	1117.38
511.617	1060.38
511.833	1095.38
512.049	1066.38
512.265	1105.38
512.481	1077.38
512.698	1048.38
512.914	1086.38
513.13	1076.38
513.346	1083.38
513.562	1061.38
513.778	1078.38
513.994	1107.38
514.21	1098.38
514.426	1093.38
514.642	1109.38
514.858	1092.38
515.074	1104.38
515.29	1123.38
515.506	1133.38
515.721	1174.38
515.937	1184.38
516.153	1169.38
516.369	1187.38
516.585	1269.38
516.801	1265.38
517.016	1291.38
517.232	1348.38
517.448	1424.38
517.664	1420.38
517.879	1426.38
518.095	1432.38
518.311	1399.38
518.527	1387.38
518.742	1323.38
518.958	1251.38
519.173	1223.38
519.389	1213.38
519.605	1164.38
519.82	1166.38
520.036	1152.38
520.251	1137.38
520.467	1116.38
520.682	1142.38
520.898	1077.38
521.113	1056.38
521.329	1088.38
521.544	1062.38
521.76	1055.38
521.975	1031.38
522.19	1028.38
522.406	1073.38
522.621	1011.38
522.836	1011.38
523.052	987.38
523.267	1012.38
523.482	1020.38
523.698	981.38
523.913	998.38
524.128	1002.38
524.343	1001.38
524.559	1009.38
524.774	987.38
524.989	989.38
525.204	998.38
525.419	981.38
525.634	961.38
525.849	983.38
526.064	988.38
526.28	953.38
526.495	971.38
526.71	969.38
526.925	971.38
527.14	939.38
527.355	945.38
527.57	958.38
527.785	952.38
527.999	953.38
528.214	976.38
528.429	969.38
528.644	978.38
528.859	957.38
529.074	976.38
529.289	948.38
529.503	968.38
529.718	958.38
529.933	936.38
530.148	917.38
530.363	937.38
530.577	963.38
530.792	922.38
531.007	946.38
531.221	955.38
531.436	993.38
531.651	956.38
531.865	948.38
532.08	983.38
532.295	965.38
532.509	977.38
532.724	954.38
532.938	937.38
533.153	955.38
533.367	931.38
533.582	981.38
533.796	946.38
534.011	950.38
534.225	939.38
534.44	934.38
534.654	929.38
534.868	927.38
535.083	940.38
535.297	910.38
535.511	909.38
535.726	914.38
535.94	927.38
536.154	884.38
536.369	886.38
536.583	893.38
536.797	877.38
537.011	897.38
537.225	891.38
537.44	875.38
537.654	900.38
537.868	888.38
538.082	871.38
538.296	860.38
538.51	861.38
538.724	888.38
538.938	866.38
539.153	854.38
539.367	874.38
539.581	871.38
539.795	840.38
540.009	872.38
540.222	885.38
540.436	868.38
540.65	843.38
540.864	836.38
541.078	864.38
541.292	871.38
541.506	871.38
541.72	867.38
541.934	865.38
542.147	855.38
542.361	851.38
542.575	857.38
542.789	852.38
543.002	850.38
543.216	843.38
543.43	847.38
543.644	846.38
543.857	871.38
544.071	853.38
544.285	877.38
544.498	853.38
544.712	859.38
544.925	890.38
545.139	874.38
545.352	857.38
545.566	888.38
545.779	885.38
545.993	877.38
546.206	887.38
546.42	868.38
546.633	882.38
546.847	876.38
547.06	873.38
547.274	894.38
547.487	874.38
547.7	886.38
547.914	896.38
548.127	885.38
548.34	902.38
548.554	870.38
548.767	871.38
548.98	898.38
549.193	890.38
549.407	893.38
549.62	902.38
549.833	892.38
550.046	890.38
550.259	882.38
550.473	883.38
550.686	861.38
550.899	871.38
551.112	871.38
551.325	870.38
551.538	861.38
551.751	870.38
551.964	867.38
552.177	896.38
552.39	922.38
552.603	918.38
552.816	924.38
553.029	933.38
553.242	922.38
553.455	936.38
553.667	956.38
553.88	914.38
554.093	905.38
554.306	892.38
554.519	896.38
554.732	895.38
554.944	842.38
555.157	826.38
555.37	834.38
555.583	794.38
555.795	829.38
556.008	786.38
556.221	782.38
556.433	776.38
556.646	775.38
556.859	760.38
557.071	742.38
557.284	776.38
557.496	772.38
557.709	780.38
557.921	776.38
558.134	753.38
558.346	756.38
558.559	743.38
558.771	738.38
558.984	757.38
559.196	738.38
559.409	742.38
559.621	733.38
559.833	733.38
560.046	731.38
560.258	729.38
560.47	728.38
560.683	751.38
560.895	707.38
561.107	735.38
561.32	723.38
561.532	735.38
561.744	720.38
561.956	735.38
562.168	730.38
562.381	721.38
562.593	733.38
562.805	727.38
563.017	732.38
563.229	744.38
563.441	750.38
563.653	753.38
563.865	754.38
564.077	789.38
564.289	764.38
564.501	778.38
564.713	787.38
564.925	818.38
565.137	790.38
565.349	777.38
565.561	828.38
565.773	867.38
565.985	923.38
566.197	941.38
566.408	978.38
566.62	1050.38
566.832	1107.38
567.044	1120.38
567.255	1128.38
567.467	1166.38
567.679	1175.38
567.891	1285.38
568.102	1254.38
568.314	1184.38
568.526	1118.38
568.737	1025.38
568.949	984.38
569.161	942.38
569.372	854.38
569.584	811.38
569.795	809.38
570.007	781.38
570.218	761.38
570.43	772.38
570.641	752.38
570.853	736.38
571.064	752.38
571.276	721.38
571.487	728.38
571.698	677.38
571.91	670.38
572.121	664.38
572.333	673.38
572.544	653.38
572.755	643.38
572.966	637.38
573.178	628.38
573.389	609.38
573.6	624.38
573.811	604.38
574.023	613.38
574.234	602.38
574.445	606.38
574.656	586.38
574.867	602.38
575.078	597.38
575.289	596.38
575.501	594.38
575.712	563.38
575.923	560.38
576.134	561.38
576.345	575.38
576.556	558.38
576.767	556.38
576.978	549.38
577.188	565.38
577.399	546.38
577.61	548.38
577.821	548.38
578.032	538.38
578.243	518.38
578.454	522.38
578.665	541.38
578.875	550.38
579.086	507.38
579.297	519.38
579.508	508.38
579.718	533.38
579.929	540.38
580.14	516.38
580.35	509.38
580.561	486.38
580.772	519.38
580.982	518.38
581.193	543.38
581.403	492.38
581.614	496.38
581.825	492.38
582.035	484.38
582.246	522.38
582.456	488.38
582.667	503.38
582.877	486.38
583.087	487.38
583.298	477.38
583.508	481.38
583.719	488.38
583.929	521.38
584.139	510.38
584.35	469.38
584.56	483.38
584.77	462.38
584.981	476.38
585.191	483.38
585.401	477.38
585.611	466.38
585.821	475.38
586.032	477.38
586.242	474.38
586.452	451.38
586.662	486.38
586.872	475.38
587.082	492.38
587.292	475.38
587.502	470.38
587.713	457.38
587.923	458.38
588.133	486.38
588.343	463.38
588.553	457.38
588.762	459.38
588.972	462.38
589.182	492.38
589.392	493.38
589.602	486.38
589.812	493.38
590.022	484.38
590.232	494.38
590.441	503.38
590.651	496.38
590.861	485.38
591.071	491.38
591.281	506.38
591.49	491.38
591.7	491.38
591.91	504.38
592.119	503.38
592.329	548.38
592.539	516.38
592.748	549.38
592.958	556.38
593.167	568.38
593.377	548.38
593.587	579.38
593.796	579.38
594.006	589.38
594.215	578.38
594.424	584.38
594.634	563.38
594.843	540.38
595.053	535.38
595.262	543.38
595.472	513.38
595.681	498.38
595.89	465.38
596.1	469.38
596.309	469.38
596.518	480.38
596.727	452.38
596.937	444.38
597.146	442.38
597.355	428.38
597.564	435.38
597.774	431.38
597.983	415.38
598.192	430.38
598.401	415.38
598.61	404.38
598.819	399.38
599.028	401.38
599.237	402.38
599.446	377.38
599.655	404.38
599.864	425.38
600.073	411.38
600.282	392.38
600.491	399.38
600.7	395.38
600.909	407.38
601.118	391.38
601.327	388.38
601.536	393.38
601.745	402.38
601.953	386.38
602.162	404.38
602.371	386.38
602.58	373.38
602.789	388.38
602.997	383.38
603.206	382.38
603.415	379.38
603.623	380.38
603.832	386.38
604.041	378.38
604.249	353.38
604.458	366.38
604.666	366.38
604.875	378.38
605.084	382.38
605.292	379.38
605.501	385.38
605.709	370.38
605.918	358.38
606.126	378.38
606.334	348.38
606.543	363.38
606.751	362.38
606.96	372.38
607.168	378.38
607.376	357.38
607.585	386.38
607.793	345.38
608.001	359.38
608.21	338.38
608.418	346.38
608.626	370.38
608.834	350.38
609.043	360.38
609.251	361.38
609.459	372.38
609.667	349.38
609.875	332.38
610.083	352.38
610.291	346.38
610.499	357.38
610.707	357.38
610.916	336.38
611.124	333.38
611.332	335.38
611.54	348.38
611.748	380.38
611.955	356.38
612.163	368.38
612.371	347.38
612.579	353.38
612.787	364.38
612.995	357.38
613.203	362.38
613.411	350.38
613.618	346.38
613.826	335.38
614.034	335.38
614.242	341.38
614.449	338.38
614.657	337.38
614.865	340.38
615.072	353.38
615.28	340.38
615.488	324.38
615.695	356.38
615.903	336.38
616.111	334.38
616.318	346.38
616.526	351.38
616.733	330.38
616.941	346.38
617.148	331.38
617.356	327.38
617.563	333.38
617.771	332.38
617.978	326.38
618.185	339.38
618.393	347.38
618.6	345.38
618.807	336.38
619.015	318.38
619.222	309.38
619.429	316.38
619.637	332.38
619.844	301.38
620.051	330.38
620.258	340.38
620.466	313.38
620.673	326.38
620.88	306.38
621.087	309.38
621.294	318.38
621.501	304.38
621.708	310.38
621.915	316.38
622.122	308.38
622.329	313.38
622.536	319.38
622.743	297.38
622.95	312.38
623.157	295.38
623.364	296.38
623.571	299.38
623.778	307.38
623.985	318.38
624.192	300.38
624.399	320.38
624.606	298.38
624.812	292.38
625.019	283.38
625.226	293.38
625.433	300.38
625.639	295.38
625.846	288.38
626.053	288.38
626.259	284.38
626.466	293.38
626.673	288.38
626.879	304.38
627.086	284.38
627.293	271.38
627.499	298.38
627.706	292.38
627.912	298.38
628.119	280.38
628.325	277.38
628.532	264.38
628.738	290.38
628.945	277.38
629.151	290.38
629.357	285.38
629.564	274.38
629.77	272.38
629.976	269.38
630.183	269.38
630.389	264.38
630.595	277.38
630.802	274.38
631.008	281.38
631.214	271.38
631.42	264.38
631.627	281.38
631.833	240.38
632.039	248.38
632.245	247.38
632.451	254.38
632.657	274.38
632.863	262.38
633.069	265.38
633.275	249.38
633.481	252.38
633.688	240.38
633.893	236.38
634.099	258.38
634.305	227.38
634.511	254.38
634.717	244.38
634.923	233.38
635.129	258.38
635.335	243.38
635.541	269.38
635.747	252.38
635.952	234.38
636.158	238.38
636.364	243.38
636.57	245.38
636.775	246.38
636.981	245.38
637.187	238.38
637.392	254.38
637.598	250.38
637.804	248.38
638.009	259.38
638.215	233.38
638.421	240.38
638.626	226.38
638.832	224.38
639.037	248.38
639.243	240.38
639.448	244.38
639.654	224.38
639.859	228.38
640.065	250.38
640.27	237.38
640.475	238.38
640.681	248.38
640.886	234.38
641.091	244.38
641.297	242.38
641.502	235.38
641.707	211.38
641.913	232.38
642.118	230.38
642.323	223.38
642.528	241.38
642.733	211.38
642.939	219.38
643.144	230.38
643.349	223.38
643.554	225.38
643.759	241.38
643.964	230.38
644.169	225.38
644.374	221.38
644.579	223.38
644.784	214.38
644.989	227.38
645.194	237.38
645.399	216.38
645.604	230.38
645.809	227.38
646.014	219.38
646.219	217.38
646.423	223.38
646.628	226.38
646.833	232.38
647.038	226.38
647.243	213.38
647.447	234.38
647.652	235.38
647.857	245.38
648.062	228.38
648.266	233.38
648.471	220.38
648.676	230.38
648.88	231.38
649.085	248.38
649.289	237.38
649.494	225.38
649.698	236.38
649.903	235.38
650.107	229.38
650.312	218.38
650.516	228.38
650.721	220.38
650.925	218.38
651.13	219.38
651.334	203.38
651.539	216.38
651.743	215.38
651.947	228.38
652.152	218.38
652.356	207.38
652.56	214.38
652.764	205.38
652.969	218.38
653.173	200.38
653.377	194.38
653.581	188.38
653.785	204.38
653.99	200.38
654.194	183.38
654.398	215.38
654.602	200.38
654.806	208.38
655.01	181.38
655.214	199.38
655.418	213.38
655.622	205.38
655.826	192.38
656.03	203.38
656.234	202.38
656.438	210.38
656.642	212.38
656.846	203.38
657.049	212.38
657.253	180.38
657.457	177.38
657.661	161.38
657.865	165.38
658.068	153.38
658.272	144.38
658.476	134.38
658.68	152.38
658.883	136.38
659.087	133.38
659.291	113.38
659.494	119.38
659.698	117.38
659.901	112.38
660.105	116.38
660.309	121.38
660.512	116.38
660.716	117.38
660.919	112.38
661.123	111.38
661.326	112.38
661.53	78.38
661.733	98.38
661.936	93.38
662.14	96.38
662.343	79.38
662.546	88.38
662.75	86.38
662.953	95.38
663.156	91.38
663.36	97.38
663.563	103.38
663.766	98.38
663.969	100.38
664.173	105.38
664.376	83.38
664.579	92.38
664.782	103.38
664.985	69.38
665.188	101.38
665.391	84.38
665.594	88.38
665.797	87.38
666	78.38
666.203	84.38
666.406	69.38
666.609	99.38
666.812	80.38
667.015	82.38
667.218	72.38
667.421	82.38
667.624	71.38
667.827	77.38
668.03	79.38
668.232	74.38
668.435	89.38
668.638	81.38
668.841	76.38
669.043	77.38
669.246	74.38
669.449	83.38
669.651	93.38
669.854	71.38
670.057	86.38
670.259	80.38
670.462	69.38
670.665	80.38
670.867	73.38
671.07	86.38
671.272	80.38
671.475	94.38
671.677	70.38
671.88	60.38
672.082	74.38
672.284	83.38
672.487	86.38
672.689	76.38
672.892	87.38
