Data from NiCl2@0.5M.TitratingCurve.Agarose3%dH2O.NegLispCup.LampEnergy10.LIBS07252019_HRD10591_18-20-57-572.txt Node
Date: Thu Jul 25 18:20:57 EDT 2019
User: cochatt
Spectrometer: HR+D1059
Trigger mode: 1
Integration Time (sec): 1.000000E-1
Scans to average: 1
Electric dark correction enabled: true
Nonlinearity correction enabled: false
Boxcar width: 0
XAxis mode: Wavelengths
Number of Pixels in Spectrum: 2048
>>>>>Begin Spectral Data<<<<<
223.165	-38.38
223.4	-38.38
223.635	-38.38
223.869	-6.38
224.104	-31.38
224.338	-7.38
224.573	-2.38
224.808	-13.38
225.042	-9.38
225.277	-0.38
225.511	-7.38
225.746	3.62
225.98	5.62
226.215	25.62
226.449	9.62
226.683	25.62
226.918	21.62
227.152	24.62
227.387	38.62
227.621	29.62
227.856	29.62
228.09	47.62
228.324	44.62
228.559	50.62
228.793	63.62
229.027	95.62
229.262	118.62
229.496	108.62
229.73	95.62
229.964	123.62
230.199	122.62
230.433	120.62
230.667	130.62
230.901	131.62
231.136	127.62
231.37	128.62
231.604	135.62
231.838	120.62
232.072	125.62
232.306	131.62
232.541	148.62
232.775	139.62
233.009	138.62
233.243	142.62
233.477	132.62
233.711	145.62
233.945	141.62
234.179	143.62
234.413	154.62
234.647	146.62
234.881	148.62
235.115	136.62
235.349	124.62
235.583	135.62
235.817	135.62
236.051	153.62
236.285	146.62
236.519	126.62
236.753	140.62
236.987	140.62
237.221	141.62
237.455	149.62
237.689	136.62
237.922	166.62
238.156	161.62
238.39	146.62
238.624	144.62
238.858	150.62
239.091	168.62
239.325	165.62
239.559	157.62
239.793	161.62
240.027	167.62
240.26	167.62
240.494	168.62
240.728	167.62
240.961	178.62
241.195	184.62
241.429	169.62
241.662	179.62
241.896	159.62
242.13	192.62
242.363	165.62
242.597	172.62
242.83	175.62
243.064	185.62
243.298	183.62
243.531	176.62
243.765	192.62
243.998	199.62
244.232	201.62
244.465	190.62
244.699	189.62
244.932	193.62
245.166	194.62
245.399	200.62
245.633	190.62
245.866	202.62
246.099	203.62
246.333	220.62
246.566	207.62
246.8	212.62
247.033	204.62
247.266	218.62
247.5	221.62
247.733	212.62
247.966	219.62
248.2	228.62
248.433	214.62
248.666	203.62
248.899	211.62
249.133	212.62
249.366	210.62
249.599	226.62
249.832	229.62
250.066	236.62
250.299	244.62
250.532	222.62
250.765	224.62
250.998	224.62
251.231	217.62
251.465	251.62
251.698	242.62
251.931	247.62
252.164	242.62
252.397	250.62
252.63	247.62
252.863	248.62
253.096	260.62
253.329	263.62
253.562	246.62
253.795	260.62
254.028	255.62
254.261	249.62
254.494	277.62
254.727	259.62
254.96	278.62
255.193	262.62
255.426	264.62
255.659	259.62
255.892	258.62
256.124	259.62
256.357	261.62
256.59	253.62
256.823	244.62
257.056	278.62
257.289	290.62
257.521	270.62
257.754	265.62
257.987	263.62
258.22	275.62
258.452	271.62
258.685	277.62
258.918	283.62
259.151	283.62
259.383	284.62
259.616	313.62
259.849	303.62
260.081	287.62
260.314	297.62
260.547	280.62
260.779	291.62
261.012	299.62
261.244	298.62
261.477	299.62
261.71	319.62
261.942	303.62
262.175	300.62
262.407	279.62
262.64	307.62
262.872	298.62
263.105	299.62
263.337	310.62
263.57	309.62
263.802	303.62
264.035	316.62
264.267	319.62
264.499	314.62
264.732	313.62
264.964	339.62
265.197	324.62
265.429	331.62
265.661	325.62
265.894	325.62
266.126	324.62
266.358	325.62
266.591	322.62
266.823	356.62
267.055	339.62
267.287	342.62
267.52	339.62
267.752	329.62
267.984	332.62
268.216	338.62
268.448	346.62
268.681	355.62
268.913	349.62
269.145	358.62
269.377	337.62
269.609	336.62
269.841	330.62
270.073	355.62
270.306	353.62
270.538	354.62
270.77	354.62
271.002	357.62
271.234	362.62
271.466	340.62
271.698	349.62
271.93	344.62
272.162	344.62
272.394	350.62
272.626	360.62
272.858	370.62
273.09	384.62
273.322	397.62
273.553	363.62
273.785	383.62
274.017	380.62
274.249	384.62
274.481	379.62
274.713	376.62
274.945	387.62
275.176	367.62
275.408	409.62
275.64	383.62
275.872	384.62
276.104	379.62
276.335	383.62
276.567	393.62
276.799	408.62
277.031	400.62
277.262	395.62
277.494	405.62
277.726	411.62
277.957	408.62
278.189	395.62
278.421	410.62
278.652	410.62
278.884	397.62
279.115	408.62
279.347	396.62
279.579	401.62
279.81	407.62
280.042	421.62
280.273	427.62
280.505	422.62
280.736	435.62
280.968	433.62
281.199	432.62
281.431	430.62
281.662	409.62
281.894	440.62
282.125	403.62
282.356	436.62
282.588	445.62
282.819	454.62
283.051	429.62
283.282	437.62
283.513	435.62
283.745	456.62
283.976	443.62
284.207	451.62
284.439	455.62
284.67	446.62
284.901	451.62
285.132	454.62
285.364	473.62
285.595	461.62
285.826	457.62
286.057	450.62
286.288	451.62
286.52	481.62
286.751	466.62
286.982	443.62
287.213	455.62
287.444	460.62
287.675	505.62
287.906	475.62
288.138	488.62
288.369	480.62
288.6	471.62
288.831	492.62
289.062	465.62
289.293	499.62
289.524	519.62
289.755	489.62
289.986	480.62
290.217	484.62
290.448	498.62
290.679	500.62
290.91	488.62
291.141	491.62
291.371	494.62
291.602	487.62
291.833	495.62
292.064	506.62
292.295	490.62
292.526	491.62
292.757	481.62
292.987	486.62
293.218	495.62
293.449	496.62
293.68	499.62
293.91	497.62
294.141	517.62
294.372	498.62
294.603	490.62
294.833	500.62
295.064	509.62
295.295	513.62
295.525	507.62
295.756	516.62
295.987	517.62
296.217	505.62
296.448	512.62
296.679	505.62
296.909	513.62
297.14	536.62
297.37	537.62
297.601	533.62
297.831	547.62
298.062	532.62
298.292	551.62
298.523	525.62
298.753	566.62
298.984	535.62
299.214	522.62
299.445	533.62
299.675	515.62
299.905	544.62
300.136	537.62
300.366	564.62
300.597	562.62
300.827	561.62
301.057	561.62
301.288	576.62
301.518	582.62
301.748	556.62
301.979	581.62
302.209	580.62
302.439	573.62
302.669	573.62
302.9	570.62
303.13	567.62
303.36	574.62
303.59	586.62
303.82	557.62
304.051	573.62
304.281	563.62
304.511	571.62
304.741	571.62
304.971	570.62
305.201	578.62
305.431	591.62
305.661	569.62
305.891	584.62
306.121	554.62
306.352	557.62
306.582	546.62
306.812	555.62
307.042	569.62
307.272	579.62
307.502	561.62
307.731	549.62
307.961	540.62
308.191	559.62
308.421	573.62
308.651	561.62
308.881	581.62
309.111	588.62
309.341	567.62
309.571	557.62
309.8	582.62
310.03	561.62
310.26	584.62
310.49	563.62
310.72	569.62
310.949	563.62
311.179	566.62
311.409	590.62
311.639	581.62
311.868	577.62
312.098	586.62
312.328	589.62
312.557	598.62
312.787	589.62
313.017	596.62
313.246	600.62
313.476	615.62
313.706	579.62
313.935	613.62
314.165	590.62
314.394	611.62
314.624	624.62
314.853	616.62
315.083	612.62
315.312	627.62
315.542	620.62
315.771	601.62
316.001	613.62
316.23	610.62
316.46	599.62
316.689	598.62
316.919	609.62
317.148	636.62
317.377	590.62
317.607	591.62
317.836	598.62
318.065	609.62
318.295	610.62
318.524	600.62
318.753	579.62
318.983	598.62
319.212	607.62
319.441	583.62
319.67	610.62
319.9	575.62
320.129	604.62
320.358	608.62
320.587	613.62
320.816	594.62
321.046	605.62
321.275	595.62
321.504	607.62
321.733	597.62
321.962	571.62
322.191	616.62
322.42	619.62
322.649	614.62
322.878	628.62
323.108	603.62
323.337	619.62
323.566	646.62
323.795	637.62
324.024	629.62
324.253	624.62
324.482	623.62
324.71	626.62
324.939	638.62
325.168	632.62
325.397	623.62
325.626	637.62
325.855	659.62
326.084	653.62
326.313	687.62
326.542	660.62
326.77	697.62
326.999	675.62
327.228	664.62
327.457	664.62
327.686	646.62
327.914	661.62
328.143	694.62
328.372	674.62
328.6	660.62
328.829	670.62
329.058	639.62
329.287	671.62
329.515	703.62
329.744	653.62
329.972	677.62
330.201	682.62
330.43	673.62
330.658	681.62
330.887	709.62
331.115	683.62
331.344	702.62
331.572	715.62
331.801	723.62
332.03	735.62
332.258	744.62
332.486	752.62
332.715	789.62
332.943	818.62
333.172	821.62
333.4	850.62
333.629	901.62
333.857	893.62
334.085	892.62
334.314	862.62
334.542	838.62
334.771	846.62
334.999	821.62
335.227	815.62
335.455	820.62
335.684	831.62
335.912	833.62
336.14	790.62
336.369	819.62
336.597	818.62
336.825	816.62
337.053	813.62
337.281	791.62
337.51	773.62
337.738	748.62
337.966	756.62
338.194	782.62
338.422	791.62
338.65	730.62
338.878	741.62
339.106	732.62
339.334	769.62
339.562	719.62
339.79	697.62
340.018	680.62
340.246	676.62
340.474	706.62
340.702	713.62
340.93	692.62
341.158	709.62
341.386	716.62
341.614	740.62
341.842	717.62
342.07	690.62
342.298	687.62
342.526	711.62
342.754	713.62
342.981	699.62
343.209	721.62
343.437	746.62
343.665	812.62
343.893	850.62
344.12	854.62
344.348	812.62
344.576	785.62
344.804	800.62
345.031	736.62
345.259	710.62
345.487	730.62
345.714	706.62
345.942	691.62
346.17	718.62
346.397	699.62
346.625	665.62
346.853	675.62
347.08	671.62
347.308	692.62
347.535	687.62
347.763	681.62
347.99	659.62
348.218	689.62
348.445	684.62
348.673	700.62
348.9	652.62
349.128	660.62
349.355	683.62
349.583	675.62
349.81	662.62
350.037	647.62
350.265	658.62
350.492	631.62
350.72	653.62
350.947	642.62
351.174	656.62
351.402	690.62
351.629	673.62
351.856	666.62
352.083	636.62
352.311	679.62
352.538	689.62
352.765	672.62
352.992	653.62
353.22	637.62
353.447	646.62
353.674	635.62
353.901	635.62
354.128	626.62
354.355	641.62
354.583	659.62
354.81	667.62
355.037	632.62
355.264	641.62
355.491	649.62
355.718	629.62
355.945	648.62
356.172	659.62
356.399	655.62
356.626	669.62
356.853	700.62
357.08	656.62
357.307	653.62
357.534	641.62
357.761	636.62
357.988	650.62
358.215	645.62
358.441	654.62
358.668	631.62
358.895	637.62
359.122	648.62
359.349	648.62
359.576	637.62
359.802	664.62
360.029	646.62
360.256	655.62
360.483	651.62
360.709	640.62
360.936	647.62
361.163	643.62
361.39	637.62
361.616	654.62
361.843	663.62
362.07	672.62
362.296	685.62
362.523	652.62
362.749	667.62
362.976	650.62
363.203	613.62
363.429	630.62
363.656	652.62
363.882	646.62
364.109	645.62
364.335	617.62
364.562	651.62
364.788	646.62
365.015	635.62
365.241	614.62
365.468	649.62
365.694	645.62
365.92	656.62
366.147	646.62
366.373	635.62
366.599	622.62
366.826	627.62
367.052	644.62
367.278	654.62
367.505	643.62
367.731	646.62
367.957	652.62
368.184	673.62
368.41	639.62
368.636	651.62
368.862	660.62
369.089	659.62
369.315	683.62
369.541	678.62
369.767	652.62
369.993	673.62
370.219	653.62
370.445	666.62
370.672	676.62
370.898	682.62
371.124	685.62
371.35	667.62
371.576	713.62
371.802	673.62
372.028	681.62
372.254	695.62
372.48	697.62
372.706	705.62
372.932	713.62
373.158	715.62
373.384	703.62
373.61	675.62
373.835	694.62
374.061	707.62
374.287	722.62
374.513	714.62
374.739	729.62
374.965	747.62
375.191	773.62
375.416	772.62
375.642	744.62
375.868	737.62
376.094	725.62
376.319	704.62
376.545	714.62
376.771	711.62
376.997	726.62
377.222	701.62
377.448	692.62
377.674	688.62
377.899	688.62
378.125	690.62
378.35	732.62
378.576	692.62
378.802	650.62
379.027	693.62
379.253	695.62
379.478	692.62
379.704	678.62
379.929	673.62
380.155	693.62
380.38	661.62
380.606	667.62
380.831	680.62
381.057	685.62
381.282	706.62
381.507	702.62
381.733	701.62
381.958	716.62
382.184	679.62
382.409	703.62
382.634	720.62
382.86	723.62
383.085	718.62
383.31	736.62
383.535	747.62
383.761	760.62
383.986	750.62
384.211	770.62
384.436	768.62
384.662	789.62
384.887	779.62
385.112	827.62
385.337	811.62
385.562	802.62
385.787	820.62
386.013	816.62
386.238	827.62
386.463	832.62
386.688	842.62
386.913	811.62
387.138	779.62
387.363	810.62
387.588	807.62
387.813	804.62
388.038	793.62
388.263	811.62
388.488	824.62
388.713	805.62
388.938	809.62
389.163	805.62
389.387	825.62
389.612	791.62
389.837	792.62
390.062	795.62
390.287	819.62
390.512	798.62
390.736	865.62
390.961	844.62
391.186	841.62
391.411	861.62
391.636	882.62
391.86	923.62
392.085	930.62
392.31	915.62
392.534	883.62
392.759	891.62
392.984	877.62
393.208	873.62
393.433	872.62
393.658	852.62
393.882	887.62
394.107	888.62
394.331	859.62
394.556	881.62
394.78	869.62
395.005	896.62
395.229	889.62
395.454	911.62
395.678	904.62
395.903	903.62
396.127	929.62
396.352	886.62
396.576	862.62
396.801	867.62
397.025	873.62
397.249	913.62
397.474	904.62
397.698	963.62
397.922	940.62
398.147	920.62
398.371	955.62
398.595	951.62
398.82	1052.62
399.044	1105.62
399.268	1208.62
399.492	1361.62
399.717	1475.62
399.941	1457.62
400.165	1305.62
400.389	1238.62
400.613	1131.62
400.837	1090.62
401.062	1052.62
401.286	1054.62
401.51	1043.62
401.734	1029.62
401.958	1036.62
402.182	1048.62
402.406	1071.62
402.63	1053.62
402.854	1074.62
403.078	1097.62
403.302	1127.62
403.526	1126.62
403.75	1133.62
403.974	1153.62
404.198	1149.62
404.422	1176.62
404.645	1155.62
404.869	1153.62
405.093	1122.62
405.317	1111.62
405.541	1083.62
405.765	1112.62
405.988	1093.62
406.212	1112.62
406.436	1113.62
406.66	1157.62
406.883	1135.62
407.107	1216.62
407.331	1267.62
407.555	1336.62
407.778	1283.62
408.002	1258.62
408.226	1247.62
408.449	1249.62
408.673	1171.62
408.896	1158.62
409.12	1146.62
409.344	1176.62
409.567	1160.62
409.791	1152.62
410.014	1140.62
410.238	1151.62
410.461	1142.62
410.685	1122.62
410.908	1127.62
411.132	1096.62
411.355	1079.62
411.578	1077.62
411.802	1068.62
412.025	1067.62
412.249	1079.62
412.472	1091.62
412.695	1033.62
412.919	1066.62
413.142	1027.62
413.365	1035.62
413.589	1029.62
413.812	1034.62
414.035	1012.62
414.258	1067.62
414.482	1040.62
414.705	1024.62
414.928	1040.62
415.151	1026.62
415.374	1068.62
415.597	1040.62
415.821	1027.62
416.044	1003.62
416.267	1012.62
416.49	996.62
416.713	1003.62
416.936	1002.62
417.159	1004.62
417.382	963.62
417.605	1003.62
417.828	1031.62
418.051	1043.62
418.274	1027.62
418.497	1036.62
418.72	1035.62
418.943	1058.62
419.166	1102.62
419.389	1161.62
419.611	1094.62
419.834	1106.62
420.057	1046.62
420.28	1043.62
420.503	1033.62
420.726	1023.62
420.948	1048.62
421.171	1009.62
421.394	1026.62
421.617	1021.62
421.839	1034.62
422.062	1051.62
422.285	1026.62
422.507	1029.62
422.73	1050.62
422.953	1049.62
423.175	1063.62
423.398	1102.62
423.621	1090.62
423.843	1091.62
424.066	1074.62
424.288	1083.62
424.511	1050.62
424.733	1052.62
424.956	1036.62
425.178	1041.62
425.401	1043.62
425.623	1044.62
425.846	1019.62
426.068	995.62
426.291	972.62
426.513	996.62
426.735	961.62
426.958	972.62
427.18	963.62
427.402	982.62
427.625	936.62
427.847	914.62
428.069	898.62
428.292	943.62
428.514	925.62
428.736	932.62
428.958	949.62
429.181	910.62
429.403	901.62
429.625	892.62
429.847	890.62
430.069	909.62
430.292	934.62
430.514	906.62
430.736	914.62
430.958	936.62
431.18	937.62
431.402	925.62
431.624	911.62
431.846	923.62
432.068	916.62
432.29	931.62
432.512	914.62
432.734	941.62
432.956	919.62
433.178	904.62
433.4	959.62
433.622	956.62
433.844	949.62
434.066	956.62
434.287	963.62
434.509	975.62
434.731	1003.62
434.953	1024.62
435.175	1032.62
435.397	1028.62
435.618	986.62
435.84	993.62
436.062	948.62
436.284	957.62
436.505	946.62
436.727	933.62
436.949	917.62
437.17	938.62
437.392	913.62
437.614	906.62
437.835	892.62
438.057	873.62
438.278	890.62
438.5	871.62
438.721	904.62
438.943	891.62
439.165	889.62
439.386	915.62
439.608	887.62
439.829	911.62
440.05	947.62
440.272	940.62
440.493	916.62
440.715	926.62
440.936	965.62
441.158	997.62
441.379	1029.62
441.6	1053.62
441.822	1054.62
442.043	1035.62
442.264	1042.62
442.486	1008.62
442.707	986.62
442.928	996.62
443.149	1041.62
443.371	1012.62
443.592	1055.62
443.813	1021.62
444.034	1037.62
444.255	1102.62
444.476	1118.62
444.698	1161.62
444.919	1204.62
445.14	1279.62
445.361	1167.62
445.582	1084.62
445.803	1027.62
446.024	1023.62
446.245	962.62
446.466	975.62
446.687	939.62
446.908	929.62
447.129	944.62
447.35	931.62
447.571	902.62
447.792	879.62
448.013	870.62
448.234	871.62
448.455	880.62
448.675	876.62
448.896	872.62
449.117	876.62
449.338	851.62
449.559	840.62
449.779	848.62
450	856.62
450.221	838.62
450.442	853.62
450.662	857.62
450.883	854.62
451.104	870.62
451.324	870.62
451.545	849.62
451.766	880.62
451.986	846.62
452.207	859.62
452.428	836.62
452.648	840.62
452.869	833.62
453.089	823.62
453.31	801.62
453.53	815.62
453.751	843.62
453.971	821.62
454.192	825.62
454.412	832.62
454.633	821.62
454.853	816.62
455.073	788.62
455.294	815.62
455.514	809.62
455.734	810.62
455.955	786.62
456.175	783.62
456.395	788.62
456.616	785.62
456.836	792.62
457.056	835.62
457.276	805.62
457.497	798.62
457.717	828.62
457.937	805.62
458.157	812.62
458.377	835.62
458.598	851.62
458.818	888.62
459.038	882.62
459.258	913.62
459.478	917.62
459.698	955.62
459.918	992.62
460.138	1003.62
460.358	1095.62
460.578	1081.62
460.798	1099.62
461.018	1132.62
461.238	1109.62
461.458	1079.62
461.678	1087.62
461.898	1116.62
462.118	1068.62
462.338	1173.62
462.558	1223.62
462.777	1220.62
462.997	1312.62
463.217	1401.62
463.437	1431.62
463.657	1335.62
463.876	1277.62
464.096	1272.62
464.316	1209.62
464.536	1250.62
464.755	1196.62
464.975	1192.62
465.195	1120.62
465.414	1071.62
465.634	1050.62
465.854	1002.62
466.073	972.62
466.293	930.62
466.512	937.62
466.732	914.62
466.951	912.62
467.171	907.62
467.391	913.62
467.61	929.62
467.829	878.62
468.049	874.62
468.268	899.62
468.488	864.62
468.707	903.62
468.927	866.62
469.146	855.62
469.365	904.62
469.585	879.62
469.804	895.62
470.023	943.62
470.243	930.62
470.462	945.62
470.681	940.62
470.901	965.62
471.12	942.62
471.339	903.62
471.558	917.62
471.777	917.62
471.997	882.62
472.216	870.62
472.435	856.62
472.654	858.62
472.873	852.62
473.092	847.62
473.311	864.62
473.53	887.62
473.749	859.62
473.968	855.62
474.187	855.62
474.406	866.62
474.625	876.62
474.844	848.62
475.063	848.62
475.282	839.62
475.501	854.62
475.72	873.62
475.939	880.62
476.158	903.62
476.377	888.62
476.596	883.62
476.814	923.62
477.033	931.62
477.252	927.62
477.471	934.62
477.69	946.62
477.908	993.62
478.127	1027.62
478.346	997.62
478.564	1030.62
478.783	1049.62
479.002	1076.62
479.22	1076.62
479.439	1048.62
479.658	1067.62
479.876	1056.62
480.095	1071.62
480.313	1101.62
480.532	1137.62
480.751	1089.62
480.969	1083.62
481.188	1056.62
481.406	1021.62
481.624	973.62
481.843	980.62
482.061	983.62
482.28	1027.62
482.498	1009.62
482.717	960.62
482.935	1022.62
483.153	1036.62
483.372	1041.62
483.59	1012.62
483.808	1029.62
484.027	1000.62
484.245	981.62
484.463	994.62
484.681	1001.62
484.9	1036.62
485.118	1042.62
485.336	1031.62
485.554	1017.62
485.772	1024.62
485.99	1040.62
486.209	1050.62
486.427	1030.62
486.645	1043.62
486.863	1036.62
487.081	1017.62
487.299	1037.62
487.517	1037.62
487.735	1069.62
487.953	1057.62
488.171	1019.62
488.389	1030.62
488.607	1037.62
488.825	1050.62
489.043	1044.62
489.261	1055.62
489.479	1029.62
489.696	1024.62
489.914	1004.62
490.132	1071.62
490.35	1060.62
490.568	1072.62
490.786	1049.62
491.003	1092.62
491.221	1064.62
491.439	1050.62
491.657	1072.62
491.874	1089.62
492.092	1075.62
492.31	1101.62
492.527	1124.62
492.745	1121.62
492.963	1034.62
493.18	1036.62
493.398	1110.62
493.615	1094.62
493.833	1077.62
494.05	1110.62
494.268	1137.62
494.485	1106.62
494.703	1108.62
494.92	1109.62
495.138	1084.62
495.355	1131.62
495.573	1119.62
495.79	1136.62
496.008	1152.62
496.225	1112.62
496.442	1124.62
496.66	1151.62
496.877	1181.62
497.094	1163.62
497.312	1219.62
497.529	1259.62
497.746	1238.62
497.963	1298.62
498.181	1349.62
498.398	1362.62
498.615	1493.62
498.832	1512.62
499.049	1677.62
499.267	1787.62
499.484	1923.62
499.701	2153.62
499.918	2344.62
500.135	2626.62
500.352	2940.62
500.569	3039.62
500.786	2986.62
501.003	2783.62
501.22	2550.62
501.437	2269.62
501.654	2025.62
501.871	1883.62
502.088	1746.62
502.305	1619.62
502.522	1597.62
502.739	1537.62
502.956	1464.62
503.172	1364.62
503.389	1289.62
503.606	1284.62
503.823	1263.62
504.04	1240.62
504.256	1260.62
504.473	1271.62
504.69	1299.62
504.907	1240.62
505.123	1201.62
505.34	1130.62
505.557	1071.62
505.773	1060.62
505.99	1063.62
506.207	1034.62
506.423	1025.62
506.64	1004.62
506.856	977.62
507.073	950.62
507.289	998.62
507.506	955.62
507.722	977.62
507.939	954.62
508.155	963.62
508.372	945.62
508.588	914.62
508.805	917.62
509.021	939.62
509.238	919.62
509.454	887.62
509.67	907.62
509.887	881.62
510.103	925.62
510.319	885.62
510.536	885.62
510.752	871.62
510.968	892.62
511.184	870.62
511.401	893.62
511.617	881.62
511.833	848.62
512.049	872.62
512.265	873.62
512.481	887.62
512.698	861.62
512.914	876.62
513.13	901.62
513.346	899.62
513.562	872.62
513.778	868.62
513.994	897.62
514.21	889.62
514.426	888.62
514.642	891.62
514.858	901.62
515.074	908.62
515.29	924.62
515.506	897.62
515.721	938.62
515.937	895.62
516.153	936.62
516.369	959.62
516.585	1005.62
516.801	1011.62
517.016	1055.62
517.232	1117.62
517.448	1151.62
517.664	1160.62
517.879	1191.62
518.095	1172.62
518.311	1160.62
518.527	1097.62
518.742	1079.62
518.958	1020.62
519.173	1002.62
519.389	985.62
519.605	929.62
519.82	957.62
520.036	927.62
520.251	899.62
520.467	905.62
520.682	884.62
520.898	867.62
521.113	879.62
521.329	865.62
521.544	852.62
521.76	851.62
521.975	843.62
522.19	841.62
522.406	827.62
522.621	831.62
522.836	826.62
523.052	827.62
523.267	799.62
523.482	817.62
523.698	803.62
523.913	802.62
524.128	819.62
524.343	812.62
524.559	775.62
524.774	788.62
524.989	801.62
525.204	818.62
525.419	793.62
525.634	795.62
525.849	760.62
526.064	800.62
526.28	803.62
526.495	793.62
526.71	777.62
526.925	768.62
527.14	769.62
527.355	788.62
527.57	778.62
527.785	794.62
527.999	757.62
528.214	767.62
528.429	769.62
528.644	811.62
528.859	773.62
529.074	779.62
529.289	796.62
529.503	781.62
529.718	780.62
529.933	801.62
530.148	789.62
530.363	761.62
530.577	769.62
530.792	787.62
531.007	784.62
531.221	751.62
531.436	757.62
531.651	778.62
531.865	768.62
532.08	790.62
532.295	785.62
532.509	780.62
532.724	776.62
532.938	787.62
533.153	788.62
533.367	775.62
533.582	791.62
533.796	753.62
534.011	772.62
534.225	778.62
534.44	793.62
534.654	762.62
534.868	743.62
535.083	753.62
535.297	744.62
535.511	730.62
535.726	753.62
535.94	723.62
536.154	725.62
536.369	743.62
536.583	727.62
536.797	731.62
537.011	747.62
537.225	710.62
537.44	715.62
537.654	723.62
537.868	721.62
538.082	713.62
538.296	707.62
538.51	727.62
538.724	695.62
538.938	695.62
539.153	712.62
539.367	707.62
539.581	677.62
539.795	704.62
540.009	709.62
540.222	692.62
540.436	708.62
540.65	709.62
540.864	685.62
541.078	701.62
541.292	705.62
541.506	697.62
541.72	716.62
541.934	704.62
542.147	711.62
542.361	702.62
542.575	715.62
542.789	676.62
543.002	706.62
543.216	703.62
543.43	689.62
543.644	684.62
543.857	715.62
544.071	689.62
544.285	714.62
544.498	723.62
544.712	704.62
544.925	701.62
545.139	719.62
545.352	741.62
545.566	742.62
545.779	715.62
545.993	738.62
546.206	713.62
546.42	753.62
546.633	694.62
546.847	714.62
547.06	722.62
547.274	723.62
547.487	736.62
547.7	720.62
547.914	727.62
548.127	730.62
548.34	703.62
548.554	721.62
548.767	703.62
548.98	714.62
549.193	722.62
549.407	735.62
549.62	755.62
549.833	756.62
550.046	746.62
550.259	731.62
550.473	671.62
550.686	707.62
550.899	704.62
551.112	704.62
551.325	695.62
551.538	719.62
551.751	719.62
551.964	691.62
552.177	736.62
552.39	717.62
552.603	731.62
552.816	758.62
553.029	759.62
553.242	774.62
553.455	772.62
553.667	762.62
553.88	755.62
554.093	753.62
554.306	714.62
554.519	718.62
554.732	717.62
554.944	703.62
555.157	687.62
555.37	692.62
555.583	685.62
555.795	670.62
556.008	639.62
556.221	652.62
556.433	636.62
556.646	642.62
556.859	615.62
557.071	604.62
557.284	629.62
557.496	612.62
557.709	616.62
557.921	630.62
558.134	610.62
558.346	613.62
558.559	599.62
558.771	613.62
558.984	615.62
559.196	592.62
559.409	595.62
559.621	608.62
559.833	602.62
560.046	577.62
560.258	561.62
560.47	569.62
560.683	589.62
560.895	601.62
561.107	601.62
561.32	584.62
561.532	583.62
561.744	594.62
561.956	595.62
562.168	580.62
562.381	586.62
562.593	560.62
562.805	601.62
563.017	603.62
563.229	616.62
563.441	586.62
563.653	606.62
563.865	628.62
564.077	591.62
564.289	612.62
564.501	649.62
564.713	643.62
564.925	641.62
565.137	636.62
565.349	679.62
565.561	653.62
565.773	688.62
565.985	728.62
566.197	772.62
566.408	784.62
566.62	880.62
566.832	896.62
567.044	931.62
567.255	923.62
567.467	965.62
567.679	996.62
567.891	1049.62
568.102	1085.62
568.314	1036.62
568.526	947.62
568.737	845.62
568.949	783.62
569.161	743.62
569.372	708.62
569.584	653.62
569.795	636.62
570.007	630.62
570.218	628.62
570.43	609.62
570.641	615.62
570.853	604.62
571.064	592.62
571.276	613.62
571.487	582.62
571.698	547.62
571.91	582.62
572.121	522.62
572.333	530.62
572.544	495.62
572.755	520.62
572.966	524.62
573.178	516.62
573.389	522.62
573.6	517.62
573.811	490.62
574.023	511.62
574.234	490.62
574.445	488.62
574.656	468.62
574.867	488.62
575.078	472.62
575.289	492.62
575.501	461.62
575.712	459.62
575.923	474.62
576.134	461.62
576.345	449.62
576.556	449.62
576.767	482.62
576.978	452.62
577.188	459.62
577.399	447.62
577.61	462.62
577.821	441.62
578.032	437.62
578.243	440.62
578.454	425.62
578.665	441.62
578.875	436.62
579.086	417.62
579.297	442.62
579.508	432.62
579.718	437.62
579.929	429.62
580.14	398.62
580.35	406.62
580.561	429.62
580.772	405.62
580.982	434.62
581.193	417.62
581.403	412.62
581.614	406.62
581.825	417.62
582.035	396.62
582.246	399.62
582.456	393.62
582.667	414.62
582.877	399.62
583.087	413.62
583.298	403.62
583.508	403.62
583.719	403.62
583.929	393.62
584.139	414.62
584.35	375.62
584.56	403.62
584.77	394.62
584.981	384.62
585.191	385.62
585.401	386.62
585.611	363.62
585.821	379.62
586.032	391.62
586.242	374.62
586.452	395.62
586.662	393.62
586.872	381.62
587.082	377.62
587.292	381.62
587.502	378.62
587.713	390.62
587.923	387.62
588.133	379.62
588.343	393.62
588.553	391.62
588.762	384.62
588.972	406.62
589.182	461.62
589.392	449.62
589.602	396.62
589.812	442.62
590.022	417.62
590.232	392.62
590.441	383.62
590.651	391.62
590.861	404.62
591.071	387.62
591.281	402.62
591.49	408.62
591.7	408.62
591.91	428.62
592.119	411.62
592.329	436.62
592.539	429.62
592.748	434.62
592.958	451.62
593.167	447.62
593.377	478.62
593.587	461.62
593.796	473.62
594.006	478.62
594.215	476.62
594.424	480.62
594.634	478.62
594.843	435.62
595.053	436.62
595.262	436.62
595.472	406.62
595.681	386.62
595.89	387.62
596.1	387.62
596.309	375.62
596.518	379.62
596.727	390.62
596.937	381.62
597.146	354.62
597.355	351.62
597.564	364.62
597.774	364.62
597.983	360.62
598.192	352.62
598.401	356.62
598.61	323.62
598.819	352.62
599.028	339.62
599.237	339.62
599.446	324.62
599.655	326.62
599.864	332.62
600.073	315.62
600.282	322.62
600.491	331.62
600.7	300.62
600.909	337.62
601.118	330.62
601.327	340.62
601.536	317.62
601.745	337.62
601.953	332.62
602.162	315.62
602.371	323.62
602.58	308.62
602.789	323.62
602.997	329.62
603.206	321.62
603.415	298.62
603.623	305.62
603.832	314.62
604.041	320.62
604.249	292.62
604.458	297.62
604.666	311.62
604.875	321.62
605.084	280.62
605.292	299.62
605.501	315.62
605.709	316.62
605.918	298.62
606.126	303.62
606.334	300.62
606.543	274.62
606.751	300.62
606.96	303.62
607.168	290.62
607.376	280.62
607.585	298.62
607.793	296.62
608.001	283.62
608.21	279.62
608.418	290.62
608.626	289.62
608.834	285.62
609.043	286.62
609.251	300.62
609.459	289.62
609.667	297.62
609.875	287.62
610.083	277.62
610.291	295.62
610.499	287.62
610.707	283.62
610.916	287.62
611.124	262.62
611.332	280.62
611.54	289.62
611.748	267.62
611.955	271.62
612.163	283.62
612.371	283.62
612.579	300.62
612.787	288.62
612.995	295.62
613.203	287.62
613.411	299.62
613.618	280.62
613.826	275.62
614.034	289.62
614.242	288.62
614.449	272.62
614.657	282.62
614.865	283.62
615.072	298.62
615.28	278.62
615.488	272.62
615.695	288.62
615.903	276.62
616.111	277.62
616.318	279.62
616.526	283.62
616.733	287.62
616.941	284.62
617.148	299.62
617.356	283.62
617.563	291.62
617.771	275.62
617.978	275.62
618.185	272.62
618.393	271.62
618.6	281.62
618.807	282.62
619.015	277.62
619.222	267.62
619.429	287.62
619.637	266.62
619.844	273.62
620.051	276.62
620.258	278.62
620.466	262.62
620.673	255.62
620.88	242.62
621.087	247.62
621.294	255.62
621.501	248.62
621.708	259.62
621.915	263.62
622.122	265.62
622.329	263.62
622.536	269.62
622.743	266.62
622.95	246.62
623.157	260.62
623.364	245.62
623.571	253.62
623.778	265.62
623.985	264.62
624.192	250.62
624.399	248.62
624.606	268.62
624.812	242.62
625.019	255.62
625.226	240.62
625.433	236.62
625.639	251.62
625.846	249.62
626.053	232.62
626.259	251.62
626.466	241.62
626.673	255.62
626.879	231.62
627.086	252.62
627.293	239.62
627.499	247.62
627.706	258.62
627.912	238.62
628.119	235.62
628.325	232.62
628.532	237.62
628.738	222.62
628.945	232.62
629.151	222.62
629.357	219.62
629.564	230.62
629.77	241.62
629.976	243.62
630.183	240.62
630.389	228.62
630.595	228.62
630.802	223.62
631.008	222.62
631.214	226.62
631.42	240.62
631.627	226.62
631.833	213.62
632.039	221.62
632.245	199.62
632.451	213.62
632.657	216.62
632.863	215.62
633.069	222.62
633.275	226.62
633.481	220.62
633.688	216.62
633.893	224.62
634.099	210.62
634.305	220.62
634.511	207.62
634.717	215.62
634.923	225.62
635.129	201.62
635.335	221.62
635.541	215.62
635.747	203.62
635.952	200.62
636.158	209.62
636.364	198.62
636.57	200.62
636.775	197.62
636.981	195.62
637.187	201.62
637.392	195.62
637.598	201.62
637.804	210.62
638.009	198.62
638.215	198.62
638.421	214.62
638.626	203.62
638.832	180.62
639.037	196.62
639.243	190.62
639.448	194.62
639.654	205.62
639.859	194.62
640.065	194.62
640.27	183.62
640.475	201.62
640.681	193.62
640.886	177.62
641.091	199.62
641.297	200.62
641.502	195.62
641.707	209.62
641.913	179.62
642.118	189.62
642.323	191.62
642.528	204.62
642.733	175.62
642.939	193.62
643.144	175.62
643.349	191.62
643.554	188.62
643.759	192.62
643.964	178.62
644.169	183.62
644.374	204.62
644.579	186.62
644.784	172.62
644.989	179.62
645.194	189.62
645.399	198.62
645.604	194.62
645.809	196.62
646.014	203.62
646.219	205.62
646.423	180.62
646.628	177.62
646.833	192.62
647.038	195.62
647.243	198.62
647.447	193.62
647.652	207.62
647.857	194.62
648.062	200.62
648.266	221.62
648.471	205.62
648.676	200.62
648.88	212.62
649.085	191.62
649.289	180.62
649.494	185.62
649.698	196.62
649.903	195.62
650.107	191.62
650.312	170.62
650.516	181.62
650.721	164.62
650.925	174.62
651.13	169.62
651.334	172.62
651.539	183.62
651.743	181.62
651.947	175.62
652.152	176.62
652.356	167.62
652.56	159.62
652.764	145.62
652.969	164.62
653.173	162.62
653.377	155.62
653.581	153.62
653.785	161.62
653.99	153.62
654.194	156.62
654.398	165.62
654.602	155.62
654.806	163.62
655.01	163.62
655.214	149.62
655.418	154.62
655.622	140.62
655.826	147.62
656.03	160.62
656.234	185.62
656.438	163.62
656.642	165.62
656.846	163.62
657.049	172.62
657.253	159.62
657.457	158.62
657.661	140.62
657.865	149.62
658.068	127.62
658.272	133.62
658.476	135.62
658.68	126.62
658.883	124.62
659.087	123.62
659.291	108.62
659.494	105.62
659.698	117.62
659.901	120.62
660.105	104.62
660.309	100.62
660.512	95.62
660.716	103.62
660.919	93.62
661.123	104.62
661.326	92.62
661.53	97.62
661.733	97.62
661.936	97.62
662.14	103.62
662.343	92.62
662.546	72.62
662.75	81.62
662.953	91.62
663.156	88.62
663.36	86.62
663.563	80.62
663.766	81.62
663.969	80.62
664.173	74.62
664.376	83.62
664.579	91.62
664.782	83.62
664.985	76.62
665.188	81.62
665.391	77.62
665.594	83.62
665.797	80.62
666	88.62
666.203	74.62
666.406	85.62
666.609	77.62
666.812	82.62
667.015	81.62
667.218	89.62
667.421	69.62
667.624	77.62
667.827	85.62
668.03	91.62
668.232	83.62
668.435	82.62
668.638	80.62
668.841	81.62
669.043	70.62
669.246	87.62
669.449	88.62
669.651	91.62
669.854	80.62
670.057	78.62
670.259	90.62
670.462	72.62
670.665	77.62
670.867	87.62
671.07	86.62
671.272	94.62
671.475	89.62
671.677	89.62
671.88	98.62
672.082	67.62
672.284	69.62
672.487	86.62
672.689	67.62
672.892	82.62
