Data from NiCl2@0.125M.TitratingCurve.Agarose3%dH2O.NegLispCup.LampEnergy10.LIBS07252019_HRD10591_18-28-46-574.txt Node
Date: Thu Jul 25 18:28:46 EDT 2019
User: cochatt
Spectrometer: HR+D1059
Trigger mode: 1
Integration Time (sec): 1.000000E-1
Scans to average: 1
Electric dark correction enabled: true
Nonlinearity correction enabled: false
Boxcar width: 0
XAxis mode: Wavelengths
Number of Pixels in Spectrum: 2048
>>>>>Begin Spectral Data<<<<<
223.165	-15.25
223.4	-15.25
223.635	-15.25
223.869	-13.25
224.104	-28.25
224.338	-21.25
224.573	-10.25
224.808	-11.25
225.042	0.75
225.277	2.75
225.511	-11.25
225.746	-4.25
225.98	-0.25
226.215	16.75
226.449	17.75
226.683	24.75
226.918	21.75
227.152	30.75
227.387	40.75
227.621	42.75
227.856	42.75
228.09	40.75
228.324	44.75
228.559	52.75
228.793	73.75
229.027	106.75
229.262	115.75
229.496	123.75
229.73	119.75
229.964	138.75
230.199	140.75
230.433	139.75
230.667	136.75
230.901	140.75
231.136	150.75
231.37	130.75
231.604	136.75
231.838	152.75
232.072	142.75
232.306	149.75
232.541	162.75
232.775	156.75
233.009	150.75
233.243	154.75
233.477	160.75
233.711	154.75
233.945	148.75
234.179	150.75
234.413	154.75
234.647	172.75
234.881	161.75
235.115	167.75
235.349	171.75
235.583	160.75
235.817	152.75
236.051	152.75
236.285	157.75
236.519	169.75
236.753	174.75
236.987	163.75
237.221	165.75
237.455	174.75
237.689	179.75
237.922	181.75
238.156	193.75
238.39	185.75
238.624	169.75
238.858	185.75
239.091	167.75
239.325	182.75
239.559	194.75
239.793	196.75
240.027	184.75
240.26	183.75
240.494	190.75
240.728	200.75
240.961	191.75
241.195	190.75
241.429	187.75
241.662	193.75
241.896	195.75
242.13	209.75
242.363	199.75
242.597	201.75
242.83	213.75
243.064	207.75
243.298	206.75
243.531	211.75
243.765	211.75
243.998	233.75
244.232	229.75
244.465	213.75
244.699	241.75
244.932	220.75
245.166	233.75
245.399	256.75
245.633	233.75
245.866	231.75
246.099	236.75
246.333	249.75
246.566	241.75
246.8	224.75
247.033	253.75
247.266	232.75
247.5	241.75
247.733	259.75
247.966	261.75
248.2	239.75
248.433	250.75
248.666	244.75
248.899	270.75
249.133	289.75
249.366	265.75
249.599	273.75
249.832	258.75
250.066	271.75
250.299	253.75
250.532	280.75
250.765	261.75
250.998	264.75
251.231	254.75
251.465	271.75
251.698	274.75
251.931	287.75
252.164	288.75
252.397	261.75
252.63	277.75
252.863	295.75
253.096	296.75
253.329	282.75
253.562	291.75
253.795	293.75
254.028	286.75
254.261	301.75
254.494	280.75
254.727	305.75
254.96	294.75
255.193	299.75
255.426	287.75
255.659	316.75
255.892	307.75
256.124	309.75
256.357	327.75
256.59	305.75
256.823	316.75
257.056	346.75
257.289	325.75
257.521	320.75
257.754	318.75
257.987	316.75
258.22	331.75
258.452	334.75
258.685	326.75
258.918	331.75
259.151	332.75
259.383	331.75
259.616	307.75
259.849	341.75
260.081	318.75
260.314	340.75
260.547	341.75
260.779	363.75
261.012	356.75
261.244	333.75
261.477	352.75
261.71	328.75
261.942	337.75
262.175	340.75
262.407	351.75
262.64	360.75
262.872	356.75
263.105	374.75
263.337	348.75
263.57	378.75
263.802	347.75
264.035	361.75
264.267	368.75
264.499	370.75
264.732	358.75
264.964	372.75
265.197	397.75
265.429	374.75
265.661	382.75
265.894	374.75
266.126	389.75
266.358	376.75
266.591	387.75
266.823	377.75
267.055	407.75
267.287	382.75
267.52	374.75
267.752	391.75
267.984	394.75
268.216	406.75
268.448	376.75
268.681	370.75
268.913	401.75
269.145	386.75
269.377	404.75
269.609	414.75
269.841	415.75
270.073	404.75
270.306	411.75
270.538	409.75
270.77	402.75
271.002	397.75
271.234	436.75
271.466	389.75
271.698	408.75
271.93	420.75
272.162	416.75
272.394	405.75
272.626	424.75
272.858	411.75
273.09	435.75
273.322	429.75
273.553	426.75
273.785	435.75
274.017	440.75
274.249	425.75
274.481	434.75
274.713	439.75
274.945	427.75
275.176	440.75
275.408	453.75
275.64	441.75
275.872	452.75
276.104	439.75
276.335	444.75
276.567	447.75
276.799	454.75
277.031	454.75
277.262	473.75
277.494	456.75
277.726	456.75
277.957	462.75
278.189	453.75
278.421	458.75
278.652	468.75
278.884	466.75
279.115	467.75
279.347	483.75
279.579	471.75
279.81	477.75
280.042	467.75
280.273	461.75
280.505	473.75
280.736	486.75
280.968	486.75
281.199	494.75
281.431	472.75
281.662	474.75
281.894	491.75
282.125	512.75
282.356	513.75
282.588	508.75
282.819	524.75
283.051	510.75
283.282	485.75
283.513	521.75
283.745	523.75
283.976	510.75
284.207	505.75
284.439	522.75
284.67	517.75
284.901	506.75
285.132	521.75
285.364	491.75
285.595	519.75
285.826	533.75
286.057	529.75
286.288	527.75
286.52	545.75
286.751	531.75
286.982	540.75
287.213	530.75
287.444	533.75
287.675	525.75
287.906	545.75
288.138	549.75
288.369	542.75
288.6	556.75
288.831	554.75
289.062	566.75
289.293	571.75
289.524	535.75
289.755	534.75
289.986	555.75
290.217	563.75
290.448	570.75
290.679	566.75
290.91	566.75
291.141	576.75
291.371	564.75
291.602	598.75
291.833	550.75
292.064	564.75
292.295	580.75
292.526	582.75
292.757	560.75
292.987	573.75
293.218	576.75
293.449	605.75
293.68	577.75
293.91	556.75
294.141	560.75
294.372	570.75
294.603	578.75
294.833	584.75
295.064	560.75
295.295	567.75
295.525	557.75
295.756	585.75
295.987	578.75
296.217	596.75
296.448	577.75
296.679	582.75
296.909	593.75
297.14	598.75
297.37	626.75
297.601	630.75
297.831	615.75
298.062	631.75
298.292	626.75
298.523	622.75
298.753	646.75
298.984	635.75
299.214	608.75
299.445	633.75
299.675	634.75
299.905	617.75
300.136	615.75
300.366	621.75
300.597	638.75
300.827	636.75
301.057	654.75
301.288	667.75
301.518	641.75
301.748	640.75
301.979	644.75
302.209	652.75
302.439	651.75
302.669	638.75
302.9	649.75
303.13	638.75
303.36	635.75
303.59	627.75
303.82	624.75
304.051	628.75
304.281	642.75
304.511	642.75
304.741	642.75
304.971	637.75
305.201	630.75
305.431	636.75
305.661	636.75
305.891	652.75
306.121	627.75
306.352	644.75
306.582	612.75
306.812	619.75
307.042	625.75
307.272	626.75
307.502	612.75
307.731	601.75
307.961	618.75
308.191	606.75
308.421	634.75
308.651	598.75
308.881	621.75
309.111	610.75
309.341	637.75
309.571	638.75
309.8	622.75
310.03	596.75
310.26	621.75
310.49	633.75
310.72	633.75
310.949	647.75
311.179	634.75
311.409	663.75
311.639	657.75
311.868	650.75
312.098	650.75
312.328	654.75
312.557	660.75
312.787	660.75
313.017	655.75
313.246	664.75
313.476	658.75
313.706	689.75
313.935	665.75
314.165	668.75
314.394	676.75
314.624	680.75
314.853	646.75
315.083	656.75
315.312	631.75
315.542	661.75
315.771	666.75
316.001	619.75
316.23	644.75
316.46	656.75
316.689	665.75
316.919	660.75
317.148	636.75
317.377	650.75
317.607	642.75
317.836	653.75
318.065	654.75
318.295	663.75
318.524	651.75
318.753	636.75
318.983	632.75
319.212	676.75
319.441	653.75
319.67	665.75
319.9	656.75
320.129	668.75
320.358	644.75
320.587	655.75
320.816	656.75
321.046	653.75
321.275	660.75
321.504	651.75
321.733	646.75
321.962	656.75
322.191	658.75
322.42	666.75
322.649	683.75
322.878	648.75
323.108	650.75
323.337	655.75
323.566	674.75
323.795	677.75
324.024	663.75
324.253	672.75
324.482	685.75
324.71	676.75
324.939	681.75
325.168	696.75
325.397	702.75
325.626	697.75
325.855	694.75
326.084	712.75
326.313	700.75
326.542	701.75
326.77	719.75
326.999	714.75
327.228	710.75
327.457	683.75
327.686	715.75
327.914	711.75
328.143	731.75
328.372	705.75
328.6	709.75
328.829	721.75
329.058	694.75
329.287	707.75
329.515	730.75
329.744	722.75
329.972	700.75
330.201	730.75
330.43	738.75
330.658	753.75
330.887	741.75
331.115	750.75
331.344	747.75
331.572	734.75
331.801	801.75
332.03	778.75
332.258	818.75
332.486	818.75
332.715	845.75
332.943	869.75
333.172	934.75
333.4	956.75
333.629	978.75
333.857	980.75
334.085	968.75
334.314	950.75
334.542	902.75
334.771	940.75
334.999	884.75
335.227	884.75
335.455	919.75
335.684	900.75
335.912	855.75
336.14	857.75
336.369	877.75
336.597	859.75
336.825	860.75
337.053	839.75
337.281	864.75
337.51	822.75
337.738	805.75
337.966	785.75
338.194	801.75
338.422	764.75
338.65	792.75
338.878	780.75
339.106	771.75
339.334	749.75
339.562	756.75
339.79	737.75
340.018	754.75
340.246	734.75
340.474	744.75
340.702	755.75
340.93	754.75
341.158	766.75
341.386	756.75
341.614	778.75
341.842	755.75
342.07	744.75
342.298	725.75
342.526	731.75
342.754	722.75
342.981	752.75
343.209	760.75
343.437	808.75
343.665	848.75
343.893	884.75
344.12	956.75
344.348	893.75
344.576	856.75
344.804	814.75
345.031	796.75
345.259	769.75
345.487	782.75
345.714	758.75
345.942	741.75
346.17	726.75
346.397	739.75
346.625	709.75
346.853	702.75
347.08	729.75
347.308	711.75
347.535	741.75
347.763	736.75
347.99	733.75
348.218	720.75
348.445	729.75
348.673	724.75
348.9	715.75
349.128	700.75
349.355	748.75
349.583	735.75
349.81	729.75
350.037	700.75
350.265	718.75
350.492	703.75
350.72	706.75
350.947	679.75
351.174	689.75
351.402	683.75
351.629	677.75
351.856	712.75
352.083	679.75
352.311	711.75
352.538	685.75
352.765	722.75
352.992	700.75
353.22	692.75
353.447	692.75
353.674	677.75
353.901	682.75
354.128	677.75
354.355	694.75
354.583	717.75
354.81	695.75
355.037	715.75
355.264	712.75
355.491	691.75
355.718	724.75
355.945	711.75
356.172	700.75
356.399	722.75
356.626	733.75
356.853	674.75
357.08	694.75
357.307	694.75
357.534	701.75
357.761	712.75
357.988	708.75
358.215	684.75
358.441	688.75
358.668	688.75
358.895	697.75
359.122	700.75
359.349	708.75
359.576	705.75
359.802	688.75
360.029	695.75
360.256	700.75
360.483	683.75
360.709	712.75
360.936	694.75
361.163	688.75
361.39	681.75
361.616	690.75
361.843	714.75
362.07	712.75
362.296	712.75
362.523	700.75
362.749	686.75
362.976	706.75
363.203	706.75
363.429	705.75
363.656	698.75
363.882	682.75
364.109	688.75
364.335	683.75
364.562	698.75
364.788	692.75
365.015	704.75
365.241	701.75
365.468	690.75
365.694	686.75
365.92	679.75
366.147	672.75
366.373	690.75
366.599	668.75
366.826	660.75
367.052	690.75
367.278	696.75
367.505	709.75
367.731	675.75
367.957	695.75
368.184	694.75
368.41	688.75
368.636	709.75
368.862	745.75
369.089	701.75
369.315	720.75
369.541	713.75
369.767	715.75
369.993	727.75
370.219	714.75
370.445	747.75
370.672	721.75
370.898	759.75
371.124	747.75
371.35	728.75
371.576	730.75
371.802	754.75
372.028	760.75
372.254	723.75
372.48	753.75
372.706	769.75
372.932	788.75
373.158	788.75
373.384	786.75
373.61	790.75
373.835	749.75
374.061	784.75
374.287	776.75
374.513	784.75
374.739	819.75
374.965	807.75
375.191	845.75
375.416	852.75
375.642	789.75
375.868	780.75
376.094	797.75
376.319	762.75
376.545	765.75
376.771	763.75
376.997	746.75
377.222	765.75
377.448	773.75
377.674	756.75
377.899	754.75
378.125	748.75
378.35	749.75
378.576	743.75
378.802	754.75
379.027	768.75
379.253	730.75
379.478	748.75
379.704	746.75
379.929	780.75
380.155	739.75
380.38	752.75
380.606	749.75
380.831	753.75
381.057	757.75
381.282	770.75
381.507	758.75
381.733	749.75
381.958	767.75
382.184	778.75
382.409	797.75
382.634	786.75
382.86	793.75
383.085	808.75
383.31	827.75
383.535	838.75
383.761	840.75
383.986	855.75
384.211	875.75
384.436	886.75
384.662	900.75
384.887	926.75
385.112	896.75
385.337	898.75
385.562	917.75
385.787	926.75
386.013	906.75
386.238	952.75
386.463	938.75
386.688	908.75
386.913	897.75
387.138	921.75
387.363	911.75
387.588	877.75
387.813	920.75
388.038	908.75
388.263	905.75
388.488	906.75
388.713	913.75
388.938	905.75
389.163	886.75
389.387	896.75
389.612	883.75
389.837	882.75
390.062	890.75
390.287	886.75
390.512	873.75
390.736	881.75
390.961	897.75
391.186	908.75
391.411	979.75
391.636	984.75
391.86	1009.75
392.085	1047.75
392.31	1020.75
392.534	1019.75
392.759	997.75
392.984	971.75
393.208	951.75
393.433	942.75
393.658	967.75
393.882	970.75
394.107	979.75
394.331	967.75
394.556	981.75
394.78	973.75
395.005	983.75
395.229	999.75
395.454	1011.75
395.678	1005.75
395.903	1034.75
396.127	1030.75
396.352	984.75
396.576	973.75
396.801	971.75
397.025	963.75
397.249	976.75
397.474	1012.75
397.698	1020.75
397.922	1010.75
398.147	1018.75
398.371	1023.75
398.595	1056.75
398.82	1138.75
399.044	1190.75
399.268	1315.75
399.492	1525.75
399.717	1759.75
399.941	1796.75
400.165	1622.75
400.389	1426.75
400.613	1295.75
400.837	1199.75
401.062	1203.75
401.286	1196.75
401.51	1164.75
401.734	1152.75
401.958	1181.75
402.182	1162.75
402.406	1184.75
402.63	1174.75
402.854	1207.75
403.078	1232.75
403.302	1268.75
403.526	1287.75
403.75	1303.75
403.974	1376.75
404.198	1336.75
404.422	1402.75
404.645	1332.75
404.869	1332.75
405.093	1327.75
405.317	1289.75
405.541	1280.75
405.765	1303.75
405.988	1306.75
406.212	1284.75
406.436	1259.75
406.66	1287.75
406.883	1286.75
407.107	1394.75
407.331	1424.75
407.555	1478.75
407.778	1483.75
408.002	1460.75
408.226	1422.75
408.449	1383.75
408.673	1373.75
408.896	1310.75
409.12	1252.75
409.344	1308.75
409.567	1332.75
409.791	1329.75
410.014	1311.75
410.238	1284.75
410.461	1294.75
410.685	1253.75
410.908	1242.75
411.132	1213.75
411.355	1174.75
411.578	1196.75
411.802	1185.75
412.025	1217.75
412.249	1205.75
412.472	1221.75
412.695	1173.75
412.919	1135.75
413.142	1149.75
413.365	1138.75
413.589	1164.75
413.812	1144.75
414.035	1122.75
414.258	1140.75
414.482	1142.75
414.705	1166.75
414.928	1154.75
415.151	1149.75
415.374	1149.75
415.597	1140.75
415.821	1136.75
416.044	1125.75
416.267	1123.75
416.49	1106.75
416.713	1107.75
416.936	1148.75
417.159	1127.75
417.382	1129.75
417.605	1137.75
417.828	1136.75
418.051	1146.75
418.274	1177.75
418.497	1128.75
418.72	1166.75
418.943	1154.75
419.166	1234.75
419.389	1321.75
419.611	1310.75
419.834	1242.75
420.057	1192.75
420.28	1179.75
420.503	1110.75
420.726	1091.75
420.948	1152.75
421.171	1131.75
421.394	1124.75
421.617	1116.75
421.839	1147.75
422.062	1162.75
422.285	1119.75
422.507	1162.75
422.73	1158.75
422.953	1170.75
423.175	1206.75
423.398	1204.75
423.621	1188.75
423.843	1206.75
424.066	1242.75
424.288	1216.75
424.511	1190.75
424.733	1148.75
424.956	1151.75
425.178	1174.75
425.401	1159.75
425.623	1173.75
425.846	1133.75
426.068	1102.75
426.291	1096.75
426.513	1076.75
426.735	1088.75
426.958	1058.75
427.18	1049.75
427.402	1088.75
427.625	1065.75
427.847	1040.75
428.069	1026.75
428.292	1039.75
428.514	1014.75
428.736	990.75
428.958	1021.75
429.181	989.75
429.403	984.75
429.625	992.75
429.847	981.75
430.069	989.75
430.292	991.75
430.514	973.75
430.736	1009.75
430.958	999.75
431.18	984.75
431.402	1004.75
431.624	981.75
431.846	1030.75
432.068	1007.75
432.29	1040.75
432.512	989.75
432.734	1024.75
432.956	1004.75
433.178	1013.75
433.4	1028.75
433.622	1060.75
433.844	1040.75
434.066	1048.75
434.287	1064.75
434.509	1076.75
434.731	1103.75
434.953	1159.75
435.175	1158.75
435.397	1156.75
435.618	1113.75
435.84	1058.75
436.062	1037.75
436.284	1052.75
436.505	1030.75
436.727	1026.75
436.949	1026.75
437.17	1046.75
437.392	997.75
437.614	993.75
437.835	995.75
438.057	995.75
438.278	1014.75
438.5	986.75
438.721	1005.75
438.943	989.75
439.165	953.75
439.386	984.75
439.608	1023.75
439.829	1045.75
440.05	1019.75
440.272	1022.75
440.493	1037.75
440.715	1075.75
440.936	1065.75
441.158	1069.75
441.379	1132.75
441.6	1145.75
441.822	1174.75
442.043	1190.75
442.264	1133.75
442.486	1125.75
442.707	1127.75
442.928	1129.75
443.149	1133.75
443.371	1136.75
443.592	1163.75
443.813	1195.75
444.034	1166.75
444.255	1215.75
444.476	1293.75
444.698	1377.75
444.919	1406.75
445.14	1491.75
445.361	1354.75
445.582	1232.75
445.803	1138.75
446.024	1094.75
446.245	1091.75
446.466	1092.75
446.687	1046.75
446.908	1040.75
447.129	1010.75
447.35	976.75
447.571	1005.75
447.792	986.75
448.013	994.75
448.234	952.75
448.455	967.75
448.675	938.75
448.896	954.75
449.117	937.75
449.338	962.75
449.559	917.75
449.779	958.75
450	931.75
450.221	936.75
450.442	959.75
450.662	958.75
450.883	968.75
451.104	988.75
451.324	1001.75
451.545	967.75
451.766	944.75
451.986	954.75
452.207	944.75
452.428	920.75
452.648	963.75
452.869	948.75
453.089	933.75
453.31	949.75
453.53	912.75
453.751	934.75
453.971	926.75
454.192	920.75
454.412	890.75
454.633	911.75
454.853	904.75
455.073	913.75
455.294	919.75
455.514	912.75
455.734	892.75
455.955	887.75
456.175	838.75
456.395	884.75
456.616	873.75
456.836	900.75
457.056	893.75
457.276	882.75
457.497	881.75
457.717	861.75
457.937	896.75
458.157	922.75
458.377	944.75
458.598	942.75
458.818	973.75
459.038	974.75
459.258	1012.75
459.478	1068.75
459.698	1058.75
459.918	1108.75
460.138	1144.75
460.358	1204.75
460.578	1247.75
460.798	1245.75
461.018	1258.75
461.238	1217.75
461.458	1226.75
461.678	1241.75
461.898	1221.75
462.118	1248.75
462.338	1323.75
462.558	1341.75
462.777	1389.75
462.997	1516.75
463.217	1625.75
463.437	1690.75
463.657	1548.75
463.876	1461.75
464.096	1481.75
464.316	1466.75
464.536	1482.75
464.755	1414.75
464.975	1360.75
465.195	1282.75
465.414	1168.75
465.634	1140.75
465.854	1116.75
466.073	1032.75
466.293	1066.75
466.512	1033.75
466.732	999.75
466.951	1024.75
467.171	1011.75
467.391	992.75
467.61	996.75
467.829	977.75
468.049	1000.75
468.268	940.75
468.488	946.75
468.707	922.75
468.927	944.75
469.146	944.75
469.365	978.75
469.585	939.75
469.804	986.75
470.023	1024.75
470.243	1032.75
470.462	1002.75
470.681	1039.75
470.901	1028.75
471.12	1009.75
471.339	984.75
471.558	964.75
471.777	958.75
471.997	941.75
472.216	947.75
472.435	951.75
472.654	911.75
472.873	918.75
473.092	927.75
473.311	939.75
473.53	947.75
473.749	909.75
473.968	924.75
474.187	938.75
474.406	913.75
474.625	936.75
474.844	922.75
475.063	920.75
475.282	941.75
475.501	921.75
475.72	946.75
475.939	951.75
476.158	949.75
476.377	947.75
476.596	993.75
476.814	951.75
477.033	975.75
477.252	1025.75
477.471	1008.75
477.69	1061.75
477.908	1053.75
478.127	1108.75
478.346	1132.75
478.564	1131.75
478.783	1173.75
479.002	1150.75
479.22	1157.75
479.439	1164.75
479.658	1186.75
479.876	1143.75
480.095	1177.75
480.313	1233.75
480.532	1245.75
480.751	1250.75
480.969	1219.75
481.188	1161.75
481.406	1088.75
481.624	1109.75
481.843	1106.75
482.061	1056.75
482.28	1073.75
482.498	1063.75
482.717	1051.75
482.935	1046.75
483.153	1046.75
483.372	1060.75
483.59	1043.75
483.808	1070.75
484.027	1048.75
484.245	1106.75
484.463	1081.75
484.681	1091.75
484.9	1076.75
485.118	1091.75
485.336	1120.75
485.554	1091.75
485.772	1107.75
485.99	1150.75
486.209	1148.75
486.427	1157.75
486.645	1133.75
486.863	1120.75
487.081	1134.75
487.299	1120.75
487.517	1144.75
487.735	1110.75
487.953	1099.75
488.171	1123.75
488.389	1125.75
488.607	1103.75
488.825	1077.75
489.043	1105.75
489.261	1090.75
489.479	1081.75
489.696	1108.75
489.914	1098.75
490.132	1122.75
490.35	1101.75
490.568	1140.75
490.786	1154.75
491.003	1147.75
491.221	1109.75
491.439	1111.75
491.657	1091.75
491.874	1111.75
492.092	1143.75
492.31	1140.75
492.527	1137.75
492.745	1126.75
492.963	1146.75
493.18	1150.75
493.398	1147.75
493.615	1170.75
493.833	1170.75
494.05	1161.75
494.268	1183.75
494.485	1162.75
494.703	1166.75
494.92	1166.75
495.138	1174.75
495.355	1174.75
495.573	1185.75
495.79	1172.75
496.008	1203.75
496.225	1210.75
496.442	1198.75
496.66	1208.75
496.877	1254.75
497.094	1241.75
497.312	1291.75
497.529	1282.75
497.746	1298.75
497.963	1371.75
498.181	1456.75
498.398	1499.75
498.615	1626.75
498.832	1690.75
499.049	1819.75
499.267	1972.75
499.484	2155.75
499.701	2411.75
499.918	2643.75
500.135	3044.75
500.352	3458.75
500.569	3611.75
500.786	3603.75
501.003	3375.75
501.22	3053.75
501.437	2663.75
501.654	2352.75
501.871	2120.75
502.088	1922.75
502.305	1812.75
502.522	1728.75
502.739	1649.75
502.956	1521.75
503.172	1486.75
503.389	1456.75
503.606	1366.75
503.823	1365.75
504.04	1326.75
504.256	1369.75
504.473	1355.75
504.69	1458.75
504.907	1426.75
505.123	1307.75
505.34	1233.75
505.557	1205.75
505.773	1184.75
505.99	1160.75
506.207	1109.75
506.423	1062.75
506.64	1044.75
506.856	1083.75
507.073	1059.75
507.289	1037.75
507.506	1052.75
507.722	1028.75
507.939	1027.75
508.155	1012.75
508.372	984.75
508.588	1023.75
508.805	1003.75
509.021	994.75
509.238	993.75
509.454	968.75
509.67	950.75
509.887	971.75
510.103	968.75
510.319	949.75
510.536	956.75
510.752	950.75
510.968	970.75
511.184	923.75
511.401	950.75
511.617	963.75
511.833	987.75
512.049	944.75
512.265	950.75
512.481	971.75
512.698	934.75
512.914	968.75
513.13	954.75
513.346	956.75
513.562	956.75
513.778	953.75
513.994	947.75
514.21	951.75
514.426	978.75
514.642	969.75
514.858	958.75
515.074	979.75
515.29	1003.75
515.506	999.75
515.721	1004.75
515.937	1048.75
516.153	1028.75
516.369	1051.75
516.585	1079.75
516.801	1108.75
517.016	1166.75
517.232	1244.75
517.448	1260.75
517.664	1312.75
517.879	1335.75
518.095	1331.75
518.311	1346.75
518.527	1240.75
518.742	1204.75
518.958	1148.75
519.173	1136.75
519.389	1083.75
519.605	1040.75
519.82	1009.75
520.036	990.75
520.251	979.75
520.467	972.75
520.682	963.75
520.898	959.75
521.113	941.75
521.329	937.75
521.544	923.75
521.76	924.75
521.975	902.75
522.19	909.75
522.406	896.75
522.621	896.75
522.836	913.75
523.052	902.75
523.267	870.75
523.482	870.75
523.698	883.75
523.913	877.75
524.128	889.75
524.343	886.75
524.559	884.75
524.774	884.75
524.989	879.75
525.204	881.75
525.419	875.75
525.634	867.75
525.849	888.75
526.064	868.75
526.28	865.75
526.495	870.75
526.71	867.75
526.925	864.75
527.14	835.75
527.355	862.75
527.57	867.75
527.785	882.75
527.999	854.75
528.214	851.75
528.429	847.75
528.644	878.75
528.859	874.75
529.074	854.75
529.289	854.75
529.503	868.75
529.718	869.75
529.933	837.75
530.148	850.75
530.363	892.75
530.577	870.75
530.792	850.75
531.007	839.75
531.221	849.75
531.436	853.75
531.651	861.75
531.865	861.75
532.08	853.75
532.295	861.75
532.509	871.75
532.724	865.75
532.938	849.75
533.153	860.75
533.367	847.75
533.582	886.75
533.796	894.75
534.011	858.75
534.225	852.75
534.44	864.75
534.654	868.75
534.868	838.75
535.083	833.75
535.297	838.75
535.511	842.75
535.726	846.75
535.94	834.75
536.154	816.75
536.369	838.75
536.583	789.75
536.797	808.75
537.011	798.75
537.225	801.75
537.44	805.75
537.654	828.75
537.868	792.75
538.082	789.75
538.296	794.75
538.51	796.75
538.724	817.75
538.938	794.75
539.153	782.75
539.367	787.75
539.581	782.75
539.795	792.75
540.009	781.75
540.222	764.75
540.436	794.75
540.65	776.75
540.864	770.75
541.078	785.75
541.292	776.75
541.506	782.75
541.72	780.75
541.934	781.75
542.147	769.75
542.361	785.75
542.575	745.75
542.789	770.75
543.002	741.75
543.216	744.75
543.43	757.75
543.644	749.75
543.857	748.75
544.071	755.75
544.285	774.75
544.498	755.75
544.712	764.75
544.925	790.75
545.139	776.75
545.352	797.75
545.566	805.75
545.779	778.75
545.993	787.75
546.206	778.75
546.42	774.75
546.633	793.75
546.847	800.75
547.06	796.75
547.274	767.75
547.487	782.75
547.7	793.75
547.914	778.75
548.127	794.75
548.34	778.75
548.554	797.75
548.767	806.75
548.98	803.75
549.193	824.75
549.407	804.75
549.62	809.75
549.833	808.75
550.046	815.75
550.259	781.75
550.473	781.75
550.686	787.75
550.899	778.75
551.112	781.75
551.325	759.75
551.538	754.75
551.751	787.75
551.964	749.75
552.177	779.75
552.39	791.75
552.603	818.75
552.816	823.75
553.029	856.75
553.242	846.75
553.455	889.75
553.667	875.75
553.88	851.75
554.093	836.75
554.306	822.75
554.519	769.75
554.732	786.75
554.944	794.75
555.157	737.75
555.37	759.75
555.583	744.75
555.795	727.75
556.008	725.75
556.221	708.75
556.433	710.75
556.646	724.75
556.859	717.75
557.071	673.75
557.284	686.75
557.496	676.75
557.709	681.75
557.921	695.75
558.134	675.75
558.346	683.75
558.559	695.75
558.771	684.75
558.984	657.75
559.196	646.75
559.409	655.75
559.621	667.75
559.833	641.75
560.046	676.75
560.258	642.75
560.47	667.75
560.683	652.75
560.895	658.75
561.107	642.75
561.32	646.75
561.532	644.75
561.744	646.75
561.956	665.75
562.168	652.75
562.381	652.75
562.593	668.75
562.805	655.75
563.017	644.75
563.229	639.75
563.441	668.75
563.653	661.75
563.865	668.75
564.077	685.75
564.289	695.75
564.501	680.75
564.713	696.75
564.925	738.75
565.137	712.75
565.349	747.75
565.561	747.75
565.773	792.75
565.985	824.75
566.197	869.75
566.408	916.75
566.62	994.75
566.832	1088.75
567.044	1102.75
567.255	1106.75
567.467	1094.75
567.679	1204.75
567.891	1254.75
568.102	1330.75
568.314	1243.75
568.526	1130.75
568.737	1053.75
568.949	939.75
569.161	883.75
569.372	802.75
569.584	738.75
569.795	725.75
570.007	706.75
570.218	681.75
570.43	668.75
570.641	701.75
570.853	660.75
571.064	678.75
571.276	680.75
571.487	660.75
571.698	645.75
571.91	634.75
572.121	637.75
572.333	590.75
572.544	591.75
572.755	608.75
572.966	564.75
573.178	574.75
573.389	557.75
573.6	558.75
573.811	562.75
574.023	543.75
574.234	532.75
574.445	566.75
574.656	526.75
574.867	548.75
575.078	558.75
575.289	540.75
575.501	547.75
575.712	541.75
575.923	512.75
576.134	508.75
576.345	517.75
576.556	527.75
576.767	516.75
576.978	509.75
577.188	510.75
577.399	532.75
577.61	499.75
577.821	517.75
578.032	497.75
578.243	484.75
578.454	505.75
578.665	468.75
578.875	482.75
579.086	496.75
579.297	488.75
579.508	484.75
579.718	488.75
579.929	471.75
580.14	456.75
580.35	471.75
580.561	489.75
580.772	451.75
580.982	485.75
581.193	448.75
581.403	478.75
581.614	490.75
581.825	475.75
582.035	471.75
582.246	473.75
582.456	456.75
582.667	466.75
582.877	461.75
583.087	452.75
583.298	436.75
583.508	453.75
583.719	425.75
583.929	444.75
584.139	461.75
584.35	447.75
584.56	452.75
584.77	446.75
584.981	442.75
585.191	425.75
585.401	462.75
585.611	446.75
585.821	446.75
586.032	432.75
586.242	445.75
586.452	451.75
586.662	440.75
586.872	434.75
587.082	432.75
587.292	423.75
587.502	448.75
587.713	438.75
587.923	440.75
588.133	449.75
588.343	442.75
588.553	442.75
588.762	443.75
588.972	468.75
589.182	448.75
589.392	456.75
589.602	426.75
589.812	449.75
590.022	444.75
590.232	451.75
590.441	444.75
590.651	438.75
590.861	451.75
591.071	462.75
591.281	448.75
591.49	438.75
591.7	462.75
591.91	472.75
592.119	499.75
592.329	468.75
592.539	512.75
592.748	501.75
592.958	549.75
593.167	548.75
593.377	544.75
593.587	573.75
593.796	558.75
594.006	556.75
594.215	598.75
594.424	581.75
594.634	563.75
594.843	550.75
595.053	513.75
595.262	487.75
595.472	485.75
595.681	451.75
595.89	463.75
596.1	450.75
596.309	430.75
596.518	425.75
596.727	437.75
596.937	420.75
597.146	424.75
597.355	414.75
597.564	381.75
597.774	387.75
597.983	404.75
598.192	370.75
598.401	375.75
598.61	389.75
598.819	384.75
599.028	379.75
599.237	366.75
599.446	381.75
599.655	378.75
599.864	393.75
600.073	370.75
600.282	374.75
600.491	360.75
600.7	363.75
600.909	368.75
601.118	376.75
601.327	371.75
601.536	364.75
601.745	378.75
601.953	356.75
602.162	338.75
602.371	345.75
602.58	357.75
602.789	356.75
602.997	343.75
603.206	363.75
603.415	368.75
603.623	368.75
603.832	355.75
604.041	358.75
604.249	341.75
604.458	333.75
604.666	333.75
604.875	316.75
605.084	346.75
605.292	342.75
605.501	352.75
605.709	342.75
605.918	348.75
606.126	340.75
606.334	352.75
606.543	350.75
606.751	346.75
606.96	345.75
607.168	348.75
607.376	323.75
607.585	359.75
607.793	351.75
608.001	325.75
608.21	349.75
608.418	328.75
608.626	329.75
608.834	331.75
609.043	349.75
609.251	325.75
609.459	346.75
609.667	332.75
609.875	317.75
610.083	321.75
610.291	332.75
610.499	352.75
610.707	336.75
610.916	335.75
611.124	334.75
611.332	348.75
611.54	320.75
611.748	325.75
611.955	325.75
612.163	325.75
612.371	340.75
612.579	323.75
612.787	327.75
612.995	322.75
613.203	330.75
613.411	326.75
613.618	332.75
613.826	311.75
614.034	335.75
614.242	328.75
614.449	317.75
614.657	325.75
614.865	332.75
615.072	322.75
615.28	301.75
615.488	326.75
615.695	304.75
615.903	315.75
616.111	325.75
616.318	308.75
616.526	325.75
616.733	313.75
616.941	320.75
617.148	344.75
617.356	330.75
617.563	338.75
617.771	323.75
617.978	338.75
618.185	330.75
618.393	317.75
618.6	321.75
618.807	295.75
619.015	313.75
619.222	310.75
619.429	326.75
619.637	327.75
619.844	321.75
620.051	321.75
620.258	308.75
620.466	308.75
620.673	302.75
620.88	292.75
621.087	286.75
621.294	296.75
621.501	296.75
621.708	293.75
621.915	287.75
622.122	294.75
622.329	291.75
622.536	293.75
622.743	300.75
622.95	290.75
623.157	270.75
623.364	299.75
623.571	292.75
623.778	274.75
623.985	313.75
624.192	281.75
624.399	285.75
624.606	265.75
624.812	270.75
625.019	260.75
625.226	298.75
625.433	284.75
625.639	273.75
625.846	277.75
626.053	277.75
626.259	275.75
626.466	288.75
626.673	269.75
626.879	276.75
627.086	277.75
627.293	268.75
627.499	261.75
627.706	264.75
627.912	264.75
628.119	259.75
628.325	275.75
628.532	271.75
628.738	263.75
628.945	270.75
629.151	275.75
629.357	263.75
629.564	269.75
629.77	258.75
629.976	258.75
630.183	253.75
630.389	270.75
630.595	249.75
630.802	276.75
631.008	245.75
631.214	257.75
631.42	265.75
631.627	245.75
631.833	260.75
632.039	258.75
632.245	232.75
632.451	248.75
632.657	259.75
632.863	246.75
633.069	234.75
633.275	232.75
633.481	245.75
633.688	254.75
633.893	234.75
634.099	240.75
634.305	229.75
634.511	235.75
634.717	228.75
634.923	235.75
635.129	253.75
635.335	241.75
635.541	241.75
635.747	231.75
635.952	219.75
636.158	245.75
636.364	231.75
636.57	229.75
636.775	246.75
636.981	227.75
637.187	205.75
637.392	223.75
637.598	227.75
637.804	229.75
638.009	218.75
638.215	247.75
638.421	224.75
638.626	227.75
638.832	228.75
639.037	226.75
639.243	235.75
639.448	227.75
639.654	233.75
639.859	219.75
640.065	223.75
640.27	220.75
640.475	212.75
640.681	224.75
640.886	212.75
641.091	219.75
641.297	225.75
641.502	223.75
641.707	211.75
641.913	230.75
642.118	216.75
642.323	213.75
642.528	217.75
642.733	217.75
642.939	213.75
643.144	197.75
643.349	198.75
643.554	214.75
643.759	209.75
643.964	208.75
644.169	199.75
644.374	212.75
644.579	205.75
644.784	199.75
644.989	213.75
645.194	212.75
645.399	220.75
645.604	217.75
645.809	211.75
646.014	214.75
646.219	222.75
646.423	201.75
646.628	219.75
646.833	224.75
647.038	208.75
647.243	216.75
647.447	193.75
647.652	211.75
647.857	212.75
648.062	218.75
648.266	221.75
648.471	220.75
648.676	226.75
648.88	216.75
649.085	218.75
649.289	229.75
649.494	220.75
649.698	188.75
649.903	204.75
650.107	209.75
650.312	209.75
650.516	201.75
650.721	194.75
650.925	176.75
651.13	196.75
651.334	193.75
651.539	194.75
651.743	191.75
651.947	189.75
652.152	174.75
652.356	179.75
652.56	173.75
652.764	169.75
652.969	184.75
653.173	169.75
653.377	172.75
653.581	181.75
653.785	162.75
653.99	171.75
654.194	168.75
654.398	157.75
654.602	148.75
654.806	170.75
655.01	142.75
655.214	154.75
655.418	156.75
655.622	142.75
655.826	166.75
656.03	159.75
656.234	142.75
656.438	158.75
656.642	146.75
656.846	135.75
657.049	152.75
657.253	140.75
657.457	122.75
657.661	122.75
657.865	124.75
658.068	120.75
658.272	126.75
658.476	117.75
658.68	120.75
658.883	116.75
659.087	97.75
659.291	115.75
659.494	107.75
659.698	107.75
659.901	118.75
660.105	96.75
660.309	104.75
660.512	94.75
660.716	99.75
660.919	118.75
661.123	101.75
661.326	82.75
661.53	99.75
661.733	92.75
661.936	113.75
662.14	97.75
662.343	94.75
662.546	87.75
662.75	73.75
662.953	89.75
663.156	80.75
663.36	84.75
663.563	78.75
663.766	82.75
663.969	101.75
664.173	88.75
664.376	68.75
664.579	68.75
664.782	97.75
664.985	73.75
665.188	64.75
665.391	77.75
665.594	69.75
665.797	78.75
666	75.75
666.203	82.75
666.406	82.75
666.609	81.75
666.812	93.75
667.015	78.75
667.218	79.75
667.421	78.75
667.624	90.75
667.827	83.75
668.03	77.75
668.232	66.75
668.435	96.75
668.638	86.75
668.841	78.75
669.043	93.75
669.246	77.75
669.449	100.75
669.651	82.75
669.854	89.75
670.057	81.75
670.259	79.75
670.462	78.75
670.665	86.75
670.867	96.75
671.07	94.75
671.272	94.75
671.475	93.75
671.677	74.75
671.88	78.75
672.082	72.75
672.284	98.75
672.487	85.75
672.689	97.75
672.892	74.75
