Data from NiCl2@0.125M.TitratingCurve.Agarose3%dH2O.NegLispCup.LampEnergy10.LIBS07252019_HRD10591_18-28-20-574.txt Node
Date: Thu Jul 25 18:28:20 EDT 2019
User: cochatt
Spectrometer: HR+D1059
Trigger mode: 1
Integration Time (sec): 1.000000E-1
Scans to average: 1
Electric dark correction enabled: true
Nonlinearity correction enabled: false
Boxcar width: 0
XAxis mode: Wavelengths
Number of Pixels in Spectrum: 2048
>>>>>Begin Spectral Data<<<<<
223.165	-17.69
223.4	-17.69
223.635	-17.69
223.869	-18.69
224.104	-11.69
224.338	-6.69
224.573	-17.69
224.808	-11.69
225.042	-9.69
225.277	-11.69
225.511	0.31
225.746	7.31
225.98	14.31
226.215	11.31
226.449	5.31
226.683	23.31
226.918	21.31
227.152	22.31
227.387	26.31
227.621	47.31
227.856	32.31
228.09	55.31
228.324	59.31
228.559	57.31
228.793	94.31
229.027	123.31
229.262	120.31
229.496	114.31
229.73	124.31
229.964	123.31
230.199	134.31
230.433	153.31
230.667	150.31
230.901	140.31
231.136	155.31
231.37	143.31
231.604	130.31
231.838	140.31
232.072	144.31
232.306	165.31
232.541	162.31
232.775	164.31
233.009	160.31
233.243	165.31
233.477	154.31
233.711	162.31
233.945	156.31
234.179	153.31
234.413	168.31
234.647	159.31
234.881	160.31
235.115	171.31
235.349	158.31
235.583	142.31
235.817	169.31
236.051	154.31
236.285	167.31
236.519	163.31
236.753	165.31
236.987	164.31
237.221	170.31
237.455	159.31
237.689	180.31
237.922	178.31
238.156	182.31
238.39	173.31
238.624	182.31
238.858	168.31
239.091	177.31
239.325	184.31
239.559	193.31
239.793	182.31
240.027	185.31
240.26	184.31
240.494	197.31
240.728	204.31
240.961	198.31
241.195	203.31
241.429	194.31
241.662	204.31
241.896	205.31
242.13	202.31
242.363	196.31
242.597	204.31
242.83	201.31
243.064	212.31
243.298	231.31
243.531	230.31
243.765	232.31
243.998	223.31
244.232	218.31
244.465	220.31
244.699	224.31
244.932	213.31
245.166	223.31
245.399	240.31
245.633	249.31
245.866	234.31
246.099	229.31
246.333	253.31
246.566	242.31
246.8	234.31
247.033	246.31
247.266	254.31
247.5	253.31
247.733	238.31
247.966	272.31
248.2	255.31
248.433	269.31
248.666	263.31
248.899	256.31
249.133	257.31
249.366	262.31
249.599	248.31
249.832	273.31
250.066	265.31
250.299	266.31
250.532	258.31
250.765	258.31
250.998	306.31
251.231	269.31
251.465	296.31
251.698	287.31
251.931	276.31
252.164	286.31
252.397	291.31
252.63	268.31
252.863	310.31
253.096	287.31
253.329	295.31
253.562	303.31
253.795	312.31
254.028	282.31
254.261	302.31
254.494	299.31
254.727	297.31
254.96	287.31
255.193	307.31
255.426	316.31
255.659	318.31
255.892	313.31
256.124	317.31
256.357	323.31
256.59	313.31
256.823	317.31
257.056	317.31
257.289	339.31
257.521	335.31
257.754	331.31
257.987	320.31
258.22	318.31
258.452	328.31
258.685	327.31
258.918	336.31
259.151	311.31
259.383	327.31
259.616	335.31
259.849	331.31
260.081	342.31
260.314	333.31
260.547	347.31
260.779	322.31
261.012	351.31
261.244	335.31
261.477	335.31
261.71	345.31
261.942	363.31
262.175	363.31
262.407	336.31
262.64	360.31
262.872	355.31
263.105	363.31
263.337	365.31
263.57	361.31
263.802	363.31
264.035	353.31
264.267	372.31
264.499	347.31
264.732	380.31
264.964	370.31
265.197	387.31
265.429	386.31
265.661	385.31
265.894	385.31
266.126	377.31
266.358	390.31
266.591	372.31
266.823	391.31
267.055	394.31
267.287	396.31
267.52	396.31
267.752	382.31
267.984	379.31
268.216	393.31
268.448	395.31
268.681	403.31
268.913	388.31
269.145	380.31
269.377	399.31
269.609	414.31
269.841	399.31
270.073	404.31
270.306	409.31
270.538	421.31
270.77	407.31
271.002	403.31
271.234	392.31
271.466	416.31
271.698	405.31
271.93	405.31
272.162	401.31
272.394	410.31
272.626	402.31
272.858	410.31
273.09	423.31
273.322	440.31
273.553	429.31
273.785	434.31
274.017	438.31
274.249	433.31
274.481	445.31
274.713	454.31
274.945	463.31
275.176	445.31
275.408	417.31
275.64	427.31
275.872	448.31
276.104	436.31
276.335	439.31
276.567	433.31
276.799	454.31
277.031	446.31
277.262	460.31
277.494	460.31
277.726	468.31
277.957	471.31
278.189	467.31
278.421	464.31
278.652	459.31
278.884	471.31
279.115	457.31
279.347	472.31
279.579	485.31
279.81	488.31
280.042	473.31
280.273	489.31
280.505	490.31
280.736	487.31
280.968	468.31
281.199	475.31
281.431	490.31
281.662	516.31
281.894	521.31
282.125	492.31
282.356	473.31
282.588	500.31
282.819	496.31
283.051	491.31
283.282	521.31
283.513	523.31
283.745	499.31
283.976	505.31
284.207	536.31
284.439	516.31
284.67	535.31
284.901	546.31
285.132	526.31
285.364	542.31
285.595	524.31
285.826	535.31
286.057	533.31
286.288	524.31
286.52	544.31
286.751	547.31
286.982	556.31
287.213	554.31
287.444	551.31
287.675	528.31
287.906	534.31
288.138	566.31
288.369	547.31
288.6	556.31
288.831	543.31
289.062	551.31
289.293	539.31
289.524	551.31
289.755	573.31
289.986	579.31
290.217	557.31
290.448	556.31
290.679	587.31
290.91	558.31
291.141	565.31
291.371	570.31
291.602	573.31
291.833	554.31
292.064	583.31
292.295	578.31
292.526	575.31
292.757	555.31
292.987	570.31
293.218	543.31
293.449	582.31
293.68	578.31
293.91	571.31
294.141	559.31
294.372	579.31
294.603	580.31
294.833	565.31
295.064	589.31
295.295	579.31
295.525	556.31
295.756	571.31
295.987	574.31
296.217	573.31
296.448	601.31
296.679	592.31
296.909	588.31
297.14	590.31
297.37	627.31
297.601	592.31
297.831	574.31
298.062	596.31
298.292	635.31
298.523	636.31
298.753	641.31
298.984	647.31
299.214	622.31
299.445	602.31
299.675	617.31
299.905	619.31
300.136	636.31
300.366	631.31
300.597	636.31
300.827	635.31
301.057	634.31
301.288	637.31
301.518	650.31
301.748	670.31
301.979	672.31
302.209	669.31
302.439	657.31
302.669	665.31
302.9	678.31
303.13	618.31
303.36	668.31
303.59	634.31
303.82	644.31
304.051	657.31
304.281	652.31
304.511	633.31
304.741	636.31
304.971	637.31
305.201	649.31
305.431	630.31
305.661	635.31
305.891	649.31
306.121	622.31
306.352	598.31
306.582	626.31
306.812	606.31
307.042	633.31
307.272	622.31
307.502	622.31
307.731	629.31
307.961	604.31
308.191	629.31
308.421	614.31
308.651	625.31
308.881	623.31
309.111	639.31
309.341	644.31
309.571	644.31
309.8	639.31
310.03	609.31
310.26	632.31
310.49	621.31
310.72	631.31
310.949	632.31
311.179	598.31
311.409	654.31
311.639	644.31
311.868	662.31
312.098	637.31
312.328	664.31
312.557	662.31
312.787	667.31
313.017	652.31
313.246	646.31
313.476	677.31
313.706	650.31
313.935	662.31
314.165	653.31
314.394	690.31
314.624	686.31
314.853	652.31
315.083	667.31
315.312	668.31
315.542	669.31
315.771	659.31
316.001	640.31
316.23	662.31
316.46	671.31
316.689	666.31
316.919	666.31
317.148	645.31
317.377	680.31
317.607	662.31
317.836	663.31
318.065	668.31
318.295	674.31
318.524	684.31
318.753	646.31
318.983	669.31
319.212	647.31
319.441	661.31
319.67	651.31
319.9	643.31
320.129	678.31
320.358	671.31
320.587	664.31
320.816	645.31
321.046	668.31
321.275	644.31
321.504	666.31
321.733	655.31
321.962	674.31
322.191	656.31
322.42	680.31
322.649	653.31
322.878	660.31
323.108	647.31
323.337	664.31
323.566	692.31
323.795	672.31
324.024	664.31
324.253	691.31
324.482	667.31
324.71	696.31
324.939	681.31
325.168	666.31
325.397	670.31
325.626	685.31
325.855	680.31
326.084	711.31
326.313	735.31
326.542	724.31
326.77	754.31
326.999	734.31
327.228	713.31
327.457	712.31
327.686	718.31
327.914	719.31
328.143	726.31
328.372	755.31
328.6	736.31
328.829	723.31
329.058	740.31
329.287	738.31
329.515	714.31
329.744	735.31
329.972	740.31
330.201	735.31
330.43	730.31
330.658	755.31
330.887	725.31
331.115	774.31
331.344	747.31
331.572	760.31
331.801	774.31
332.03	787.31
332.258	808.31
332.486	839.31
332.715	862.31
332.943	888.31
333.172	934.31
333.4	990.31
333.629	1016.31
333.857	986.31
334.085	985.31
334.314	981.31
334.542	971.31
334.771	924.31
334.999	930.31
335.227	907.31
335.455	884.31
335.684	886.31
335.912	889.31
336.14	900.31
336.369	896.31
336.597	890.31
336.825	866.31
337.053	863.31
337.281	866.31
337.51	826.31
337.738	823.31
337.966	803.31
338.194	808.31
338.422	787.31
338.65	768.31
338.878	772.31
339.106	818.31
339.334	787.31
339.562	765.31
339.79	760.31
340.018	744.31
340.246	754.31
340.474	754.31
340.702	766.31
340.93	743.31
341.158	759.31
341.386	767.31
341.614	763.31
341.842	743.31
342.07	773.31
342.298	759.31
342.526	739.31
342.754	747.31
342.981	745.31
343.209	768.31
343.437	805.31
343.665	863.31
343.893	912.31
344.12	946.31
344.348	910.31
344.576	864.31
344.804	822.31
345.031	806.31
345.259	785.31
345.487	766.31
345.714	783.31
345.942	736.31
346.17	766.31
346.397	747.31
346.625	722.31
346.853	722.31
347.08	724.31
347.308	754.31
347.535	749.31
347.763	741.31
347.99	741.31
348.218	743.31
348.445	717.31
348.673	730.31
348.9	715.31
349.128	704.31
349.355	730.31
349.583	694.31
349.81	706.31
350.037	727.31
350.265	703.31
350.492	685.31
350.72	722.31
350.947	679.31
351.174	725.31
351.402	688.31
351.629	703.31
351.856	680.31
352.083	733.31
352.311	699.31
352.538	695.31
352.765	691.31
352.992	699.31
353.22	704.31
353.447	693.31
353.674	714.31
353.901	692.31
354.128	689.31
354.355	699.31
354.583	699.31
354.81	705.31
355.037	704.31
355.264	706.31
355.491	723.31
355.718	697.31
355.945	696.31
356.172	706.31
356.399	703.31
356.626	718.31
356.853	715.31
357.08	696.31
357.307	716.31
357.534	717.31
357.761	716.31
357.988	719.31
358.215	723.31
358.441	717.31
358.668	708.31
358.895	703.31
359.122	701.31
359.349	723.31
359.576	703.31
359.802	691.31
360.029	700.31
360.256	700.31
360.483	721.31
360.709	696.31
360.936	740.31
361.163	675.31
361.39	700.31
361.616	694.31
361.843	702.31
362.07	696.31
362.296	712.31
362.523	709.31
362.749	711.31
362.976	692.31
363.203	695.31
363.429	696.31
363.656	699.31
363.882	701.31
364.109	711.31
364.335	696.31
364.562	700.31
364.788	706.31
365.015	701.31
365.241	691.31
365.468	682.31
365.694	700.31
365.92	680.31
366.147	694.31
366.373	709.31
366.599	719.31
366.826	688.31
367.052	684.31
367.278	678.31
367.505	701.31
367.731	694.31
367.957	715.31
368.184	694.31
368.41	732.31
368.636	720.31
368.862	710.31
369.089	714.31
369.315	702.31
369.541	714.31
369.767	729.31
369.993	714.31
370.219	748.31
370.445	745.31
370.672	726.31
370.898	739.31
371.124	742.31
371.35	754.31
371.576	762.31
371.802	781.31
372.028	761.31
372.254	760.31
372.48	780.31
372.706	791.31
372.932	809.31
373.158	808.31
373.384	793.31
373.61	762.31
373.835	770.31
374.061	759.31
374.287	787.31
374.513	804.31
374.739	810.31
374.965	811.31
375.191	843.31
375.416	843.31
375.642	836.31
375.868	790.31
376.094	804.31
376.319	798.31
376.545	786.31
376.771	759.31
376.997	766.31
377.222	779.31
377.448	790.31
377.674	756.31
377.899	763.31
378.125	751.31
378.35	770.31
378.576	780.31
378.802	752.31
379.027	770.31
379.253	770.31
379.478	747.31
379.704	763.31
379.929	762.31
380.155	744.31
380.38	735.31
380.606	756.31
380.831	749.31
381.057	756.31
381.282	732.31
381.507	755.31
381.733	777.31
381.958	772.31
382.184	779.31
382.409	766.31
382.634	780.31
382.86	822.31
383.085	828.31
383.31	843.31
383.535	844.31
383.761	852.31
383.986	856.31
384.211	918.31
384.436	906.31
384.662	914.31
384.887	922.31
385.112	916.31
385.337	923.31
385.562	945.31
385.787	941.31
386.013	946.31
386.238	942.31
386.463	932.31
386.688	940.31
386.913	954.31
387.138	929.31
387.363	933.31
387.588	910.31
387.813	927.31
388.038	892.31
388.263	907.31
388.488	917.31
388.713	924.31
388.938	916.31
389.163	888.31
389.387	890.31
389.612	879.31
389.837	877.31
390.062	892.31
390.287	906.31
390.512	898.31
390.736	874.31
390.961	950.31
391.186	964.31
391.411	972.31
391.636	991.31
391.86	1041.31
392.085	1065.31
392.31	1061.31
392.534	1033.31
392.759	1010.31
392.984	999.31
393.208	953.31
393.433	982.31
393.658	972.31
393.882	957.31
394.107	996.31
394.331	990.31
394.556	1006.31
394.78	1011.31
395.005	1008.31
395.229	1024.31
395.454	1015.31
395.678	1057.31
395.903	1038.31
396.127	1027.31
396.352	993.31
396.576	1007.31
396.801	952.31
397.025	979.31
397.249	1007.31
397.474	1042.31
397.698	1034.31
397.922	1062.31
398.147	1035.31
398.371	1058.31
398.595	1092.31
398.82	1147.31
399.044	1249.31
399.268	1402.31
399.492	1607.31
399.717	1842.31
399.941	1837.31
400.165	1661.31
400.389	1475.31
400.613	1320.31
400.837	1255.31
401.062	1222.31
401.286	1184.31
401.51	1160.31
401.734	1172.31
401.958	1209.31
402.182	1161.31
402.406	1235.31
402.63	1231.31
402.854	1252.31
403.078	1279.31
403.302	1273.31
403.526	1335.31
403.75	1383.31
403.974	1409.31
404.198	1388.31
404.422	1398.31
404.645	1356.31
404.869	1362.31
405.093	1357.31
405.317	1334.31
405.541	1307.31
405.765	1279.31
405.988	1275.31
406.212	1284.31
406.436	1295.31
406.66	1310.31
406.883	1289.31
407.107	1417.31
407.331	1506.31
407.555	1537.31
407.778	1539.31
408.002	1498.31
408.226	1422.31
408.449	1426.31
408.673	1377.31
408.896	1338.31
409.12	1322.31
409.344	1301.31
409.567	1298.31
409.791	1336.31
410.014	1354.31
410.238	1315.31
410.461	1316.31
410.685	1302.31
410.908	1254.31
411.132	1261.31
411.355	1208.31
411.578	1243.31
411.802	1223.31
412.025	1203.31
412.249	1263.31
412.472	1253.31
412.695	1188.31
412.919	1161.31
413.142	1190.31
413.365	1176.31
413.589	1178.31
413.812	1160.31
414.035	1149.31
414.258	1177.31
414.482	1171.31
414.705	1203.31
414.928	1194.31
415.151	1166.31
415.374	1144.31
415.597	1148.31
415.821	1152.31
416.044	1162.31
416.267	1132.31
416.49	1150.31
416.713	1151.31
416.936	1139.31
417.159	1151.31
417.382	1131.31
417.605	1161.31
417.828	1144.31
418.051	1158.31
418.274	1180.31
418.497	1148.31
418.72	1202.31
418.943	1188.31
419.166	1276.31
419.389	1371.31
419.611	1363.31
419.834	1294.31
420.057	1229.31
420.28	1176.31
420.503	1150.31
420.726	1131.31
420.948	1140.31
421.171	1150.31
421.394	1154.31
421.617	1147.31
421.839	1189.31
422.062	1167.31
422.285	1152.31
422.507	1191.31
422.73	1178.31
422.953	1197.31
423.175	1227.31
423.398	1225.31
423.621	1227.31
423.843	1258.31
424.066	1280.31
424.288	1244.31
424.511	1261.31
424.733	1255.31
424.956	1203.31
425.178	1194.31
425.401	1154.31
425.623	1183.31
425.846	1156.31
426.068	1148.31
426.291	1112.31
426.513	1076.31
426.735	1110.31
426.958	1111.31
427.18	1069.31
427.402	1055.31
427.625	1092.31
427.847	1033.31
428.069	1045.31
428.292	1032.31
428.514	1039.31
428.736	1053.31
428.958	1056.31
429.181	1012.31
429.403	1010.31
429.625	1034.31
429.847	990.31
430.069	966.31
430.292	1023.31
430.514	1019.31
430.736	1026.31
430.958	990.31
431.18	996.31
431.402	1007.31
431.624	1018.31
431.846	1014.31
432.068	1062.31
432.29	1041.31
432.512	1001.31
432.734	1030.31
432.956	1016.31
433.178	1027.31
433.4	1045.31
433.622	1091.31
433.844	1067.31
434.066	1038.31
434.287	1043.31
434.509	1109.31
434.731	1129.31
434.953	1182.31
435.175	1172.31
435.397	1149.31
435.618	1114.31
435.84	1056.31
436.062	1042.31
436.284	1015.31
436.505	1029.31
436.727	1058.31
436.949	1046.31
437.17	1026.31
437.392	1024.31
437.614	1007.31
437.835	983.31
438.057	974.31
438.278	989.31
438.5	991.31
438.721	1002.31
438.943	1012.31
439.165	984.31
439.386	1019.31
439.608	1029.31
439.829	1037.31
440.05	1076.31
440.272	1059.31
440.493	1054.31
440.715	1070.31
440.936	1079.31
441.158	1066.31
441.379	1116.31
441.6	1184.31
441.822	1208.31
442.043	1220.31
442.264	1174.31
442.486	1054.31
442.707	1142.31
442.928	1142.31
443.149	1115.31
443.371	1147.31
443.592	1173.31
443.813	1181.31
444.034	1207.31
444.255	1210.31
444.476	1302.31
444.698	1379.31
444.919	1418.31
445.14	1550.31
445.361	1382.31
445.582	1252.31
445.803	1142.31
446.024	1137.31
446.245	1089.31
446.466	1104.31
446.687	1078.31
446.908	1050.31
447.129	1049.31
447.35	1016.31
447.571	1023.31
447.792	979.31
448.013	1014.31
448.234	983.31
448.455	988.31
448.675	957.31
448.896	981.31
449.117	961.31
449.338	935.31
449.559	925.31
449.779	939.31
450	949.31
450.221	945.31
450.442	973.31
450.662	983.31
450.883	988.31
451.104	1005.31
451.324	996.31
451.545	1010.31
451.766	1003.31
451.986	979.31
452.207	949.31
452.428	966.31
452.648	965.31
452.869	928.31
453.089	918.31
453.31	973.31
453.53	935.31
453.751	934.31
453.971	905.31
454.192	918.31
454.412	902.31
454.633	923.31
454.853	927.31
455.073	920.31
455.294	908.31
455.514	900.31
455.734	911.31
455.955	886.31
456.175	878.31
456.395	873.31
456.616	902.31
456.836	890.31
457.056	878.31
457.276	867.31
457.497	896.31
457.717	898.31
457.937	908.31
458.157	908.31
458.377	928.31
458.598	934.31
458.818	966.31
459.038	996.31
459.258	1028.31
459.478	1069.31
459.698	1089.31
459.918	1131.31
460.138	1159.31
460.358	1258.31
460.578	1267.31
460.798	1248.31
461.018	1298.31
461.238	1256.31
461.458	1237.31
461.678	1276.31
461.898	1235.31
462.118	1243.31
462.338	1342.31
462.558	1353.31
462.777	1436.31
462.997	1556.31
463.217	1685.31
463.437	1691.31
463.657	1579.31
463.876	1482.31
464.096	1487.31
464.316	1472.31
464.536	1496.31
464.755	1442.31
464.975	1385.31
465.195	1287.31
465.414	1222.31
465.634	1124.31
465.854	1102.31
466.073	1084.31
466.293	1051.31
466.512	1035.31
466.732	1018.31
466.951	1022.31
467.171	1036.31
467.391	1035.31
467.61	1021.31
467.829	1012.31
468.049	1015.31
468.268	973.31
468.488	935.31
468.707	952.31
468.927	968.31
469.146	955.31
469.365	982.31
469.585	978.31
469.804	1006.31
470.023	1008.31
470.243	1039.31
470.462	1034.31
470.681	1030.31
470.901	1050.31
471.12	1028.31
471.339	1001.31
471.558	995.31
471.777	982.31
471.997	977.31
472.216	948.31
472.435	941.31
472.654	982.31
472.873	936.31
473.092	932.31
473.311	915.31
473.53	945.31
473.749	916.31
473.968	885.31
474.187	918.31
474.406	906.31
474.625	923.31
474.844	940.31
475.063	940.31
475.282	928.31
475.501	953.31
475.72	947.31
475.939	959.31
476.158	942.31
476.377	978.31
476.596	956.31
476.814	972.31
477.033	990.31
477.252	1004.31
477.471	1032.31
477.69	1074.31
477.908	1091.31
478.127	1142.31
478.346	1093.31
478.564	1124.31
478.783	1144.31
479.002	1165.31
479.22	1191.31
479.439	1162.31
479.658	1172.31
479.876	1161.31
480.095	1173.31
480.313	1258.31
480.532	1278.31
480.751	1268.31
480.969	1220.31
481.188	1152.31
481.406	1153.31
481.624	1108.31
481.843	1077.31
482.061	1075.31
482.28	1116.31
482.498	1041.31
482.717	1045.31
482.935	1070.31
483.153	1079.31
483.372	1058.31
483.59	1037.31
483.808	1067.31
484.027	1076.31
484.245	1062.31
484.463	1085.31
484.681	1090.31
484.9	1100.31
485.118	1095.31
485.336	1124.31
485.554	1099.31
485.772	1122.31
485.99	1142.31
486.209	1171.31
486.427	1163.31
486.645	1130.31
486.863	1158.31
487.081	1119.31
487.299	1154.31
487.517	1137.31
487.735	1125.31
487.953	1127.31
488.171	1117.31
488.389	1123.31
488.607	1106.31
488.825	1111.31
489.043	1113.31
489.261	1083.31
489.479	1104.31
489.696	1088.31
489.914	1104.31
490.132	1115.31
490.35	1151.31
490.568	1122.31
490.786	1148.31
491.003	1116.31
491.221	1120.31
491.439	1123.31
491.657	1136.31
491.874	1131.31
492.092	1159.31
492.31	1138.31
492.527	1140.31
492.745	1141.31
492.963	1160.31
493.18	1152.31
493.398	1166.31
493.615	1173.31
493.833	1184.31
494.05	1170.31
494.268	1187.31
494.485	1164.31
494.703	1171.31
494.92	1205.31
495.138	1168.31
495.355	1187.31
495.573	1193.31
495.79	1192.31
496.008	1224.31
496.225	1207.31
496.442	1189.31
496.66	1236.31
496.877	1229.31
497.094	1260.31
497.312	1306.31
497.529	1300.31
497.746	1353.31
497.963	1397.31
498.181	1462.31
498.398	1503.31
498.615	1609.31
498.832	1683.31
499.049	1833.31
499.267	1994.31
499.484	2228.31
499.701	2483.31
499.918	2736.31
500.135	3112.31
500.352	3567.31
500.569	3844.31
500.786	3762.31
501.003	3551.31
501.22	3116.31
501.437	2712.31
501.654	2385.31
501.871	2144.31
502.088	1985.31
502.305	1834.31
502.522	1752.31
502.739	1671.31
502.956	1579.31
503.172	1511.31
503.389	1405.31
503.606	1401.31
503.823	1382.31
504.04	1378.31
504.256	1367.31
504.473	1383.31
504.69	1456.31
504.907	1410.31
505.123	1325.31
505.34	1246.31
505.557	1178.31
505.773	1163.31
505.99	1151.31
506.207	1108.31
506.423	1111.31
506.64	1090.31
506.856	1106.31
507.073	1046.31
507.289	1024.31
507.506	1045.31
507.722	1058.31
507.939	1040.31
508.155	1036.31
508.372	1035.31
508.588	951.31
508.805	1012.31
509.021	979.31
509.238	982.31
509.454	982.31
509.67	977.31
509.887	964.31
510.103	973.31
510.319	959.31
510.536	976.31
510.752	964.31
510.968	986.31
511.184	963.31
511.401	943.31
511.617	967.31
511.833	946.31
512.049	969.31
512.265	952.31
512.481	966.31
512.698	936.31
512.914	957.31
513.13	954.31
513.346	935.31
513.562	960.31
513.778	959.31
513.994	962.31
514.21	953.31
514.426	987.31
514.642	966.31
514.858	964.31
515.074	988.31
515.29	971.31
515.506	985.31
515.721	1010.31
515.937	1053.31
516.153	1048.31
516.369	1069.31
516.585	1096.31
516.801	1127.31
517.016	1209.31
517.232	1238.31
517.448	1323.31
517.664	1362.31
517.879	1330.31
518.095	1372.31
518.311	1340.31
518.527	1231.31
518.742	1222.31
518.958	1152.31
519.173	1140.31
519.389	1107.31
519.605	1061.31
519.82	1026.31
520.036	1017.31
520.251	974.31
520.467	990.31
520.682	967.31
520.898	954.31
521.113	938.31
521.329	962.31
521.544	920.31
521.76	960.31
521.975	931.31
522.19	910.31
522.406	920.31
522.621	916.31
522.836	922.31
523.052	897.31
523.267	900.31
523.482	886.31
523.698	880.31
523.913	872.31
524.128	878.31
524.343	899.31
524.559	904.31
524.774	888.31
524.989	883.31
525.204	882.31
525.419	875.31
525.634	874.31
525.849	865.31
526.064	878.31
526.28	845.31
526.495	847.31
526.71	874.31
526.925	859.31
527.14	840.31
527.355	865.31
527.57	820.31
527.785	899.31
527.999	873.31
528.214	906.31
528.429	866.31
528.644	878.31
528.859	866.31
529.074	860.31
529.289	873.31
529.503	879.31
529.718	860.31
529.933	863.31
530.148	884.31
530.363	866.31
530.577	856.31
530.792	847.31
531.007	854.31
531.221	880.31
531.436	866.31
531.651	879.31
531.865	840.31
532.08	846.31
532.295	855.31
532.509	880.31
532.724	879.31
532.938	894.31
533.153	864.31
533.367	865.31
533.582	861.31
533.796	862.31
534.011	891.31
534.225	874.31
534.44	840.31
534.654	864.31
534.868	846.31
535.083	875.31
535.297	849.31
535.511	847.31
535.726	845.31
535.94	845.31
536.154	817.31
536.369	839.31
536.583	843.31
536.797	808.31
537.011	819.31
537.225	777.31
537.44	779.31
537.654	803.31
537.868	803.31
538.082	784.31
538.296	804.31
538.51	781.31
538.724	800.31
538.938	776.31
539.153	812.31
539.367	811.31
539.581	795.31
539.795	790.31
540.009	777.31
540.222	797.31
540.436	815.31
540.65	799.31
540.864	796.31
541.078	792.31
541.292	797.31
541.506	763.31
541.72	759.31
541.934	748.31
542.147	778.31
542.361	769.31
542.575	768.31
542.789	779.31
543.002	792.31
543.216	772.31
543.43	734.31
543.644	764.31
543.857	772.31
544.071	762.31
544.285	795.31
544.498	784.31
544.712	796.31
544.925	814.31
545.139	792.31
545.352	808.31
545.566	785.31
545.779	792.31
545.993	800.31
546.206	822.31
546.42	814.31
546.633	773.31
546.847	815.31
547.06	796.31
547.274	797.31
547.487	790.31
547.7	794.31
547.914	804.31
548.127	850.31
548.34	830.31
548.554	801.31
548.767	794.31
548.98	829.31
549.193	808.31
549.407	804.31
549.62	815.31
549.833	830.31
550.046	823.31
550.259	818.31
550.473	788.31
550.686	788.31
550.899	783.31
551.112	790.31
551.325	791.31
551.538	797.31
551.751	786.31
551.964	799.31
552.177	829.31
552.39	807.31
552.603	861.31
552.816	852.31
553.029	885.31
553.242	866.31
553.455	892.31
553.667	905.31
553.88	860.31
554.093	851.31
554.306	841.31
554.519	796.31
554.732	834.31
554.944	792.31
555.157	769.31
555.37	780.31
555.583	778.31
555.795	750.31
556.008	741.31
556.221	714.31
556.433	710.31
556.646	723.31
556.859	712.31
557.071	700.31
557.284	692.31
557.496	700.31
557.709	715.31
557.921	678.31
558.134	679.31
558.346	666.31
558.559	668.31
558.771	652.31
558.984	676.31
559.196	679.31
559.409	663.31
559.621	667.31
559.833	652.31
560.046	664.31
560.258	647.31
560.47	668.31
560.683	659.31
560.895	673.31
561.107	654.31
561.32	668.31
561.532	632.31
561.744	658.31
561.956	682.31
562.168	633.31
562.381	652.31
562.593	659.31
562.805	674.31
563.017	644.31
563.229	661.31
563.441	682.31
563.653	675.31
563.865	692.31
564.077	683.31
564.289	698.31
564.501	704.31
564.713	715.31
564.925	715.31
565.137	717.31
565.349	738.31
565.561	770.31
565.773	792.31
565.985	815.31
566.197	894.31
566.408	934.31
566.62	1028.31
566.832	1092.31
567.044	1126.31
567.255	1106.31
567.467	1126.31
567.679	1233.31
567.891	1339.31
568.102	1334.31
568.314	1314.31
568.526	1170.31
568.737	1032.31
568.949	963.31
569.161	855.31
569.372	782.31
569.584	758.31
569.795	729.31
570.007	716.31
570.218	700.31
570.43	699.31
570.641	686.31
570.853	695.31
571.064	686.31
571.276	707.31
571.487	693.31
571.698	639.31
571.91	640.31
572.121	602.31
572.333	600.31
572.544	607.31
572.755	602.31
572.966	577.31
573.178	574.31
573.389	572.31
573.6	573.31
573.811	552.31
574.023	553.31
574.234	552.31
574.445	557.31
574.656	556.31
574.867	544.31
575.078	550.31
575.289	556.31
575.501	563.31
575.712	543.31
575.923	524.31
576.134	540.31
576.345	523.31
576.556	549.31
576.767	519.31
576.978	519.31
577.188	519.31
577.399	565.31
577.61	533.31
577.821	520.31
578.032	511.31
578.243	501.31
578.454	498.31
578.665	483.31
578.875	481.31
579.086	461.31
579.297	508.31
579.508	504.31
579.718	469.31
579.929	485.31
580.14	475.31
580.35	483.31
580.561	498.31
580.772	459.31
580.982	484.31
581.193	469.31
581.403	489.31
581.614	483.31
581.825	448.31
582.035	469.31
582.246	462.31
582.456	456.31
582.667	461.31
582.877	459.31
583.087	468.31
583.298	472.31
583.508	464.31
583.719	461.31
583.929	455.31
584.139	453.31
584.35	467.31
584.56	459.31
584.77	430.31
584.981	455.31
585.191	462.31
585.401	459.31
585.611	431.31
585.821	444.31
586.032	434.31
586.242	429.31
586.452	455.31
586.662	444.31
586.872	445.31
587.082	447.31
587.292	436.31
587.502	449.31
587.713	441.31
587.923	450.31
588.133	436.31
588.343	442.31
588.553	436.31
588.762	447.31
588.972	435.31
589.182	447.31
589.392	450.31
589.602	408.31
589.812	444.31
590.022	456.31
590.232	454.31
590.441	455.31
590.651	449.31
590.861	435.31
591.071	479.31
591.281	476.31
591.49	461.31
591.7	480.31
591.91	462.31
592.119	463.31
592.329	490.31
592.539	499.31
592.748	498.31
592.958	554.31
593.167	568.31
593.377	570.31
593.587	582.31
593.796	581.31
594.006	572.31
594.215	570.31
594.424	582.31
594.634	579.31
594.843	542.31
595.053	537.31
595.262	498.31
595.472	490.31
595.681	462.31
595.89	464.31
596.1	457.31
596.309	424.31
596.518	446.31
596.727	429.31
596.937	414.31
597.146	429.31
597.355	421.31
597.564	391.31
597.774	411.31
597.983	394.31
598.192	393.31
598.401	371.31
598.61	401.31
598.819	404.31
599.028	391.31
599.237	404.31
599.446	390.31
599.655	379.31
599.864	394.31
600.073	376.31
600.282	382.31
600.491	388.31
600.7	394.31
600.909	377.31
601.118	375.31
601.327	358.31
601.536	376.31
601.745	354.31
601.953	379.31
602.162	397.31
602.371	357.31
602.58	372.31
602.789	382.31
602.997	358.31
603.206	356.31
603.415	359.31
603.623	358.31
603.832	351.31
604.041	360.31
604.249	361.31
604.458	346.31
604.666	341.31
604.875	335.31
605.084	360.31
605.292	352.31
605.501	365.31
605.709	362.31
605.918	349.31
606.126	344.31
606.334	340.31
606.543	364.31
606.751	350.31
606.96	345.31
607.168	345.31
607.376	342.31
607.585	341.31
607.793	336.31
608.001	342.31
608.21	328.31
608.418	341.31
608.626	343.31
608.834	344.31
609.043	337.31
609.251	321.31
609.459	337.31
609.667	345.31
609.875	327.31
610.083	332.31
610.291	322.31
610.499	335.31
610.707	329.31
610.916	349.31
611.124	336.31
611.332	322.31
611.54	334.31
611.748	335.31
611.955	332.31
612.163	339.31
612.371	319.31
612.579	331.31
612.787	315.31
612.995	323.31
613.203	343.31
613.411	321.31
613.618	322.31
613.826	324.31
614.034	351.31
614.242	333.31
614.449	337.31
614.657	327.31
614.865	324.31
615.072	334.31
615.28	320.31
615.488	333.31
615.695	339.31
615.903	327.31
616.111	328.31
616.318	337.31
616.526	310.31
616.733	335.31
616.941	317.31
617.148	327.31
617.356	344.31
617.563	325.31
617.771	326.31
617.978	318.31
618.185	327.31
618.393	327.31
618.6	331.31
618.807	302.31
619.015	296.31
619.222	316.31
619.429	308.31
619.637	319.31
619.844	320.31
620.051	287.31
620.258	303.31
620.466	301.31
620.673	299.31
620.88	285.31
621.087	312.31
621.294	303.31
621.501	314.31
621.708	299.31
621.915	292.31
622.122	302.31
622.329	290.31
622.536	296.31
622.743	300.31
622.95	300.31
623.157	285.31
623.364	303.31
623.571	291.31
623.778	299.31
623.985	312.31
624.192	296.31
624.399	294.31
624.606	298.31
624.812	266.31
625.019	283.31
625.226	283.31
625.433	293.31
625.639	281.31
625.846	298.31
626.053	286.31
626.259	276.31
626.466	279.31
626.673	277.31
626.879	272.31
627.086	281.31
627.293	281.31
627.499	272.31
627.706	280.31
627.912	288.31
628.119	275.31
628.325	284.31
628.532	267.31
628.738	272.31
628.945	259.31
629.151	274.31
629.357	269.31
629.564	246.31
629.77	270.31
629.976	284.31
630.183	279.31
630.389	250.31
630.595	246.31
630.802	258.31
631.008	250.31
631.214	265.31
631.42	273.31
631.627	247.31
631.833	263.31
632.039	230.31
632.245	243.31
632.451	235.31
632.657	231.31
632.863	245.31
633.069	264.31
633.275	260.31
633.481	235.31
633.688	238.31
633.893	223.31
634.099	231.31
634.305	218.31
634.511	235.31
634.717	245.31
634.923	229.31
635.129	239.31
635.335	246.31
635.541	254.31
635.747	254.31
635.952	235.31
636.158	220.31
636.364	229.31
636.57	246.31
636.775	229.31
636.981	235.31
637.187	235.31
637.392	231.31
637.598	221.31
637.804	224.31
638.009	235.31
638.215	240.31
638.421	222.31
638.626	237.31
638.832	226.31
639.037	214.31
639.243	216.31
639.448	227.31
639.654	233.31
639.859	211.31
640.065	221.31
640.27	223.31
640.475	223.31
640.681	226.31
640.886	251.31
641.091	232.31
641.297	219.31
641.502	221.31
641.707	216.31
641.913	215.31
642.118	220.31
642.323	211.31
642.528	224.31
642.733	213.31
642.939	201.31
643.144	212.31
643.349	211.31
643.554	229.31
643.759	222.31
643.964	220.31
644.169	206.31
644.374	207.31
644.579	218.31
644.784	207.31
644.989	210.31
645.194	217.31
645.399	214.31
645.604	220.31
645.809	226.31
646.014	235.31
646.219	220.31
646.423	208.31
646.628	210.31
646.833	221.31
647.038	226.31
647.243	224.31
647.447	218.31
647.652	224.31
647.857	226.31
648.062	252.31
648.266	219.31
648.471	226.31
648.676	226.31
648.88	218.31
649.085	211.31
649.289	222.31
649.494	222.31
649.698	215.31
649.903	205.31
650.107	203.31
650.312	211.31
650.516	211.31
650.721	189.31
650.925	219.31
651.13	213.31
651.334	199.31
651.539	201.31
651.743	201.31
651.947	185.31
652.152	185.31
652.356	181.31
652.56	175.31
652.764	179.31
652.969	163.31
653.173	181.31
653.377	173.31
653.581	156.31
653.785	148.31
653.99	149.31
654.194	158.31
654.398	160.31
654.602	159.31
654.806	156.31
655.01	155.31
655.214	152.31
655.418	161.31
655.622	160.31
655.826	149.31
656.03	141.31
656.234	150.31
656.438	156.31
656.642	155.31
656.846	155.31
657.049	144.31
657.253	135.31
657.457	136.31
657.661	137.31
657.865	122.31
658.068	118.31
658.272	131.31
658.476	125.31
658.68	104.31
658.883	106.31
659.087	108.31
659.291	125.31
659.494	107.31
659.698	113.31
659.901	103.31
660.105	104.31
660.309	99.31
660.512	122.31
660.716	94.31
660.919	87.31
661.123	110.31
661.326	100.31
661.53	90.31
661.733	99.31
661.936	93.31
662.14	99.31
662.343	91.31
662.546	86.31
662.75	95.31
662.953	80.31
663.156	84.31
663.36	80.31
663.563	80.31
663.766	88.31
663.969	85.31
664.173	85.31
664.376	89.31
664.579	88.31
664.782	74.31
664.985	84.31
665.188	91.31
665.391	91.31
665.594	78.31
665.797	90.31
666	93.31
666.203	92.31
666.406	91.31
666.609	72.31
666.812	87.31
667.015	78.31
667.218	91.31
667.421	72.31
667.624	71.31
667.827	95.31
668.03	96.31
668.232	91.31
668.435	79.31
668.638	86.31
668.841	98.31
669.043	78.31
669.246	92.31
669.449	91.31
669.651	85.31
669.854	70.31
670.057	87.31
670.259	96.31
670.462	84.31
670.665	83.31
670.867	90.31
671.07	70.31
671.272	91.31
671.475	93.31
671.677	90.31
671.88	76.31
672.082	87.31
672.284	90.31
672.487	87.31
672.689	84.31
672.892	77.31
