Data from NiCl2@0.5M.TitratingCurve.Agarose3%dH2O.NegLispCup.LampEnergy10.LIBS07252019_HRD10591_18-19-19-571.txt Node
Date: Thu Jul 25 18:19:19 EDT 2019
User: cochatt
Spectrometer: HR+D1059
Trigger mode: 1
Integration Time (sec): 1.000000E-1
Scans to average: 1
Electric dark correction enabled: true
Nonlinearity correction enabled: false
Boxcar width: 0
XAxis mode: Wavelengths
Number of Pixels in Spectrum: 2048
>>>>>Begin Spectral Data<<<<<
223.165	-22.75
223.4	-22.75
223.635	-22.75
223.869	-24.75
224.104	-17.75
224.338	-5.75
224.573	-10.75
224.808	-0.75
225.042	-11.75
225.277	-6.75
225.511	-6.75
225.746	1.25
225.98	3.25
226.215	8.25
226.449	12.25
226.683	29.25
226.918	22.25
227.152	31.25
227.387	32.25
227.621	26.25
227.856	34.25
228.09	42.25
228.324	62.25
228.559	71.25
228.793	70.25
229.027	111.25
229.262	122.25
229.496	108.25
229.73	121.25
229.964	116.25
230.199	135.25
230.433	142.25
230.667	117.25
230.901	132.25
231.136	123.25
231.37	126.25
231.604	153.25
231.838	141.25
232.072	157.25
232.306	164.25
232.541	144.25
232.775	138.25
233.009	141.25
233.243	138.25
233.477	130.25
233.711	151.25
233.945	140.25
234.179	156.25
234.413	147.25
234.647	128.25
234.881	138.25
235.115	136.25
235.349	135.25
235.583	143.25
235.817	140.25
236.051	138.25
236.285	142.25
236.519	136.25
236.753	144.25
236.987	163.25
237.221	152.25
237.455	162.25
237.689	141.25
237.922	144.25
238.156	144.25
238.39	139.25
238.624	155.25
238.858	159.25
239.091	172.25
239.325	161.25
239.559	145.25
239.793	195.25
240.027	154.25
240.26	152.25
240.494	165.25
240.728	164.25
240.961	162.25
241.195	182.25
241.429	176.25
241.662	181.25
241.896	186.25
242.13	160.25
242.363	182.25
242.597	176.25
242.83	169.25
243.064	178.25
243.298	192.25
243.531	184.25
243.765	171.25
243.998	192.25
244.232	182.25
244.465	194.25
244.699	200.25
244.932	203.25
245.166	189.25
245.399	191.25
245.633	191.25
245.866	196.25
246.099	200.25
246.333	201.25
246.566	210.25
246.8	200.25
247.033	203.25
247.266	200.25
247.5	206.25
247.733	206.25
247.966	199.25
248.2	211.25
248.433	214.25
248.666	223.25
248.899	219.25
249.133	191.25
249.366	214.25
249.599	226.25
249.832	222.25
250.066	226.25
250.299	231.25
250.532	224.25
250.765	238.25
250.998	239.25
251.231	231.25
251.465	239.25
251.698	239.25
251.931	227.25
252.164	249.25
252.397	229.25
252.63	234.25
252.863	249.25
253.096	247.25
253.329	255.25
253.562	243.25
253.795	247.25
254.028	235.25
254.261	243.25
254.494	247.25
254.727	248.25
254.96	242.25
255.193	250.25
255.426	253.25
255.659	255.25
255.892	262.25
256.124	258.25
256.357	275.25
256.59	256.25
256.823	260.25
257.056	285.25
257.289	274.25
257.521	260.25
257.754	270.25
257.987	263.25
258.22	277.25
258.452	283.25
258.685	275.25
258.918	285.25
259.151	273.25
259.383	283.25
259.616	281.25
259.849	272.25
260.081	286.25
260.314	285.25
260.547	284.25
260.779	298.25
261.012	289.25
261.244	293.25
261.477	303.25
261.71	315.25
261.942	296.25
262.175	288.25
262.407	292.25
262.64	287.25
262.872	303.25
263.105	310.25
263.337	299.25
263.57	298.25
263.802	301.25
264.035	334.25
264.267	302.25
264.499	303.25
264.732	300.25
264.964	312.25
265.197	296.25
265.429	311.25
265.661	315.25
265.894	316.25
266.126	333.25
266.358	317.25
266.591	310.25
266.823	335.25
267.055	319.25
267.287	335.25
267.52	328.25
267.752	334.25
267.984	332.25
268.216	351.25
268.448	333.25
268.681	331.25
268.913	328.25
269.145	336.25
269.377	342.25
269.609	326.25
269.841	347.25
270.073	341.25
270.306	345.25
270.538	345.25
270.77	341.25
271.002	346.25
271.234	334.25
271.466	356.25
271.698	334.25
271.93	347.25
272.162	355.25
272.394	359.25
272.626	366.25
272.858	351.25
273.09	364.25
273.322	358.25
273.553	375.25
273.785	376.25
274.017	385.25
274.249	364.25
274.481	364.25
274.713	361.25
274.945	378.25
275.176	364.25
275.408	376.25
275.64	391.25
275.872	370.25
276.104	393.25
276.335	372.25
276.567	379.25
276.799	372.25
277.031	373.25
277.262	371.25
277.494	405.25
277.726	380.25
277.957	398.25
278.189	394.25
278.421	381.25
278.652	379.25
278.884	397.25
279.115	390.25
279.347	405.25
279.579	418.25
279.81	395.25
280.042	400.25
280.273	393.25
280.505	418.25
280.736	397.25
280.968	416.25
281.199	425.25
281.431	413.25
281.662	436.25
281.894	406.25
282.125	443.25
282.356	423.25
282.588	413.25
282.819	432.25
283.051	427.25
283.282	418.25
283.513	426.25
283.745	425.25
283.976	431.25
284.207	436.25
284.439	442.25
284.67	430.25
284.901	450.25
285.132	440.25
285.364	447.25
285.595	435.25
285.826	444.25
286.057	429.25
286.288	450.25
286.52	454.25
286.751	454.25
286.982	451.25
287.213	460.25
287.444	454.25
287.675	461.25
287.906	451.25
288.138	460.25
288.369	471.25
288.6	460.25
288.831	470.25
289.062	450.25
289.293	471.25
289.524	450.25
289.755	444.25
289.986	469.25
290.217	464.25
290.448	464.25
290.679	464.25
290.91	504.25
291.141	448.25
291.371	491.25
291.602	466.25
291.833	462.25
292.064	470.25
292.295	469.25
292.526	458.25
292.757	472.25
292.987	485.25
293.218	459.25
293.449	486.25
293.68	483.25
293.91	486.25
294.141	471.25
294.372	465.25
294.603	479.25
294.833	472.25
295.064	478.25
295.295	495.25
295.525	487.25
295.756	483.25
295.987	486.25
296.217	490.25
296.448	507.25
296.679	494.25
296.909	514.25
297.14	511.25
297.37	491.25
297.601	516.25
297.831	521.25
298.062	486.25
298.292	524.25
298.523	532.25
298.753	523.25
298.984	534.25
299.214	514.25
299.445	546.25
299.675	539.25
299.905	537.25
300.136	521.25
300.366	539.25
300.597	555.25
300.827	551.25
301.057	526.25
301.288	537.25
301.518	571.25
301.748	563.25
301.979	552.25
302.209	551.25
302.439	537.25
302.669	554.25
302.9	547.25
303.13	549.25
303.36	545.25
303.59	542.25
303.82	552.25
304.051	556.25
304.281	553.25
304.511	557.25
304.741	549.25
304.971	571.25
305.201	554.25
305.431	579.25
305.661	568.25
305.891	550.25
306.121	563.25
306.352	556.25
306.582	539.25
306.812	535.25
307.042	550.25
307.272	562.25
307.502	531.25
307.731	538.25
307.961	560.25
308.191	547.25
308.421	547.25
308.651	536.25
308.881	528.25
309.111	534.25
309.341	512.25
309.571	576.25
309.8	539.25
310.03	579.25
310.26	566.25
310.49	579.25
310.72	550.25
310.949	568.25
311.179	547.25
311.409	575.25
311.639	565.25
311.868	594.25
312.098	562.25
312.328	579.25
312.557	579.25
312.787	587.25
313.017	570.25
313.246	582.25
313.476	601.25
313.706	605.25
313.935	575.25
314.165	588.25
314.394	593.25
314.624	593.25
314.853	570.25
315.083	590.25
315.312	589.25
315.542	595.25
315.771	591.25
316.001	579.25
316.23	579.25
316.46	581.25
316.689	567.25
316.919	589.25
317.148	592.25
317.377	611.25
317.607	596.25
317.836	589.25
318.065	580.25
318.295	583.25
318.524	592.25
318.753	603.25
318.983	586.25
319.212	590.25
319.441	585.25
319.67	571.25
319.9	581.25
320.129	600.25
320.358	580.25
320.587	581.25
320.816	582.25
321.046	590.25
321.275	598.25
321.504	578.25
321.733	591.25
321.962	605.25
322.191	589.25
322.42	572.25
322.649	604.25
322.878	619.25
323.108	595.25
323.337	628.25
323.566	631.25
323.795	630.25
324.024	580.25
324.253	598.25
324.482	605.25
324.71	610.25
324.939	623.25
325.168	616.25
325.397	613.25
325.626	636.25
325.855	632.25
326.084	627.25
326.313	633.25
326.542	627.25
326.77	639.25
326.999	655.25
327.228	641.25
327.457	637.25
327.686	647.25
327.914	635.25
328.143	645.25
328.372	634.25
328.6	635.25
328.829	639.25
329.058	640.25
329.287	637.25
329.515	631.25
329.744	637.25
329.972	643.25
330.201	634.25
330.43	633.25
330.658	646.25
330.887	662.25
331.115	660.25
331.344	661.25
331.572	668.25
331.801	683.25
332.03	687.25
332.258	679.25
332.486	700.25
332.715	746.25
332.943	743.25
333.172	763.25
333.4	772.25
333.629	763.25
333.857	793.25
334.085	795.25
334.314	789.25
334.542	794.25
334.771	781.25
334.999	783.25
335.227	792.25
335.455	783.25
335.684	768.25
335.912	785.25
336.14	745.25
336.369	757.25
336.597	783.25
336.825	761.25
337.053	792.25
337.281	770.25
337.51	760.25
337.738	736.25
337.966	724.25
338.194	733.25
338.422	720.25
338.65	693.25
338.878	702.25
339.106	707.25
339.334	716.25
339.562	703.25
339.79	680.25
340.018	683.25
340.246	678.25
340.474	684.25
340.702	663.25
340.93	694.25
341.158	678.25
341.386	725.25
341.614	714.25
341.842	711.25
342.07	679.25
342.298	699.25
342.526	677.25
342.754	659.25
342.981	684.25
343.209	680.25
343.437	723.25
343.665	736.25
343.893	739.25
344.12	787.25
344.348	759.25
344.576	726.25
344.804	727.25
345.031	717.25
345.259	694.25
345.487	677.25
345.714	691.25
345.942	688.25
346.17	711.25
346.397	703.25
346.625	686.25
346.853	634.25
347.08	672.25
347.308	648.25
347.535	668.25
347.763	639.25
347.99	652.25
348.218	663.25
348.445	649.25
348.673	670.25
348.9	650.25
349.128	651.25
349.355	651.25
349.583	691.25
349.81	639.25
350.037	633.25
350.265	635.25
350.492	635.25
350.72	629.25
350.947	644.25
351.174	650.25
351.402	650.25
351.629	637.25
351.856	663.25
352.083	638.25
352.311	632.25
352.538	652.25
352.765	665.25
352.992	607.25
353.22	607.25
353.447	589.25
353.674	614.25
353.901	580.25
354.128	620.25
354.355	614.25
354.583	602.25
354.81	627.25
355.037	638.25
355.264	595.25
355.491	614.25
355.718	610.25
355.945	608.25
356.172	596.25
356.399	620.25
356.626	643.25
356.853	644.25
357.08	646.25
357.307	607.25
357.534	611.25
357.761	637.25
357.988	615.25
358.215	610.25
358.441	603.25
358.668	608.25
358.895	607.25
359.122	634.25
359.349	608.25
359.576	614.25
359.802	607.25
360.029	616.25
360.256	607.25
360.483	629.25
360.709	605.25
360.936	633.25
361.163	649.25
361.39	620.25
361.616	619.25
361.843	635.25
362.07	663.25
362.296	627.25
362.523	602.25
362.749	614.25
362.976	593.25
363.203	591.25
363.429	595.25
363.656	600.25
363.882	603.25
364.109	589.25
364.335	620.25
364.562	597.25
364.788	613.25
365.015	604.25
365.241	599.25
365.468	606.25
365.694	572.25
365.92	629.25
366.147	617.25
366.373	614.25
366.599	596.25
366.826	613.25
367.052	605.25
367.278	621.25
367.505	613.25
367.731	622.25
367.957	612.25
368.184	627.25
368.41	609.25
368.636	613.25
368.862	618.25
369.089	618.25
369.315	626.25
369.541	629.25
369.767	632.25
369.993	629.25
370.219	648.25
370.445	615.25
370.672	642.25
370.898	642.25
371.124	634.25
371.35	644.25
371.576	656.25
371.802	645.25
372.028	675.25
372.254	639.25
372.48	679.25
372.706	679.25
372.932	662.25
373.158	640.25
373.384	667.25
373.61	658.25
373.835	662.25
374.061	658.25
374.287	651.25
374.513	662.25
374.739	672.25
374.965	699.25
375.191	679.25
375.416	684.25
375.642	675.25
375.868	685.25
376.094	675.25
376.319	670.25
376.545	652.25
376.771	640.25
376.997	669.25
377.222	647.25
377.448	621.25
377.674	640.25
377.899	628.25
378.125	634.25
378.35	656.25
378.576	638.25
378.802	631.25
379.027	630.25
379.253	616.25
379.478	615.25
379.704	652.25
379.929	632.25
380.155	652.25
380.38	632.25
380.606	658.25
380.831	617.25
381.057	648.25
381.282	629.25
381.507	606.25
381.733	652.25
381.958	646.25
382.184	644.25
382.409	626.25
382.634	652.25
382.86	667.25
383.085	654.25
383.31	688.25
383.535	670.25
383.761	681.25
383.986	680.25
384.211	696.25
384.436	703.25
384.662	705.25
384.887	702.25
385.112	747.25
385.337	732.25
385.562	731.25
385.787	763.25
386.013	749.25
386.238	747.25
386.463	747.25
386.688	746.25
386.913	729.25
387.138	744.25
387.363	734.25
387.588	728.25
387.813	735.25
388.038	743.25
388.263	741.25
388.488	743.25
388.713	713.25
388.938	730.25
389.163	706.25
389.387	738.25
389.612	724.25
389.837	734.25
390.062	723.25
390.287	739.25
390.512	739.25
390.736	724.25
390.961	735.25
391.186	771.25
391.411	806.25
391.636	800.25
391.86	804.25
392.085	838.25
392.31	811.25
392.534	818.25
392.759	797.25
392.984	775.25
393.208	782.25
393.433	798.25
393.658	775.25
393.882	771.25
394.107	772.25
394.331	771.25
394.556	770.25
394.78	794.25
395.005	779.25
395.229	804.25
395.454	819.25
395.678	793.25
395.903	809.25
396.127	815.25
396.352	836.25
396.576	803.25
396.801	788.25
397.025	802.25
397.249	819.25
397.474	828.25
397.698	819.25
397.922	856.25
398.147	824.25
398.371	867.25
398.595	898.25
398.82	927.25
399.044	962.25
399.268	1061.25
399.492	1133.25
399.717	1221.25
399.941	1234.25
400.165	1146.25
400.389	1079.25
400.613	1008.25
400.837	989.25
401.062	954.25
401.286	938.25
401.51	932.25
401.734	903.25
401.958	899.25
402.182	911.25
402.406	941.25
402.63	953.25
402.854	975.25
403.078	930.25
403.302	970.25
403.526	984.25
403.75	990.25
403.974	1003.25
404.198	1008.25
404.422	1016.25
404.645	987.25
404.869	982.25
405.093	1002.25
405.317	983.25
405.541	1002.25
405.765	1019.25
405.988	979.25
406.212	1012.25
406.436	988.25
406.66	1010.25
406.883	1046.25
407.107	1106.25
407.331	1072.25
407.555	1144.25
407.778	1153.25
408.002	1100.25
408.226	1110.25
408.449	1073.25
408.673	1035.25
408.896	1030.25
409.12	1026.25
409.344	1049.25
409.567	1058.25
409.791	1070.25
410.014	1009.25
410.238	1018.25
410.461	1033.25
410.685	1005.25
410.908	986.25
411.132	997.25
411.355	989.25
411.578	1008.25
411.802	970.25
412.025	990.25
412.249	967.25
412.472	993.25
412.695	953.25
412.919	941.25
413.142	924.25
413.365	951.25
413.589	950.25
413.812	919.25
414.035	929.25
414.258	946.25
414.482	951.25
414.705	966.25
414.928	938.25
415.151	930.25
415.374	930.25
415.597	927.25
415.821	928.25
416.044	884.25
416.267	938.25
416.49	922.25
416.713	913.25
416.936	906.25
417.159	928.25
417.382	902.25
417.605	921.25
417.828	927.25
418.051	916.25
418.274	904.25
418.497	929.25
418.72	931.25
418.943	948.25
419.166	1000.25
419.389	1039.25
419.611	1054.25
419.834	995.25
420.057	958.25
420.28	937.25
420.503	906.25
420.726	916.25
420.948	921.25
421.171	942.25
421.394	934.25
421.617	905.25
421.839	907.25
422.062	924.25
422.285	924.25
422.507	969.25
422.73	950.25
422.953	940.25
423.175	941.25
423.398	932.25
423.621	962.25
423.843	967.25
424.066	972.25
424.288	987.25
424.511	947.25
424.733	942.25
424.956	958.25
425.178	952.25
425.401	933.25
425.623	924.25
425.846	912.25
426.068	903.25
426.291	902.25
426.513	918.25
426.735	920.25
426.958	908.25
427.18	876.25
427.402	865.25
427.625	875.25
427.847	852.25
428.069	869.25
428.292	858.25
428.514	854.25
428.736	841.25
428.958	898.25
429.181	834.25
429.403	855.25
429.625	876.25
429.847	852.25
430.069	850.25
430.292	872.25
430.514	865.25
430.736	848.25
430.958	888.25
431.18	871.25
431.402	869.25
431.624	858.25
431.846	857.25
432.068	872.25
432.29	867.25
432.512	854.25
432.734	846.25
432.956	872.25
433.178	886.25
433.4	898.25
433.622	903.25
433.844	910.25
434.066	900.25
434.287	928.25
434.509	918.25
434.731	965.25
434.953	969.25
435.175	975.25
435.397	955.25
435.618	898.25
435.84	891.25
436.062	908.25
436.284	893.25
436.505	878.25
436.727	890.25
436.949	871.25
437.17	876.25
437.392	866.25
437.614	855.25
437.835	852.25
438.057	860.25
438.278	858.25
438.5	845.25
438.721	828.25
438.943	883.25
439.165	869.25
439.386	870.25
439.608	885.25
439.829	894.25
440.05	867.25
440.272	879.25
440.493	921.25
440.715	892.25
440.936	908.25
441.158	905.25
441.379	952.25
441.6	944.25
441.822	937.25
442.043	948.25
442.264	944.25
442.486	921.25
442.707	951.25
442.928	958.25
443.149	978.25
443.371	936.25
443.592	963.25
443.813	968.25
444.034	967.25
444.255	994.25
444.476	1043.25
444.698	1090.25
444.919	1069.25
445.14	1222.25
445.361	1084.25
445.582	1010.25
445.803	975.25
446.024	948.25
446.245	936.25
446.466	911.25
446.687	906.25
446.908	922.25
447.129	873.25
447.35	894.25
447.571	877.25
447.792	852.25
448.013	854.25
448.234	860.25
448.455	835.25
448.675	824.25
448.896	827.25
449.117	847.25
449.338	833.25
449.559	856.25
449.779	825.25
450	831.25
450.221	827.25
450.442	854.25
450.662	846.25
450.883	863.25
451.104	869.25
451.324	852.25
451.545	848.25
451.766	844.25
451.986	817.25
452.207	812.25
452.428	840.25
452.648	805.25
452.869	790.25
453.089	801.25
453.31	816.25
453.53	800.25
453.751	804.25
453.971	795.25
454.192	784.25
454.412	794.25
454.633	779.25
454.853	790.25
455.073	770.25
455.294	797.25
455.514	785.25
455.734	813.25
455.955	772.25
456.175	813.25
456.395	791.25
456.616	782.25
456.836	795.25
457.056	797.25
457.276	766.25
457.497	803.25
457.717	808.25
457.937	796.25
458.157	818.25
458.377	798.25
458.598	821.25
458.818	852.25
459.038	869.25
459.258	845.25
459.478	913.25
459.698	902.25
459.918	952.25
460.138	987.25
460.358	1004.25
460.578	1011.25
460.798	1024.25
461.018	1062.25
461.238	1038.25
461.458	1036.25
461.678	1020.25
461.898	1033.25
462.118	1044.25
462.338	1070.25
462.558	1084.25
462.777	1149.25
462.997	1206.25
463.217	1231.25
463.437	1268.25
463.657	1204.25
463.876	1157.25
464.096	1156.25
464.316	1182.25
464.536	1158.25
464.755	1128.25
464.975	1081.25
465.195	1076.25
465.414	988.25
465.634	971.25
465.854	965.25
466.073	926.25
466.293	910.25
466.512	917.25
466.732	892.25
466.951	895.25
467.171	880.25
467.391	880.25
467.61	854.25
467.829	860.25
468.049	846.25
468.268	861.25
468.488	842.25
468.707	847.25
468.927	837.25
469.146	838.25
469.365	838.25
469.585	851.25
469.804	890.25
470.023	900.25
470.243	934.25
470.462	908.25
470.681	887.25
470.901	884.25
471.12	912.25
471.339	876.25
471.558	895.25
471.777	899.25
471.997	847.25
472.216	858.25
472.435	845.25
472.654	835.25
472.873	839.25
473.092	837.25
473.311	820.25
473.53	850.25
473.749	855.25
473.968	822.25
474.187	847.25
474.406	836.25
474.625	826.25
474.844	855.25
475.063	842.25
475.282	841.25
475.501	856.25
475.72	861.25
475.939	834.25
476.158	837.25
476.377	886.25
476.596	874.25
476.814	898.25
477.033	877.25
477.252	902.25
477.471	900.25
477.69	934.25
477.908	949.25
478.127	969.25
478.346	979.25
478.564	971.25
478.783	991.25
479.002	1037.25
479.22	1045.25
479.439	1067.25
479.658	1013.25
479.876	993.25
480.095	1030.25
480.313	1054.25
480.532	1078.25
480.751	1058.25
480.969	1031.25
481.188	1030.25
481.406	1003.25
481.624	992.25
481.843	983.25
482.061	950.25
482.28	969.25
482.498	948.25
482.717	936.25
482.935	956.25
483.153	954.25
483.372	994.25
483.59	1000.25
483.808	986.25
484.027	985.25
484.245	965.25
484.463	976.25
484.681	998.25
484.9	1012.25
485.118	1042.25
485.336	1006.25
485.554	1001.25
485.772	1004.25
485.99	991.25
486.209	1007.25
486.427	994.25
486.645	999.25
486.863	1031.25
487.081	1005.25
487.299	1004.25
487.517	1027.25
487.735	1006.25
487.953	1051.25
488.171	1034.25
488.389	991.25
488.607	1004.25
488.825	984.25
489.043	973.25
489.261	976.25
489.479	999.25
489.696	1006.25
489.914	997.25
490.132	991.25
490.35	1026.25
490.568	1026.25
490.786	1029.25
491.003	1020.25
491.221	1041.25
491.439	1047.25
491.657	1035.25
491.874	1059.25
492.092	1071.25
492.31	1075.25
492.527	1051.25
492.745	1107.25
492.963	1066.25
493.18	1068.25
493.398	1047.25
493.615	1093.25
493.833	1044.25
494.05	1092.25
494.268	1051.25
494.485	1091.25
494.703	1099.25
494.92	1095.25
495.138	1094.25
495.355	1102.25
495.573	1095.25
495.79	1107.25
496.008	1101.25
496.225	1124.25
496.442	1117.25
496.66	1127.25
496.877	1146.25
497.094	1175.25
497.312	1208.25
497.529	1200.25
497.746	1258.25
497.963	1254.25
498.181	1275.25
498.398	1340.25
498.615	1368.25
498.832	1480.25
499.049	1578.25
499.267	1647.25
499.484	1776.25
499.701	1889.25
499.918	2050.25
500.135	2228.25
500.352	2490.25
500.569	2523.25
500.786	2500.25
501.003	2435.25
501.22	2211.25
501.437	2026.25
501.654	1858.25
501.871	1752.25
502.088	1646.25
502.305	1538.25
502.522	1488.25
502.739	1477.25
502.956	1391.25
503.172	1307.25
503.389	1244.25
503.606	1231.25
503.823	1195.25
504.04	1206.25
504.256	1210.25
504.473	1215.25
504.69	1221.25
504.907	1183.25
505.123	1168.25
505.34	1112.25
505.557	1071.25
505.773	1063.25
505.99	1047.25
506.207	1041.25
506.423	1004.25
506.64	979.25
506.856	983.25
507.073	971.25
507.289	946.25
507.506	960.25
507.722	947.25
507.939	962.25
508.155	943.25
508.372	965.25
508.588	906.25
508.805	914.25
509.021	914.25
509.238	924.25
509.454	876.25
509.67	866.25
509.887	877.25
510.103	895.25
510.319	870.25
510.536	892.25
510.752	868.25
510.968	884.25
511.184	856.25
511.401	865.25
511.617	842.25
511.833	862.25
512.049	876.25
512.265	875.25
512.481	854.25
512.698	859.25
512.914	844.25
513.13	875.25
513.346	868.25
513.562	856.25
513.778	864.25
513.994	892.25
514.21	904.25
514.426	892.25
514.642	891.25
514.858	909.25
515.074	899.25
515.29	899.25
515.506	891.25
515.721	918.25
515.937	930.25
516.153	924.25
516.369	943.25
516.585	948.25
516.801	1010.25
517.016	1038.25
517.232	1032.25
517.448	1062.25
517.664	1108.25
517.879	1076.25
518.095	1083.25
518.311	1095.25
518.527	1001.25
518.742	997.25
518.958	1001.25
519.173	964.25
519.389	966.25
519.605	930.25
519.82	901.25
520.036	900.25
520.251	871.25
520.467	857.25
520.682	838.25
520.898	840.25
521.113	856.25
521.329	856.25
521.544	828.25
521.76	848.25
521.975	841.25
522.19	831.25
522.406	844.25
522.621	822.25
522.836	824.25
523.052	819.25
523.267	789.25
523.482	795.25
523.698	800.25
523.913	794.25
524.128	794.25
524.343	791.25
524.559	768.25
524.774	788.25
524.989	803.25
525.204	788.25
525.419	807.25
525.634	797.25
525.849	798.25
526.064	784.25
526.28	790.25
526.495	777.25
526.71	764.25
526.925	768.25
527.14	781.25
527.355	767.25
527.57	756.25
527.785	752.25
527.999	744.25
528.214	774.25
528.429	770.25
528.644	762.25
528.859	765.25
529.074	784.25
529.289	787.25
529.503	783.25
529.718	780.25
529.933	780.25
530.148	768.25
530.363	728.25
530.577	768.25
530.792	755.25
531.007	757.25
531.221	764.25
531.436	764.25
531.651	770.25
531.865	774.25
532.08	763.25
532.295	753.25
532.509	741.25
532.724	748.25
532.938	739.25
533.153	737.25
533.367	789.25
533.582	770.25
533.796	750.25
534.011	792.25
534.225	762.25
534.44	740.25
534.654	736.25
534.868	730.25
535.083	722.25
535.297	743.25
535.511	721.25
535.726	741.25
535.94	719.25
536.154	694.25
536.369	720.25
536.583	713.25
536.797	722.25
537.011	714.25
537.225	710.25
537.44	676.25
537.654	698.25
537.868	685.25
538.082	677.25
538.296	695.25
538.51	686.25
538.724	714.25
538.938	701.25
539.153	706.25
539.367	699.25
539.581	713.25
539.795	691.25
540.009	696.25
540.222	687.25
540.436	698.25
540.65	688.25
540.864	722.25
541.078	721.25
541.292	708.25
541.506	709.25
541.72	696.25
541.934	673.25
542.147	699.25
542.361	715.25
542.575	695.25
542.789	689.25
543.002	708.25
543.216	685.25
543.43	695.25
543.644	687.25
543.857	696.25
544.071	707.25
544.285	701.25
544.498	667.25
544.712	724.25
544.925	696.25
545.139	709.25
545.352	720.25
545.566	697.25
545.779	691.25
545.993	719.25
546.206	708.25
546.42	680.25
546.633	691.25
546.847	695.25
547.06	704.25
547.274	694.25
547.487	719.25
547.7	708.25
547.914	728.25
548.127	714.25
548.34	717.25
548.554	701.25
548.767	695.25
548.98	716.25
549.193	723.25
549.407	729.25
549.62	706.25
549.833	708.25
550.046	711.25
550.259	703.25
550.473	691.25
550.686	709.25
550.899	689.25
551.112	664.25
551.325	675.25
551.538	674.25
551.751	692.25
551.964	679.25
552.177	698.25
552.39	678.25
552.603	721.25
552.816	718.25
553.029	740.25
553.242	751.25
553.455	743.25
553.667	761.25
553.88	722.25
554.093	702.25
554.306	729.25
554.519	703.25
554.732	675.25
554.944	663.25
555.157	687.25
555.37	698.25
555.583	673.25
555.795	635.25
556.008	655.25
556.221	657.25
556.433	617.25
556.646	616.25
556.859	614.25
557.071	595.25
557.284	611.25
557.496	606.25
557.709	610.25
557.921	578.25
558.134	614.25
558.346	606.25
558.559	586.25
558.771	594.25
558.984	590.25
559.196	589.25
559.409	593.25
559.621	589.25
559.833	591.25
560.046	596.25
560.258	587.25
560.47	585.25
560.683	591.25
560.895	578.25
561.107	580.25
561.32	564.25
561.532	591.25
561.744	589.25
561.956	583.25
562.168	577.25
562.381	610.25
562.593	596.25
562.805	592.25
563.017	591.25
563.229	594.25
563.441	582.25
563.653	592.25
563.865	585.25
564.077	592.25
564.289	596.25
564.501	627.25
564.713	612.25
564.925	626.25
565.137	620.25
565.349	638.25
565.561	656.25
565.773	644.25
565.985	695.25
566.197	726.25
566.408	760.25
566.62	796.25
566.832	811.25
567.044	843.25
567.255	841.25
567.467	861.25
567.679	866.25
567.891	889.25
568.102	913.25
568.314	865.25
568.526	803.25
568.737	749.25
568.949	715.25
569.161	695.25
569.372	644.25
569.584	617.25
569.795	624.25
570.007	607.25
570.218	596.25
570.43	596.25
570.641	592.25
570.853	574.25
571.064	572.25
571.276	588.25
571.487	569.25
571.698	564.25
571.91	529.25
572.121	520.25
572.333	516.25
572.544	518.25
572.755	498.25
572.966	499.25
573.178	488.25
573.389	477.25
573.6	487.25
573.811	487.25
574.023	485.25
574.234	486.25
574.445	467.25
574.656	465.25
574.867	470.25
575.078	456.25
575.289	454.25
575.501	474.25
575.712	446.25
575.923	452.25
576.134	450.25
576.345	456.25
576.556	456.25
576.767	423.25
576.978	470.25
577.188	463.25
577.399	431.25
577.61	438.25
577.821	432.25
578.032	434.25
578.243	429.25
578.454	431.25
578.665	440.25
578.875	429.25
579.086	418.25
579.297	422.25
579.508	429.25
579.718	428.25
579.929	409.25
580.14	410.25
580.35	411.25
580.561	414.25
580.772	421.25
580.982	416.25
581.193	404.25
581.403	403.25
581.614	414.25
581.825	391.25
582.035	425.25
582.246	407.25
582.456	391.25
582.667	407.25
582.877	398.25
583.087	395.25
583.298	408.25
583.508	382.25
583.719	404.25
583.929	412.25
584.139	404.25
584.35	389.25
584.56	387.25
584.77	390.25
584.981	402.25
585.191	402.25
585.401	395.25
585.611	381.25
585.821	403.25
586.032	398.25
586.242	405.25
586.452	384.25
586.662	382.25
586.872	382.25
587.082	382.25
587.292	381.25
587.502	367.25
587.713	392.25
587.923	390.25
588.133	390.25
588.343	394.25
588.553	396.25
588.762	410.25
588.972	385.25
589.182	442.25
589.392	418.25
589.602	409.25
589.812	432.25
590.022	407.25
590.232	383.25
590.441	376.25
590.651	373.25
590.861	380.25
591.071	381.25
591.281	384.25
591.49	403.25
591.7	379.25
591.91	384.25
592.119	413.25
592.329	406.25
592.539	431.25
592.748	427.25
592.958	422.25
593.167	445.25
593.377	441.25
593.587	436.25
593.796	456.25
594.006	426.25
594.215	429.25
594.424	460.25
594.634	453.25
594.843	438.25
595.053	420.25
595.262	410.25
595.472	390.25
595.681	399.25
595.89	380.25
596.1	396.25
596.309	361.25
596.518	398.25
596.727	353.25
596.937	347.25
597.146	350.25
597.355	355.25
597.564	347.25
597.774	343.25
597.983	335.25
598.192	339.25
598.401	346.25
598.61	352.25
598.819	318.25
599.028	339.25
599.237	329.25
599.446	326.25
599.655	347.25
599.864	334.25
600.073	327.25
600.282	294.25
600.491	335.25
600.7	335.25
600.909	309.25
601.118	335.25
601.327	297.25
601.536	321.25
601.745	303.25
601.953	307.25
602.162	295.25
602.371	301.25
602.58	316.25
602.789	322.25
602.997	308.25
603.206	295.25
603.415	322.25
603.623	330.25
603.832	303.25
604.041	326.25
604.249	304.25
604.458	302.25
604.666	291.25
604.875	298.25
605.084	295.25
605.292	324.25
605.501	318.25
605.709	310.25
605.918	296.25
606.126	308.25
606.334	308.25
606.543	324.25
606.751	319.25
606.96	303.25
607.168	295.25
607.376	310.25
607.585	288.25
607.793	302.25
608.001	295.25
608.21	280.25
608.418	287.25
608.626	285.25
608.834	290.25
609.043	294.25
609.251	287.25
609.459	310.25
609.667	288.25
609.875	288.25
610.083	292.25
610.291	282.25
610.499	264.25
610.707	286.25
610.916	276.25
611.124	294.25
611.332	286.25
611.54	272.25
611.748	271.25
611.955	272.25
612.163	264.25
612.371	296.25
612.579	290.25
612.787	280.25
612.995	304.25
613.203	293.25
613.411	290.25
613.618	294.25
613.826	283.25
614.034	272.25
614.242	282.25
614.449	275.25
614.657	293.25
614.865	277.25
615.072	264.25
615.28	273.25
615.488	286.25
615.695	272.25
615.903	275.25
616.111	277.25
616.318	302.25
616.526	294.25
616.733	280.25
616.941	249.25
617.148	263.25
617.356	282.25
617.563	279.25
617.771	269.25
617.978	283.25
618.185	270.25
618.393	273.25
618.6	274.25
618.807	263.25
619.015	268.25
619.222	254.25
619.429	262.25
619.637	266.25
619.844	267.25
620.051	274.25
620.258	261.25
620.466	239.25
620.673	247.25
620.88	264.25
621.087	264.25
621.294	270.25
621.501	247.25
621.708	258.25
621.915	256.25
622.122	266.25
622.329	259.25
622.536	270.25
622.743	259.25
622.95	271.25
623.157	245.25
623.364	261.25
623.571	244.25
623.778	226.25
623.985	258.25
624.192	253.25
624.399	229.25
624.606	262.25
624.812	244.25
625.019	254.25
625.226	244.25
625.433	258.25
625.639	253.25
625.846	228.25
626.053	226.25
626.259	231.25
626.466	231.25
626.673	245.25
626.879	227.25
627.086	239.25
627.293	232.25
627.499	243.25
627.706	222.25
627.912	239.25
628.119	237.25
628.325	239.25
628.532	227.25
628.738	254.25
628.945	248.25
629.151	241.25
629.357	229.25
629.564	230.25
629.77	230.25
629.976	238.25
630.183	215.25
630.389	215.25
630.595	225.25
630.802	231.25
631.008	221.25
631.214	229.25
631.42	225.25
631.627	222.25
631.833	230.25
632.039	203.25
632.245	206.25
632.451	187.25
632.657	232.25
632.863	219.25
633.069	223.25
633.275	215.25
633.481	216.25
633.688	220.25
633.893	188.25
634.099	189.25
634.305	212.25
634.511	203.25
634.717	210.25
634.923	201.25
635.129	201.25
635.335	226.25
635.541	209.25
635.747	197.25
635.952	193.25
636.158	204.25
636.364	206.25
636.57	202.25
636.775	188.25
636.981	201.25
637.187	220.25
637.392	198.25
637.598	191.25
637.804	208.25
638.009	197.25
638.215	211.25
638.421	199.25
638.626	200.25
638.832	190.25
639.037	193.25
639.243	182.25
639.448	178.25
639.654	206.25
639.859	191.25
640.065	207.25
640.27	208.25
640.475	191.25
640.681	191.25
640.886	198.25
641.091	185.25
641.297	198.25
641.502	194.25
641.707	199.25
641.913	201.25
642.118	203.25
642.323	192.25
642.528	207.25
642.733	202.25
642.939	195.25
643.144	194.25
643.349	203.25
643.554	192.25
643.759	200.25
643.964	179.25
644.169	197.25
644.374	194.25
644.579	188.25
644.784	182.25
644.989	197.25
645.194	179.25
645.399	199.25
645.604	192.25
645.809	196.25
646.014	206.25
646.219	203.25
646.423	173.25
646.628	197.25
646.833	195.25
647.038	184.25
647.243	203.25
647.447	199.25
647.652	206.25
647.857	193.25
648.062	190.25
648.266	179.25
648.471	195.25
648.676	208.25
648.88	196.25
649.085	184.25
649.289	190.25
649.494	183.25
649.698	185.25
649.903	178.25
650.107	198.25
650.312	185.25
650.516	175.25
650.721	180.25
650.925	188.25
651.13	174.25
651.334	189.25
651.539	162.25
651.743	168.25
651.947	179.25
652.152	166.25
652.356	159.25
652.56	159.25
652.764	157.25
652.969	166.25
653.173	175.25
653.377	160.25
653.581	145.25
653.785	145.25
653.99	151.25
654.194	159.25
654.398	159.25
654.602	169.25
654.806	146.25
655.01	154.25
655.214	140.25
655.418	146.25
655.622	148.25
655.826	137.25
656.03	146.25
656.234	164.25
656.438	138.25
656.642	142.25
656.846	152.25
657.049	138.25
657.253	125.25
657.457	130.25
657.661	119.25
657.865	132.25
658.068	125.25
658.272	127.25
658.476	117.25
658.68	126.25
658.883	117.25
659.087	106.25
659.291	100.25
659.494	114.25
659.698	124.25
659.901	107.25
660.105	107.25
660.309	110.25
660.512	108.25
660.716	129.25
660.919	109.25
661.123	106.25
661.326	89.25
661.53	97.25
661.733	89.25
661.936	102.25
662.14	91.25
662.343	87.25
662.546	91.25
662.75	101.25
662.953	106.25
663.156	96.25
663.36	104.25
663.563	78.25
663.766	87.25
663.969	82.25
664.173	95.25
664.376	81.25
664.579	72.25
664.782	98.25
664.985	91.25
665.188	74.25
665.391	84.25
665.594	91.25
665.797	79.25
666	90.25
666.203	93.25
666.406	77.25
666.609	64.25
666.812	83.25
667.015	99.25
667.218	79.25
667.421	92.25
667.624	73.25
667.827	92.25
668.03	80.25
668.232	68.25
668.435	86.25
668.638	65.25
668.841	93.25
669.043	89.25
669.246	81.25
669.449	85.25
669.651	86.25
669.854	76.25
670.057	89.25
670.259	66.25
670.462	89.25
670.665	87.25
670.867	91.25
671.07	72.25
671.272	91.25
671.475	94.25
671.677	87.25
671.88	67.25
672.082	68.25
672.284	75.25
672.487	79.25
672.689	93.25
672.892	77.25
